Data from breadboard_black_back_FLMS001491_00091.txt Node
Date: Wed Feb 08 10:51:10 GMT 2017
User: dcchb
Spectrometer: FLMS00149
Trigger mode: 0
Integration Time (sec): 2.000000E-2
Scans to average: 10
Electric dark correction enabled: true
Nonlinearity correction enabled: false
Boxcar width: 0
XAxis mode: Wavelengths
Number of Pixels in Spectrum: 2048
>>>>>Begin Spectral Data<<<<<
341.393	-22.12
341.776	-22.12
342.16	-22.12
342.543	-63.92
342.927	-59.86
343.31	-72.74
343.693	-66.41
344.077	-53.08
344.46	-58.73
344.843	-42.68
345.226	-44.94
345.61	-36.58
345.993	-28.45
346.376	5.9
346.759	14.27
347.142	19.01
347.525	45.9
347.908	51.33
348.291	72.34
348.674	88.16
349.057	106.69
349.44	141.04
349.823	142.62
350.206	167.71
350.588	192.57
350.971	221.94
351.354	219.23
351.737	227.37
352.119	237.76
352.502	254.26
352.884	288.16
353.267	282.05
353.65	277.76
354.032	304.43
354.414	318.66
354.797	319.12
355.179	329.51
355.562	328.83
355.944	324.09
356.326	334.26
356.709	338.32
357.091	334.93
357.473	350.75
357.855	350.98
358.238	322.73
358.62	335.61
359.002	355.05
359.384	352.56
359.766	360.02
360.148	341.49
360.53	358.66
360.912	351.21
361.294	339
361.676	334.71
362.057	353.24
362.439	356.86
362.821	322.05
363.203	356.18
363.584	347.14
363.966	315.5
364.348	339.68
364.729	338.1
365.111	332.45
365.493	339.23
365.874	335.39
366.256	331.09
366.637	342.39
367.019	332.67
367.4	329.74
367.781	310.3
368.163	319.79
368.544	348.27
368.925	330.87
369.306	348.49
369.688	347.59
370.069	346.46
370.45	329.51
370.831	334.03
371.212	345.1
371.593	344.43
371.974	311.43
372.355	310.53
372.736	337.19
373.117	318.89
373.498	346.23
373.879	355.05
374.26	361.37
374.641	340.13
375.021	358.66
375.402	343.3
375.783	351.43
376.163	341.04
376.544	373.35
376.925	354.14
377.305	374.71
377.686	351.66
378.066	378.78
378.447	373.35
378.827	365.89
379.208	375.84
379.588	380.81
379.968	366.35
380.349	380.36
380.729	379.68
381.109	375.39
381.489	375.16
381.87	378.55
382.25	372.9
382.63	384.88
383.01	379.23
383.39	376.74
383.77	367.25
384.15	397.98
384.53	391.2
384.91	421.71
385.29	402.05
385.67	382.39
386.049	417.87
386.429	385.1
386.809	414.25
387.189	425.33
387.568	433.01
387.948	419
388.328	436.85
388.707	409.28
389.087	440.69
389.466	415.61
389.846	436.63
390.225	444.76
390.605	447.02
390.984	437.08
391.363	457.42
391.743	454.71
392.122	461.26
392.501	478.66
392.881	456.74
393.26	496.74
393.639	482.05
394.018	469.17
394.397	464.2
394.776	484.99
395.155	496.74
395.534	472.33
395.913	505.55
396.292	500.81
396.671	494.93
397.05	522.05
397.429	512.78
397.808	503.29
398.186	508.94
398.565	517.75
398.944	518.88
399.323	511.88
399.701	514.14
400.08	527.25
400.458	529.28
400.837	522.73
401.215	554.14
401.594	550.07
401.972	559.56
402.351	546.91
402.729	566.12
403.107	577.64
403.486	551.65
403.864	562.05
404.242	588.49
404.62	578.77
404.999	597.3
405.377	573.12
405.755	598.43
406.133	598.88
406.511	601.37
406.889	609.5
407.267	597.07
407.645	633.68
408.023	637.53
408.401	630.07
408.779	645.44
409.156	659.67
409.534	647.69
409.912	661.93
410.29	692.89
410.667	658.77
411.045	682.04
411.422	683.17
411.8	707.81
412.178	715.72
412.555	714.81
412.933	708.94
413.31	697.64
413.687	710.74
414.065	744.87
414.442	750.29
414.819	737.64
415.197	753
415.574	760.91
415.951	749.84
416.328	788.03
416.705	795.26
417.082	794.81
417.46	807.46
417.837	784.87
418.214	832.1
418.591	811.76
418.967	815.37
419.344	843.85
419.721	863.28
420.098	858.31
420.475	832.55
420.852	846.79
421.228	876.84
421.605	906.45
421.982	896.05
422.358	898.08
422.735	889.04
423.111	910.74
423.488	925.88
423.864	937.4
424.241	928.14
424.617	938.31
424.994	966.1
425.37	962.71
425.746	964.75
426.123	992.32
426.499	988.48
426.875	1002.94
427.251	998.87
427.627	1039.32
428.003	1033.9
428.379	1055.14
428.756	1061.92
429.132	1081.13
429.507	1083.62
429.883	1103.73
430.259	1144.18
430.635	1085.88
431.011	1138.08
431.387	1161.58
431.763	1165.65
432.138	1163.61
432.514	1187.34
432.89	1198.19
433.265	1246.1
433.641	1224.85
434.016	1253.78
434.392	1241.35
434.767	1289.71
435.143	1285.42
435.518	1300.33
435.894	1335.13
436.269	1311.63
436.644	1363.16
437.02	1371.97
437.395	1375.81
437.77	1371.97
438.145	1413.78
438.52	1400.22
438.895	1413.1
439.271	1439.31
439.646	1458.52
440.021	1470.27
440.395	1460.78
440.77	1452.87
441.145	1471.4
441.52	1539.87
441.895	1536.94
442.27	1523.83
442.645	1539.42
443.019	1524.96
443.394	1537.39
443.769	1589.59
444.143	1580.1
444.518	1600.66
444.892	1594.34
445.267	1594.56
445.641	1636.82
446.016	1593.21
446.39	1636.6
446.764	1656.71
447.139	1667.56
447.513	1656.48
447.887	1660.78
448.262	1673.66
448.636	1700.32
449.01	1741
449.384	1734.67
449.758	1744.39
450.132	1757.95
450.506	1738.06
450.88	1782.35
451.254	1771.28
451.628	1824.39
452.002	1843.37
452.376	1838.85
452.75	1859.64
453.123	1895.12
453.497	1905.74
453.871	1921.56
454.244	1965.17
454.618	1975.8
454.992	2024.61
455.365	2013.53
455.739	2043.14
456.112	2072.06
456.486	2097.6
456.859	2090.14
457.232	2138.73
457.606	2144.38
457.979	2198.84
458.352	2218.28
458.725	2224.6
459.099	2244.26
459.472	2303.24
459.845	2366.29
460.218	2343.24
460.591	2377.37
460.964	2396.58
461.337	2447.87
461.71	2481.54
462.083	2491.94
462.456	2494.65
462.829	2550.7
463.201	2546.63
463.574	2592.73
463.947	2619.85
464.32	2691.71
464.692	2725.15
465.065	2729.22
465.438	2752.95
465.81	2827.07
466.183	2812.61
466.555	2884.7
466.928	2930.57
467.3	2909.33
467.672	2971.02
468.045	3016.9
468.417	3024.36
468.789	3105.71
469.161	3125.6
469.534	3129.89
469.906	3222.09
470.278	3273.84
470.65	3293.95
471.022	3321.3
471.394	3413.95
471.766	3423.44
472.138	3468.19
472.51	3523.33
472.882	3597.9
473.253	3610.55
473.625	3707.05
473.997	3770.78
474.369	3771.23
474.74	3823.2
475.112	3934.61
475.484	3940.04
475.855	4004.67
476.227	4057.55
476.598	4168.05
476.97	4185.91
477.341	4324.89
477.713	4361.5
478.084	4412.57
478.455	4514.49
478.827	4529.4
479.198	4707.25
479.569	4673.13
479.94	4819.34
480.311	4845.32
480.682	4961.03
481.053	5083.51
481.424	5201.47
481.795	5213.45
482.166	5253.68
482.537	5369.83
482.908	5536.38
483.279	5557.4
483.65	5629.71
484.021	5676.26
484.391	5803.04
484.762	5870.61
485.133	5851.4
485.503	5969.59
485.874	6109.47
486.244	6177.49
486.615	6309.47
486.985	6386.75
487.356	6478.73
487.726	6516.24
488.097	6724.82
488.467	6701.32
488.837	6881.43
489.207	6921.43
489.578	7002.1
489.948	7085.49
490.318	7167.75
490.688	7267.18
491.058	7382.43
491.428	7468.98
491.798	7504.24
492.168	7710.56
492.538	7687.96
492.908	7780.39
493.278	7866.49
493.648	7941.97
494.017	7994.85
494.387	8132.7
494.757	8184.9
495.126	8271.45
495.496	8310.32
495.866	8387.6
496.235	8490.43
496.605	8537.2
496.974	8589.41
497.344	8667.14
497.713	8725.22
498.082	8803.41
498.452	8866.46
498.821	8951.21
499.19	8966.35
499.559	9064.65
499.928	9175.83
500.298	9288.15
500.667	9281.59
501.036	9290.86
501.405	9478.42
501.774	9395.71
502.143	9605.65
502.512	9537.18
502.88	9732.2
503.249	9625.31
503.618	9799.32
503.987	9830.73
504.356	9802.26
504.724	9928.13
505.093	10082.02
505.462	10048.35
505.83	10101.23
506.199	10237.5
506.567	10344.39
506.936	10392.75
507.304	10516.81
507.672	10506.42
508.041	10634.55
508.409	10668.9
508.777	10793.64
509.145	10930.81
509.514	10913.41
509.882	11006.74
510.25	11020.76
510.618	11067.53
510.986	11176.23
511.354	11277.47
511.722	11416.45
512.09	11500.06
512.458	11406.28
512.826	11678.59
513.193	11717.01
513.561	11708.19
513.929	11873.39
514.297	11966.49
514.664	12052.37
515.032	12048.3
515.4	12167.17
515.767	12264.56
516.135	12347.95
516.502	12219.82
516.869	12586.82
517.237	12637.89
517.604	12643.99
517.972	12759.92
518.339	12840.59
518.706	12943.19
519.073	12992
519.44	13092.34
519.808	13212.56
520.175	13247.14
520.542	13419.11
520.909	13558.77
521.276	13599.9
521.643	13680.35
522.009	13826.78
522.376	13905.88
522.743	14018.64
523.11	14238.52
523.477	14259.77
523.843	14382.02
524.21	14438.29
524.577	14674.9
524.943	14667.44
525.31	14791.96
525.676	14914.89
526.043	15034.44
526.409	15166.18
526.776	15275.78
527.142	15365.5
527.508	15558.72
527.874	15594.42
528.241	15700.86
528.607	15672.16
528.973	15867.41
529.339	15949.89
529.705	16058.59
530.071	16266.95
530.437	16299.49
530.803	16328.64
531.169	16369.54
531.535	16472.59
531.901	16585.58
532.267	16723.88
532.632	16828.51
532.998	16818.12
533.364	16874.16
533.73	16995.97
534.095	17141.5
534.461	17183.98
534.826	17354.6
535.192	17357.31
535.557	17465.33
535.923	17545.56
536.288	17607.93
536.653	17716.4
537.019	17667.13
537.384	17786
537.749	17941.03
538.114	17884.08
538.479	17990.97
538.845	18174.92
539.21	18120.46
539.575	18237.06
539.94	18275.25
540.305	18372.65
540.67	18357.51
541.034	18452.88
541.399	18536.49
541.764	18538.75
542.129	18687.45
542.494	18767.9
542.858	18701.01
543.223	18851.51
543.587	18946.87
543.952	18953.65
544.316	19144.84
544.681	19063.03
545.045	19255.34
545.41	19318.16
545.774	19378.73
546.138	19300.54
546.503	19453.53
546.867	19469.8
547.231	19616.91
547.595	19695.33
547.959	19764.25
548.324	19854.65
548.688	19778.94
549.052	20006.96
549.416	19956.11
549.779	20082.44
550.143	20103.23
550.507	20213.96
550.871	20266.84
551.235	20288.99
551.599	20407.4
551.962	20540.28
552.326	20593.61
552.689	20778.01
553.053	20787.28
553.417	20824.79
553.78	21072.47
554.143	20957.9
554.507	21131.68
554.87	21147.95
555.234	21506.58
555.597	21364.66
555.96	21425.91
556.323	21590.2
556.686	21664.77
557.05	21732.11
557.413	21763.98
557.776	21796.52
558.139	22017.75
558.502	22049.62
558.865	22106.34
559.228	22260.91
559.59	22457.06
559.953	22354.02
560.316	22655.48
560.679	22566.89
561.041	22773.67
561.404	22854.57
561.767	23019.54
562.129	23027.22
562.492	23270.6
562.854	23190.15
563.217	23272.86
563.579	23398.74
563.941	23600.99
564.304	23679.18
564.666	23759.63
565.028	23864.71
565.39	23946.07
565.753	24100.64
566.115	24143.35
566.477	24309.22
566.839	24333.85
567.201	24487.29
567.563	24440.97
567.925	24661.75
568.287	24670.79
568.648	24743.56
569.01	24859.04
569.372	25081.85
569.734	24913.27
570.095	25195.52
570.457	25386.03
570.819	25361.62
571.18	25392.81
571.542	25494.05
571.903	25639.35
572.265	25713.02
572.626	25822.63
572.987	25855.62
573.349	25950.98
573.71	26093.35
574.071	26110.53
574.432	26192.79
574.794	26381.03
575.155	26384.19
575.516	26300.81
575.877	26326.12
576.238	26522.95
576.599	26554.81
576.96	26563.85
577.32	26601.36
577.681	26698.08
578.042	26695.37
578.403	26841.13
578.763	26769.27
579.124	26891.98
579.485	26921.58
579.845	27055.14
580.206	26910.96
580.566	26983.5
580.927	27003.61
581.287	27257.62
581.648	26955.03
582.008	27277.73
582.368	27225.75
582.728	27330.38
583.089	27211.52
583.449	27134
583.809	27211.97
584.169	27300.33
584.529	27223.04
584.889	27523.6
585.249	27336.71
585.609	27207.22
585.969	27439.08
586.329	27414.45
586.688	27366.99
587.048	27350.5
587.408	27369.48
587.768	27357.05
588.127	27373.55
588.487	27323.38
588.846	27417.39
589.206	27319.76
589.565	27428.69
589.925	27566.31
590.284	27423.94
590.643	27564.95
591.003	27494.45
591.362	27703.93
591.721	27557.95
592.08	27609.25
592.44	27651.96
592.799	27677.94
593.158	27576.25
593.517	27584.16
593.876	27698.06
594.235	27648.34
594.593	27544.61
594.952	27676.81
595.311	27678.4
595.67	27794.78
596.029	27891.05
596.387	27862.12
596.746	27974.89
597.104	27871.16
597.463	27771.73
597.822	27968.11
598.18	27945.51
598.538	27871.84
598.897	28014.88
599.255	27795.46
599.613	28194.99
599.972	27957.94
600.33	28055.11
600.688	27954.1
601.046	28192.51
601.404	28239.51
601.762	28105.5
602.12	28136.69
602.478	28286.29
602.836	28254.88
603.194	28216.24
603.552	28295.33
603.91	28190.7
604.268	28339.62
604.625	28198.16
604.983	28438.38
605.341	28321.32
605.698	28368.32
606.056	28434.08
606.413	28502.78
606.771	28478.83
607.128	28618.71
607.485	28565.38
607.843	28543.68
608.2	28793.4
608.557	28760.18
608.914	28645.38
609.272	28759.72
609.629	28955.43
609.986	28896.44
610.343	28853.96
610.7	28948.42
611.057	28991.13
611.414	28905.71
611.771	28953.62
612.127	29006.05
612.484	29156.1
612.841	29239.71
613.198	29103.9
613.554	29115.19
613.911	29214.63
614.267	29306.38
614.624	29281.97
614.98	29394.51
615.337	29416.2
615.693	29380.95
616.05	29295.53
616.406	29508.18
616.762	29538.46
617.118	29501.63
617.475	29486.94
617.831	29526.94
618.187	29620.49
618.543	29691
618.899	29777.32
619.255	29693.26
619.611	29611
619.967	29627.95
620.323	29892.35
620.678	29742.75
621.034	29599.25
621.39	29686.03
621.746	29593.83
622.101	29963.76
622.457	29611.68
622.812	29878.79
623.168	29858.9
623.523	29873.82
623.879	29949.3
624.234	29692.35
624.589	29912.46
624.945	29904.1
625.3	29876.08
625.655	29901.61
626.01	29872.92
626.365	29798.57
626.72	29918.56
627.075	29897.77
627.43	29908.62
627.785	29773.71
628.14	29854.61
628.495	29959.47
628.85	29761.51
629.205	29736.65
629.559	30087.82
629.914	29748.85
630.269	29821.62
630.623	29794.5
630.978	29770.32
631.332	29858.9
631.687	29790.21
632.041	29704.11
632.396	29753.82
632.75	29543.88
633.104	29711.79
633.459	29446.71
633.813	29556.09
634.167	29447.39
634.521	29482.19
634.875	29487.39
635.229	29449.2
635.583	29327.62
635.937	29430.21
636.291	29375.08
636.645	29236.1
636.999	29194.97
637.352	29274.06
637.706	29227.96
638.06	29221.18
638.413	29152.93
638.767	29185.7
639.121	29337.56
639.474	28896.44
639.828	29044.69
640.181	28961.53
640.534	29019.6
640.888	28937.35
641.241	28818.25
641.594	28950
641.947	28913.39
642.301	28729.67
642.654	28752.94
643.007	28872.72
643.36	28785.94
643.713	28712.95
644.066	28753.85
644.419	28628.43
644.771	28520.41
645.124	28311.6
645.477	28170.36
645.83	27918.62
646.182	27783.48
646.535	27788.22
646.888	27719.07
647.24	27616.93
647.593	27758.17
647.945	27702.12
648.298	27460.1
648.65	27451.51
649.002	27416.93
649.355	27656.02
649.707	27519.08
650.059	27676.36
650.411	27919.07
650.763	28107.99
651.115	28312.96
651.467	28184.15
651.819	28149.12
652.171	28009.24
652.523	28043.36
652.875	28123.13
653.227	27870.93
653.578	28169.23
653.93	27950.48
654.282	27819.41
654.633	27871.84
654.985	27797.72
655.337	27863.7
655.688	27843.36
656.039	28021.21
656.391	27754.33
656.742	27867.09
657.094	27768.79
657.445	27830.26
657.796	27764.5
658.147	27858.96
658.498	27636.14
658.849	27742.58
659.2	27636.36
659.551	27628
659.902	27707.1
660.253	27658.06
660.604	27832.06
660.955	27609.92
661.306	27594.78
661.656	27622.13
662.007	27662.8
662.358	27571.96
662.708	27526.76
663.059	27601.79
663.409	27456.26
663.76	27634.56
664.11	27524.05
664.461	27542.35
664.811	27535.58
665.161	27549.36
665.511	27465.75
665.862	27447.44
666.212	27558.17
666.562	27582.13
666.912	27372.87
667.262	27432.3
667.612	27344.39
667.962	27462.58
668.312	27367.9
668.662	27511.85
669.011	27458.97
669.361	27400.89
669.711	27444.05
670.06	27369.25
670.41	27301.68
670.76	27159.31
671.109	27306.2
671.459	27264.85
671.808	27218.97
672.157	27319.99
672.507	27077.51
672.856	27240.22
673.205	27212.42
673.554	27266.43
673.904	27101.69
674.253	27277.5
674.602	27089.71
674.951	26769.04
675.3	26676.61
675.649	27162.7
675.998	27016.72
676.346	27071.86
676.695	27091.97
677.044	26776.5
677.393	26885.87
677.741	26938.98
678.09	26906.44
678.438	26818.08
678.787	26958.87
679.135	27026.66
679.484	26652.21
679.832	26851.75
680.181	26694.92
680.529	26788.25
680.877	26618.76
681.225	26632.77
681.573	26825.99
681.922	26687.46
682.27	26489.95
682.618	26559.1
682.966	26496.96
683.314	26481.14
683.661	26484.08
684.009	26281.37
684.357	26280.92
684.705	26228.04
685.053	26297.64
685.4	26231.2
685.748	26118.66
686.095	26092.22
686.443	25935.39
686.79	25922.74
687.138	25923.19
687.485	25954.37
687.832	25892.45
688.18	25919.57
688.527	25757.09
688.874	25761.61
689.221	25702.86
689.568	25512.8
689.915	25557.55
690.262	25539.24
690.609	25459.25
690.956	25363.88
691.303	25355.97
691.65	25247.5
691.997	25215.86
692.344	25010.9
692.69	25017
693.037	25100.61
693.383	24834.86
693.73	25024.46
694.077	24791.69
694.423	24794.4
694.769	24725.03
695.116	24549.67
695.462	24645.93
695.808	24537.01
696.155	24605.03
696.501	24398.03
696.847	24350.12
697.193	24170.69
697.539	24190.58
697.885	24164.59
698.231	24011.15
698.577	24087.08
698.923	24003.01
699.269	23936.57
699.614	23761.66
699.96	23729.57
700.306	23744.71
700.651	23697.71
700.997	23612.97
701.342	23504.04
701.688	23535.23
702.033	23471.95
702.379	23407.77
702.724	23348.11
703.069	23477.38
703.415	23086.65
703.76	23096.82
704.105	23096.37
704.45	23057.95
704.795	22967.79
705.14	22867.9
705.485	22907.45
705.83	22720.56
706.175	22806.89
706.52	22651.64
706.865	22609.38
707.209	22576.84
707.554	22489.61
707.899	22501.58
708.243	22477.63
708.588	22413.22
708.932	22228.14
709.277	22349.72
709.621	22325.09
709.966	22206.68
710.31	22175.04
710.654	22020.47
710.998	22042.39
711.342	21956.74
711.687	21884.88
712.031	21893.24
712.375	21821.38
712.719	21852.56
713.063	21900.24
713.407	21813.01
713.75	21718.55
714.094	21683.3
714.438	21572.12
714.782	21637.65
715.125	21491.89
715.469	21485.11
715.812	21461.61
716.156	21303.65
716.499	21369.18
716.843	21354.27
717.186	21142.75
717.53	21255.97
717.873	21255.51
718.216	21264.78
718.559	21184.56
718.902	21030.66
719.246	21036.09
719.589	20919.93
719.932	20846.03
720.275	20940.95
720.617	20895.3
720.96	20890.33
721.303	20851.46
721.646	20763.55
721.989	20736.43
722.331	20685.81
722.674	20552.71
723.016	20576.66
723.359	20619.15
723.701	20658.02
724.044	20401.75
724.386	20410.79
724.729	20420.06
725.071	20466.83
725.413	20368.31
725.755	20401.07
726.097	20332.83
726.439	20198.37
726.782	20288.53
727.124	20257.57
727.465	20176.22
727.807	20237.69
728.149	20112.04
728.491	20077.47
728.833	20104.13
729.175	20039.73
729.516	20072.27
729.858	19986.85
730.199	19935.78
730.541	19936.23
730.882	19914.08
731.224	19921.54
731.565	19783.69
731.906	19785.04
732.248	19897.36
732.589	19649.91
732.93	19703.24
733.271	19744.82
733.612	19715.22
733.953	19759.28
734.294	19622.34
734.635	19642
734.976	19651.26
735.317	19504.15
735.658	19462.34
735.999	19477.03
736.339	19356.81
736.68	19490.36
737.021	19402.91
737.361	19330.59
737.702	19282.01
738.042	19324.04
738.383	19427.54
738.723	19288.56
739.063	19246.98
739.404	19232.06
739.744	19202.24
740.084	19169.02
740.424	19213.76
740.764	19076.59
741.104	19185.51
741.444	19040.66
741.784	19050.6
742.124	18953.88
742.464	18952.98
742.804	18830.27
743.143	18814
743.483	19046.76
743.823	18736.94
744.162	18778.52
744.502	18803.38
744.841	18726.99
745.181	18788.91
745.52	18738.07
745.86	18720.44
746.199	18613.32
746.538	18651.74
746.877	18714.11
747.216	18601.8
747.556	18546.89
747.895	18563.16
748.234	18478.86
748.573	18399.09
748.911	18401.58
749.25	18349.38
749.589	18296.5
749.928	18347.79
750.267	18221.47
750.605	18274.35
750.944	18205.2
751.283	18084.98
751.621	18178.53
751.96	18056.05
752.298	17982.61
752.636	18020.12
752.975	17891.08
753.313	17831.88
753.651	17921.82
753.989	17834.81
754.327	17817.19
754.666	17777.64
755.004	17748.49
755.342	17682.5
755.679	17695.16
756.017	17574.93
756.355	17754.14
756.693	17552.11
757.031	17652.67
757.368	17449.29
757.706	17433.02
758.044	17376.52
758.381	17308.5
758.719	17277.54
759.056	17361.61
759.394	17246.81
759.731	17100.6
760.068	17188.73
760.405	17115.74
760.743	16998.9
761.08	17075.74
761.417	16996.19
761.754	16955.97
762.091	16868.06
762.428	16832.81
762.765	16686.82
763.102	16775.18
763.438	16653.83
763.775	16496.77
764.112	16633.26
764.449	16619.48
764.785	16449.77
765.122	16345.36
765.458	16287.28
765.795	16287.96
766.131	16287.28
766.467	16180.62
766.804	16198.92
767.14	16038.93
767.476	16004.13
767.812	15966.84
768.148	15970.91
768.485	15980.85
768.821	15800.29
769.157	15840.29
769.492	15676.9
769.828	15592.39
770.164	15589.22
770.5	15680.52
770.836	15588.09
771.171	15465.38
771.507	15418.61
771.842	15348.1
772.178	15321.89
772.513	15303.81
772.849	15224.26
773.184	15131.16
773.519	15200.98
773.855	15053.42
774.19	15082.34
774.525	15020.65
774.86	14912.18
775.195	14847.55
775.53	14791.5
775.865	14783.82
776.2	14646.87
776.535	14645.74
776.87	14566.88
777.205	14528.23
777.539	14537.95
777.874	14453.21
778.209	14327.34
778.543	14356.03
778.878	14245.98
779.212	14297.73
779.547	14204.4
779.881	14193.78
780.215	14080.34
780.55	14156.72
780.884	13984.29
781.218	13974.12
781.552	14023.84
781.886	13858.42
782.22	13748.37
782.554	13778.2
782.888	13628.82
783.222	13564.64
783.556	13611.2
783.889	13518.32
784.223	13500.46
784.557	13460.01
784.89	13450.52
785.224	13325.33
785.557	13291.88
785.891	13257.53
786.224	13192
786.558	13126.46
786.891	13049.18
787.224	13047.82
787.557	12997.43
787.891	12966.47
788.224	12930.31
788.557	12883.98
788.89	12867.71
789.223	12904.55
789.556	12785.68
789.888	12777.55
790.221	12751.11
790.554	12611.67
790.887	12679.02
791.219	12579.13
791.552	12557.66
791.884	12535.74
792.217	12558.12
792.549	12372.13
792.882	12303.21
793.214	12301.4
793.546	12297.33
793.879	12294.17
794.211	12214.62
794.543	12214.17
794.875	12099.15
795.207	12088.07
795.539	11992.71
795.871	12076.32
796.203	11977.57
796.535	11907.29
796.867	11893.5
797.198	11822.54
797.53	11843.78
797.862	11737.35
798.193	11759.49
798.525	11728.08
798.856	11724.01
799.188	11585.94
799.519	11587.97
799.85	11540.52
800.182	11643.11
800.513	11561.53
800.844	11336.68
801.175	11485.15
801.506	11450.35
801.837	11323.8
802.168	11333.06
802.499	11317.02
802.83	11254.2
803.161	11279.28
803.491	11227.3
803.822	11200.41
804.153	11102.11
804.483	11083.8
804.814	11015.33
805.145	11069.12
805.475	11019.4
805.805	10984.82
806.136	10938.95
806.466	10931.94
806.796	10950.02
807.126	10836.58
807.457	10841.33
807.787	10871.61
808.117	10789.58
808.447	10712.06
808.777	10797.26
809.107	10741.89
809.436	10624.38
809.766	10686.53
810.096	10602.91
810.426	10609.24
810.755	10623.93
811.085	10585.74
811.414	10518.85
811.744	10459.87
812.073	10468.91
812.403	10453.76
812.732	10460.32
813.061	10414.67
813.39	10321.34
813.719	10295.35
814.049	10290.61
814.378	10325.18
814.707	10186.43
815.036	10283.6
815.365	10169.03
815.693	10109.82
816.022	10121.8
816.351	10069.82
816.68	10013.1
817.008	10081.35
817.337	9974
817.665	9918.86
817.994	10002.93
818.322	9980.1
818.651	9913.67
818.979	9861.69
819.307	9882.71
819.636	9882.03
819.964	9808.81
820.292	9811.97
820.62	9784.86
820.948	9775.36
821.276	9842.48
821.604	9808.13
821.932	9773.1
822.259	9870.05
822.587	9814.91
822.915	9733.56
823.243	9758.19
823.57	9765.65
823.898	9808.36
824.225	9793.22
824.553	9763.61
824.88	9782.82
825.207	9761.58
825.535	9779.66
825.862	9715.48
826.189	9792.77
826.516	9724.97
826.843	9750.51
827.17	9780.34
827.497	9773.78
827.824	9833.22
828.151	9788.92
828.478	9828.02
828.805	9784.63
829.131	9766.33
829.458	9741.47
829.785	9702.15
830.111	9727.68
830.438	9798.64
830.764	9769.49
831.09	9807.23
831.417	9761.13
831.743	9693.33
832.069	9673.9
832.395	9708.47
832.722	9714.58
833.048	9679.55
833.374	9680.9
833.7	9685.42
834.026	9640.9
834.351	9642.71
834.677	9707.57
835.003	9612.2
835.329	9695.82
835.654	9616.27
835.98	9580.34
836.306	9637.06
836.631	9543.28
836.956	9610.62
837.282	9565.43
837.607	9588.02
837.932	9552.55
838.258	9521.36
838.583	9523.17
838.908	9393.23
839.233	9502.83
839.558	9498.99
839.883	9385.77
840.208	9387.35
840.533	9392.55
840.858	9332.66
841.182	9329.05
841.507	9395.04
841.832	9334.25
842.156	9307.35
842.481	9298.31
842.805	9308.94
843.13	9264.42
843.454	9194.14
843.778	9215.61
844.103	9167.92
844.427	9145.55
844.751	9115.49
845.075	9126.12
845.399	9130.64
845.723	9058.77
846.047	9060.58
846.371	8958.21
846.695	9052.45
847.019	8952.56
847.343	8944.43
847.666	8870.76
847.99	8809.74
848.313	8813.58
848.637	8762.74
848.96	8701.27
849.284	8757.54
849.607	8695.17
849.931	8653.59
850.254	8615.17
850.577	8568.84
850.9	8520.48
851.223	8532.69
851.546	8437.77
851.869	8363.65
852.192	8442.29
852.515	8437.09
852.838	8403.88
853.161	8371.56
853.483	8287.72
853.806	8273.93
854.129	8254.05
854.451	8215.41
854.774	8159.59
855.096	8187.16
855.419	8146.71
855.741	8119.36
856.063	8116.65
856.385	8060.61
856.708	8049.08
857.03	8075.75
857.352	7958.01
857.674	7955.07
857.996	7973.6
858.318	7889.09
858.64	7872.59
858.961	7931.8
859.283	7855.87
859.605	7859.71
859.926	7869.43
860.248	7859.26
860.57	7772.93
860.891	7777
861.212	7741.52
861.534	7722.09
861.855	7734.29
862.176	7697.23
862.498	7668.3
862.819	7696.78
863.14	7655.65
863.461	7662.65
863.782	7645.48
864.103	7646.83
864.424	7630.79
864.745	7551.24
865.065	7572.94
865.386	7552.37
865.707	7516.67
866.027	7570
866.348	7508.53
866.668	7536.1
866.989	7491.58
867.309	7455.2
867.63	7440.96
867.95	7478.25
868.27	7379.72
868.59	7424.47
868.91	7400.51
869.23	7402.09
869.55	7395.31
869.87	7398.48
870.19	7336.11
870.51	7343.11
870.83	7314.19
871.15	7334.07
871.469	7320.06
871.789	7355.32
872.109	7299.27
872.428	7232.38
872.748	7315.54
873.067	7262.66
873.386	7295.88
873.706	7195.09
874.025	7182.21
874.344	7212.72
874.663	7235.09
874.982	7212.49
875.301	7225.37
875.62	7160.97
875.939	7177.92
876.258	7166.85
876.577	7142.89
876.896	7134.76
877.214	7134.53
877.533	7107.64
877.852	7120.29
878.17	7091.82
878.489	7110.58
878.807	7080.75
879.125	7037.81
879.444	7011.14
879.762	7028.32
880.08	7021.54
880.398	6965.27
880.716	6968.43
881.034	6978.6
881.352	6987.19
881.67	7004.59
881.988	6971.37
882.306	6924.82
882.624	6941.09
882.941	6924.14
883.259	6890.24
883.577	6938.38
883.894	6860.41
884.212	6819.28
884.529	6830.36
884.846	6856.12
885.164	6822
885.481	6746.97
885.798	6829.23
886.115	6673.75
886.432	6749.46
886.75	6768.89
887.067	6745.39
887.383	6699.51
887.7	6667.42
888.017	6661.32
888.334	6662.45
888.651	6653.64
888.967	6574.54
889.284	6626.52
889.6	6616.8
889.917	6548.1
890.233	6564.83
890.55	6516.69
890.866	6557.82
891.182	6510.82
891.498	6485.96
891.815	6490.25
892.131	6378.84
892.447	6431.95
892.763	6395.34
893.079	6382.01
893.395	6431.95
893.71	6388.56
894.026	6316.25
894.342	6353.76
894.657	6318.96
894.973	6271.28
895.289	6295.23
895.604	6287.32
895.92	6295.23
896.235	6201.45
896.55	6220.88
896.865	6204.61
897.181	6130.49
897.496	6187.44
897.811	6186.53
898.126	6075.8
898.441	6116.7
898.756	6056.82
899.071	5968.01
899.386	6036.03
899.7	6013.66
900.015	5970.27
900.33	5940.89
900.644	5942.24
900.959	5916.71
901.273	5906.54
901.588	5867.67
901.902	5833.55
902.216	5871.96
902.531	5843.26
902.845	5827.9
903.159	5791.06
903.473	5776.37
903.787	5715.13
904.101	5655.7
904.415	5739.31
904.729	5687.34
905.042	5645.3
905.356	5605.76
905.67	5612.31
905.984	5622.48
906.297	5594.46
906.611	5530.73
906.924	5544.97
907.237	5546.55
907.551	5475.36
907.864	5462.94
908.177	5486.66
908.491	5483.05
908.804	5424.74
909.117	5417.29
909.43	5337.06
909.743	5365.76
910.056	5339.32
910.368	5294.58
910.681	5295.26
910.994	5283.05
911.307	5279.21
911.619	5237.4
911.932	5267.01
912.244	5216.16
912.557	5150.4
912.869	5144.3
913.181	5180.68
913.494	5088.26
913.806	5129.38
914.118	5120.12
914.43	5048.03
914.742	5074.25
915.054	4970.29
915.366	5019.33
915.678	4973.46
915.99	4993.8
916.302	4921.71
916.613	4931.42
916.925	4890.3
917.236	4917.64
917.548	4867.47
917.859	4858.21
918.171	4834.93
918.482	4845.32
918.794	4750.19
919.105	4749.73
919.416	4799.9
919.727	4710.41
920.038	4702.28
920.349	4697.31
920.66	4692.56
920.971	4708.83
921.282	4668.61
921.593	4627.93
921.903	4567.59
922.214	4599.23
922.525	4589.96
922.835	4534.82
923.146	4516.29
923.456	4493.7
923.767	4460.7
924.077	4507.25
924.387	4464.09
924.697	4415.96
925.008	4439.01
925.318	4401.95
925.628	4374.83
925.938	4375.96
926.248	4356.52
926.558	4313.81
926.867	4304.32
927.177	4307.49
927.487	4317.2
927.796	4235.85
928.106	4233.59
928.416	4226.13
928.725	4243.98
929.034	4191.56
929.344	4180.94
929.653	4180.26
929.962	4104.33
930.271	4097.77
930.581	4078.34
930.89	4051.67
931.199	4066.81
931.508	4023.2
931.817	4061.16
932.125	4031.11
932.434	3996.08
932.743	3960.6
933.051	3988.62
933.36	3947.72
933.669	3942.07
933.977	3926.25
934.286	3933.03
934.594	3901.85
934.902	3870.66
935.21	3847.16
935.519	3839.7
935.827	3785.47
936.135	3777.33
936.443	3795.86
936.751	3780.49
937.059	3794.5
937.367	3719.7
937.674	3772.13
937.982	3755.41
938.29	3757.44
938.597	3720.83
938.905	3637.67
939.213	3662.98
939.52	3646.94
939.827	3668.41
940.135	3629.09
940.442	3611.46
940.749	3591.12
941.056	3613.49
941.363	3534.62
941.67	3561.29
941.977	3540.05
942.284	3520.84
942.591	3492.82
942.898	3468.86
943.205	3492.14
943.511	3435.64
943.818	3451.91
944.125	3403.33
944.431	3435.87
944.738	3442.65
945.044	3382.54
945.35	3383.89
945.657	3416.44
945.963	3386.83
946.269	3314.29
946.575	3343.44
946.881	3301.86
947.187	3325.14
947.493	3290.56
947.799	3287.63
948.105	3288.76
948.41	3252.15
948.716	3237.46
949.022	3180.06
949.327	3222.54
949.633	3166.05
949.938	3171.02
950.244	3169.66
950.549	3159.72
950.854	3143.45
951.16	3113.17
951.465	3096.44
951.77	3111.13
952.075	3080.85
952.38	3058.7
952.685	3043.56
952.99	3058.25
953.294	3049.89
953.599	3043.34
953.904	2990.91
954.209	2997.69
954.513	3023.23
954.818	2970.35
955.122	2993.17
955.426	2933.51
955.731	2950.01
956.035	2931.48
956.339	2926.73
956.643	2927.63
956.948	2878.82
957.252	2910.01
957.556	2875.66
957.86	2843.57
958.163	2858.03
958.467	2820.29
958.771	2845.15
959.075	2827.98
959.378	2836.56
959.682	2792.05
959.985	2771.93
960.289	2763.8
960.592	2763.57
960.896	2731.26
961.199	2758.37
961.502	2757.92
961.805	2675.44
962.108	2704.14
962.411	2672.27
962.714	2692.39
963.017	2650.13
963.32	2672.95
963.623	2642.67
963.926	2645.16
964.228	2614.42
964.531	2621.65
964.833	2618.49
965.136	2597.47
965.438	2590.24
965.741	2589.34
966.043	2560.64
966.345	2553.63
966.648	2562.9
966.95	2554.76
967.252	2521.32
967.554	2513.63
967.856	2550.24
968.158	2495.33
968.46	2485.84
968.761	2470.7
969.063	2482.22
969.365	2450.13
969.666	2458.27
969.968	2446.97
970.269	2427.76
970.571	2426.41
970.872	2404.03
971.174	2363.36
971.475	2389.8
971.776	2374.2
972.077	2357.93
972.378	2369.23
972.679	2342.11
972.98	2339.18
973.281	2361.1
973.582	2305.28
973.883	2309.12
974.183	2302.57
974.484	2301.66
974.785	2298.27
975.085	2279.74
975.386	2273.64
975.686	2246.52
975.986	2251.95
976.287	2243.13
976.587	2193.19
976.887	2213.3
977.187	2209.24
977.487	2213.53
977.787	2187.09
978.087	2177.37
978.387	2214.43
978.687	2181.44
978.987	2165.4
979.286	2171.5
979.586	2156.36
979.885	2120.88
980.185	2103.48
980.484	2086.3
980.784	2126.98
981.083	2090.59
981.382	2102.35
981.682	2110.71
981.981	2070.71
982.28	2073.65
982.579	2031.16
982.878	2067.32
983.177	2059.41
983.475	2046.98
983.774	2030.48
984.073	2026.87
984.372	2028.68
984.67	2013.08
984.969	1971.73
985.267	2003.59
985.566	1985.96
985.864	1985.29
986.162	1949.36
986.461	1926.76
986.759	1929.47
987.057	1952.29
987.355	1931.73
987.653	1935.34
987.951	1903.71
988.249	1921.56
988.547	1904.38
988.844	1891.96
989.142	1865.52
989.44	1852.18
989.737	1844.95
990.035	1876.36
990.332	1869.81
990.63	1817.16
990.927	1834.56
991.224	1832.75
991.521	1811.73
991.819	1801.11
992.116	1790.49
992.413	1785.97
992.71	1802.69
993.006	1728.12
993.303	1732.41
993.6	1761.79
993.897	1771.96
994.193	1750.72
994.49	1709.81
994.787	1718.85
995.083	1714.33
995.379	1712.75
995.676	1692.41
995.972	1695.8
996.268	1698.29
996.565	1652.19
996.861	1671.17
997.157	1658.74
997.453	1652.41
997.749	1659.42
998.044	1618.29
998.34	1609.7
998.636	1619.87
998.932	1644.96
999.227	1575.58
999.523	1636.82
999.818	1589.59
1000.114	1617.61
1000.409	1575.35
1000.704	1568.35
1001	1563.15
1001.295	1563.38
1001.59	1545.3
1001.885	1565.64
1002.18	1536.71
1002.475	1497.16
1002.77	1512.08
1003.065	1492.64
1003.359	1525.41
1003.654	1511.85
1003.949	1491.51
1004.243	1474.57
1004.538	1446.32
1004.832	1463.94
1005.127	1444.51
1005.421	1439.31
1005.715	1459.88
1006.009	1433.21
1006.304	1435.47
1006.598	1431.63
1006.892	1414.91
1007.186	1385.53
1007.48	1397.51
1007.773	1385.3
1008.067	1381.91
1008.361	1372.65
1008.655	1357.51
1008.948	1363.61
1009.242	1368.13
1009.535	1334.23
1009.829	1347.34
1010.122	1351.86
1010.415	1312.99
1010.708	1311.18
1011.001	1335.81
1011.295	1314.57
1011.588	1303.04
1011.881	1307.56
1012.173	1282.03
1012.466	1301.46
1012.759	1272.76
1013.052	1289.03
1013.344	1268.24
1013.637	1274.57
1013.93	1247
1014.222	1244.74
1014.514	1217.85
1014.807	1233.67
1015.099	1191.86
1015.391	1239.77
1015.683	1221.47
1015.976	1218.98
1016.268	1201.13
1016.56	1214.23
1016.851	1163.16
1017.143	1180.34
1017.435	1166.1
1017.727	1157.96
1018.018	1152.31
1018.31	1145.31
1018.602	1165.42
1018.893	1137.63
1019.185	1137.85
1019.476	1158.42
1019.767	1104.63
1020.058	1106.67
1020.35	1082.26
1020.641	1103.05
1020.932	1099.66
1021.223	1096.04
1021.514	1090.4
1021.804	1090.17
1022.095	1084.07
1022.386	1056.95
1022.677	1062.6
1022.967	1074.58
1023.258	1037.74
1023.548	1028.02
1023.839	1011.08
1024.129	1025.99
1024.419	1009.49
1024.709	1028.93
1025	1003.84
1025.29	1011.98
1025.58	1021.92
1025.87	1001.13
1026.16	980.12
1026.449	1010.4
1026.739	996.61
1027.029	988.02
1027.319	945.99
1027.608	962.71
1027.898	953.45
1028.187	948.03
1028.477	943.28
1028.766	921.36
1029.055	934.92
1029.344	929.5
1029.634	920.68
1029.923	908.03
1030.212	923.39
1030.501	918.65
1030.79	913.68
1031.078	898.99
1031.367	897.41
1031.656	899.44
1031.945	888.59
1032.233	868.48
1032.522	897.18
1032.81	876.84
1033.099	859.44
1033.387	861.47
1033.675	857.41
1033.963	847.69
1034.251	844.75
1034.54	870.06
1034.828	840.46
1035.116	827.8
1035.403	825.54
1035.691	812.21
1035.979	811.31
1036.267	828.93
1036.554	805.88
1036.842	787.35
1037.129	811.31
1037.417	820.57
1037.704	788.03
1037.992	792.32
1038.279	778.54
1038.566	772.21
1038.853	772.21
1039.14	772.21
