Data from breadboard_black_back_FLMS001491_00062.txt Node
Date: Wed Feb 08 10:50:43 GMT 2017
User: dcchb
Spectrometer: FLMS00149
Trigger mode: 0
Integration Time (sec): 2.000000E-2
Scans to average: 10
Electric dark correction enabled: true
Nonlinearity correction enabled: false
Boxcar width: 0
XAxis mode: Wavelengths
Number of Pixels in Spectrum: 2048
>>>>>Begin Spectral Data<<<<<
341.393	-31.95
341.776	-31.95
342.16	-31.95
342.543	-29.46
342.927	-69.01
343.31	-70.37
343.693	-75.11
344.077	-59.97
344.46	-59.97
344.843	-56.58
345.226	-32.17
345.61	-40.08
345.993	-29.01
346.376	-27.65
346.759	15.96
347.142	52.57
347.525	37.65
347.908	65.9
348.291	81.95
348.674	94.38
349.057	102.51
349.44	142.06
349.823	150.65
350.206	183.87
350.588	203.53
350.971	202.17
351.354	205.79
351.737	233.36
352.119	252.11
352.502	275.16
352.884	286.01
353.267	267.03
353.65	290.76
354.032	303.64
354.414	305.44
354.797	325.33
355.179	313.13
355.562	340.47
355.944	347.25
356.326	342.28
356.709	342.05
357.091	335.05
357.473	342.96
357.855	355.61
358.238	354.03
358.62	353.35
359.002	347.02
359.384	361.04
359.766	337.76
360.148	360.58
360.53	370.3
360.912	344.54
361.294	355.39
361.676	342.96
362.057	328.27
362.439	362.84
362.821	329.85
363.203	332.34
363.584	360.13
363.966	348.61
364.348	339.12
364.729	348.15
365.111	344.99
365.493	342.51
365.874	354.03
366.256	333.47
366.637	345.22
367.019	329.4
367.4	351.54
367.781	351.77
368.163	334.6
368.544	329.4
368.925	315.16
369.306	334.82
369.688	333.69
370.069	348.61
370.45	341.6
370.831	351.77
371.212	358.32
371.593	332.11
371.974	332.11
372.355	338.21
372.736	356.52
373.117	358.55
373.498	333.92
373.879	343.64
374.26	354.26
374.641	331.43
375.021	359.23
375.402	357.19
375.783	333.47
376.163	362.17
376.544	372.56
376.925	408.94
377.305	378.21
377.686	370.3
378.066	375.27
378.447	380.47
378.827	380.02
379.208	380.02
379.588	372.11
379.968	393.58
380.349	391.09
380.729	385.22
381.109	385.44
381.489	401.94
381.87	387.02
382.25	403.29
382.63	423.18
383.01	404.2
383.39	374.37
383.77	392
384.15	401.49
384.53	420.02
384.91	418.89
385.29	430.64
385.67	417.76
386.049	407.59
386.429	420.02
386.809	436.06
387.189	433.12
387.568	438.1
387.948	432.67
388.328	452.78
388.707	449.85
389.087	434.71
389.466	469.51
389.846	434.71
390.225	422.5
390.605	450.75
390.984	477.64
391.363	447.36
391.743	490.75
392.122	469.96
392.501	465.44
392.881	518.32
393.26	506.79
393.639	514.48
394.018	493.01
394.397	502.95
394.776	506.79
395.155	512.67
395.534	483.29
395.913	509.73
396.292	526.23
396.671	522.16
397.05	528.26
397.429	508.15
397.808	534.59
398.186	520.81
398.565	550.41
398.944	527.13
399.323	561.71
399.701	562.16
400.08	539.34
400.458	555.38
400.837	561.71
401.215	561.71
401.594	577.3
401.972	551.99
402.351	569.39
402.729	591.31
403.107	597.87
403.486	593.57
403.864	603.97
404.242	611.2
404.62	587.92
404.999	609.16
405.377	618.2
405.755	633.57
406.133	633.8
406.511	628.37
406.889	646
407.267	675.83
407.645	651.88
408.023	670.63
408.401	659.78
408.779	669.73
409.156	683.74
409.534	675.38
409.912	704.76
410.29	702.04
410.667	719.9
411.045	728.94
411.422	757.18
411.8	705.66
412.178	736.17
412.555	764.87
412.933	764.41
413.31	755.83
413.687	797.41
414.065	779.1
414.442	778.88
414.819	815.04
415.197	798.31
415.574	810.74
415.951	804.41
416.328	812.78
416.705	811.87
417.082	848.03
417.46	850.51
417.837	859.33
418.214	851.19
418.591	866.56
418.967	888.71
419.344	866.56
419.721	902.04
420.098	891.42
420.475	892.55
420.852	908.82
421.228	938.65
421.605	947.91
421.982	942.26
422.358	930.74
422.735	953.11
423.111	944.98
423.488	975.48
423.864	961.47
424.241	1017.06
424.617	1002.37
424.994	986.33
425.37	1008.02
425.746	1039.66
426.123	1043.05
426.499	1058.87
426.875	1049.15
427.251	1090.51
427.627	1093.67
428.003	1113.33
428.379	1119.43
428.756	1135.93
429.132	1138.42
429.507	1156.72
429.883	1176.61
430.259	1193.56
430.635	1175.25
431.011	1225.42
431.387	1243.72
431.763	1240.11
432.138	1247.11
432.514	1277.85
432.89	1270.16
433.265	1305.19
433.641	1310.16
434.016	1323.5
434.392	1354.23
434.767	1358.75
435.143	1354.91
435.518	1368.01
435.894	1393.78
436.269	1436.26
436.644	1424.51
437.02	1439.65
437.395	1438.3
437.77	1490.72
438.145	1476.49
438.52	1507.67
438.895	1501.8
439.271	1552.42
439.646	1563.26
440.021	1567.11
440.395	1578.63
440.77	1566.65
441.145	1568.91
441.52	1629.02
441.895	1614.56
442.27	1636.93
442.645	1636.26
443.019	1648.01
443.394	1682.36
443.769	1689.14
444.143	1662.02
444.518	1714.67
444.892	1694.79
445.267	1700.89
445.641	1759.64
446.016	1733.43
446.39	1740.21
446.764	1788.57
447.139	1757.84
447.513	1805.07
447.887	1769.81
448.262	1811.17
448.636	1806.87
449.01	1841.9
449.384	1867.89
449.758	1859.98
450.132	1865.18
450.506	1920.99
450.88	1946.08
451.254	1881.45
451.628	1958.06
452.002	1988.56
452.376	1969.58
452.75	2020.43
453.123	2053.87
453.497	2047.77
453.871	2071.5
454.244	2099.52
454.618	2142.23
454.992	2174.32
455.365	2139.07
455.739	2185.85
456.112	2259.52
456.486	2252.51
456.859	2263.81
457.232	2297.48
457.606	2311.04
457.979	2341.77
458.352	2388.78
458.725	2430.36
459.099	2447.99
459.472	2491.6
459.845	2517.36
460.218	2550.36
460.591	2550.36
460.964	2531.83
461.337	2646.4
461.71	2666.51
462.083	2715.78
462.456	2710.35
462.829	2716.68
463.201	2767.07
463.574	2763.46
463.947	2816.34
464.32	2853.4
464.692	2909.22
465.065	2920.74
465.438	2988.31
465.81	3050.91
466.183	3030.12
466.555	3076.9
466.928	3139.27
467.3	3117.12
467.672	3179.27
468.045	3278.7
468.417	3284.12
468.789	3294.74
469.161	3317.79
469.534	3417.9
469.906	3473.27
470.278	3460.16
470.65	3544.45
471.022	3566.38
471.394	3667.84
471.766	3674.17
472.138	3727.05
472.51	3843.88
472.882	3855.41
473.253	3888.63
473.625	3951.22
473.997	4016.76
474.369	4058.57
474.74	4110.09
475.112	4185.79
475.484	4245.45
475.855	4369.74
476.227	4406.81
476.598	4511.66
476.97	4560.47
477.341	4609.74
477.713	4692.22
478.084	4713.92
478.455	4822.84
478.827	4915.04
479.198	5055.6
479.569	5002.04
479.94	5145.09
480.311	5207.69
480.682	5346.44
481.053	5500.34
481.424	5546.66
481.795	5582.82
482.166	5641.8
482.537	5755.7
482.908	5857.16
483.279	5891.74
483.65	5998.18
484.021	6169.02
484.391	6219.86
484.762	6345.06
485.133	6301.67
485.503	6467.99
485.874	6599.74
486.244	6635.9
486.615	6728.55
486.985	6836.35
487.356	6968.32
487.726	7031.82
488.097	7172.16
488.467	7270.91
488.837	7347.97
489.207	7474.07
489.578	7540.51
489.948	7582.54
490.318	7758.36
490.688	7758.13
491.058	7880.39
491.428	8029.53
491.798	8078.57
492.168	8219.81
492.538	8283.09
492.908	8408.51
493.278	8425.68
493.648	8446.7
494.017	8599.24
494.387	8651.21
494.757	8753.36
495.126	8871.32
495.496	8889.85
495.866	8902.73
496.235	9088.04
496.605	9102.27
496.974	9201.71
497.344	9298.65
497.713	9371.19
498.082	9436.5
498.452	9546.33
498.821	9558.31
499.19	9544.52
499.559	9714.01
499.928	9789.49
500.298	9852.76
500.667	9908.81
501.036	9945.87
501.405	10088.92
501.774	10101.34
502.143	10172.3
502.512	10241.91
502.88	10340.66
503.249	10368.46
503.618	10466.98
503.987	10530.49
504.356	10624.95
504.724	10666.75
505.093	10732.97
505.462	10760.76
505.83	10838.05
506.199	10954.43
506.567	11045.05
506.936	11036.01
507.304	11193.75
507.672	11283.69
508.041	11250.01
508.409	11456.79
508.777	11511.93
509.145	11632.15
509.514	11659.95
509.882	11721.64
510.25	11726.61
510.618	11911.24
510.986	11947.4
511.354	12072.82
511.722	12179.03
512.09	12280.27
512.458	12253.83
512.826	12334.51
513.193	12442.98
513.561	12429.64
513.929	12630.54
514.297	12714.16
514.664	12804.1
515.032	12819.92
515.4	13020.36
515.767	13059.01
516.135	13230.08
516.502	13033.7
516.869	13407.47
517.237	13433.01
517.604	13374.25
517.972	13698.54
518.339	13622.61
518.706	13715.71
519.073	13749.38
519.44	13961.58
519.808	14103.27
520.175	14094.69
520.542	14291.29
520.909	14287.45
521.276	14344.4
521.643	14577.16
522.009	14687.89
522.376	14767.44
522.743	14833.65
523.11	15066.64
523.477	15282
523.843	15300.76
524.21	15508.43
524.577	15582.1
524.943	15656.9
525.31	15694.42
525.676	15816.22
526.043	15945.26
526.409	16000.62
526.776	16227.06
527.142	16199.94
527.508	16348.86
527.874	16495.98
528.241	16582.08
528.607	16664.56
528.973	16858.46
529.339	16946.14
529.705	17049.18
530.071	17153.36
530.437	17255.05
530.803	17328.5
531.169	17441.72
531.535	17502.96
531.901	17539.12
532.267	17669.73
532.632	17772.1
532.998	17794.25
533.364	17959.44
533.73	18028.82
534.095	18169.83
534.461	18262.71
534.826	18222.26
535.192	18449.83
535.557	18633.78
535.923	18494.8
536.288	18641.01
536.653	18699.76
537.019	18693.66
537.384	18791.51
537.749	18942.24
538.114	18930.72
538.479	19084.84
538.845	19258.62
539.21	19157.38
539.575	19280.54
539.94	19256.81
540.305	19514.66
540.67	19389.91
541.034	19596.46
541.399	19634.65
541.764	19654.99
542.129	19826.74
542.494	19844.82
542.858	19886.85
543.223	19900.18
543.587	20058.6
543.952	20081.65
544.316	20106.05
544.681	20207.75
545.045	20316.22
545.41	20421.98
545.774	20346.27
546.138	20405.48
546.503	20525.93
546.867	20654.29
547.231	20715.53
547.595	20856.77
547.959	20890.21
548.324	21008.85
548.688	21015.41
549.052	21083.43
549.416	21017.89
549.779	21110.09
550.143	21166.59
550.507	21408.62
550.871	21359.35
551.235	21348.28
551.599	21603.87
551.962	21739.91
552.326	21739.68
552.689	21836.63
553.053	21870.53
553.417	21932.45
553.78	22170.41
554.143	22037.08
554.507	22176.51
554.87	22254.02
555.234	22443.17
555.597	22454.92
555.96	22571.98
556.323	22674.57
556.686	22674.12
557.05	22836.6
557.413	22866.66
557.776	22951.85
558.139	23102.13
558.502	23199.53
558.865	23143.04
559.228	23444.27
559.59	23520.65
559.953	23600.2
560.316	23797.71
560.679	23819.85
561.041	23959.96
561.404	24027.98
561.767	24150.01
562.129	24056.01
562.492	24354.08
562.854	24363.57
563.217	24375.55
563.579	24502.77
563.941	24718.59
564.304	24802.43
564.666	24990.44
565.028	24930.11
565.39	25234.51
565.753	25246.03
566.115	25309.31
566.477	25446.7
566.839	25541.39
567.201	25653.03
567.563	25693.48
567.925	25946.58
568.287	25928.73
568.648	25910.65
569.01	26150.64
569.372	26361.48
569.734	26130.53
570.095	26267.02
570.457	26525.09
570.819	26525.09
571.18	26561.02
571.542	26751.3
571.903	26802.15
572.265	26860
572.626	26837.63
572.987	26973.22
573.349	27104.74
573.71	27090.05
574.071	27216.83
574.432	27382.47
574.794	27401.91
575.155	27528
575.516	27374.11
575.877	27602.58
576.238	27656.14
576.599	27799.18
576.96	27818.62
577.32	27812.74
577.681	27913.98
578.042	28044.6
578.403	28087.31
578.763	27957.6
579.124	27932.06
579.485	28220.87
579.845	28241.88
580.206	28173.86
580.566	28167.76
580.927	28303.58
581.287	28337.02
581.648	28196.01
582.008	28354.88
582.368	28310.36
582.728	28454.31
583.089	28374.08
583.449	28366.4
583.809	28392.39
584.169	28393.97
584.529	28489.79
584.889	28712.83
585.249	28502.44
585.609	28340.86
585.969	28636
586.329	28504.7
586.688	28417.47
587.048	28575.44
587.408	28459.05
587.768	28528.43
588.127	28608.88
588.487	28469
588.846	28713.06
589.206	28462.9
589.565	28520.07
589.925	28668.31
590.284	28622.89
590.643	28611.37
591.003	28736.56
591.362	28841.19
591.721	28598.49
592.08	28699.73
592.44	28820.85
592.799	28719.61
593.158	28621.54
593.517	28619.95
593.876	28721.42
594.235	28739.95
594.593	28695.88
594.952	28805.49
595.311	28761.64
595.67	28771.81
596.029	29033.28
596.387	28975.88
596.746	28937.23
597.104	28881.42
597.463	29014.75
597.822	28896.78
598.18	28945.14
598.538	28946.5
598.897	28957.35
599.255	28805.49
599.613	29264
599.972	29119.83
600.33	29156.21
600.688	29102.88
601.046	29109.21
601.404	29237.79
601.762	29242.08
602.12	29244.8
602.478	29223.55
602.836	29356.88
603.194	29109.66
603.552	29297.22
603.91	29250.22
604.268	29327.51
604.625	29234.4
604.983	29508.74
605.341	29213.61
605.698	29404.57
606.056	29496.09
606.413	29471.68
606.771	29592.36
607.128	29658.8
607.485	29469.2
607.843	29579.48
608.2	29594.62
608.557	29769.3
608.914	29714.61
609.272	29957.32
609.629	29890.2
609.986	30073.25
610.343	29889.98
610.7	30009.97
611.057	30067.37
611.414	30015.85
611.771	29981.5
612.127	30238.67
612.484	30169.07
612.841	30204.77
613.198	30037.09
613.554	30146.69
613.911	30240.93
614.267	30347.59
614.624	30127.26
614.98	30282.96
615.337	30535.38
615.693	30364.54
616.05	30405.9
616.406	30545.55
616.762	30350.3
617.118	30346.01
617.475	30516.4
617.831	30573.35
618.187	30604.76
618.543	30571.31
618.899	30788.26
619.255	30736.51
619.611	30632.33
619.967	30658.09
620.323	30866.45
620.678	30621.93
621.034	30614.25
621.39	30703.97
621.746	30551.43
622.101	30902.15
622.457	30738.99
622.812	30723.18
623.168	30823.74
623.523	30770.18
623.879	30912.55
624.234	30600.47
624.589	30907.8
624.945	30902.38
625.3	30887.92
625.655	30876.17
626.01	30847.69
626.365	30760.46
626.72	30832.78
627.075	30746.45
627.43	30820.35
627.785	30711.42
628.14	30790.74
628.495	30791.42
628.85	30724.08
629.205	30585.55
629.559	30766.11
629.914	30494.48
630.269	30890.18
630.623	30559.11
630.978	30475.72
631.332	30785.55
631.687	30669.84
632.041	30597.08
632.396	30665.1
632.75	30626.68
633.104	30586.68
633.459	30360.25
633.813	30386.91
634.167	30475.95
634.521	30314.6
634.875	30446.57
635.229	30205.9
635.583	30185.56
635.937	30249.97
636.291	30216.07
636.645	30143.3
636.999	30075.06
637.352	30101.72
637.706	30024.89
638.06	30292.9
638.413	30023.53
638.767	29892.69
639.121	29985.79
639.474	29812.46
639.828	29807.27
640.181	29815.4
640.534	29879.58
640.888	29712.13
641.241	29697.89
641.594	29656.31
641.947	29709.87
642.301	29655.18
642.654	29554.84
643.007	29630.55
643.36	29547.84
643.713	29487.05
644.066	29545.13
644.419	29505.81
644.771	29306.72
645.124	29077.12
645.477	28924.8
645.83	28844.35
646.182	28564.59
646.535	28491.6
646.888	28579.73
647.24	28319.17
647.593	28492.27
647.945	28390.13
648.298	28212.28
648.65	28195.56
649.002	28096.35
649.355	28294.76
649.707	28332.28
650.059	28320.3
650.411	28699.95
650.763	28736.56
651.115	28912.38
651.467	28871.47
651.819	28788.31
652.171	28813.62
652.523	28753.06
652.875	28845.03
653.227	28684.13
653.578	28791.02
653.93	28747.18
654.282	28633.06
654.633	28544.02
654.985	28575.89
655.337	28640.74
655.688	28534.98
656.039	28622.67
656.391	28411.15
656.742	28450.69
657.094	28438.26
657.445	28606.85
657.796	28555.77
658.147	28445.49
658.498	28333.86
658.849	28510.8
659.2	28227.65
659.551	28313.07
659.902	28362.33
660.253	28386.06
660.604	28381.77
660.955	28166.63
661.306	28351.26
661.656	28403.01
662.007	28206.63
662.358	28197.82
662.708	28217.48
663.059	28205.73
663.409	28077.82
663.76	28171.15
664.11	28199.85
664.461	28204.6
664.811	28153.3
665.161	28144.71
665.511	28045.96
665.862	28070.14
666.212	28122.11
666.562	28085.28
666.912	28082.34
667.262	28063.36
667.612	28043.25
667.962	28070.82
668.312	28035.34
668.662	28160.08
669.011	27972.06
669.361	27880.76
669.711	27998.5
670.06	27998.95
670.41	27802.8
670.76	27900.2
671.109	27913.53
671.459	27859.3
671.808	27742.01
672.157	27767.09
672.507	27731.39
672.856	27791.27
673.205	27773.2
673.554	27707.21
673.904	27669.7
674.253	27818.39
674.602	27710.83
674.951	27389.93
675.3	27124.63
675.649	27598.06
675.998	27539.53
676.346	27474.67
676.695	27567.33
677.044	27534.56
677.393	27436.26
677.741	27570.94
678.09	27448.46
678.438	27353.55
678.787	27390.38
679.135	27356.03
679.484	27112.42
679.832	27301.34
680.181	27199.65
680.529	27281.91
680.877	27179.54
681.225	27136.6
681.573	27289.14
681.922	26971.86
682.27	27050.05
682.618	26984.52
682.966	26847.57
683.314	26909.26
683.661	26961.01
684.009	26782.26
684.357	26731.42
684.705	26590.4
685.053	26671.3
685.4	26629.27
685.748	26460.46
686.095	26540.23
686.443	26308.6
686.79	26487.13
687.138	26337.98
687.485	26407.36
687.832	26257.3
688.18	26256.85
688.527	26033.81
688.874	26179.79
689.221	26048.95
689.568	25957.42
689.915	25920.82
690.262	25995.62
690.609	25813.47
690.956	25733.7
691.303	25810.76
691.65	25674.49
691.997	25639.24
692.344	25433.37
692.69	25421.85
693.037	25454.16
693.383	25290.32
693.73	25308.18
694.077	25166.03
694.423	25192.02
694.769	25034.06
695.116	24973.5
695.462	24995.19
695.808	24832.03
696.155	24960.84
696.501	24779.6
696.847	24769.89
697.193	24672.26
697.539	24653.73
697.885	24441.76
698.231	24441.53
698.577	24455.77
698.923	24503.23
699.269	24309.11
699.614	24205.38
699.96	24111.82
700.306	24110.92
700.651	23965.61
700.997	23946.63
701.342	23898.27
701.688	23813.75
702.033	23779.85
702.379	23745.05
702.724	23707.31
703.069	23695.34
703.415	23473.65
703.76	23477.26
704.105	23423.48
704.45	23448.56
704.795	23149.36
705.14	23144.39
705.485	23215.58
705.83	22984.85
706.175	23037.95
706.52	22943.94
706.865	22924.06
707.209	22945.3
707.554	22811.52
707.899	22955.92
708.243	22756.15
708.588	22707.79
708.932	22611.98
709.277	22638.42
709.621	22577.4
709.966	22437.29
710.31	22500.34
710.654	22324.75
710.998	22338.08
711.342	22308.93
711.687	22282.04
712.031	22143.29
712.375	22043.4
712.719	22096.74
713.063	22101.26
713.407	22089.73
713.75	21939.45
714.094	21988.94
714.438	21782.62
714.782	21867.36
715.125	21789.17
715.469	21799.79
715.812	21674.6
716.156	21536.75
716.499	21581.72
716.843	21603.64
717.186	21476.19
717.53	21663.75
717.873	21604.54
718.216	21467.37
718.559	21424.21
718.902	21167.04
719.246	21236.64
719.589	21191.22
719.932	21070.77
720.275	21166.36
720.617	21140.6
720.96	21153.94
721.303	21025.8
721.646	21042.75
721.989	20915.75
722.331	21008.85
722.674	20876.2
723.016	20934.05
723.359	20831.68
723.701	20828.07
724.044	20736.77
724.386	20616.32
724.729	20715.3
725.071	20643.67
725.413	20572.93
725.755	20591.69
726.097	20581.07
726.439	20428.3
726.782	20443.45
727.124	20568.19
727.465	20384.92
727.807	20285.26
728.149	20313.05
728.491	20275.09
728.833	20197.8
729.175	20138.82
729.516	20173.85
729.858	20286.16
730.199	20207.07
730.541	20100.4
730.882	20088.43
731.224	20124.36
731.565	19988.32
731.906	19995.55
732.248	19945.38
732.589	19912.61
732.93	19886.85
733.271	19794.87
733.612	19867.19
733.953	19894.53
734.294	19731.83
734.635	19786.29
734.976	19780.64
735.317	19662.22
735.658	19637.59
735.999	19690.7
736.339	19597.37
736.68	19609.57
737.021	19575.45
737.361	19549.46
737.702	19497.71
738.042	19477.14
738.383	19401.66
738.723	19459.29
739.063	19348.11
739.404	19415.22
739.744	19365.28
740.084	19188.34
740.424	19251.16
740.764	19341.78
741.104	19244.38
741.444	19179.52
741.784	19038.28
742.124	19086.87
742.464	19091.84
742.804	18946.76
743.143	19017.27
743.483	18990.15
743.823	18896.37
744.162	18827.89
744.502	19019.98
744.841	18851.85
745.181	18890.94
745.52	18794.68
745.86	18833.32
746.199	18778.63
746.538	18721
746.877	18777.27
747.216	18822.02
747.556	18689.37
747.895	18671.51
748.234	18554.46
748.573	18587
748.911	18553.78
749.25	18451.63
749.589	18429.04
749.928	18391.3
750.267	18408.24
750.605	18277.85
750.944	18372.31
751.283	18171.87
751.621	18341.58
751.96	18004.41
752.298	18126.67
752.636	18141.59
752.975	17958.09
753.313	17914.92
753.651	17965.77
753.989	17840.8
754.327	17819.11
754.666	17765.78
755.004	17748.15
755.342	17760.8
755.679	17894.59
756.017	17597.87
756.355	17709.51
756.693	17680.58
757.031	17619.56
757.368	17535.95
757.706	17599.45
758.044	17410.76
758.381	17502.28
758.719	17378.44
759.056	17383.41
759.394	17375.73
759.731	17279.01
760.068	17183.87
760.405	17095.74
760.743	17067.26
761.08	17128.05
761.417	17005.8
761.754	16939.58
762.091	16947.04
762.428	16872.24
762.765	16771.45
763.102	16794.95
763.438	16683.09
763.775	16646.94
764.112	16647.84
764.449	16745.69
764.785	16484.91
765.122	16425.92
765.458	16350.67
765.795	16288.98
766.131	16271.58
766.467	16296.66
766.804	16228.64
767.14	16106.61
767.476	16086.05
767.812	16051.24
768.148	15986.61
768.485	15903.45
768.821	15864.36
769.157	15903.45
769.492	15851.02
769.828	15701.88
770.164	15637.47
770.5	15611.03
770.836	15537.81
771.171	15481.32
771.507	15475.44
771.842	15324.94
772.178	15450.13
772.513	15348.66
772.849	15296.24
773.184	15155.45
773.519	15166.75
773.855	15090.82
774.19	15020.31
774.525	15025.51
774.86	15018.73
775.195	14933.53
775.53	14907.32
775.865	14771.96
776.2	14687.21
776.535	14618.74
776.87	14610.15
777.205	14578.74
777.539	14433.21
777.874	14471.4
778.209	14368.35
778.543	14268.69
778.878	14282.48
779.212	14283.38
779.547	14086.78
779.881	14232.08
780.215	14124.97
780.55	14086.32
780.884	14024.18
781.218	13975.82
781.552	14016.72
781.886	13832.55
782.22	13857.4
782.554	13751.42
782.888	13521.59
783.222	13524.08
783.556	13493.8
783.889	13546.45
784.223	13434.14
784.557	13411.99
784.89	13423.07
785.224	13327.02
785.557	13185.78
785.891	13253.8
786.224	13239.34
786.558	13193.69
786.891	13025.79
787.224	13057.88
787.557	12993.25
787.891	13001.61
788.224	12954.15
788.557	12937.88
788.89	12847.94
789.223	12841.16
789.556	12721.39
789.888	12698.79
790.221	12664.89
790.554	12547.61
790.887	12647.72
791.219	12584.9
791.552	12567.27
791.884	12480.49
792.217	12392.36
792.549	12377.89
792.882	12258.8
793.214	12225.81
793.546	12309.65
793.879	12129.09
794.211	12076.21
794.543	12074.85
794.875	12057.68
795.207	12100.16
795.539	11999.37
795.871	12065.81
796.203	11890.22
796.535	11893.84
796.867	11849.1
797.198	11728.42
797.53	11789.89
797.862	11713.28
798.193	11719.38
798.525	11614.53
798.856	11712.83
799.188	11529.1
799.519	11520.52
799.85	11456.79
800.182	11424.93
800.513	11518.93
800.844	11354.64
801.175	11421.08
801.506	11440.97
801.837	11390.12
802.168	11330.24
802.499	11247.53
802.83	11199.17
803.161	11112.84
803.491	11203.46
803.822	11110.81
804.153	11057.48
804.483	10956.92
804.814	10983.58
805.145	10965.73
805.475	10957.82
805.805	10898.16
806.136	10941.55
806.466	10891.83
806.796	10880.08
807.126	10787.2
807.457	10753.76
807.787	10712.63
808.117	10703.36
808.447	10677.83
808.777	10699.07
809.107	10638.96
809.436	10649.13
809.766	10586.3
810.096	10549.92
810.426	10523.03
810.755	10541.78
811.085	10419.3
811.414	10442.35
811.744	10386.31
812.073	10377.27
812.403	10348.57
812.732	10288.91
813.061	10309.25
813.39	10262.02
813.719	10216.14
814.049	10301.11
814.378	10219.08
814.707	10230.38
815.036	10182.02
815.365	10077.62
815.693	10012.76
816.022	10028.58
816.351	9994.45
816.68	9927.56
817.008	9934.8
817.337	9883.95
817.665	9896.15
817.994	9848.47
818.322	9861.8
818.651	9822.26
818.979	9795.36
819.307	9870.39
819.636	9730.51
819.964	9729.6
820.292	9741.35
820.62	9712.43
820.948	9723.05
821.276	9768.25
821.604	9755.59
821.932	9719.21
822.259	9714.69
822.587	9668.81
822.915	9691.64
823.243	9694.35
823.57	9690.96
823.898	9712.88
824.225	9645.09
824.553	9644.18
824.88	9647.35
825.207	9727.57
825.535	9668.36
825.862	9673.56
826.189	9704.74
826.516	9728.92
826.843	9700.9
827.17	9691.64
827.497	9721.92
827.824	9641.7
828.151	9732.31
828.478	9734.12
828.805	9678.08
829.131	9700.23
829.458	9693.45
829.785	9685.99
830.111	9656.61
830.438	9723.95
830.764	9664.29
831.09	9681.47
831.417	9569.83
831.743	9693.9
832.069	9628.14
832.395	9617.06
832.722	9681.24
833.048	9587.01
833.374	9622.94
833.7	9555.37
834.026	9610.28
834.351	9650.28
834.677	9548.36
835.003	9631.75
835.329	9611.41
835.654	9549.95
835.98	9471.08
836.306	9580.23
836.631	9541.36
836.956	9454.81
837.282	9515.37
837.607	9353.12
837.932	9436.05
838.258	9455.03
838.583	9369.61
838.908	9344.08
839.233	9373.23
839.558	9366.22
839.883	9343.85
840.208	9321.25
840.533	9251.65
840.858	9266.79
841.182	9303.4
841.507	9230.63
841.832	9257.75
842.156	9281.25
842.481	9182.05
842.805	9180.92
843.13	9127.58
843.454	9155.83
843.778	9148.15
844.103	9121.94
844.427	9042.16
844.751	9059.79
845.075	9041.71
845.399	9084.65
845.723	8915.16
846.047	8949.06
846.371	8880.59
846.695	8886.24
847.019	8852.34
847.343	8816.86
847.666	8837.87
847.99	8793.13
848.313	8756.07
848.637	8687.82
848.96	8678.11
849.284	8624.77
849.607	8621.84
849.931	8598.11
850.254	8523.53
850.577	8481.5
850.9	8416.64
851.223	8433.82
851.546	8392.24
851.869	8279.25
852.192	8361.05
852.515	8200.83
852.838	8218.46
853.161	8203.99
853.483	8241.28
853.806	8143.43
854.129	8113.6
854.451	8035.41
854.774	8092.36
855.096	8063.88
855.419	8092.58
855.741	8026.37
856.063	7982.3
856.385	7933.94
856.708	7960.84
857.03	7913.38
857.352	7911.12
857.674	7878.35
857.996	7859.37
858.318	7795.64
858.64	7809.65
858.961	7793.61
859.283	7734.4
859.605	7738.69
859.926	7783.89
860.248	7726.94
860.57	7707.96
860.891	7723.1
861.212	7628.64
861.534	7620.28
861.855	7636.32
862.176	7588.42
862.498	7600.39
862.819	7615.08
863.14	7538.02
863.461	7553.16
863.782	7556.78
864.103	7548.42
864.424	7448.53
864.745	7524.46
865.065	7552.94
865.386	7489.66
865.707	7470
866.027	7500.06
866.348	7459.83
866.668	7422.54
866.989	7416.44
867.309	7379.38
867.63	7380.06
867.95	7282.21
868.27	7304.36
868.59	7310.91
868.91	7295.54
869.23	7289.22
869.55	7277.46
869.87	7254.41
870.19	7258.26
870.51	7212.61
870.83	7297.35
871.15	7265.26
871.469	7221.19
871.789	7245.6
872.109	7126.96
872.428	7248.09
872.748	7172.83
873.067	7163.57
873.386	7217.35
873.706	7129.67
874.025	7072.27
874.344	7120.63
874.663	7120.63
874.982	7107.07
875.301	7071.37
875.62	7093.97
875.939	7035.44
876.258	7078.37
876.577	7030.24
876.896	7056
877.214	7015.55
877.533	7070.24
877.852	7019.84
878.17	7083.34
878.489	7018.94
878.807	6973.52
879.125	6980.97
879.444	7000.18
879.762	6895.55
880.08	6918.6
880.398	6898.26
880.716	6911.6
881.034	6839.96
881.352	6859.4
881.67	6878.38
881.988	6874.76
882.306	6845.38
882.624	6871.15
882.941	6756.12
883.259	6779.17
883.577	6750.92
883.894	6757.93
884.212	6757.7
884.529	6702.34
884.846	6693.07
885.164	6661.44
885.481	6671.15
885.798	6637.25
886.115	6587.99
886.432	6665.73
886.75	6603.36
887.067	6575.11
887.383	6585.73
887.7	6617.37
888.017	6598.61
888.334	6572.85
888.651	6531.95
888.967	6514.55
889.284	6477.03
889.6	6487.43
889.917	6469.58
890.233	6414.44
890.55	6443.14
890.866	6407.88
891.182	6381.89
891.498	6352.97
891.815	6373.31
892.131	6379.41
892.447	6288.56
892.763	6291.5
893.079	6297.38
893.395	6250.6
893.71	6221.67
894.026	6226.42
894.342	6195.01
894.657	6235.23
894.973	6115.91
895.289	6184.39
895.604	6167.44
895.92	6096.48
896.235	6082.92
896.55	6144.16
896.865	6071.39
897.181	6073.2
897.496	6027.78
897.811	6017.16
898.126	6011.06
898.441	5995.01
898.756	5963.37
899.071	5851.29
899.386	5948.01
899.7	5868.24
900.015	5892.87
900.33	5847.45
900.644	5874.34
900.959	5809.03
901.273	5758.41
901.588	5799.08
901.902	5789.37
902.216	5726.09
902.531	5739.43
902.845	5669.82
903.159	5653.33
903.473	5610.84
903.787	5588.24
904.101	5576.04
904.415	5590.05
904.729	5563.16
905.042	5488.36
905.356	5577.4
905.67	5509.37
905.984	5498.75
906.297	5477.29
906.611	5438.19
906.924	5435.25
907.237	5400.68
907.551	5378.98
907.864	5448.59
908.177	5353.45
908.491	5370.85
908.804	5348.7
909.117	5240.68
909.43	5291.08
909.743	5233.45
910.056	5270.29
910.368	5190.97
910.681	5188.71
910.994	5131.53
911.307	5198.42
911.619	5108.71
911.932	5158.65
912.244	5108.48
912.557	5102.15
912.869	5068.71
913.181	5048.6
913.494	5029.61
913.806	4978.54
914.118	5019.22
914.43	4927.24
914.742	4963.17
915.054	4912.55
915.366	4936.73
915.678	4897.87
915.99	4903.52
916.302	4858.77
916.613	4806.12
916.925	4859.22
917.236	4873.23
917.548	4811.99
917.859	4770.86
918.171	4760.69
918.482	4698.55
918.794	4721.6
919.105	4696.29
919.416	4705.1
919.727	4634.82
920.038	4601.15
920.349	4595.73
920.66	4635.05
920.971	4599.12
921.282	4563.64
921.593	4523.64
921.903	4550.76
922.214	4516.86
922.525	4478.22
922.835	4449.97
923.146	4435.28
923.456	4418.78
923.767	4428.73
924.077	4413.36
924.387	4399.8
924.697	4388.27
925.008	4314.38
925.318	4320.25
925.628	4334.26
925.938	4292.91
926.248	4262.18
926.558	4291.78
926.867	4258.11
927.177	4222.63
927.487	4221.95
927.796	4186.7
928.106	4182.4
928.416	4135.17
928.725	4150.31
929.034	4082.29
929.344	4103.54
929.653	4113.71
929.962	4080.49
930.271	4028.51
930.581	4068.51
930.89	4005.01
931.199	3967.27
931.508	4010.88
931.817	3969.98
932.125	3981.73
932.434	3882.98
932.743	3914.16
933.051	3936.76
933.36	3903.99
933.669	3882.3
933.977	3874.39
934.286	3855.86
934.594	3860.15
934.902	3792.36
935.21	3786.48
935.519	3786.71
935.827	3747.84
936.135	3759.82
936.443	3719.59
936.751	3706.03
937.059	3676.65
937.367	3684.79
937.674	3675.3
937.982	3671.01
938.29	3656.99
938.597	3610.44
938.905	3602.98
939.213	3587.17
939.52	3555.3
939.827	3572.93
940.135	3557.11
940.442	3572.48
940.749	3519.37
941.056	3513.72
941.363	3501.29
941.67	3515.08
941.977	3472.59
942.284	3431.92
942.591	3392.14
942.898	3424.91
943.205	3404.8
943.511	3355.99
943.818	3369.77
944.125	3356.66
944.431	3342.2
944.738	3346.49
945.044	3357.34
945.35	3317.12
945.657	3284.12
945.963	3283.22
946.269	3311.92
946.575	3284.12
946.881	3269.21
947.187	3228.3
947.493	3227.63
947.799	3226.05
948.105	3179.72
948.41	3144.47
948.716	3187.18
949.022	3190.11
949.327	3203.9
949.633	3108.31
949.938	3120.29
950.244	3098.14
950.549	3080.06
950.854	3081.19
951.16	3042.32
951.465	3065.82
951.77	3055.43
952.075	3042.32
952.38	3038.48
952.685	3009.55
952.99	2998.93
953.294	3001.42
953.599	2979.27
953.904	2939.95
954.209	2932.27
954.513	2929.33
954.818	2919.84
955.122	2925.94
955.426	2888.88
955.731	2862.66
956.035	2860.63
956.339	2838.94
956.643	2840.74
956.948	2852.72
957.252	2838.48
957.556	2834.42
957.86	2817.69
958.163	2780.63
958.467	2817.02
958.771	2778.6
959.075	2757.58
959.378	2716.45
959.682	2751.03
959.985	2727.98
960.289	2699.51
960.592	2703.35
960.896	2687.75
961.199	2665.38
961.502	2652.73
961.805	2650.69
962.108	2643.69
962.411	2630.13
962.714	2588.1
963.017	2608.89
963.32	2634.65
963.623	2616.12
963.926	2592.84
964.228	2581.99
964.531	2549.68
964.833	2587.87
965.136	2527.53
965.438	2525.72
965.741	2525.95
966.043	2537.93
966.345	2507.87
966.648	2488.66
966.95	2479.17
967.252	2442.56
967.554	2431.04
967.856	2452.96
968.158	2447.31
968.46	2452.28
968.761	2402.11
969.063	2430.59
969.365	2397.37
969.666	2388.1
969.968	2375.45
970.269	2374.99
970.571	2333.64
970.872	2351.27
971.174	2356.01
971.475	2345.62
971.776	2385.16
972.077	2337.03
972.378	2300.42
972.679	2315.79
972.98	2299.29
973.281	2259.06
973.582	2279.63
973.883	2236.47
974.183	2296.13
974.484	2250.7
974.785	2222
975.085	2234.88
975.386	2243.25
975.686	2224.04
975.986	2183.13
976.287	2219.97
976.587	2178.39
976.887	2180.42
977.187	2150.59
977.487	2166.41
977.787	2158.5
978.087	2141.1
978.387	2096.13
978.687	2139.07
978.987	2124.15
979.286	2090.03
979.586	2095
979.885	2076.92
980.185	2062.23
980.484	2073.53
980.784	2074.44
981.083	2044.61
981.382	2037.38
981.682	2026.75
981.981	2036.25
982.28	2038.05
982.579	2016.81
982.878	2007.32
983.177	1978.62
983.475	2026.08
983.774	1983.37
984.073	1953.08
984.372	1941.33
984.67	1965.51
984.969	1955.34
985.267	1927.1
985.566	1938.62
985.864	1931.39
986.162	1913.76
986.461	1888.45
986.759	1902.01
987.057	1898.4
987.355	1892.52
987.653	1878.28
987.951	1851.62
988.249	1837.83
988.547	1855.91
988.844	1818.85
989.142	1848.45
989.44	1821.79
989.737	1828.79
990.035	1814.78
990.332	1817.27
990.63	1806.2
990.927	1758.29
991.224	1786.76
991.521	1789.7
991.819	1776.82
992.116	1789.02
992.413	1742.24
992.71	1733.88
993.006	1718.74
993.303	1721.45
993.6	1713.32
993.897	1701.57
994.193	1707.21
994.49	1692.3
994.787	1666.31
995.083	1695.46
995.379	1661.57
995.676	1676.93
995.972	1660.21
996.268	1670.83
996.565	1650.27
996.861	1639.19
997.157	1648.23
997.453	1607.56
997.749	1624.05
998.044	1602.81
998.34	1614.34
998.636	1601.23
998.932	1583.15
999.227	1584.51
999.523	1599.2
999.818	1564.62
1000.114	1515.58
1000.409	1554.68
1000.704	1535.92
1001	1539.54
1001.295	1510.38
1001.59	1512.19
1001.885	1493.66
1002.18	1485.3
1002.475	1506.32
1002.77	1488.46
1003.065	1487.79
1003.359	1488.01
1003.654	1469.71
1003.949	1450.05
1004.243	1444.62
1004.538	1424.28
1004.832	1438.97
1005.127	1427
1005.421	1416.15
1005.715	1430.84
1006.009	1425.64
1006.304	1401.91
1006.598	1413.89
1006.892	1390.84
1007.186	1370.95
1007.48	1382.03
1007.773	1348.13
1008.067	1358.3
1008.361	1337.06
1008.655	1349.26
1008.948	1352.2
1009.242	1314.91
1009.535	1339.77
1009.829	1310.84
1010.122	1295.02
1010.415	1294.12
1010.708	1278.53
1011.001	1281.92
1011.295	1293.21
1011.588	1286.66
1011.881	1287.11
1012.173	1260.45
1012.466	1268.13
1012.759	1228.13
1013.052	1257.06
1013.344	1240.56
1013.637	1241.69
1013.93	1198.3
1014.222	1209.6
1014.514	1191.75
1014.807	1199.66
1015.099	1215.93
1015.391	1218.64
1015.683	1184.06
1015.976	1195.36
1016.268	1171.64
1016.56	1160.11
1016.851	1145.2
1017.143	1158.53
1017.435	1174.12
1017.727	1149.26
1018.018	1109.04
1018.31	1111.98
1018.602	1127.34
1018.893	1118.53
1019.185	1092.09
1019.476	1088.02
1019.767	1109.49
1020.058	1104.07
1020.35	1077.85
1020.641	1078.08
1020.932	1089.38
1021.223	1078.3
1021.514	1073.79
1021.804	1048.7
1022.095	1033.79
1022.386	1017.52
1022.677	1028.59
1022.967	1050.74
1023.258	1017.29
1023.548	1047.12
1023.839	1022.26
1024.129	1027.23
1024.419	998.99
1024.709	996.27
1025	1004.86
1025.29	994.24
1025.58	986.56
1025.87	975.71
1026.16	955.37
1026.449	977.29
1026.739	960.57
1027.029	950.17
1027.319	935.71
1027.608	952.21
1027.898	955.14
1028.187	933.22
1028.477	960.57
1028.766	948.82
1029.055	935.26
1029.344	906.78
1029.634	907.69
1029.923	892.55
1030.212	879.44
1030.501	905.65
1030.79	870.63
1031.078	854.36
1031.367	867.46
1031.656	888.71
1031.945	881.93
1032.233	859.78
1032.522	874.92
1032.81	858.88
1033.099	824.98
1033.387	841.25
1033.675	869.5
1033.963	842.6
1034.251	857.29
1034.54	803.28
1034.828	823.17
1035.116	819.33
1035.403	829.05
1035.691	834.24
1035.979	763.74
1036.267	777.97
1036.554	802.38
1036.842	773
1037.129	762.16
1037.417	770.29
1037.704	799.22
1037.992	770.97
1038.279	755.15
1038.566	767.8
1038.853	767.8
1039.14	767.8
