Data from breadboard_white_FLMS001491_00081.txt Node
Date: Wed Feb 08 10:48:23 GMT 2017
User: dcchb
Spectrometer: FLMS00149
Trigger mode: 0
Integration Time (sec): 2.000000E-2
Scans to average: 10
Electric dark correction enabled: true
Nonlinearity correction enabled: false
Boxcar width: 0
XAxis mode: Wavelengths
Number of Pixels in Spectrum: 2048
>>>>>Begin Spectral Data<<<<<
341.393	-22.71
341.776	-22.71
342.16	-22.71
342.543	-68.36
342.927	-51.64
343.31	-51.64
343.693	-62.48
344.077	-64.29
344.46	-55.25
344.843	-67.23
345.226	-43.28
345.61	-45.54
345.993	-27.68
346.376	-1.69
346.759	10.73
347.142	31.75
347.525	53.9
347.908	50.96
348.291	70.39
348.674	88.92
349.057	112.43
349.44	101.81
349.823	137.74
350.206	153.78
350.588	200.79
350.971	237.62
351.354	237.17
351.737	259.77
352.119	271.52
352.502	277.85
352.884	295.92
353.267	307.9
353.65	304.29
354.032	320.1
354.414	319.65
354.797	335.7
355.179	342.7
355.562	337.28
355.944	353.32
356.326	340.67
356.709	376.15
357.091	362.59
357.473	367.33
357.855	391.06
358.238	361.91
358.62	352.65
359.002	349.26
359.384	371.4
359.766	371.63
360.148	361.23
360.53	362.82
360.912	398.07
361.294	358.3
361.676	344.06
362.057	372.08
362.439	361.69
362.821	370.95
363.203	353.1
363.584	351.97
363.966	336.15
364.348	337.96
364.729	360.78
365.111	359.2
365.493	342.25
365.874	347.9
366.256	346.54
366.637	352.19
367.019	352.65
367.4	339.54
367.781	342.02
368.163	370.5
368.544	358.52
368.925	353.78
369.306	364.85
369.688	345.41
370.069	365.75
370.45	356.71
370.831	366.66
371.212	362.14
371.593	366.43
371.974	344.51
372.355	365.08
372.736	347.22
373.117	349.48
373.498	354.23
373.879	362.59
374.26	384.28
374.641	377.28
375.021	371.4
375.402	361.69
375.783	359.88
376.163	382.48
376.544	372.98
376.925	375.92
377.305	379.54
377.686	362.14
378.066	395.81
378.447	396.03
378.827	386.77
379.208	397.16
379.588	389.93
379.968	388.35
380.349	407.56
380.729	386.54
381.109	417.28
381.489	410.72
381.87	419.76
382.25	402.14
382.63	410.72
383.01	404.4
383.39	423.15
383.77	415.7
384.15	429.93
384.53	419.99
384.91	441.01
385.29	426.32
385.67	440.78
386.049	460.44
386.429	477.61
386.809	455.69
387.189	461.12
387.568	454.56
387.948	470.61
388.328	466.54
388.707	463.15
389.087	473.77
389.466	472.19
389.846	472.64
390.225	482.81
390.605	485.07
390.984	507.9
391.363	508.35
391.743	508.12
392.122	506.09
392.501	504.05
392.881	527.33
393.26	516.03
393.639	544.51
394.018	537.73
394.397	544.51
394.776	540.21
395.155	576.14
395.534	567.33
395.913	569.36
396.292	573.88
396.671	578.85
397.05	613.66
397.429	610.94
397.808	611.62
398.186	613.66
398.565	614.56
398.944	623.83
399.323	629.47
399.701	650.49
400.08	634.45
400.458	650.72
400.837	670.83
401.215	682.13
401.594	677.84
401.972	697.95
402.351	683.71
402.729	694.11
403.107	709.7
403.486	752.41
403.864	753.54
404.242	746.76
404.62	771.84
404.999	773.88
405.377	792.63
405.755	811.62
406.133	822.69
406.511	826.08
406.889	864.95
407.267	848.23
407.645	883.03
408.023	896.36
408.401	923.03
408.779	940.88
409.156	942.24
409.534	976.81
409.912	1004.15
410.29	973.87
410.667	1016.13
411.045	1038.5
411.422	1055.23
411.8	1036.24
412.178	1092.06
412.555	1117.15
412.933	1116.24
413.31	1136.58
413.687	1165.28
414.065	1175.45
414.442	1206.18
414.819	1213.41
415.197	1222
415.574	1255.67
415.951	1274.43
416.328	1293.19
416.705	1332.51
417.082	1332.28
417.46	1343.35
417.837	1353.07
418.214	1384.71
418.591	1382.9
418.967	1376.12
419.344	1419.51
419.721	1450.24
420.098	1447.76
420.475	1484.82
420.852	1500.41
421.228	1500.86
421.605	1514.2
421.982	1529.56
422.358	1568.66
422.735	1610.24
423.111	1621.77
423.488	1628.77
423.864	1652.95
424.241	1652.27
424.617	1690.01
424.994	1698.83
425.37	1738.15
425.746	1725.94
426.123	1732.5
426.499	1769.78
426.875	1800.29
427.251	1821.76
427.627	1853.85
428.003	1874.64
428.379	1915.09
428.756	1917.35
429.132	1934.75
429.507	1972.49
429.883	2017.46
430.259	2040.74
430.635	2061.3
431.011	2063.79
431.387	2126.38
431.763	2152.15
432.138	2198.93
432.514	2206.16
432.89	2244.12
433.265	2282.54
433.641	2304.91
434.016	2298.36
434.392	2388.75
434.767	2436.43
435.143	2442.99
435.518	2447.51
435.894	2460.39
436.269	2534.74
436.644	2585.36
437.02	2565.47
437.395	2589.2
437.77	2628.52
438.145	2682.08
438.52	2672.59
438.895	2727.72
439.271	2739.48
439.646	2757.55
440.021	2812.92
440.395	2805.24
440.77	2827.16
441.145	2852.92
441.52	2896.08
441.895	2919.36
442.27	2939.47
442.645	2960.71
443.019	2977.89
443.394	2988.73
443.769	3023.08
444.143	3015.85
444.518	3070.54
444.892	3050.2
445.267	3103.76
445.641	3180.14
446.016	3123.19
446.39	3171.78
446.764	3195.06
447.139	3189.63
447.513	3273.02
447.887	3271.21
448.262	3295.85
448.636	3339.23
449.01	3342.17
449.384	3391.21
449.758	3429.85
450.132	3477.76
450.506	3476.18
450.88	3478.21
451.254	3527.7
451.628	3555.95
452.002	3597.08
452.376	3601.6
452.75	3695.16
453.123	3688.38
453.497	3757.3
453.871	3774.93
454.244	3826.45
454.618	3858.09
454.992	3959.1
455.365	3963.17
455.739	4067.58
456.112	4119.33
456.486	4163.39
456.859	4137.86
457.232	4245.65
457.606	4236.16
457.979	4308.25
458.352	4374.91
458.725	4497.85
459.099	4511.41
459.472	4586.21
459.845	4627.79
460.218	4639.31
460.591	4701.01
460.964	4696.26
461.337	4828.69
461.71	4963.15
462.083	5008.79
462.456	5005.18
462.829	5019.42
463.201	5128.57
463.574	5126.76
463.947	5223.48
464.32	5332.85
464.692	5366.07
465.065	5408.78
465.438	5525.84
465.81	5576.24
466.183	5611.49
466.555	5738.49
466.928	5782.79
467.3	5784.37
467.672	5896.91
468.045	6084.92
468.417	6067.52
468.789	6185.49
469.161	6220.06
469.534	6281.3
469.906	6434.52
470.278	6517.46
470.65	6596.55
471.022	6667.51
471.394	6813.72
471.766	6851.23
472.138	6949.08
472.51	7185.23
472.882	7227.04
473.253	7310.43
473.625	7413.93
473.997	7546.81
474.369	7585.9
474.74	7734.6
475.112	7859.57
475.484	7967.36
475.855	8094.36
476.227	8213.68
476.598	8439.67
476.97	8520.57
477.341	8697.06
477.713	8812.31
478.084	8895.92
478.455	9214.56
478.827	9231.51
479.198	9484.16
479.569	9524.38
479.94	9754.43
480.311	9899.29
480.682	10162.33
481.053	10321.2
481.424	10511.02
481.795	10573.62
482.166	10779.49
482.537	10892.48
482.908	11196.2
483.279	11234.85
483.65	11484.33
484.021	11710.31
484.391	11924.77
484.762	11879.35
485.133	12110.76
485.503	12203.18
485.874	12477.98
486.244	12603.17
486.615	12861.92
486.985	13021.69
487.356	13249.93
487.726	13332.19
488.097	13672.75
488.467	13649.92
488.837	14025.05
489.207	14010.82
489.578	14303.92
489.948	14466.85
490.318	14674.76
490.688	14743.91
491.058	14997.68
491.428	15256.21
491.798	15335.75
492.168	15685.12
492.538	15777.33
492.908	15908.62
493.278	16136.41
493.648	16071.78
494.017	16382.06
494.387	16576.4
494.757	16734.14
495.126	16799.45
495.496	17038.54
495.866	17038.76
496.235	17239.89
496.605	17432.2
496.974	17547
497.344	17801.9
497.713	17854.33
498.082	17977.95
498.452	18196.92
498.821	18308.33
499.19	18398.73
499.559	18549.68
499.928	18712.84
500.298	18737.93
500.667	18843.69
501.036	19072.61
501.405	19221.3
501.774	19258.82
502.143	19412.94
502.512	19498.81
502.88	19677.34
503.249	19670.56
503.618	20047.5
503.987	20011.11
504.356	20138.79
504.724	20294.49
505.093	20349.86
505.462	20536.97
505.83	20702.17
506.199	20990.3
506.567	21083.63
506.936	21167.92
507.304	21421.24
507.672	21458.08
508.041	21635.48
508.409	21776.26
508.777	22002.7
509.145	22071.17
509.514	22131.06
509.882	22203.37
510.25	22378.96
510.618	22593.19
510.986	22772.17
511.354	22970.13
511.722	23146.85
512.09	23399.72
512.458	23339.39
512.826	23588.19
513.193	23754.06
513.561	23898.02
513.929	24050.78
514.297	24264.56
514.664	24418
515.032	24548.17
515.4	24850.53
515.767	24870.87
516.135	25081.04
516.502	25088.72
516.869	25460.46
517.237	25525.09
517.604	25608.25
517.972	25912.88
518.339	26175.02
518.706	26102.48
519.073	26341.12
519.44	26454.33
519.808	26770.26
520.175	26810.71
520.542	27212.73
520.909	27352.16
521.276	27547.19
521.643	27715.77
522.009	27851.58
522.376	28120.5
522.743	28295.41
523.11	28539.93
523.477	28845
523.843	29006.58
524.21	29285.9
524.577	29519.11
524.943	29635.49
525.31	29772.89
525.676	30201.8
526.043	30415.36
526.409	30613.32
526.776	30843.6
527.142	31068.22
527.508	31123.59
527.874	31454.65
528.241	31529.45
528.607	31661.88
528.973	32073.85
529.339	32066.61
529.705	32354.29
530.071	32582.99
530.437	32759.03
530.803	32877.89
531.169	33147.94
531.535	33140.26
531.901	33290.99
532.267	33506.12
532.632	33706.35
532.998	33786.8
533.364	34093.23
533.73	34200.8
534.095	34426.33
534.461	34500.45
534.826	34748.35
535.192	34942.92
535.557	35199.87
535.923	35135.69
536.288	35252.52
536.653	35350.82
537.019	35510.37
537.384	35643.02
537.749	35826.29
538.114	35883.01
538.479	35934.31
538.845	36204.36
539.21	36190.57
539.575	36410.91
539.94	36487.97
540.305	36772.93
540.67	36700.62
541.034	36796.66
541.399	37031.23
541.764	37157.78
542.129	37296.53
542.494	37409.52
542.858	37603.64
543.223	37671.66
543.587	37991.43
543.952	37921.6
544.316	38068.49
544.681	38013.35
545.045	38218.54
545.41	38628.93
545.774	38562.94
546.138	38615.59
546.503	38714.58
546.867	38772.88
547.231	39256.93
547.595	39062.14
547.959	39270.04
548.324	39325.18
548.688	39497.15
549.052	39597.94
549.416	39829.12
549.779	39816.92
550.143	39942.34
550.507	40199.51
550.871	40291.93
551.235	40130.81
551.599	40658.48
551.962	40692.38
552.326	40690.79
552.689	41064.8
553.053	40939.38
553.417	41069.54
553.78	41485.8
554.143	41491.45
554.507	41794.27
554.87	41957.43
555.234	42245.56
555.597	42074.26
555.96	42310.19
556.323	42487.36
556.686	42491.65
557.05	42786.33
557.413	42854.81
557.776	43148.81
558.139	43299.54
558.502	43401.46
558.865	43453.21
559.228	43820.66
559.59	43951.05
559.953	44079.63
560.316	44398.72
560.679	44439.4
561.041	44742.89
561.404	44773.85
561.767	45179.49
562.129	44925.03
562.492	45367.51
562.854	45445.7
563.217	45608.41
563.579	45672.58
563.941	46049.98
564.304	46094.49
564.666	46384.88
565.028	46399.34
565.39	46669.39
565.753	46840.69
566.115	46957.52
566.477	47173.11
566.839	47239.55
567.201	47598.18
567.563	47436.38
567.925	47773.09
568.287	47784.85
568.648	47776.94
569.01	48157.04
569.372	48462.79
569.734	48296.24
570.095	48672.05
570.457	48619.4
570.819	48724.48
571.18	48768.77
571.542	49026.85
571.903	48992.95
572.265	49126.05
572.626	49361.75
572.987	49392.03
573.349	49592.26
573.71	49578.47
574.071	49654.17
574.432	49798.58
574.794	50065.24
575.155	50020.04
575.516	50006.93
575.877	50132.13
576.238	50206.93
576.599	50375.74
576.96	50317.43
577.32	50417.54
577.681	50513.36
578.042	50587.26
578.403	50679.91
578.763	50605.34
579.124	50674.71
579.485	50810.53
579.845	50996.96
580.206	50839.45
580.566	50890.75
580.927	50874.48
581.287	51084.87
581.648	50950.64
582.008	51032.22
582.368	51017.98
582.728	51114.48
583.089	51050.97
583.449	51055.72
583.809	51167.36
584.169	51150.41
584.529	51161.03
584.889	51288.03
585.249	51150.18
585.609	51064.98
585.969	51222.04
586.329	51137.75
586.688	51257.52
587.048	51220.91
587.408	51164.64
587.768	51088.49
588.127	51116.06
588.487	51191.08
588.846	51358.08
589.206	51144.3
589.565	51043.29
589.925	51330.06
590.284	51174.13
590.643	51356.05
591.003	51331.64
591.362	51450.51
591.721	51376.16
592.08	51336.39
592.44	51479.21
592.799	51475.6
593.158	51441.47
593.517	51467.69
593.876	51451.64
594.235	51388.59
594.593	51416.39
594.952	51589.26
595.311	51412.09
595.67	51406.44
596.029	51702.03
596.387	51650.28
596.746	51745.19
597.104	51556.27
597.463	51682.6
597.822	51640.56
598.18	51705.65
598.538	51617.96
598.897	51806.66
599.255	51498.42
599.613	52010.04
599.972	51784.51
600.33	51819.32
600.688	51723.72
601.046	51804.85
601.404	51928.69
601.762	51870.16
602.12	51963.72
602.478	52113.54
602.836	52042.13
603.194	51971.4
603.552	52028.8
603.91	51941.8
604.268	52079.42
604.625	52024.96
604.983	52175.46
605.341	52089.14
605.698	52202.58
606.056	52255.91
606.413	52284.61
606.771	52302.47
607.128	52308.34
607.485	52254.56
607.843	52224.05
608.2	52447.32
608.557	52505.4
608.914	52370.04
609.272	52412.52
609.629	52657.03
609.986	52659.52
610.343	52542.69
610.7	52749.91
611.057	52736.13
611.414	52727.77
611.771	52768.67
612.127	52844.15
612.484	52821.32
612.841	52901.55
613.198	52784.71
613.554	52881.66
613.911	53010.02
614.267	52958.27
614.624	52996.91
614.98	53044.37
615.337	53120.07
615.693	53045.5
616.05	53075.78
616.406	53155.1
616.762	53113.52
617.118	53136.12
617.475	53116.91
617.831	53292.27
618.187	53277.58
618.543	53251.14
618.899	53454.07
619.255	53385.38
619.611	53406.17
619.967	53459.27
620.323	53502.66
620.678	53380.18
621.034	53436.45
621.39	53362.78
621.746	53316.9
622.101	53667.63
622.457	53382.44
622.812	53479.16
623.168	53626.05
623.523	53527.75
623.879	53611.81
624.234	53464.92
624.589	53495.66
624.945	53509.67
625.3	53517.8
625.655	53516.45
626.01	53462.89
626.365	53579.04
626.72	53424.92
627.075	53492.49
627.43	53493.62
627.785	53336.56
628.14	53489.33
628.495	53592.83
628.85	53435.54
629.205	53354.64
629.559	53496.33
629.914	53297.69
630.269	53371.82
630.623	53244.59
630.978	53237.36
631.332	53387.18
631.687	53384.47
632.041	53284.14
632.396	53272.61
632.75	53178.6
633.104	53180.86
633.459	53099.96
633.813	53104.25
634.167	53111.94
634.521	53064.03
634.875	53021.54
635.229	52987.87
635.583	52891.83
635.937	52975.67
636.291	52820.42
636.645	52837.37
636.999	52805.28
637.352	52786.07
637.706	52693.64
638.06	52760.53
638.413	52702.68
638.767	52542.01
639.121	52559.86
639.474	52425.85
639.828	52505.85
640.181	52504.5
640.534	52490.94
640.888	52424.05
641.241	52302.24
641.594	52263.6
641.947	52416.36
642.301	52365.29
642.654	52290.04
643.007	52189.48
643.36	52151.74
643.713	52078.74
644.066	52272.18
644.419	52052.08
644.771	51920.33
645.124	51517.18
645.477	51561.92
645.83	51194.02
646.182	51063.63
646.535	50948.83
646.888	51015.04
647.24	51002.61
647.593	51099.56
647.945	50942.05
648.298	50766.46
648.65	50785.9
649.002	50611.21
649.355	50709.97
649.707	50753.35
650.059	50833.13
650.411	51238.54
650.763	51152.89
651.115	51567.12
651.467	51407.57
651.819	51407.35
652.171	51248.93
652.523	51186.11
652.875	51272.44
653.227	51157.64
653.578	51219.78
653.93	51201.48
654.282	51010.75
654.633	50881.71
654.985	50982.95
655.337	50967.81
655.688	50984.08
656.039	51070.86
656.391	50807.59
656.742	50898.44
657.094	50808.04
657.445	51020.47
657.796	50911.54
658.147	50792.45
658.498	50817.53
658.849	50876.74
659.2	50791.77
659.551	50692.34
659.902	50980.69
660.253	50665.67
660.604	50824.99
660.955	50612.34
661.306	50750.42
661.656	50739.8
662.007	50666.58
662.358	50658.89
662.708	50634.26
663.059	50513.81
663.409	50298
663.76	50533.02
664.11	50511.78
664.461	50636.52
664.811	50518.11
665.161	50553.13
665.511	50400.82
665.862	50470.2
666.212	50543.19
666.562	50536.41
666.912	50421.39
667.262	50425.23
667.612	50435.17
667.962	50427.49
668.312	50275.85
668.662	50533.25
669.011	50341.39
669.361	50349.07
669.711	50307.26
670.06	50224.33
670.41	50265.91
670.76	50116.99
671.109	50357.66
671.459	50343.42
671.808	50128.96
672.157	50137.78
672.507	49989.99
672.856	49927.39
673.205	50010.55
673.554	50134.61
673.904	49982.3
674.253	50127.83
674.602	50097.1
674.951	49459.38
675.3	49346.84
675.649	49934.62
675.998	49786.37
676.346	49831.35
676.695	49967.61
677.044	49577.34
677.393	49742.76
677.741	49771.23
678.09	49664.12
678.438	49645.14
678.787	49621.63
679.135	49718.58
679.484	49278.37
679.832	49591.13
680.181	49323.79
680.529	49439.04
680.877	49361.53
681.225	49270.46
681.573	49520.17
681.922	49261.19
682.27	49133.06
682.618	49074.3
682.966	49013.29
683.314	49098.48
683.661	48979.62
684.009	48780.98
684.357	48726.29
684.705	48707.98
685.053	48610.59
685.4	48644.26
685.748	48376.47
686.095	48461.44
686.443	48256.25
686.79	48183.25
687.138	48338.28
687.485	48258.28
687.832	48156.13
688.18	48074.33
688.527	47973.77
688.874	47997.27
689.221	47764.28
689.568	47659.2
689.915	47578.3
690.262	47608.35
690.609	47456.04
690.956	47277.97
691.303	47371.07
691.65	47157.52
691.997	47214.69
692.344	46920.69
692.69	46792.78
693.037	46791.2
693.383	46487.48
693.73	46791.88
694.077	46385.33
694.423	46338.33
694.769	46420.14
695.116	46111.44
695.462	46135.17
695.808	46081.84
696.155	45922.97
696.501	45826.25
696.847	45732.02
697.193	45468.97
697.539	45577.45
697.885	45214.97
698.231	45157.8
698.577	45147.4
698.923	45142.65
699.269	44878.48
699.614	44818.6
699.96	44633.06
700.306	44663.12
700.651	44522.11
700.997	44208.22
701.342	44383.8
701.688	44250.93
702.033	44053.42
702.379	44035.57
702.724	43998.28
703.069	44156.69
703.415	43499.08
703.76	43511.96
704.105	43526.65
704.45	43402.59
704.795	43357.17
705.14	43196.27
705.485	43072.2
705.83	42952.2
706.175	42974.8
706.52	42802.38
706.865	42783.85
707.209	42606.45
707.554	42442.39
707.899	42490.75
708.243	42429.05
708.588	42354.48
708.932	41987.94
709.277	41984.32
709.621	42126.01
709.966	41812.8
710.31	41825.68
710.654	41458.91
710.998	41457.33
711.342	41583.43
711.687	41338.91
712.031	41199.93
712.375	41125.81
712.719	41128.3
713.063	41133.72
713.407	41215.98
713.75	40863.45
714.094	40769.89
714.438	40728.08
714.782	40814.18
715.125	40588.88
715.469	40671.59
715.812	40291.48
716.156	40154.09
716.499	40231.82
716.843	40236.57
717.186	39994.54
717.53	40181.66
717.873	40017.37
718.216	39904.83
718.559	39895.56
718.902	39716.36
719.246	39757.71
719.589	39489.7
719.932	39472.07
720.275	39492.18
720.617	39369.02
720.96	39221.23
721.303	39249.48
721.646	39393.2
721.989	39052.19
722.331	39100.78
722.674	38995.7
723.016	38847.68
723.359	38772.88
723.701	38763.61
724.044	38602.71
724.386	38452.89
724.729	38620.34
725.071	38512.77
725.413	38438.65
725.755	38393.68
726.097	38180.58
726.439	38021.03
726.782	38009.51
727.124	38098.32
727.465	37943.52
727.807	37915.95
728.149	37852.9
728.491	37887.7
728.833	37821.27
729.175	37789.4
729.516	37592.12
729.858	37510.77
730.199	37656.98
730.541	37374.5
730.882	37419.24
731.224	37520.93
731.565	37261.73
731.906	37246.37
732.248	37187.16
732.589	37060.61
732.93	36941.97
733.271	37100.15
733.612	37012.25
733.953	36962.53
734.294	36851.35
734.635	36771.8
734.976	36844.79
735.317	36646.61
735.658	36596.44
735.999	36538.36
736.339	36355.32
736.68	36590.79
737.021	36374.52
737.361	36222.21
737.702	36368.65
738.042	36169.11
738.383	36078.26
738.723	36229.89
739.063	36062.44
739.404	35989.68
739.744	35917.36
740.084	35800.53
740.424	35822.45
740.764	35709.91
741.104	35923.01
741.444	35736.12
741.784	35596.47
742.124	35501.78
742.464	35553.53
742.804	35402.35
743.143	35440.31
743.483	35362.12
743.823	35134.1
744.162	35131.39
744.502	35192.86
744.841	34897.27
745.181	35136.82
745.52	34948.8
745.86	34988.12
746.199	34855.47
746.538	34747
746.877	34780.44
747.216	34693.44
747.556	34636.04
747.895	34690.5
748.234	34494.35
748.573	34424.29
748.911	34470.39
749.25	34282.38
749.589	34074.02
749.928	34136.39
750.267	34236.95
750.605	34129.16
750.944	34006.45
751.283	33805.33
751.621	33837.87
751.96	33679.23
752.298	33785.67
752.636	33744.08
752.975	33467.03
753.313	33335.06
753.651	33538.67
753.989	33395.85
754.327	33243.53
754.666	33051.9
755.004	33191.56
755.342	33093.71
755.679	32994.05
756.017	32712.47
756.355	32808.52
756.693	32560.39
757.031	32781.4
757.368	32592.48
757.706	32479.26
758.044	32347.06
758.381	32412.82
758.719	32341.64
759.056	32307.06
759.394	32066.84
759.731	31942.32
760.068	31863.68
760.405	31856.9
760.743	31778.94
761.08	31927.86
761.417	31600.64
761.754	31554.09
762.091	31410.59
762.428	31228.44
762.765	31062.8
763.102	31322.91
763.438	30990.71
763.775	30979.41
764.112	30814.22
764.449	30876.59
764.785	30705.52
765.122	30460.33
765.458	30336.72
765.795	30404.29
766.131	30345.53
766.467	30179.66
766.804	29977.18
767.14	29871.42
767.476	29816.96
767.812	29774.7
768.148	29790.52
768.485	29600.46
768.821	29426.46
769.157	29394.59
769.492	29166.35
769.828	29241.83
770.164	28943.76
770.5	28899.92
770.836	28851.11
771.171	28613.15
771.507	28640.26
771.842	28466.71
772.178	28392.36
772.513	28326.37
772.849	28188.3
773.184	28032.37
773.519	28083.22
773.855	27983.11
774.19	27821.53
774.525	27784.02
774.86	27618.37
775.195	27705.37
775.53	27536.34
775.865	27434.65
776.2	27198.95
776.535	27027.88
776.87	27071.04
777.205	26902.46
777.539	26839.63
777.874	26886.64
778.209	26608.68
778.543	26455.46
778.878	26359.19
779.212	26454.56
779.547	26187
779.881	26188.8
780.215	26100.9
780.55	26098.86
780.884	25860.9
781.218	25849.15
781.552	25843.5
781.886	25614.13
782.22	25475.83
782.554	25482.15
782.888	25207.36
783.222	25095.05
783.556	25027.25
783.889	25049.62
784.223	24873.13
784.557	24782.51
784.89	24721.27
785.224	24710.65
785.557	24532.58
785.891	24595.4
786.224	24409.64
786.558	24372.13
786.891	24135.3
787.224	24082.42
787.557	23949.31
787.891	23940.05
788.224	23933.04
788.557	23843.33
788.89	23838.36
789.223	23676.55
789.556	23554.07
789.888	23602.66
790.221	23388.65
790.554	23270.91
790.887	23303.46
791.219	23095.78
791.552	23077.25
791.884	23011.49
792.217	22798.61
792.549	22818.5
792.882	22541.67
793.214	22644.49
793.546	22643.81
793.879	22459.86
794.211	22423.25
794.543	22474.78
794.875	22452.86
795.207	22273.65
795.539	22200.66
795.871	22122.47
796.203	22029.14
796.535	21962.02
796.867	21830.27
797.198	21688.13
797.53	21794.57
797.862	21569.72
798.193	21613.33
798.525	21453.33
798.856	21444.07
799.188	21347.57
799.519	21212.66
799.85	21130.86
800.182	21095.6
800.513	21035.27
800.844	20911.2
801.175	21042.5
801.506	20876.85
801.837	20668.72
802.168	20808.61
802.499	20623.53
802.83	20595.28
803.161	20480.7
803.491	20433.7
803.822	20456.75
804.153	20302.4
804.483	20203.42
804.814	20079.13
805.145	20191.67
805.475	20096.76
805.805	20021.51
806.136	20089.75
806.466	19987.16
806.796	19912.81
807.126	19656.32
807.457	19754.62
807.787	19725.24
808.117	19596.21
808.447	19593.72
808.777	19649.77
809.107	19494.74
809.436	19373.61
809.766	19460.84
810.096	19303.56
810.426	19245.26
810.755	19284.8
811.085	19210
811.414	19107.86
811.744	18991.25
812.073	18944.25
812.403	18997.81
812.732	18841.88
813.061	18917.58
813.39	18796.45
813.719	18692.5
814.049	18763.01
814.378	18730.69
814.707	18579.06
815.036	18624.93
815.365	18495.22
815.693	18375.9
816.022	18438.72
816.351	18307.88
816.68	18241.22
817.008	18351.95
817.337	18149.92
817.665	18041.9
817.994	18047.1
818.322	18042.35
818.651	18009.36
818.979	17880.32
819.307	17946.99
819.636	17912.41
819.964	17738.86
820.292	17862.92
820.62	17817.5
820.948	17814.33
821.276	17813.66
821.604	17724.84
821.932	17727.33
822.259	17741.57
822.587	17725.97
822.915	17697.27
823.243	17678.07
823.57	17666.99
823.898	17723.26
824.225	17615.7
824.553	17658.41
824.88	17658.63
825.207	17750.61
825.535	17584.06
825.862	17782.92
826.189	17688.01
826.516	17711.06
826.843	17731.17
827.17	17653.21
827.497	17752.64
827.824	17581.8
828.151	17676.26
828.478	17580.44
828.805	17760.32
829.131	17571.18
829.458	17578.41
829.785	17481.24
830.111	17644.85
830.438	17658.86
830.764	17497.96
831.09	17633.55
831.417	17569.14
831.743	17629.25
832.069	17547.45
832.395	17502.93
832.722	17554.45
833.048	17375.7
833.374	17399.88
833.7	17527.56
834.026	17423.38
834.351	17398.3
834.677	17435.81
835.003	17371.86
835.329	17428.58
835.654	17369.83
835.98	17210.28
836.306	17261.13
836.631	17218.19
836.956	17258.42
837.282	17281.69
837.607	17121.7
837.932	17161.02
838.258	17184.97
838.583	17087.12
838.908	17020.23
839.233	17008.93
839.558	16960.57
839.883	16881.48
840.208	16953.57
840.533	16881.7
840.858	16820.46
841.182	16873.34
841.507	16790.18
841.832	16667.47
842.156	16634.48
842.481	16682.84
842.805	16632.67
843.13	16587.7
843.454	16608.49
843.778	16532.56
844.103	16410.08
844.427	16443.52
844.751	16304.32
845.075	16307.93
845.399	16287.37
845.723	16147.94
846.047	16244.21
846.371	16065.23
846.695	16088.5
847.019	15938.9
847.343	15972.12
847.666	15799.02
847.99	15816.42
848.313	15775.97
848.637	15624.56
848.96	15571.68
849.284	15590.21
849.607	15433.38
849.931	15447.16
850.254	15327.17
850.577	15214.18
850.9	15124.69
851.223	15048.98
851.546	15055.76
851.869	14956.33
852.192	15067.97
852.515	14834.07
852.838	14760.18
853.161	14779.16
853.483	14697.58
853.806	14738.26
854.129	14681.76
854.451	14650.8
854.774	14539.39
855.096	14515.21
855.419	14432.5
855.741	14393.18
856.063	14340.98
856.385	14291.04
856.708	14200.19
857.03	14109.57
857.352	14277.48
857.674	14129.23
857.996	14030.03
858.318	13941.44
858.64	14016.02
858.961	13965.85
859.283	13918.62
859.605	13882.69
859.926	13953.42
860.248	13825.96
860.57	13803.82
860.891	13793.65
861.212	13735.8
861.534	13564.5
861.855	13624.84
862.176	13687.44
862.498	13627.1
862.819	13630.04
863.14	13536.93
863.461	13490.15
863.782	13392.98
864.103	13460.78
864.424	13417.84
864.745	13353.21
865.065	13306.66
865.386	13305.53
865.707	13238.63
866.027	13299.42
866.348	13195.25
866.668	13215.36
866.989	13194.79
867.309	13011.97
867.63	13122.93
867.95	13070.96
868.27	12924.52
868.59	13080.9
868.91	12977.4
869.23	12975.82
869.55	12912.77
869.87	12929.04
870.19	12952.77
870.51	12960
870.83	12937.17
871.15	12814.69
871.469	12804.52
871.789	12853.33
872.109	12837.97
872.428	12814.24
872.748	12728.82
873.067	12692.43
873.386	12804.07
873.706	12708.48
874.025	12640.68
874.344	12576.51
874.663	12653.79
874.982	12638.65
875.301	12617.63
875.62	12542.83
875.939	12380.58
876.258	12491.54
876.577	12452.89
876.896	12420.35
877.214	12384.65
877.533	12372.67
877.852	12359.34
878.17	12332.44
878.489	12357.08
878.807	12354.14
879.125	12270.07
879.444	12271.43
879.762	12249.73
880.08	12259.45
880.398	12252.9
880.716	12239.11
881.034	12214.03
881.352	12310.3
881.67	12166.8
881.988	12160.7
882.306	12126.12
882.624	12053.58
882.941	12040.7
883.259	11973.81
883.577	11939.46
883.894	12007.25
884.212	11977.65
884.529	11778.79
884.846	11887.94
885.164	11859.24
885.481	11861.5
885.798	11789.63
886.115	11825.11
886.432	11711.44
886.75	11722.52
887.067	11742.63
887.383	11692.23
887.7	11664.44
888.017	11536.08
888.334	11567.94
888.651	11586.93
888.967	11550.77
889.284	11435.74
889.6	11390.55
889.917	11389.64
890.233	11332.02
890.55	11288.86
890.866	11304
891.182	11317.33
891.498	11206.6
891.815	11140.84
892.131	11181.97
892.447	11116.88
892.763	11017.68
893.079	11030.33
893.395	11008.41
893.71	10978.81
894.026	10909.2
894.342	10953.05
894.657	10897.45
894.973	10796.44
895.289	10784.24
895.604	10828.75
895.92	10782.65
896.235	10768.19
896.55	10760.96
896.865	10635.31
897.181	10635.31
897.496	10645.03
897.811	10530.46
898.126	10530.46
898.441	10518.93
898.756	10495.43
899.071	10434.19
899.386	10348.32
899.7	10299.5
900.015	10313.06
900.33	10221.09
900.644	10204.82
900.959	10167.76
901.273	10184.7
901.588	10149.68
901.902	10044.14
902.216	10084.37
902.531	9983.35
902.845	9988.1
903.159	9962.79
903.473	9864.94
903.787	9918.27
904.101	9826.97
904.415	9772.96
904.729	9745.17
905.042	9685.96
905.356	9731.16
905.67	9705.62
905.984	9598.28
906.297	9601.67
906.611	9547.43
906.924	9502.01
907.237	9512.18
907.551	9422.24
907.864	9406.87
908.177	9329.13
908.491	9307.66
908.804	9288.46
909.117	9204.16
909.43	9161.23
909.743	9108.35
910.056	9153.54
910.368	9097.5
910.681	9028.12
910.994	8952.65
911.307	8929.6
911.619	8873.78
911.932	8907.22
912.244	8797.62
912.557	8834.23
912.869	8683.95
913.181	8774.57
913.494	8724.18
913.806	8656.83
914.118	8670.85
914.43	8597.63
914.742	8597.85
915.054	8519.44
915.366	8476.27
915.678	8455.71
915.99	8446.9
916.302	8424.52
916.613	8299.1
916.925	8311.53
917.236	8314.7
917.548	8213.23
917.859	8216.39
918.171	8140.92
918.482	8149.96
918.794	8068.15
919.105	8137.07
919.416	8051.88
919.727	8046.23
920.038	8047.13
920.349	7897.76
920.66	7875.39
920.971	7859.79
921.282	7885.33
921.593	7826.35
921.903	7758.78
922.214	7735.5
922.525	7701.15
922.835	7645.11
923.146	7565.56
923.456	7589.07
923.767	7558.33
924.077	7521.05
924.387	7526.02
924.697	7499.58
925.008	7439.92
925.318	7441.5
925.628	7375.51
925.938	7373.03
926.248	7345.23
926.558	7293.03
926.867	7221.39
927.177	7227.72
927.487	7164.9
927.796	7136.2
928.106	7155.63
928.416	7023.66
928.725	6990.21
929.034	7012.36
929.344	7034.73
929.653	7008.29
929.962	6913.6
930.271	6900.5
930.581	6880.16
930.89	6809.43
931.199	6785.92
931.508	6809.2
931.817	6763.32
932.125	6711.12
932.434	6714.06
932.743	6675.42
933.051	6676.32
933.36	6650.79
933.669	6573.5
933.977	6526.27
934.286	6537.79
934.594	6535.08
934.902	6465.48
935.21	6360.17
935.519	6431.81
935.827	6375.31
936.135	6363.79
936.443	6279.04
936.751	6264.36
937.059	6283.11
937.367	6237.24
937.674	6234.53
937.982	6186.62
938.29	6200.85
938.597	6139.84
938.905	6060.97
939.213	6084.47
939.52	6103.46
939.827	6011.93
940.135	5980.75
940.442	5980.07
940.749	5905.27
941.056	5940.52
941.363	5902.56
941.67	5860.75
941.977	5854.65
942.284	5816.46
942.591	5774.88
942.898	5789.11
943.205	5776.46
943.511	5686.29
943.818	5681.77
944.125	5678.16
944.431	5671.6
944.738	5642.45
945.044	5618.95
945.35	5559.74
945.657	5545.5
945.963	5519.97
946.269	5501.89
946.575	5458.05
946.881	5483.81
947.187	5454.21
947.493	5449.69
947.799	5430.7
948.105	5364.04
948.41	5373.53
948.716	5372.85
949.022	5327.88
949.327	5303.25
949.633	5222.35
949.938	5202.69
950.244	5221.9
950.549	5149.81
950.854	5156.59
951.16	5140.32
951.465	5126.08
951.77	5129.24
952.075	5062.58
952.38	5072.52
952.685	5032.07
952.99	4995.46
953.294	4997.95
953.599	4940.32
953.904	4939.64
954.209	4892.19
954.513	4901.23
954.818	4843.83
955.122	4859.65
955.426	4842.25
955.731	4782.13
956.035	4729.03
956.339	4762.7
956.643	4776.26
956.948	4706.66
957.252	4695.13
957.556	4711.18
957.86	4639.54
958.163	4620.56
958.467	4644.51
958.771	4595.92
959.075	4558.64
959.378	4496.04
959.682	4555.93
959.985	4502.82
960.289	4483.84
960.592	4450.62
960.896	4417.4
961.199	4404.06
961.502	4442.26
961.805	4397.96
962.108	4388.7
962.411	4362.03
962.714	4327.91
963.017	4317.06
963.32	4311.19
963.623	4295.14
963.926	4244.07
964.228	4173.34
964.531	4188.48
964.833	4188.7
965.136	4155.94
965.438	4160
965.741	4147.57
966.043	4126.11
966.345	4072.77
966.648	4121.59
966.95	4132.21
967.252	4030.06
967.554	4053.11
967.856	4053.79
968.158	3987.8
968.46	3980.8
968.761	3975.38
969.063	3962.49
969.365	3955.94
969.666	3942.16
969.968	3892.44
970.269	3890.18
970.571	3858.09
970.872	3835.27
971.174	3795.04
971.475	3799.79
971.776	3835.49
972.077	3784.19
972.378	3739.45
972.679	3751.65
972.98	3733.12
973.281	3682.73
973.582	3706.68
973.883	3648.83
974.183	3682.73
974.484	3676.4
974.785	3666.46
975.085	3594.82
975.386	3628.04
975.686	3621.49
975.986	3529.74
976.287	3529.06
976.587	3517.08
976.887	3494.26
977.187	3525.67
977.487	3544.43
977.787	3482.51
978.087	3439.8
978.387	3472.56
978.687	3482.73
978.987	3399.8
979.286	3397.09
979.586	3381.94
979.885	3376.75
980.185	3379.01
980.484	3359.57
980.784	3315.05
981.083	3339.46
981.382	3310.53
981.682	3301.72
981.981	3276.19
982.28	3271.44
982.579	3247.26
982.878	3215.17
983.177	3193.02
983.475	3197.77
983.774	3209.52
984.073	3172.91
984.372	3127.94
984.67	3162.74
984.969	3108.05
985.267	3116.42
985.566	3126.36
985.864	3082.29
986.162	3049.75
986.461	3060.15
986.759	3033.48
987.057	3009.75
987.355	2994.38
987.653	2960.04
987.951	2951
988.249	2951
988.547	2946.25
988.844	2962.75
989.142	2946.48
989.44	2888.4
989.737	2878.23
990.035	2877.78
990.332	2863.77
990.63	2866.48
990.927	2833.48
991.224	2810.89
991.521	2821.73
991.819	2775.63
992.116	2766.59
992.413	2806.59
992.71	2771.11
993.006	2758.91
993.303	2754.62
993.6	2755.29
993.897	2732.7
994.193	2662.64
994.49	2653.83
994.787	2700.83
995.083	2625.13
995.379	2648.4
995.676	2654.73
995.972	2642.98
996.268	2625.81
996.565	2605.02
996.861	2576.32
997.157	2548.52
997.453	2532.25
997.749	2508.3
998.044	2551.23
998.34	2500.61
998.636	2506.04
998.932	2471.91
999.227	2477.56
999.523	2476.21
999.818	2450.9
1000.114	2465.36
1000.409	2389.43
1000.704	2411.8
1001	2405.02
1001.295	2378.36
1001.59	2351.46
1001.885	2378.58
1002.18	2348.3
1002.475	2331.35
1002.77	2295.42
1003.065	2295.87
1003.359	2315.53
1003.654	2293.16
1003.949	2240.73
1004.243	2272.6
1004.538	2270.56
1004.832	2235.76
1005.127	2223.56
1005.421	2166.38
1005.715	2190.11
1006.009	2185.59
1006.304	2168.64
1006.598	2131.36
1006.892	2167.97
1007.186	2125.71
1007.48	2121.19
1007.773	2095.88
1008.067	2071.92
1008.361	2052.94
1008.655	2062.43
1008.948	2048.42
1009.242	2063.56
1009.535	2059.49
1009.829	1991.25
1010.122	1989.44
1010.415	1995.31
1010.708	1974.07
1011.001	1956.45
1011.295	1966.84
1011.588	1939.05
1011.881	1921.42
1012.173	1932.94
1012.466	1901.76
1012.759	1887.75
1013.052	1917.58
1013.344	1908.54
1013.637	1868.31
1013.93	1843.68
1014.222	1851.36
1014.514	1818.14
1014.807	1822.66
1015.099	1805.49
1015.391	1799.61
1015.683	1804.36
1015.976	1793.96
1016.268	1777.69
1016.56	1754.42
1016.851	1726.85
1017.143	1733.17
1017.435	1730.01
1017.727	1733.63
1018.018	1726.17
1018.31	1674.65
1018.602	1666.74
1018.893	1659.28
1019.185	1654.76
1019.476	1616.57
1019.767	1643.69
1020.058	1630.58
1020.35	1610.47
1020.641	1598.26
1020.932	1603.91
1021.223	1571.15
1021.514	1566.17
1021.804	1563.24
1022.095	1557.59
1022.386	1542.67
1022.677	1520.07
1022.967	1502.45
1023.258	1513.29
1023.548	1469
1023.839	1479.62
1024.129	1473.29
1024.419	1468.55
1024.709	1463.58
1025	1452.05
1025.29	1439.85
1025.58	1422.22
1025.87	1424.48
1026.16	1422.45
1026.449	1417.93
1026.739	1405.27
1027.029	1393.52
1027.319	1373.86
1027.608	1381.09
1027.898	1345.39
1028.187	1351.72
1028.477	1316.01
1028.766	1330.93
1029.055	1315.33
1029.344	1281.66
1029.634	1296.58
1029.923	1297.93
1030.212	1307.2
1030.501	1273.75
1030.79	1253.64
1031.078	1267.42
1031.367	1257.26
1031.656	1216.8
1031.945	1252.51
1032.233	1213.41
1032.522	1201.44
1032.81	1205.96
1033.099	1182.91
1033.387	1170.03
1033.675	1191.49
1033.963	1158.05
1034.251	1161.21
1034.54	1149.69
1034.828	1151.5
1035.116	1146.07
1035.403	1152.63
1035.691	1131.16
1035.979	1131.16
1036.267	1105.17
1036.554	1100.2
1036.842	1083.47
1037.129	1100.88
1037.417	1099.07
1037.704	1069.01
1037.992	1040.09
1038.279	1048
1038.566	1049.35
1038.853	1049.35
1039.14	1049.35
