Data from breadboard_black_back_FLMS001491_00029.txt Node
Date: Wed Feb 08 10:50:10 GMT 2017
User: dcchb
Spectrometer: FLMS00149
Trigger mode: 0
Integration Time (sec): 2.000000E-2
Scans to average: 10
Electric dark correction enabled: true
Nonlinearity correction enabled: false
Boxcar width: 0
XAxis mode: Wavelengths
Number of Pixels in Spectrum: 2048
>>>>>Begin Spectral Data<<<<<
341.393	-5.31
341.776	-5.31
342.16	-5.31
342.543	-57.96
342.927	-52.54
343.31	-76.72
343.693	-83.27
344.077	-71.3
344.46	-56.38
344.843	-58.64
345.226	-37.17
345.61	-26.1
345.993	-35.37
346.376	-11.19
346.759	28.36
347.142	17.06
347.525	63.16
347.908	61.35
348.291	76.04
348.674	102.94
349.057	107.23
349.44	103.61
349.823	143.84
350.206	143.39
350.588	180.9
350.971	223.16
351.354	238.52
351.737	240.11
352.119	257.73
352.502	263.83
352.884	299.31
353.267	284.17
353.65	294.12
354.032	307.45
354.414	299.54
354.797	307.68
355.179	318.97
355.562	354.91
355.944	349.71
356.326	341.35
356.709	340.22
357.091	333.66
357.473	350.61
357.855	368.92
358.238	355.13
358.62	368.92
359.002	348.58
359.384	361.91
359.766	342.02
360.148	365.75
360.53	350.16
360.912	371.63
361.294	328.24
361.676	343.83
362.057	371.18
362.439	353.1
362.821	359.43
363.203	352.19
363.584	345.19
363.966	342.48
364.348	347.67
364.729	357.39
365.111	347.45
365.493	361.91
365.874	327.11
366.256	335.25
366.637	347
367.019	340.22
367.4	331.86
367.781	340.89
368.163	344.74
368.544	350.84
368.925	330.05
369.306	354.23
369.688	369.82
370.069	363.49
370.45	358.07
370.831	334.57
371.212	344.74
371.593	341.8
371.974	362.36
372.355	359.2
372.736	358.52
373.117	353.1
373.498	369.37
373.879	353.32
374.26	353.1
374.641	353.55
375.021	362.14
375.402	374.79
375.783	357.39
376.163	369.59
376.544	379.76
376.925	377.5
377.305	391.52
377.686	387
378.066	382.48
378.447	389.26
378.827	384.06
379.208	378.86
379.588	385.41
379.968	368.46
380.349	383.15
380.729	387.9
381.109	395.58
381.489	403.94
381.87	401.68
382.25	393.1
382.63	392.42
383.01	412.76
383.39	421.12
383.77	426.32
384.15	416.15
384.53	431.51
384.91	443.94
385.29	415.7
385.67	425.64
386.049	449.82
386.429	452.53
386.809	433.1
387.189	423.83
387.568	442.14
387.948	444.62
388.328	454.11
388.707	464.06
389.087	467.67
389.466	481
389.846	473.32
390.225	473.55
390.605	492.98
390.984	465.86
391.363	478.07
391.743	487.33
392.122	470.16
392.501	504.28
392.881	499.53
393.26	499.08
393.639	531.62
394.018	498.63
394.397	506.77
394.776	503.83
395.155	504.28
395.534	525.07
395.913	518.52
396.292	514.22
396.671	549.7
397.05	549.93
397.429	539.76
397.808	562.13
398.186	559.42
398.565	544.73
398.944	545.41
399.323	544.05
399.701	579.53
400.08	549.48
400.458	570.72
400.837	586.76
401.215	580.44
401.594	603.03
401.972	599.65
402.351	594.9
402.729	624.73
403.107	622.7
403.486	625.86
403.864	607.78
404.242	612.75
404.62	627.89
404.999	638.51
405.377	638.97
405.755	656.59
406.133	658.4
406.511	639.64
406.889	672.19
407.267	683.03
407.645	691.17
408.023	690.26
408.401	694.33
408.779	707.89
409.156	724.61
409.534	721.68
409.912	721.22
410.29	779.08
410.667	752.64
411.045	741.79
411.422	768
411.8	779.08
412.178	766.42
412.555	814.55
412.933	799.87
413.31	811.84
413.687	812.75
414.065	842.35
414.442	833.54
414.819	820.66
415.197	822.01
415.574	859.07
415.951	852.07
416.328	886.42
416.705	857.49
417.082	904.5
417.46	904.5
417.837	897.94
418.214	901.11
418.591	925.06
418.967	949.01
419.344	926.42
419.721	937.72
420.098	973.87
420.475	988.34
420.852	970.48
421.228	982.69
421.605	1004.61
421.982	1040.09
422.358	1003.02
422.735	1017.94
423.111	1008.22
423.488	1062.68
423.864	1024.04
424.241	1070.14
424.617	1023.59
424.994	1062.91
425.37	1061.78
425.746	1102.91
426.123	1095.9
426.499	1074.21
426.875	1125.73
427.251	1165.73
427.627	1135.9
428.003	1167.54
428.379	1188.78
428.756	1173.42
429.132	1220.19
429.507	1219.29
429.883	1238.5
430.259	1275.11
430.635	1276.46
431.011	1278.05
431.387	1297.48
431.763	1340.64
432.138	1345.84
432.514	1341.09
432.89	1362.11
433.265	1391.26
433.641	1402.79
434.016	1419.06
434.392	1449.11
434.767	1486.4
435.143	1435.78
435.518	1482.79
435.894	1505.38
436.269	1492.28
436.644	1503.35
437.02	1533.63
437.395	1550.13
437.77	1545.61
438.145	1607.75
438.52	1616.57
438.895	1619.73
439.271	1640.07
439.646	1678.94
440.021	1660.18
440.395	1691.37
440.77	1694.76
441.145	1681.2
441.52	1725.04
441.895	1725.04
442.27	1750.58
442.645	1737.92
443.019	1776.34
443.394	1777.24
443.769	1783.34
444.143	1781.76
444.518	1806.17
444.892	1810.46
445.267	1812.27
445.641	1829.67
446.016	1866.96
446.39	1855.88
446.764	1871.25
447.139	1882.1
447.513	1896.33
447.887	1953.96
448.262	1935.2
448.636	1945.15
449.01	1980.63
449.384	1950.57
449.758	2015.2
450.132	2014.52
450.506	2048.65
450.88	2039.61
451.254	2053.17
451.628	2079.61
452.002	2116.44
452.376	2117.12
452.75	2169.1
453.123	2155.99
453.497	2188.3
453.871	2195.31
454.244	2249.09
454.618	2252.48
454.992	2292.93
455.365	2332.03
455.739	2326.61
456.112	2410.45
456.486	2412.48
456.859	2469.65
457.232	2478.24
457.606	2456.09
457.979	2487.28
458.352	2554.62
458.725	2582.19
459.099	2601.63
459.472	2692.25
459.845	2689.53
460.218	2685.24
460.591	2732.47
460.964	2748.97
461.337	2808.85
461.71	2840.94
462.083	2914.84
462.456	2886.82
462.829	2900.38
463.201	2941.96
463.574	2979.24
463.947	3018.79
464.32	3114.16
464.692	3144.89
465.065	3160.03
465.438	3183.76
465.81	3233.25
466.183	3241.16
466.555	3295.85
466.928	3354.15
467.3	3332
467.672	3422.62
468.045	3500.36
468.417	3535.39
468.789	3510.98
469.161	3592.11
469.534	3611.54
469.906	3729.28
470.278	3745.55
470.65	3736.74
471.022	3812.67
471.394	3874.81
471.766	3949.16
472.138	3996.39
472.51	4097.63
472.882	4109.16
473.253	4152.55
473.625	4258.53
473.997	4348.25
474.369	4391.18
474.74	4417.17
475.112	4545.76
475.484	4564.06
475.855	4715.7
476.227	4675.92
476.598	4837.95
476.97	4878.4
477.341	4996.14
477.713	5058.74
478.084	5048.57
478.455	5233.2
478.827	5212.63
479.198	5389.58
479.569	5414.21
479.94	5501.44
480.311	5592.06
480.682	5757.7
481.053	5839.06
481.424	5933.74
481.795	5995.89
482.166	6091.7
482.537	6216.9
482.908	6288.76
483.279	6313.17
483.65	6469.32
484.021	6556.55
484.391	6661.18
484.762	6725.36
485.133	6796.32
485.503	6936.2
485.874	7088.51
486.244	7172.13
486.615	7257.55
486.985	7386.81
487.356	7474.04
487.726	7532.8
488.097	7702.51
488.467	7769.85
488.837	7873.8
489.207	7953.8
489.578	8052.78
489.948	8159.9
490.318	8305.43
490.688	8315.6
491.058	8459.1
491.428	8534.58
491.798	8632.43
492.168	8797.4
492.538	8863.61
492.908	8987.22
493.278	9023.83
493.648	9116.03
494.017	9192.41
494.387	9276.93
494.757	9324.16
495.126	9470.15
495.496	9570.03
495.866	9622.01
496.235	9742
496.605	9803.47
496.974	9834.66
497.344	9990.36
497.713	9987.2
498.082	10117.36
498.452	10208.21
498.821	10323.68
499.19	10316.68
499.559	10455.43
499.928	10498.82
500.298	10554.64
500.667	10694.07
501.036	10677.35
501.405	10822.43
501.774	10811.35
502.143	10910.11
502.512	10946.72
502.88	11125.92
503.249	11152.59
503.618	11258.8
503.987	11273.49
504.356	11336.99
504.724	11358.23
505.093	11437.33
505.462	11471.22
505.83	11599.13
506.199	11754.15
506.567	11924.77
506.936	11908.27
507.304	12019.23
507.672	12073.02
508.041	12143.75
508.409	12213.35
508.777	12365.89
509.145	12470.75
509.514	12451.54
509.882	12587.13
510.25	12616.73
510.618	12718.42
510.986	12841.36
511.354	12952.77
511.722	13037.28
512.09	13166.55
512.458	13180.78
512.826	13229.6
513.193	13421
513.561	13429.82
513.929	13617.38
514.297	13616.48
514.664	13757.72
515.032	13806.76
515.4	14008.56
515.767	14077.03
516.135	14167.88
516.502	14096.24
516.869	14411.03
517.237	14411.71
517.604	14394.76
517.972	14601.99
518.339	14646.51
518.706	14794.07
519.073	14849.67
519.44	14959.95
519.808	15075.65
520.175	15201.3
520.542	15327.85
520.909	15423.66
521.276	15477.22
521.643	15602.87
522.009	15762.41
522.376	15915.85
522.743	15991.78
523.11	16162.85
523.477	16299.57
523.843	16357.42
524.21	16568.72
524.577	16631.09
524.943	16810.07
525.31	16782.27
525.676	17001.93
526.043	17055.71
526.409	17156.05
526.776	17388.81
527.142	17438.75
527.508	17573.21
527.874	17760.1
528.241	17844.16
528.607	17891.62
528.973	18097.26
529.339	18054.1
529.705	18328.44
530.071	18452.74
530.437	18529.12
530.803	18644.82
531.169	18685.72
531.535	18768.43
531.901	18810.47
532.267	18976.79
532.632	19070.57
532.998	19139.72
533.364	19236.44
533.73	19252.26
534.095	19512.59
534.461	19525.02
534.826	19638.47
535.192	19694.74
535.557	19829.2
535.923	19922.53
536.288	19906.93
536.653	20058.12
537.019	19992.81
537.384	20159.36
537.749	20394.38
538.114	20393.48
538.479	20496.3
538.845	20515.73
539.21	20474.38
539.575	20666.91
539.94	20704.43
540.305	20784.65
540.67	20875.72
541.034	20905.55
541.399	21046.11
541.764	21071.2
542.129	21177.41
542.494	21265.32
542.858	21320
543.223	21383.05
543.587	21427.35
543.952	21460.57
544.316	21656.27
544.681	21631.86
545.045	21761.12
545.41	21832.53
545.774	21863.94
546.138	21959.99
546.503	21974.45
546.867	22154.33
547.231	22329.02
547.595	22317.49
547.959	22348.23
548.324	22403.82
548.688	22553.19
549.052	22606.52
549.416	22683.58
549.779	22593.64
550.143	22793.41
550.507	22907.08
550.871	22988.66
551.235	22985.72
551.599	23133.29
551.962	23151.59
552.326	23310.91
552.689	23464.58
553.053	23382.55
553.417	23434.98
553.78	23673.84
554.143	23701.64
554.507	23848.98
554.87	23885.81
555.234	24083.32
555.597	23988.63
555.96	24170.78
556.323	24246.48
556.686	24358.57
557.05	24585.46
557.413	24573.93
557.776	24581.84
558.139	24795.62
558.502	24789.74
558.865	24931.43
559.228	25165.78
559.59	25156.29
559.953	25170.75
560.316	25591.98
560.679	25495.49
561.041	25709.72
561.404	25762.37
561.767	25908.58
562.129	25925.76
562.492	26207.33
562.854	26130.05
563.217	26184.96
563.579	26325.3
563.941	26519.87
564.304	26625.85
564.666	26829.01
565.028	26695.23
565.39	26876.47
565.753	26944.04
566.115	27168.21
566.477	27301.77
566.839	27370.47
567.201	27570.91
567.563	27513.51
567.925	27688.65
568.287	27710.12
568.648	27793.51
569.01	28010
569.372	28100.62
569.734	27975.42
570.095	28323.44
570.457	28387.39
570.819	28416.99
571.18	28408.18
571.542	28693.14
571.903	28811.33
572.265	28772.01
572.626	28896.3
572.987	28957.54
573.349	29070.31
573.71	29161.61
574.071	29200.02
574.432	29343.97
574.794	29543.97
575.155	29395.05
575.516	29348.27
575.877	29588.49
576.238	29559.11
576.599	29758.65
576.96	29747.13
577.32	29777.41
577.681	29873.9
578.042	29854.02
578.403	29990.96
578.763	29975.37
579.124	30057.85
579.485	30175.82
579.845	30255.81
580.206	30108.25
580.566	30161.81
580.927	30346.21
581.287	30346.89
581.648	30250.17
582.008	30391.4
582.368	30373.33
582.728	30338.3
583.089	30358.41
583.449	30410.39
583.809	30363.83
584.169	30442.7
584.529	30479.31
584.889	30676.82
585.249	30485.19
585.609	30569.25
585.969	30652.64
586.329	30543.72
586.688	30586.65
587.048	30508.69
587.408	30542.59
587.768	30487.22
588.127	30541.91
588.487	30551.17
588.846	30722.02
589.206	30511.4
589.565	30597.05
589.925	30741
590.284	30559.08
590.643	30690.83
591.003	30800.66
591.362	30730.6
591.721	30711.85
592.08	30817.16
592.44	30903.48
592.799	30872.3
593.158	30737.84
593.517	30697.61
593.876	30711.4
594.235	30837.95
594.593	30813.54
594.952	30838.85
595.311	30777.38
595.67	30946.64
596.029	31110.03
596.387	31097.15
596.746	31115.91
597.104	30956.81
597.463	30938.73
597.822	31113.87
598.18	30959.98
598.538	30841.11
598.897	31211.5
599.255	30936.02
599.613	31359.51
599.972	31138.05
600.33	31208.11
600.688	31082.69
601.046	31166.07
601.404	31343.24
601.762	31224.15
602.12	31356.35
602.478	31443.13
602.836	31434.77
603.194	31305.96
603.552	31301.66
603.91	31267.99
604.268	31477.93
604.625	31380.76
604.983	31578.49
605.341	31501.43
605.698	31495.1
606.056	31643.12
606.413	31512.5
606.771	31649
607.128	31781.42
607.485	31612.39
607.843	31676.34
608.2	31796.79
608.557	31937.58
608.914	31898.48
609.272	32060.74
609.629	32083.79
609.986	32098.25
610.343	31993.85
610.7	32302.54
611.057	32161.75
611.414	32138.03
611.771	32215.76
612.127	32380.05
612.484	32192.26
612.841	32302.99
613.198	32245.59
613.554	32379.37
613.911	32423.22
614.267	32519.71
614.624	32365.14
614.98	32511.35
615.337	32684.9
615.693	32552.7
616.05	32505.92
616.406	32778.69
616.762	32596.54
617.118	32647.39
617.475	32575.75
617.831	32696.65
618.187	32800.15
618.543	32797.44
618.899	33052.58
619.255	32965.12
619.611	32819.59
619.967	32984.1
620.323	33036.08
620.678	32793.38
621.034	32877.21
621.39	32843.54
621.746	32723.32
622.101	33184.1
622.457	32917.89
622.812	33015.29
623.168	32968.51
623.523	33039.7
623.879	33111.56
624.234	32916.08
624.589	33035.63
624.945	33008.06
625.3	33046.48
625.655	32982.97
626.01	32844.9
626.365	32922.86
626.72	32973.48
627.075	32876.54
627.43	33007.15
627.785	32990.21
628.14	32947.5
628.495	33027.95
628.85	33019.58
629.205	32804.22
629.559	33008.06
629.914	32764.9
630.269	32852.81
630.623	32857.55
630.978	32782.08
631.332	32930.09
631.687	32924.9
632.041	32625.24
632.396	32977.32
632.75	32660.05
633.104	32707.28
633.459	32483.55
633.813	32576.43
634.167	32568.97
634.521	32459.37
634.875	32571.01
635.229	32509.31
635.583	32255.54
635.937	32330.11
636.291	32320.17
636.645	32346.83
636.999	32049.44
637.352	32218.02
637.706	32040.17
638.06	32211.47
638.413	32173.73
638.767	31930.12
639.121	32075.2
639.474	31870.01
639.828	31939.16
640.181	31994.98
640.534	31978.03
640.888	31815.55
641.241	31679.05
641.594	31718.15
641.947	31815.32
642.301	31698.49
642.654	31736.23
643.007	31724.93
643.36	31594.76
643.713	31545.05
644.066	31687.19
644.419	31552.73
644.771	31313.19
645.124	31164.49
645.477	31018.28
645.83	30848.79
646.182	30677.72
646.535	30686.09
646.888	30489.48
647.24	30505.07
647.593	30563.38
647.945	30386.43
648.298	30281.8
648.65	30239.09
649.002	30248.36
649.355	30380.78
649.707	30324.06
650.059	30562.02
650.411	30741.45
650.763	30737.84
651.115	30987.55
651.467	30910.94
651.819	30871.84
652.171	30817.83
652.523	30825.52
652.875	30807.66
653.227	30636.37
653.578	30837.49
653.93	30684.5
654.282	30638.4
654.633	30556.6
654.985	30623.94
655.337	30547.33
655.688	30697.61
656.039	30587.33
656.391	30405.87
656.742	30582.13
657.094	30521.8
657.445	30588.24
657.796	30614.45
658.147	30590.95
658.498	30400.9
658.849	30477.73
659.2	30436.37
659.551	30474.11
659.902	30456.04
660.253	30312.54
660.604	30443.61
660.955	30183.5
661.306	30394.12
661.656	30165.42
662.007	30218.75
662.358	30209.71
662.708	30195.48
663.059	30185.31
663.409	30002.94
663.76	30300.79
664.11	30161.13
664.461	30263.5
664.811	30183.27
665.161	30170.85
665.511	30018.98
665.862	30030.06
666.212	30171.75
666.562	30126.55
666.912	30063.96
667.262	30091.07
667.612	30037.74
667.962	30051.75
668.312	30028.02
668.662	30166.55
669.011	30032.09
669.361	30073.67
669.711	29940.12
670.06	29878.65
670.41	29911.42
670.76	29914.35
671.109	29937.63
671.459	29854.24
671.808	29788.93
672.157	29927.24
672.507	29743.51
672.856	29670.97
673.205	29707.35
673.554	29888.14
673.904	29781.93
674.253	29908.93
674.602	29794.58
674.951	29361.83
675.3	29158.89
675.649	29564.08
675.998	29565.66
676.346	29521.6
676.695	29628.03
677.044	29406.8
677.393	29615.15
677.741	29509.17
678.09	29509.39
678.438	29307.82
678.787	29436.85
679.135	29400.24
679.484	29219.46
679.832	29313.24
680.181	29178.1
680.529	29164.54
680.877	29145.79
681.225	29126.58
681.573	29246.58
681.922	29015.4
682.27	29068.73
682.618	28927.94
682.966	28840.71
683.314	28991.44
683.661	28851.33
684.009	28658.12
684.357	28626.03
684.705	28619.25
685.053	28758.23
685.4	28616.76
685.748	28513.26
686.095	28426.94
686.443	28275.98
686.79	28273.49
687.138	28235.08
687.485	28343.1
687.832	28116.21
688.18	28210.22
688.527	27926.38
688.874	28003.44
689.221	27881.64
689.568	27928.64
689.915	27954.63
690.262	27848.42
690.609	27819.72
690.956	27686.16
691.303	27693.17
691.65	27574.53
691.997	27564.36
692.344	27407.08
692.69	27383.12
693.037	27344.7
693.383	27136.8
693.73	27160.53
694.077	27026.3
694.423	27094.77
694.769	26925.73
695.116	26817.26
695.462	26793.53
695.808	26724.83
696.155	26747.88
696.501	26689.81
696.847	26624.95
697.193	26429.7
697.539	26473.99
697.885	26257.28
698.231	26238.52
698.577	26275.58
698.923	26206.66
699.269	26092.76
699.614	25956.27
699.96	25857.06
700.306	25803.5
700.651	25769.38
700.997	25607.12
701.342	25684.18
701.688	25661.59
702.033	25547.01
702.379	25526
702.724	25387.24
703.069	25474.02
703.415	25210.98
703.76	25239.9
704.105	25203.29
704.45	25078.78
704.795	24950.42
705.14	24934.82
705.485	25020.7
705.83	24752.91
706.175	24850.08
706.52	24782.29
706.865	24618
707.209	24631.56
707.554	24535.29
707.899	24676.98
708.243	24485.12
708.588	24334.84
708.932	24325.35
709.277	24294.39
709.621	24383.2
709.966	24102.53
710.31	24234.5
710.654	23946.83
710.998	23852.14
711.342	23931.24
711.687	23830.9
712.031	23791.8
712.375	23722.65
712.719	23701.64
713.063	23719.94
713.407	23798.36
713.75	23442.43
714.094	23538.25
714.438	23472.72
714.782	23554.52
715.125	23418.93
715.469	23376
715.812	23181.88
716.156	23197.02
716.499	23232.5
716.843	23288.54
717.186	22991.6
717.53	23066.17
717.873	23150.01
718.216	23062.78
718.559	22954.99
718.902	22883.58
719.246	22858.5
719.589	22730.14
719.932	22661.44
720.275	22690.59
720.617	22641.78
720.96	22805.16
721.303	22592.74
721.646	22583.47
721.989	22419.64
722.331	22515.23
722.674	22450.14
723.016	22370.6
723.359	22433.65
723.701	22451.5
724.044	22202.24
724.386	22159.53
724.729	22277.27
725.071	22145.97
725.413	22169.25
725.755	22071.62
726.097	21992.3
726.439	21958.63
726.782	21947.11
727.124	22026.88
727.465	21901.23
727.807	21857.84
728.149	21848.8
728.491	21780.33
728.833	21840.67
729.175	21690.39
729.516	21725.64
729.858	21687
730.199	21716.15
730.541	21696.04
730.882	21512.54
731.224	21625.76
731.565	21322.72
731.906	21484.97
732.248	21485.42
732.589	21267.58
732.93	21273.45
733.271	21277.29
733.612	21355.03
733.953	21308.93
734.294	21229.61
734.635	21059.67
734.976	21150.74
735.317	21084.08
735.658	21087.92
735.999	21008.6
736.339	21088.37
736.68	21102.61
737.021	20943.74
737.361	20913.46
737.702	20973.12
738.042	20926.79
738.383	20824.42
738.723	20827.59
739.063	20853.35
739.404	20845.67
739.744	20717.53
740.084	20751.66
740.424	20664.88
740.764	20665.56
741.104	20737.87
741.444	20543.08
741.784	20482.96
742.124	20612.23
742.464	20503.53
742.804	20458.33
743.143	20507.82
743.483	20411.1
743.823	20320.71
744.162	20345.11
744.502	20351.44
744.841	20242.29
745.181	20380.37
745.52	20183.76
745.86	20194.84
746.199	20206.59
746.538	20125.91
746.877	20140.15
747.216	20137.21
747.556	20056.08
747.895	20011.34
748.234	19907.84
748.573	19881.4
748.911	19841.17
749.25	19850.89
749.589	19735.64
749.928	19829.87
750.267	19745.81
750.605	19680.05
750.944	19672.59
751.283	19649.99
751.621	19615.87
751.96	19529.99
752.298	19538.36
752.636	19548.98
752.975	19366.38
753.313	19261.08
753.651	19479.6
753.989	19206.39
754.327	19181.53
754.666	19090.01
755.004	19198.93
755.342	19243.45
755.679	19118.93
756.017	18992.38
756.355	18936.34
756.693	18949.67
757.031	18899.28
757.368	18839.39
757.706	18851.37
758.044	18773.4
758.381	18736.8
758.719	18667.64
759.056	18678.04
759.394	18574.31
759.731	18498.16
760.068	18555.11
760.405	18398.27
760.743	18372.29
761.08	18414.32
761.417	18298.39
761.754	18217.04
762.091	18261.33
762.428	18140.88
762.765	18066.08
763.102	18051.62
763.438	17854.11
763.775	17851.62
764.112	17897.72
764.449	17966.65
764.785	17880.09
765.122	17700.66
765.458	17626.54
765.795	17566.66
766.131	17563.27
766.467	17536.38
766.804	17394.68
767.14	17398.53
767.476	17298.64
767.812	17246.89
768.148	17258.64
768.485	17105.88
768.821	17039.21
769.157	17025.43
769.492	16934.13
769.828	16914.24
770.164	16804.64
770.5	16770.29
770.836	16748.83
771.171	16643.52
771.507	16513.35
771.842	16527.14
772.178	16509.06
772.513	16496.4
772.849	16388.61
773.184	16211.44
773.519	16332.79
773.855	16225.45
774.19	16080.82
774.525	16143.19
774.86	16000.6
775.195	16082.85
775.53	15947.94
775.865	15884.67
776.2	15771.68
776.535	15714.05
776.87	15662.53
777.205	15585.92
777.539	15544.79
777.874	15541.17
778.209	15442.87
778.543	15401.97
778.878	15365.36
779.212	15342.76
779.547	15255.98
779.881	15210.79
780.215	15231.58
780.55	15278.13
780.884	14990
781.218	14995.88
781.552	14990.45
781.886	14812.15
782.22	14785.49
782.554	14669.78
782.888	14645.15
783.222	14629.11
783.556	14514.31
783.889	14511.6
784.223	14474.08
784.557	14437.25
784.89	14370.13
785.224	14331.26
785.557	14226.41
785.891	14285.39
786.224	14209.46
786.558	14197.93
786.891	14057.6
787.224	13967.2
787.557	13972.63
787.891	13959.52
788.224	13911.84
788.557	13864.38
788.89	13708.45
789.223	13764.04
789.556	13683.6
789.888	13630.26
790.221	13575.58
790.554	13571.73
790.887	13525.18
791.219	13497.39
791.552	13434.34
791.884	13412.87
792.217	13409.48
792.549	13281.12
792.882	13273.66
793.214	13157.51
793.546	13195.92
793.879	13097.62
794.211	13029.37
794.543	13109.82
794.875	12987.12
795.207	12993.67
795.539	12947.8
795.871	12872.32
796.203	12735.37
796.535	12689.5
796.867	12633.45
797.198	12693.11
797.53	12650.63
797.862	12628.71
798.193	12577.64
798.525	12606.79
798.856	12596.39
799.188	12476.4
799.519	12428.49
799.85	12379.9
800.182	12223.07
800.513	12328.15
800.844	12185.78
801.175	12273.46
801.506	12275.27
801.837	12171.32
802.168	12131.55
802.499	12121.38
802.83	11988.27
803.161	12001.15
803.491	11926.35
803.822	11961.15
804.153	11996.86
804.483	11766.36
804.814	11801.38
805.145	11800.25
805.475	11837.32
805.805	11836.19
806.136	11740.6
806.466	11696.98
806.796	11756.87
807.126	11559.58
807.457	11523.2
807.787	11512.58
808.117	11508.74
808.447	11479.81
808.777	11518.91
809.107	11492.24
809.436	11362.07
809.766	11364.11
810.096	11329.98
810.426	11264.22
810.755	11351.9
811.085	11243.21
811.414	11264.68
811.744	11194.85
812.073	11176.09
812.403	11152.36
812.732	11086.83
813.061	11019.94
813.39	11033.95
813.719	11014.74
814.049	11042.76
814.378	11032.37
814.707	11055.87
815.036	10979.03
815.365	10920.73
815.693	10872.6
816.022	10822.43
816.351	10750.34
816.68	10704.24
817.008	10755.31
817.337	10633.96
817.665	10610.23
817.994	10643.45
818.322	10652.04
818.651	10483.45
818.979	10497.69
819.307	10606.16
819.636	10500.85
819.964	10578.37
820.292	10495.43
820.62	10443.68
820.948	10470.57
821.276	10535.66
821.604	10480.52
821.932	10525.03
822.259	10523.68
822.587	10502.89
822.915	10367.98
823.243	10468.31
823.57	10397.58
823.898	10439.39
824.225	10402.78
824.553	10326.4
824.88	10353.74
825.207	10440.29
825.535	10385.38
825.862	10419.5
826.189	10374.76
826.516	10442.55
826.843	10486.84
827.17	10480.52
827.497	10399.84
827.824	10445.26
828.151	10426.73
828.478	10417.47
828.805	10466.05
829.131	10424.92
829.458	10391.93
829.785	10280.75
830.111	10352.16
830.438	10380.18
830.764	10385.38
831.09	10384.92
831.417	10345.15
831.743	10367.52
832.069	10374.3
832.395	10324.36
832.722	10415.88
833.048	10336.79
833.374	10332.5
833.7	10257.7
834.026	10280.97
834.351	10316.23
834.677	10270.8
835.003	10258.83
835.329	10308.54
835.654	10278.71
835.98	10262.44
836.306	10233.52
836.631	10132.95
836.956	10135.44
837.282	10192.84
837.607	10165.27
837.932	10105.84
838.258	10166.85
838.583	10147.87
838.908	10068.77
839.233	10066.51
839.558	10024.26
839.883	10074.88
840.208	9974.99
840.533	9986.74
840.858	10018.83
841.182	10034.88
841.507	9933.86
841.832	9925.28
842.156	9917.59
842.481	9887.31
842.805	9888.89
843.13	9806.86
843.454	9815.45
843.778	9784.49
844.103	9784.26
844.427	9730.03
844.751	9781.78
845.075	9665.62
845.399	9648.45
845.723	9647.54
846.047	9598.05
846.371	9594.89
846.695	9619.52
847.019	9490.71
847.343	9378.17
847.666	9417.27
847.99	9386.08
848.313	9408.91
848.637	9344.5
848.96	9292.52
849.284	9290.04
849.607	9259.53
849.931	9176.59
850.254	9177.27
850.577	9057.95
850.9	9033.1
851.223	9057.5
851.546	8958.97
851.869	8916.49
852.192	9016.6
852.515	8901.35
852.838	8805.31
853.161	8862.03
853.483	8774.35
853.806	8750.62
854.129	8715.59
854.451	8722.37
854.774	8687.57
855.096	8714.23
855.419	8675.14
855.741	8631.3
856.063	8487.57
856.385	8524.18
856.708	8497.06
857.03	8504.07
857.352	8491.42
857.674	8435.6
857.996	8448.03
858.318	8387.24
858.64	8418.87
858.961	8351.53
859.283	8289.39
859.605	8329.16
859.926	8362.38
860.248	8307.69
860.57	8295.94
860.891	8277.86
861.212	8214.13
861.534	8195.6
861.855	8144.76
862.176	8137.75
862.498	8169.16
862.819	8157.41
863.14	8108.6
863.461	8116.51
863.782	8111.54
864.103	8188.6
864.424	8113.12
864.745	8142.72
865.065	8079.9
865.386	8022.73
865.707	8027.02
866.027	7992.9
866.348	7929.17
866.668	7947.25
866.989	7944.31
867.309	7939.11
867.63	7919.23
867.95	7844.43
868.27	7828.61
868.59	7928.94
868.91	7845.1
869.23	7882.84
869.55	7804.43
869.87	7855.73
870.19	7862.28
870.51	7851.88
870.83	7844.65
871.15	7731.89
871.469	7740.7
871.789	7790.19
872.109	7765.11
872.428	7649.63
872.748	7743.19
873.067	7741.15
873.386	7742.73
873.706	7717.65
874.025	7647.6
874.344	7610.76
874.663	7665.9
874.982	7603.08
875.301	7642.62
875.62	7576.18
875.939	7585.22
876.258	7614.38
876.577	7533.7
876.896	7551.33
877.214	7504.32
877.533	7505.45
877.852	7505.68
878.17	7546.36
878.489	7510.88
878.807	7483.53
879.125	7462.74
879.444	7432.46
879.762	7420.93
880.08	7394.27
880.398	7452.57
880.716	7420.26
881.034	7359.02
881.352	7418.67
881.67	7391.78
881.988	7441.5
882.306	7338.9
882.624	7340.71
882.941	7314.5
883.259	7265.23
883.577	7288.51
883.894	7232.92
884.212	7286.02
884.529	7219.13
884.846	7208.06
885.164	7163.31
885.481	7197.21
885.798	7172.81
886.115	7156.99
886.432	7201.05
886.75	7117.44
887.067	7061.4
887.383	7106.14
887.7	7084.9
888.017	7029.08
888.334	7069.31
888.651	7007.39
888.967	6966.48
889.284	6965.13
889.6	6949.99
889.917	6927.84
890.233	6923.77
890.55	6875.19
890.866	6884.68
891.182	6870.89
891.498	6833.61
891.815	6831.57
892.131	6796.09
892.447	6785.25
892.763	6778.69
893.079	6719.03
893.395	6738.69
893.71	6736.43
894.026	6691.24
894.342	6676.1
894.657	6647.62
894.973	6634.29
895.289	6618.92
895.604	6582.31
895.92	6539.38
896.235	6590.9
896.55	6518.81
896.865	6532.14
897.181	6464.8
897.496	6490.56
897.811	6457.12
898.126	6465.03
898.441	6410.34
898.756	6387.52
899.071	6358.59
899.386	6396.33
899.7	6319.04
900.015	6279.5
900.33	6276.56
900.644	6245.6
900.959	6253.73
901.273	6192.27
901.588	6181.87
901.902	6152.27
902.216	6164.7
902.531	6114.08
902.845	6073.17
903.159	6074.98
903.473	6070.69
903.787	6028.88
904.101	5958.37
904.415	5976.68
904.729	5978.71
905.042	5915.66
905.356	5934.65
905.67	5900.97
905.984	5956.79
906.297	5881.99
906.611	5802.67
906.924	5832.73
907.237	5775.33
907.551	5753.41
907.864	5763.13
908.177	5740.75
908.491	5720.19
908.804	5721.32
909.117	5695.33
909.43	5685.39
909.743	5644.71
910.056	5630.93
910.368	5619.4
910.681	5565.62
910.994	5571.94
911.307	5544.83
911.619	5453.53
911.932	5500.31
912.244	5404.26
912.557	5452.17
912.869	5402.46
913.181	5324.94
913.494	5452.4
913.806	5343.93
914.118	5359.97
914.43	5343.7
914.742	5339.18
915.054	5269.35
915.366	5277.94
915.678	5188.45
915.99	5239.52
916.302	5187.32
916.613	5159.07
916.925	5136.02
917.236	5150.26
917.548	5138.96
917.859	5087.21
918.171	5094.22
918.482	5078.4
918.794	5057.38
919.105	5012.86
919.416	4987.55
919.727	5032.98
920.038	4966.54
920.349	4988.23
920.66	4937.61
920.971	4906.42
921.282	4842.7
921.593	4863.04
921.903	4810.16
922.214	4797.5
922.525	4810.16
922.835	4808.57
923.146	4764.06
923.456	4705.53
923.767	4728.58
924.077	4699.2
924.387	4664.17
924.697	4705.98
925.008	4663.49
925.318	4660.78
925.628	4630.95
925.938	4607.9
926.248	4555.93
926.558	4512.99
926.867	4483.84
927.177	4530.84
927.487	4469.15
927.796	4419.43
928.106	4474.57
928.416	4430.73
928.725	4439.32
929.034	4412.2
929.344	4384.18
929.653	4364.97
929.962	4351.19
930.271	4285.88
930.581	4312.77
930.89	4299.43
931.199	4253.33
931.508	4265.31
931.817	4249.94
932.125	4214.47
932.434	4194.8
932.743	4200.23
933.051	4148.7
933.36	4209.72
933.669	4129.95
933.977	4171.98
934.286	4126.11
934.594	4131.76
934.902	4035.94
935.21	4077.29
935.519	4078.2
935.827	4057.41
936.135	3974.25
936.443	4017.86
936.751	4023.51
937.059	3968.6
937.367	3955.04
937.674	3932.89
937.982	3937.64
938.29	3884.76
938.597	3895.38
938.905	3872.55
939.213	3849.05
939.52	3797.08
939.827	3841.59
940.135	3777.19
940.442	3755.72
940.749	3760.69
941.056	3754.59
941.363	3706.23
941.67	3749.17
941.977	3698.09
942.284	3671.65
942.591	3695.16
942.898	3658.77
943.205	3607.93
943.511	3609.51
943.818	3593.01
944.125	3564.31
944.431	3592.56
944.738	3572.22
945.044	3513.01
945.35	3519.57
945.657	3533.13
945.963	3498.78
946.269	3511.66
946.575	3446.58
946.881	3478.89
947.187	3491.32
947.493	3454.03
947.799	3385.79
948.105	3412.23
948.41	3362.96
948.716	3407.48
949.022	3370.65
949.327	3373.36
949.633	3339.23
949.938	3313.47
950.244	3313.7
950.549	3300.59
950.854	3305.11
951.16	3279.8
951.465	3274.15
951.77	3269.41
952.075	3272.12
952.38	3200.71
952.685	3248.16
952.99	3191.67
953.294	3205.68
953.599	3129.52
953.904	3133.59
954.209	3103.08
954.513	3124.55
954.818	3110.09
955.122	3091.78
955.426	3127.26
955.731	3079.81
956.035	3054.04
956.339	3079.35
956.643	3057.89
956.948	3042.74
957.252	3024.44
957.556	3052.01
957.86	2951
958.163	2965.23
958.467	2963.65
958.771	2970.43
959.075	2929.53
959.378	2922.97
959.682	2903.54
959.985	2907.16
960.289	2874.39
960.592	2882.07
960.896	2859.7
961.199	2865.12
961.502	2828.06
961.805	2842.52
962.108	2844.78
962.411	2808.63
962.714	2834.61
963.017	2810.43
963.32	2788.06
963.623	2774.28
963.926	2734.28
964.228	2734.96
964.531	2738.57
964.833	2714.62
965.136	2716.2
965.438	2695.18
965.741	2686.6
966.043	2701.06
966.345	2669.42
966.648	2666.03
966.95	2615.86
967.252	2638.91
967.554	2642.76
967.856	2625.81
968.158	2576.54
968.46	2587.16
968.761	2619.71
969.063	2578.12
969.365	2534.51
969.666	2551.01
969.968	2532.25
970.269	2548.52
970.571	2520.95
970.872	2510.56
971.174	2465.13
971.475	2467.17
971.776	2472.59
972.077	2478.69
972.378	2448.86
972.679	2449.09
972.98	2464.68
973.281	2459.48
973.582	2402.54
973.883	2390.33
974.183	2373.61
974.484	2370.67
974.785	2387.85
975.085	2379.26
975.386	2379.03
975.686	2351.92
975.986	2344.68
976.287	2334.97
976.587	2295.87
976.887	2306.04
977.187	2333.38
977.487	2258.58
977.787	2282.76
978.087	2266.72
978.387	2258.13
978.687	2267.17
978.987	2211.81
979.286	2249.55
979.586	2194.41
979.885	2210
980.185	2194.41
980.484	2175.2
980.784	2151.47
981.083	2143.11
981.382	2167.97
981.682	2184.24
981.981	2133.16
982.28	2157.57
982.579	2106.5
982.878	2122.32
983.177	2094.52
983.475	2089.78
983.774	2094.3
984.073	2100.62
984.372	2066.73
984.67	2043.68
984.969	2101.3
985.267	2096.1
985.566	2056.78
985.864	2075.54
986.162	2043
986.461	2020.85
986.759	2044.8
987.057	1984.47
987.355	1953.73
987.653	1997.57
987.951	1975.2
988.249	1970
988.547	1961.19
988.844	1951.25
989.142	1960.29
989.44	1944.92
989.737	1925.71
990.035	1914.19
990.332	1924.13
990.63	1872.83
990.927	1874.87
991.224	1889.33
991.521	1890.46
991.819	1876.67
992.116	1852.72
992.413	1854.98
992.71	1859.73
993.006	1870.57
993.303	1827.41
993.6	1840.29
993.897	1811.36
994.193	1801.42
994.49	1800.07
994.787	1782.21
995.083	1804.13
995.379	1773.63
995.676	1785.6
995.972	1741.99
996.268	1781.08
996.565	1737.02
996.861	1718.94
997.157	1722.1
997.453	1734.76
997.749	1720.75
998.044	1679.16
998.34	1665.61
998.636	1661.99
998.932	1678.49
999.227	1682.1
999.523	1667.64
999.818	1673.29
1000.114	1631.71
1000.409	1614.08
1000.704	1614.31
1001	1630.35
1001.295	1629.67
1001.59	1622.67
1001.885	1602.56
1002.18	1586.29
1002.475	1593.97
1002.77	1553.29
1003.065	1570.02
1003.359	1593.74
1003.654	1547.42
1003.949	1555.33
1004.243	1520.98
1004.538	1564.82
1004.832	1525.5
1005.127	1537.7
1005.421	1516.68
1005.715	1519.4
1006.009	1493.63
1006.304	1480.07
1006.598	1467.42
1006.892	1454.31
1007.186	1493.18
1007.48	1459.96
1007.773	1444.37
1008.067	1451.15
1008.361	1429.45
1008.655	1420.19
1008.948	1444.37
1009.242	1418.38
1009.535	1385.84
1009.829	1387.42
1010.122	1372.28
1010.415	1378.38
1010.708	1341.55
1011.001	1350.36
1011.295	1378.61
1011.588	1332.06
1011.881	1350.81
1012.173	1329.57
1012.466	1320.53
1012.759	1317.59
1013.052	1323.47
1013.344	1316.24
1013.637	1299.97
1013.93	1261.32
1014.222	1272.85
1014.514	1285.05
1014.807	1285.28
1015.099	1252.74
1015.391	1254.77
1015.683	1253.64
1015.976	1251.61
1016.268	1252.06
1016.56	1233.53
1016.851	1218.39
1017.143	1230.14
1017.435	1218.39
1017.727	1190.82
1018.018	1167.99
1018.31	1197.37
1018.602	1187.2
1018.893	1165.96
1019.185	1177.71
1019.476	1174.09
1019.767	1147.88
1020.058	1137.71
1020.35	1163.25
1020.641	1137.71
1020.932	1118.73
1021.223	1125.96
1021.514	1132.96
1021.804	1111.04
1022.095	1107.88
1022.386	1099.07
1022.677	1100.65
1022.967	1088.67
1023.258	1076.02
1023.548	1092.29
1023.839	1052.97
1024.129	1085.28
1024.419	1060.65
1024.709	1029.01
1025	1018.39
1025.29	1008.67
1025.58	1038.5
1025.87	1025.62
1026.16	981.33
1026.449	1012.74
1026.739	989.01
1027.029	1011.84
1027.319	1005.74
1027.608	971.16
1027.898	980.2
1028.187	993.08
1028.477	986.3
1028.766	974.55
1029.055	963.25
1029.344	963.03
1029.634	940.65
1029.923	938.62
1030.212	921.67
1030.501	938.62
1030.79	951.5
1031.078	913.08
1031.367	900.88
1031.656	894.55
1031.945	897.26
1032.233	921.22
1032.522	863.14
1032.81	888.68
1033.099	879.19
1033.387	892.07
1033.675	897.49
1033.963	870.82
1034.251	864.27
1034.54	857.49
1034.828	884.38
1035.116	861.79
1035.403	848.9
1035.691	861.79
1035.979	849.36
1036.267	844.61
1036.554	839.64
1036.842	822.46
1037.129	815.23
1037.417	800.54
1037.704	815.68
1037.992	781.56
1038.279	798.28
1038.566	800.54
1038.853	800.54
1039.14	800.54
