Data from breadboard_black_back_FLMS001491_00024.txt Node
Date: Wed Feb 08 10:50:09 GMT 2017
User: dcchb
Spectrometer: FLMS00149
Trigger mode: 0
Integration Time (sec): 2.000000E-2
Scans to average: 10
Electric dark correction enabled: true
Nonlinearity correction enabled: false
Boxcar width: 0
XAxis mode: Wavelengths
Number of Pixels in Spectrum: 2048
>>>>>Begin Spectral Data<<<<<
341.393	-14.1
341.776	-14.1
342.16	-14.1
342.543	-53.87
342.927	-62.23
343.31	-60.65
343.693	-64.49
344.077	-73.53
344.46	-55.22
344.843	-56.58
345.226	-29.46
345.61	-24.26
345.993	-34.89
346.376	4.89
346.759	-14.55
347.142	13.47
347.525	39.91
347.908	63.87
348.291	85.79
348.674	89.63
349.057	116.07
349.44	133.25
349.823	142.06
350.206	158.33
350.588	191.32
350.971	217.76
351.354	231.77
351.737	237.2
352.119	246.46
352.502	286.46
352.884	282.39
353.267	277.65
353.65	288.5
354.032	302.05
354.414	309.06
354.797	322.62
355.179	313.81
355.562	319
355.944	327.36
356.326	332.79
356.709	329.4
357.091	325.78
357.473	360.81
357.855	349.74
358.238	351.54
358.62	355.84
359.002	358.55
359.384	349.51
359.766	338.66
360.148	354.93
360.53	355.39
360.912	359.68
361.294	353.8
361.676	341.6
362.057	339.12
362.439	334.6
362.821	332.34
363.203	331.43
363.584	335.27
363.966	339.79
364.348	340.92
364.729	345.67
365.111	346.57
365.493	330.98
365.874	339.34
366.256	348.38
366.637	334.37
367.019	327.59
367.4	324.65
367.781	336.86
368.163	344.31
368.544	343.41
368.925	321.71
369.306	361.26
369.688	361.71
370.069	336.4
370.45	333.24
370.831	329.62
371.212	344.54
371.593	342.96
371.974	374.82
372.355	355.39
372.736	329.85
373.117	362.84
373.498	344.31
373.879	367.82
374.26	360.58
374.641	354.71
375.021	343.18
375.402	360.58
375.783	369.85
376.163	363.07
376.544	379.57
376.925	378.89
377.305	376.18
377.686	393.8
378.066	363.07
378.447	387.02
378.827	354.71
379.208	369.62
379.588	395.39
379.968	389.28
380.349	401.26
380.729	393.58
381.109	392.22
381.489	391.09
381.87	403.29
382.25	408.49
382.63	408.94
383.01	406.23
383.39	406.01
383.77	413.46
384.15	411.88
384.53	408.04
384.91	430.19
385.29	431.09
385.67	422.5
386.049	445.33
386.429	428.83
386.809	447.36
387.189	432.22
387.568	439.45
387.948	434.48
388.328	457.08
388.707	439.23
389.087	460.02
389.466	451.2
389.846	454.82
390.225	486.91
390.605	463.63
390.984	466.57
391.363	492.78
391.743	485.55
392.122	478.55
392.501	509.51
392.881	498.21
393.26	500.69
393.639	507.7
394.018	503.86
394.397	525.78
394.776	521.94
395.155	526
395.534	541.82
395.913	532.1
396.292	522.16
396.671	550.86
397.05	533.01
397.429	549.73
397.808	540.01
398.186	558.32
398.565	554.7
398.944	552.9
399.323	572.1
399.701	575.72
400.08	569.62
400.458	580.92
400.837	601.93
401.215	594.7
401.594	591.99
401.972	577.53
402.351	596.28
402.729	610.29
403.107	613.91
403.486	609.62
403.864	627.47
404.242	619.33
404.62	617.98
404.999	649.84
405.377	615.94
405.755	657.98
406.133	647.13
406.511	659.78
406.889	662.95
407.267	685.32
407.645	698.43
408.023	678.99
408.401	715.38
408.779	698.88
409.156	707.69
409.534	707.92
409.912	732.33
410.29	751.53
410.667	741.36
411.045	748.14
411.422	736.39
411.8	762.16
412.178	764.19
412.555	762.83
412.933	768.48
413.31	800.12
413.687	811.87
414.065	856.16
414.442	839.22
414.819	809.39
415.197	839.67
415.574	865.2
415.951	876.5
416.328	877.41
416.705	882.83
417.082	888.93
417.46	891.87
417.837	902.26
418.214	923.73
418.591	888.93
418.967	931.87
419.344	927.8
419.721	951.53
420.098	959.89
420.475	946.56
420.852	948.82
421.228	973.9
421.605	981.36
421.982	1001.24
422.358	968.93
422.735	999.44
423.111	1017.06
423.488	1019.78
423.864	1046.89
424.241	1063.62
424.617	1057.29
424.994	1068.36
425.37	1064.97
425.746	1085.54
426.123	1115.82
426.499	1085.08
426.875	1106.1
427.251	1144.97
427.627	1155.59
428.003	1152.2
428.379	1169.6
428.756	1220.45
429.132	1209.37
429.507	1231.07
429.883	1253.67
430.259	1256.38
430.635	1266.32
431.011	1284.85
431.387	1298.41
431.763	1295.47
432.138	1313.78
432.514	1345.42
432.89	1356.26
433.265	1399.43
433.641	1404.17
434.016	1398.07
434.392	1428.13
434.767	1454.57
435.143	1431.97
435.518	1476.26
435.894	1507.22
436.269	1518.97
436.644	1507.9
437.02	1512.87
437.395	1558.07
437.77	1578.18
438.145	1605.07
438.52	1607.56
438.895	1610.27
439.271	1609.36
439.646	1658.63
440.021	1678.74
440.395	1679.87
440.77	1648.23
441.145	1724.84
441.52	1717.61
441.895	1710.6
442.27	1781.34
442.645	1732.07
443.019	1742.47
443.394	1783.37
443.769	1784.05
444.143	1793.99
444.518	1825.18
444.892	1801.9
445.267	1855.01
445.641	1855.46
446.016	1837.83
446.39	1849.81
446.764	1883.48
447.139	1891.84
447.513	1867.66
447.887	1883.26
448.262	1919.64
448.636	1954.67
449.01	1977.26
449.384	1968.23
449.758	1988.34
450.132	2037.83
450.506	2019.3
450.88	2053.65
451.254	2049.35
451.628	2083.7
452.002	2119.18
452.376	2112.4
452.75	2167.77
453.123	2152.4
453.497	2227.2
453.871	2200.08
454.244	2216.58
454.618	2263.13
454.992	2289.12
455.365	2319.63
455.739	2382
456.112	2383.81
456.486	2360.31
456.859	2422.68
457.232	2495.67
457.606	2448.44
457.979	2503.13
458.352	2541.32
458.725	2577.02
459.099	2618.83
459.472	2659.51
459.845	2682.1
460.218	2714.87
460.591	2723.23
460.964	2765.49
461.337	2820.41
461.71	2852.27
462.083	2885.04
462.456	2898.37
462.829	2926.62
463.201	3022.21
463.574	2963.45
463.947	3015.43
464.32	3087.07
464.692	3074.18
465.065	3138.36
465.438	3182.88
465.81	3231.92
466.183	3260.39
466.555	3301.98
466.928	3313.5
467.3	3352.14
467.672	3437.34
468.045	3480.73
468.417	3549.43
468.789	3535.19
469.161	3609.99
469.534	3642.53
469.906	3692.25
470.278	3705.35
470.65	3758.23
471.022	3867.61
471.394	3964.33
471.766	3979.02
472.138	3967.49
472.51	4085.91
472.882	4166.59
473.253	4184.21
473.625	4250.65
473.997	4329.74
474.369	4382.62
474.74	4437.99
475.112	4488.61
475.484	4510.53
475.855	4675.27
476.227	4686.8
476.598	4797.3
476.97	4861.03
477.341	4900.58
477.713	5035.72
478.084	5040.01
478.455	5195.26
478.827	5221.47
479.198	5406.78
479.569	5423.5
479.94	5511.86
480.311	5596.15
480.682	5723.61
481.053	5797.28
481.424	5965.18
481.795	5967.44
482.166	6092.86
482.537	6133.54
482.908	6299.64
483.279	6357.94
483.65	6449.92
484.021	6632.06
484.391	6699.63
484.762	6684.26
485.133	6797.93
485.503	6942.11
485.874	7095.55
486.244	7093.97
486.615	7303.68
486.985	7322.21
487.356	7501.86
487.726	7541.86
488.097	7712.03
488.467	7754.29
488.837	7896.2
489.207	7931.68
489.578	8061.4
489.948	8154.05
490.318	8305.23
490.688	8258.46
491.058	8467.04
491.428	8573.02
491.798	8622.51
492.168	8790.42
492.538	8898.66
492.908	8949.96
493.278	9041.49
493.648	9066.57
494.017	9226.34
494.387	9336.17
494.757	9340.23
495.126	9439.44
495.496	9609.83
495.866	9634.92
496.235	9711.52
496.605	9792.43
496.974	9863.61
497.344	9962.14
497.713	10053.21
498.082	10119.2
498.452	10169.82
498.821	10245.97
499.19	10285.97
499.559	10409.81
499.928	10542.24
500.298	10593.31
500.667	10668.34
501.036	10640.77
501.405	10794.89
501.774	10801.21
502.143	10893.87
502.512	10996.24
502.88	11130.7
503.249	11155.55
503.618	11181.77
503.987	11339.73
504.356	11339.28
504.724	11374.98
505.093	11449.11
505.462	11574.07
505.83	11613.17
506.199	11697.01
506.567	11779.72
506.936	11866.5
507.304	12066.04
507.672	12086.83
508.041	12062.2
508.409	12184.91
508.777	12303.77
509.145	12454.28
509.514	12513.94
509.882	12576.31
510.25	12685.68
510.618	12694.04
510.986	12790.99
511.354	12909.41
511.722	13070.08
512.09	13234.6
512.458	13180.36
512.826	13304.65
513.193	13342.84
513.561	13413.57
513.929	13546.23
514.297	13726.33
514.664	13700.8
515.032	13810.85
515.4	14047.68
515.767	13981.24
516.135	14118.41
516.502	14087.23
516.869	14351.63
517.237	14379.88
517.604	14398.63
517.972	14626.42
518.339	14737.61
518.706	14675.91
519.073	14809.02
519.44	14941.44
519.808	15115
520.175	15165.84
520.542	15294.2
520.909	15393.41
521.276	15425.72
521.643	15620.75
522.009	15673.85
522.376	15860.97
522.743	15982.09
523.11	16166.95
523.477	16298.7
523.843	16421.4
524.21	16566.94
524.577	16698.91
524.943	16771.23
525.31	16854.84
525.676	17052.12
526.043	17178.67
526.409	17223.19
526.776	17428.38
527.142	17452.11
527.508	17553.8
527.874	17711.77
528.241	17797.64
528.607	18000.12
528.973	18079.89
529.339	18122.83
529.705	18276.27
530.071	18368.02
530.437	18511.07
530.803	18650.05
531.169	18742.02
531.535	18769.37
531.901	18931.85
532.267	18894.33
532.632	19064.5
532.998	19156.47
533.364	19266.3
533.73	19388.56
534.095	19448.22
534.461	19488.22
534.826	19674.65
535.192	19730.92
535.557	19910.58
535.923	19877.36
536.288	19988.32
536.653	20073.74
537.019	20134.3
537.384	20214.3
537.749	20293.62
538.114	20326.39
538.479	20417.01
538.845	20459.04
539.21	20580.84
539.575	20654.51
539.94	20689.31
540.305	20929.99
540.67	20820.61
541.034	20999.59
541.399	21005.92
541.764	21052.47
542.129	21097.44
542.494	21328.17
542.858	21339.02
543.223	21352.35
543.587	21479.8
543.952	21480.71
544.316	21624.43
544.681	21538.78
545.045	21741.94
545.41	21842.5
545.774	21868.94
546.138	21960.47
546.503	21994.14
546.867	22089.73
547.231	22213.12
547.595	22243.17
547.959	22391.42
548.324	22453.79
548.688	22462.83
549.052	22564.52
549.416	22683.61
549.779	22712.09
550.143	22736.27
550.507	22884.29
550.871	22970.16
551.235	23012.19
551.599	23168.35
551.962	23122.7
552.326	23255.8
552.689	23459.86
553.053	23360.2
553.417	23523.59
553.78	23799.74
554.143	23608.56
554.507	23867.99
554.87	23912.73
555.234	24091.03
555.597	23934.2
555.96	24062.79
556.323	24303.23
556.686	24206.74
557.05	24535.77
557.413	24571.25
557.776	24555.43
558.139	24717.46
558.502	24893.72
558.865	25055.53
559.228	25058.92
559.59	25160.61
559.953	25224.34
560.316	25477.21
560.679	25457.32
561.041	25608.96
561.404	25749.07
561.767	25979.35
562.129	25935.73
562.492	26080.59
562.854	26101.38
563.217	26174.37
563.579	26297.3
563.941	26401.48
564.304	26524.64
564.666	26703.39
565.028	26732.09
565.39	27043.72
565.753	26989.26
566.115	27141.8
566.477	27307.45
566.839	27310.61
567.201	27486.88
567.563	27378.4
567.925	27675.8
568.287	27643.71
568.648	27684.84
569.01	27845.96
569.372	28153.07
569.734	28064.71
570.095	28204.82
570.457	28378.15
570.819	28545.61
571.18	28353.97
571.542	28597.36
571.903	28659.5
572.265	28846.16
572.626	28849.1
572.987	28871.7
573.349	29072.37
573.71	29107.17
574.071	29325.92
574.432	29306.49
574.794	29412.02
575.155	29468.29
575.516	29463.1
575.877	29528.18
576.238	29610.44
576.599	29701.73
576.96	29773.82
577.32	29837.32
577.681	29865.57
578.042	29958
578.403	29945.79
578.763	29915.06
579.124	29958
579.485	30181.72
579.845	30197.09
580.206	30181.72
580.566	30188.5
580.927	30167.94
581.287	30373.13
581.648	30171.33
582.008	30449.74
582.368	30338.1
582.728	30350.98
583.089	30419.45
583.449	30257.88
583.809	30439.34
584.169	30432.34
584.529	30521.15
584.889	30637.98
585.249	30515.27
585.609	30470.3
585.969	30570.64
586.329	30432.11
586.688	30581.94
587.048	30527.02
587.408	30548.72
587.768	30553.24
588.127	30480.02
588.487	30476.85
588.846	30885.66
589.206	30501.94
589.565	30459.23
589.925	30692.22
590.284	30617.64
590.643	30602.27
591.003	30804.08
591.362	30847.24
591.721	30735.15
592.08	30697.19
592.44	30822.38
592.799	30847.24
593.158	30760.91
593.517	30716.62
593.876	30864.64
594.235	30743.06
594.593	30715.49
594.952	30953
595.311	30752.1
595.67	30931.76
596.029	31026.9
596.387	31063.51
596.746	31067.35
597.104	30961.14
597.463	30939.21
597.822	31146.21
598.18	30862.38
598.538	30976.05
598.897	31178.08
599.255	30904.41
599.613	31374.01
599.972	31087.23
600.33	31253.78
600.688	31106.89
601.046	31266.44
601.404	31371.29
601.762	31251.3
602.12	31502.14
602.478	31192.54
602.836	31453.78
603.194	31259.21
603.552	31355.7
603.91	31234.57
604.268	31469.37
604.625	31322.93
604.983	31538.75
605.341	31355.47
605.698	31682.47
606.056	31518.41
606.413	31553.66
606.771	31582.59
607.128	31774
607.485	31578.07
607.843	31721.57
608.2	31806.99
608.557	31940.32
608.914	31891.73
609.272	31924.95
609.629	32011.05
609.986	32108.22
610.343	31972.18
610.7	32139.18
611.057	32166.08
611.414	32120.2
611.771	32065.06
612.127	32214.21
612.484	32270.93
612.841	32286.52
613.198	32161.78
613.554	32269.58
613.911	32479.51
614.267	32476.12
614.624	32396.35
614.98	32518.61
615.337	32559.96
615.693	32593.18
616.05	32528.78
616.406	32806.06
616.762	32578.72
617.118	32583.92
617.475	32732.84
617.831	32701.88
618.187	32770.8
618.543	32748.66
618.899	32882.67
619.255	32895.55
619.611	32723.12
619.967	32951.59
620.323	32857.13
620.678	32891.71
621.034	32849.67
621.39	32776.91
621.746	32880.86
622.101	33078.59
622.457	32833.18
622.812	32989.1
623.168	33046.96
623.523	33026.62
623.879	33121.53
624.234	32881.54
624.589	33055.77
624.945	33029.1
625.3	32926.06
625.655	33022.55
626.01	32994.53
626.365	32937.35
626.72	32935.55
627.075	32904.81
627.43	33072.72
627.785	32934.87
628.14	32978.03
628.495	32911.59
628.85	32867.07
629.205	32889.22
629.559	33006.96
629.914	32759.96
630.269	32873.4
630.623	32710.24
630.978	32737.13
631.332	32858.71
631.687	32822.56
632.041	32712.28
632.396	32753.63
632.75	32627.08
633.104	32732.84
633.459	32439.51
633.813	32546.63
634.167	32560.42
634.521	32527.2
634.875	32615.33
635.229	32479.74
635.583	32230.71
635.937	32375.56
636.291	32299.4
636.645	32269.8
636.999	32157.94
637.352	32292.4
637.706	32050.15
638.06	32339.86
638.413	32170.59
638.767	32024.16
639.121	32193.19
639.474	31913.43
639.828	31987.32
640.181	31934.22
640.534	31964.95
640.888	31829.36
641.241	31688.12
641.594	31844.95
641.947	31833.88
642.301	31791.17
642.654	31678.18
643.007	31747.1
643.36	31644.73
643.713	31598.86
644.066	31707.56
644.419	31565.41
644.771	31365.19
645.124	31122.94
645.477	30928.37
645.83	30915.03
646.182	30694.93
646.535	30532.22
646.888	30593.69
647.24	30376.07
647.593	30475.72
647.945	30413.58
648.298	30334.48
648.65	30303.53
649.002	30116.41
649.355	30327.93
649.707	30335.39
650.059	30405.9
650.411	30695.61
650.763	30759.78
651.115	30927.92
651.467	31010.4
651.819	30970.17
652.171	30904.64
652.523	30703.74
652.875	30775.83
653.227	30560.69
653.578	30908.03
653.93	30735.38
654.282	30571.09
654.633	30561.37
654.985	30577.87
655.337	30702.84
655.688	30638.88
656.039	30607.92
656.391	30412.67
656.742	30534.48
657.094	30471.66
657.445	30569.73
657.796	30351.89
658.147	30352.79
658.498	30409.96
658.849	30349.4
659.2	30385.78
659.551	30372.22
659.902	30437.31
660.253	30399.34
660.604	30342.62
660.955	30203.41
661.306	30502.62
661.656	30219.46
662.007	30258.1
662.358	30178.1
662.708	30159.35
663.059	30201.38
663.409	30041.84
663.76	30167.48
664.11	30329.51
664.461	30161.38
664.811	30223.98
665.161	30147.15
665.511	30099.91
665.862	30048.84
666.212	30053.14
666.562	30179.69
666.912	30098.56
667.262	30035.06
667.612	29989.86
667.962	30037.54
668.312	29962.29
668.662	30134.49
669.011	30084.32
669.361	29927.94
669.711	29907.83
670.06	29963.42
670.41	29877.55
670.76	29862.86
671.109	29964.1
671.459	29880.71
671.808	29703.77
672.157	29861.95
672.507	29681.85
672.856	29663.09
673.205	29750.55
673.554	29826.7
673.904	29694.05
674.253	29887.72
674.602	29732.47
674.951	29307.17
675.3	29127.74
675.649	29566.6
675.998	29607.27
676.346	29563.88
676.695	29681.17
677.044	29310.78
677.393	29631
677.741	29430.33
678.09	29328.64
678.438	29287.05
678.787	29445.24
679.135	29326.6
679.484	29142.2
679.832	29272.37
680.181	29144.46
680.529	29193.72
680.877	29123.9
681.225	29178.58
681.573	29204.35
681.922	29033.05
682.27	29064.24
682.618	28943.34
682.966	28940.4
683.314	28981.3
683.661	28838.48
684.009	28712.83
684.357	28721.19
684.705	28530.69
685.053	28632.61
685.4	28595.32
685.748	28378.6
686.095	28333.63
686.443	28331.37
686.79	28274.2
687.138	28384.48
687.485	28369.11
687.832	28266.29
688.18	28224.71
688.527	28050.48
688.874	27992.63
689.221	27886.41
689.568	27910.59
689.915	27921.44
690.262	27897.71
690.609	27676.48
690.956	27739.07
691.303	27635.35
691.65	27457.05
691.997	27526.65
692.344	27311.29
692.69	27275.81
693.037	27405.07
693.383	27119.43
693.73	27222.93
694.077	26993.56
694.423	27048.7
694.769	26940
695.116	26899.32
695.462	26766.44
695.808	26671.98
696.155	26825.88
696.501	26540.91
696.847	26497.52
697.193	26323.52
697.539	26436.51
697.885	26301.14
698.231	26231.99
698.577	26252.11
698.923	26089.4
699.269	26005.33
699.614	25819.8
699.96	25856.41
700.306	25883.98
700.651	25762.4
700.997	25700.71
701.342	25699.13
701.688	25503.65
702.033	25531.67
702.379	25520.6
702.724	25414.61
703.069	25392.47
703.415	25183.89
703.76	25153.38
704.105	25043.78
704.45	25110.22
704.795	25014.17
705.14	24909.54
705.485	24921.52
705.83	24727.17
706.175	24770.34
706.52	24693.28
706.865	24655.76
707.209	24627.74
707.554	24477.24
707.899	24503
708.243	24431.82
708.588	24369.22
708.932	24260.07
709.277	24227.3
709.621	24244.25
709.966	24106.85
710.31	24179.17
710.654	23869.57
710.998	23929.68
711.342	24002.9
711.687	23940.75
712.031	23867.31
712.375	23698.28
712.719	23822.11
713.063	23660.54
713.407	23691.5
713.75	23539.18
714.094	23534.66
714.438	23484.04
714.782	23464.38
715.125	23308.23
715.469	23357.04
715.812	23229.81
716.156	23178.97
716.499	23247.44
716.843	23165.18
717.186	23062.59
717.53	23108.91
717.873	23142.58
718.216	23040.67
718.559	23074.56
718.902	22748.24
719.246	22831.18
719.589	22751.41
719.932	22716.61
720.275	22672.99
720.617	22656.72
720.96	22660.56
721.303	22616.72
721.646	22558.19
721.989	22428.25
722.331	22457.86
722.674	22354.13
723.016	22387.58
723.359	22323.85
723.701	22458.53
724.044	22201.59
724.386	22076.17
724.729	22164.08
725.071	22123.85
725.413	22148.03
725.755	22105.77
726.097	22077.53
726.439	21901.49
726.782	21927.7
727.124	22035.95
727.465	21834.37
727.807	21873.24
728.149	21765.44
728.491	21678.89
728.833	21819.23
729.175	21684.32
729.516	21678.89
729.858	21696.29
730.199	21746.46
730.541	21665.79
730.882	21580.59
731.224	21650.42
731.565	21418.79
731.906	21478.67
732.248	21457.66
732.589	21437.54
732.93	21410.43
733.271	21340.82
733.612	21269.19
733.953	21287.72
734.294	21245.91
734.635	21151.45
734.976	21266.93
735.317	21087.04
735.658	21123.2
735.999	21130.21
736.339	20994.84
736.68	21075.75
737.021	20902.42
737.361	20933.6
737.702	20941.96
738.042	21015.41
738.383	20874.85
738.723	20914.85
739.063	20792.81
739.404	20858.8
739.744	20785.13
740.084	20646.38
740.424	20716.66
740.764	20646.83
741.104	20694.29
741.444	20559.15
741.784	20504.69
742.124	20603.89
742.464	20480.28
742.804	20394.18
743.143	20479.15
743.483	20483.67
743.823	20234.86
744.162	20264.69
744.502	20360.51
744.841	20315.99
745.181	20315.31
745.52	20133.17
745.86	20239.38
746.199	20188.31
746.538	20166.39
746.877	20070.57
747.216	20119.61
747.556	20045.04
747.895	20056.56
748.234	20027.41
748.573	19888.21
748.911	19934.53
749.25	19898.83
749.589	19711.94
749.928	19780.41
750.267	19820.64
750.605	19681.66
750.944	19600.53
751.283	19480.76
751.621	19612.28
751.96	19537.71
752.298	19559.85
752.636	19474.21
752.975	19328.22
753.313	19322.57
753.651	19386.52
753.989	19312.18
754.327	19191.5
754.666	19166.87
755.004	19108.34
755.342	19143.37
755.679	19161.9
756.017	19022.24
756.355	19035.8
756.693	19041.45
757.031	19014.56
757.368	18868.57
757.706	18832.87
758.044	18808.01
758.381	18725.75
758.719	18696.37
759.056	18674.45
759.394	18655.24
759.731	18543.61
760.068	18507.23
760.405	18385.19
760.743	18348.36
761.08	18373.67
761.417	18293.45
761.754	18173.45
762.091	18203.28
762.428	18112.89
762.765	18085.99
763.102	18088.93
763.438	17971.65
763.775	17921.25
764.112	17847.81
764.449	17909.95
764.785	17762.61
765.122	17746.12
765.458	17642.39
765.795	17530.3
766.131	17614.37
766.467	17573.01
766.804	17321.04
767.14	17318.33
767.476	17252.79
767.812	17227.26
768.148	17236.52
768.485	17172.57
768.821	17013.25
769.157	17113.59
769.492	17011.45
769.828	16868.85
770.164	16827.72
770.5	16713.6
770.836	16650.1
771.171	16557.9
771.507	16643.32
771.842	16475.64
772.178	16537.79
772.513	16440.16
772.849	16353.38
773.184	16317.68
773.519	16227.06
773.855	16164.24
774.19	16124.69
774.525	16004.01
774.86	16053.05
775.195	15998.82
775.53	15909.55
775.865	15834.3
776.2	15788.65
776.535	15617.58
776.87	15681.54
777.205	15568.09
777.539	15523.8
777.874	15540.3
778.209	15391.15
778.543	15437.7
778.878	15363.81
779.212	15401.09
779.547	15202.45
779.881	15285.62
780.215	15180.76
780.55	15210.81
780.884	15053.76
781.218	14982.8
781.552	14912.97
781.886	14882.01
782.22	14825.29
782.554	14733.31
782.888	14618.29
783.222	14583.94
783.556	14570.38
783.889	14510.27
784.223	14417.16
784.557	14476.37
784.89	14458.52
785.224	14288.58
785.557	14222.14
785.891	14202.25
786.224	14199.54
786.558	14140.11
786.891	14032.77
787.224	14013.11
787.557	13918.42
787.891	13875.03
788.224	13910.51
788.557	13871.64
788.89	13837.29
789.223	13665.09
789.556	13654.47
789.888	13698.76
790.221	13622.38
790.554	13596.39
790.887	13601.14
791.219	13464.42
791.552	13445.44
791.884	13394.37
792.217	13278.44
792.549	13253.13
792.882	13211.09
793.214	13148.5
793.546	13111.43
793.879	13105.79
794.211	12988.05
794.543	13060.14
794.875	12933.59
795.207	13048.16
795.539	12933.81
795.871	12882.97
796.203	12759.13
796.535	12727.72
796.867	12711.22
797.198	12689.98
797.53	12720.26
797.862	12627.15
798.193	12640.49
798.525	12553.94
798.856	12554.61
799.188	12440.94
799.519	12473.49
799.85	12304.9
800.182	12318.91
800.513	12352.36
800.844	12187.39
801.175	12295.19
801.506	12221.06
801.837	12191.01
802.168	12152.36
802.499	12058.36
802.83	11952.37
803.161	11995.53
803.491	11988.07
803.822	12001.41
804.153	11884.8
804.483	11811.13
804.814	11805.03
805.145	11809.77
805.475	11786.05
805.805	11745.6
806.136	11708.76
806.466	11743.56
806.796	11638.03
807.126	11619.72
807.457	11543.11
807.787	11552.15
808.117	11485.71
808.447	11447.52
808.777	11550.12
809.107	11432.83
809.436	11422.44
809.766	11342.44
810.096	11365.04
810.426	11256.57
810.755	11306.06
811.085	11272.16
811.414	11246.17
811.744	11217.93
812.073	11125.27
812.403	11144.93
812.732	11082.34
813.061	11025.39
813.39	11059.29
813.719	10951.94
814.049	11040.98
814.378	10983.13
814.707	10967.08
815.036	10892.28
815.365	10908.33
815.693	10772.74
816.022	10857.71
816.351	10713.31
816.68	10685.06
817.008	10749.24
817.337	10659.52
817.665	10598.05
817.994	10630.82
818.322	10685.51
818.651	10592.63
818.979	10547.43
819.307	10577.26
819.636	10558.28
819.964	10486.42
820.292	10490.94
820.62	10492.97
820.948	10497.04
821.276	10514.67
821.604	10459.98
821.932	10548.11
822.259	10452.52
822.587	10454.1
822.915	10431.28
823.243	10452.75
823.57	10374.56
823.898	10457.95
824.225	10409.59
824.553	10435.35
824.88	10378.63
825.207	10372.52
825.535	10437.83
825.862	10405.07
826.189	10379.08
826.516	10436.93
826.843	10404.16
827.17	10396.03
827.497	10471.05
827.824	10417.04
828.151	10468.11
828.478	10388.57
828.805	10433.99
829.131	10384.73
829.458	10338.4
829.785	10345.41
830.111	10386.76
830.438	10412.07
830.764	10450.26
831.09	10360.32
831.417	10365.07
831.743	10339.76
832.069	10408.91
832.395	10265.86
832.722	10392.18
833.048	10350.6
833.374	10310.38
833.7	10279.87
834.026	10306.54
834.351	10325.29
834.677	10261.57
835.003	10268.8
835.329	10276.03
835.654	10262.02
835.98	10208.23
836.306	10270.15
836.631	10227.44
836.956	10276.26
837.282	10224.51
837.607	10132.53
837.932	10126.65
838.258	10130.95
838.583	10133.89
838.908	10019.31
839.233	10042.36
839.558	10033.78
839.883	10026.77
840.208	9993.32
840.533	9983.61
840.858	9961.91
841.182	9950.16
841.507	9924.63
841.832	9907.23
842.156	9866.55
842.481	9893.44
842.805	9812.09
843.13	9830.17
843.454	9815.7
843.778	9804.63
844.103	9665.88
844.427	9671.07
844.751	9772.31
845.075	9681.02
845.399	9611.87
845.723	9615.93
846.047	9593.56
846.371	9464.53
846.695	9575.93
847.019	9515.82
847.343	9471.98
847.666	9465.88
847.99	9396.05
848.313	9349.95
848.637	9238.77
848.96	9309.05
849.284	9276.51
849.607	9167.13
849.931	9194.48
850.254	9090.52
850.577	9057.76
850.9	9008.72
851.223	8995.61
851.546	8990.41
851.869	8874.03
852.192	8937.76
852.515	8890.08
852.838	8861.6
853.161	8909.74
853.483	8845.78
853.806	8745.67
854.129	8726.01
854.451	8699.57
854.774	8682.85
855.096	8664.09
855.419	8621.16
855.741	8618.67
856.063	8607.82
856.385	8545
856.708	8515.17
857.03	8476.3
857.352	8507.04
857.674	8427.72
857.996	8403.31
858.318	8335.97
858.64	8344.55
858.961	8340.94
859.283	8335.06
859.605	8255.52
859.926	8320.83
860.248	8292.58
860.57	8252.81
860.891	8293.26
861.212	8256.2
861.534	8187.04
861.855	8173.26
862.176	8118.12
862.498	8208.29
862.819	8172.81
863.14	8128.74
863.461	8161.28
863.782	8138.46
864.103	8112.24
864.424	8066.14
864.745	8060.49
865.065	8021.63
865.386	8016.2
865.707	8015.52
866.027	8049.87
866.348	7999.25
866.668	7967.16
866.989	7934.85
867.309	7880.39
867.63	7937.33
867.95	7887.62
868.27	7833.61
868.59	7903.66
868.91	7889.2
869.23	7851.69
869.55	7791.35
869.87	7882.65
870.19	7855.75
870.51	7837.45
870.83	7838.81
871.15	7786.15
871.469	7786.6
871.789	7784.34
872.109	7755.87
872.428	7724.23
872.748	7730.56
873.067	7691.69
873.386	7735.98
873.706	7706.83
874.025	7599.49
874.344	7625.48
874.663	7676.55
874.982	7604.91
875.301	7589.09
875.62	7623.44
875.939	7619.38
876.258	7546.38
876.577	7585.48
876.896	7521.3
877.214	7512.49
877.533	7455.99
877.852	7476.78
878.17	7467.74
878.489	7556.1
878.807	7519.49
879.125	7419.38
879.444	7485.37
879.762	7448.31
880.08	7434.75
880.398	7420.74
880.716	7389.33
881.034	7367.86
881.352	7442.66
881.67	7410.79
881.988	7385.48
882.306	7380.74
882.624	7308.42
882.941	7311.81
883.259	7260.06
883.577	7216.45
883.894	7274.75
884.212	7221.87
884.529	7219.84
884.846	7219.39
885.164	7180.74
885.481	7213.51
885.798	7161.99
886.115	7114.76
886.432	7138.94
886.75	7097.36
887.067	7113.4
887.383	7082.67
887.7	7063.46
888.017	7065.04
888.334	7026.85
888.651	7000.64
888.967	6941.65
889.284	6962.44
889.6	6879.51
889.917	6906.4
890.233	6897.36
890.55	6845.61
890.866	6840.87
891.182	6879.06
891.498	6838.38
891.815	6856.91
892.131	6766.29
892.447	6773.07
892.763	6779.4
893.079	6787.99
893.395	6706.18
893.71	6693.07
894.026	6642
894.342	6659.85
894.657	6651.49
894.973	6638.84
895.289	6586.63
895.604	6584.15
895.92	6553.87
896.235	6522
896.55	6510.03
896.865	6524.04
897.181	6503.7
897.496	6510.03
897.811	6427.77
898.126	6450.14
898.441	6406.98
898.756	6372.4
899.071	6386.41
899.386	6381.44
899.7	6321.78
900.015	6313.42
900.33	6249.69
900.644	6310.26
900.959	6292.18
901.273	6233.65
901.588	6222.58
901.902	6129.92
902.216	6159.3
902.531	6044.05
902.845	6115.91
903.159	6044.95
903.473	6014.22
903.787	6038.63
904.101	5992.3
904.415	6017.38
904.729	5946.88
905.042	5903.71
905.356	5932.87
905.67	5896.94
905.984	5957.72
906.297	5882.92
906.611	5842.47
906.924	5826.43
907.237	5815.58
907.551	5774.45
907.864	5725.87
908.177	5686.32
908.491	5735.36
908.804	5683.83
909.117	5722.93
909.43	5690.61
909.743	5617.85
910.056	5616.04
910.368	5609.71
910.681	5587.11
910.994	5547.11
911.307	5487.23
911.619	5468.7
911.932	5502.6
912.244	5465.99
912.557	5429.15
912.869	5438.19
913.181	5444.97
913.494	5371.3
913.806	5338.76
914.118	5372.43
914.43	5350.96
914.742	5303.5
915.054	5272.54
915.366	5251.98
915.678	5221.47
915.99	5249.04
916.302	5201.59
916.613	5195.71
916.925	5118.65
917.236	5111.65
917.548	5077.3
917.859	5130.4
918.171	5056.96
918.482	5045.21
918.794	5034.59
919.105	5036.62
919.416	4980.8
919.727	4967.69
920.038	4948.26
920.349	4909.62
920.66	4920.92
920.971	4903.06
921.282	4900.13
921.593	4819.68
921.903	4840.92
922.214	4829.62
922.525	4777.87
922.835	4822.84
923.146	4730.86
923.456	4736.51
923.767	4709.17
924.077	4703.07
924.387	4668.27
924.697	4640.7
925.008	4643.41
925.318	4628.04
925.628	4647.93
925.938	4587.37
926.248	4559.57
926.558	4533.58
926.867	4486.8
927.177	4508.95
927.487	4511.21
927.796	4477.99
928.106	4467.14
928.416	4412.91
928.725	4403.64
929.034	4390.76
929.344	4415.84
929.653	4357.31
929.962	4325
930.271	4327.71
930.581	4258.11
930.89	4272.12
931.199	4231.22
931.508	4217.43
931.817	4282.29
932.125	4218.11
932.434	4226.24
932.743	4190.09
933.051	4165.91
933.36	4181.5
933.669	4142.41
933.977	4152.12
934.286	4123.42
934.594	4105.34
934.902	4069.64
935.21	4067.38
935.519	4028.06
935.827	4045.46
936.135	4019.47
936.443	3953.94
936.751	3930.89
937.059	3972.69
937.367	3976.99
937.674	3932.92
937.982	3965.69
938.29	3909.42
938.597	3915.97
938.905	3898.12
939.213	3855.86
939.52	3805.01
939.827	3781.28
940.135	3801.85
940.442	3786.26
940.749	3774.96
941.056	3736.99
941.363	3724.56
941.67	3742.42
941.977	3690.67
942.284	3682.98
942.591	3651.57
942.898	3616.09
943.205	3671.23
943.511	3569.76
943.818	3608.18
944.125	3597.56
944.431	3578.35
944.738	3534.06
945.044	3539.48
945.35	3549.43
945.657	3499.71
945.963	3521.4
946.269	3488.86
946.575	3507.39
946.881	3479.37
947.187	3460.84
947.493	3463.78
947.799	3457.68
948.105	3397.11
948.41	3384.69
948.716	3363.67
949.022	3350.34
949.327	3348.53
949.633	3330.45
949.938	3330.9
950.244	3325.93
950.549	3335.65
950.854	3315.99
951.16	3305.14
951.465	3256.33
951.77	3216.78
952.075	3241.41
952.38	3217.01
952.685	3212.94
952.99	3199.83
953.294	3195.76
953.599	3156.89
953.904	3130.23
954.209	3110.57
954.513	3112.15
954.818	3112.6
955.122	3121.19
955.426	3100.85
955.731	3083.45
956.035	3057.91
956.339	3067.18
956.643	3063.34
956.948	3030.34
957.252	3013.85
957.556	2966.62
957.86	3000.97
958.163	2997.58
958.467	3010.68
958.771	2946.28
959.075	2964.81
959.378	2926.62
959.682	2930.46
959.985	2922.78
960.289	2904.7
960.592	2878.03
960.896	2890.01
961.199	2851.82
961.502	2829.67
961.805	2867.41
962.108	2808.88
962.411	2839.39
962.714	2803.01
963.017	2802.78
963.32	2767.98
963.623	2736.57
963.926	2749.22
964.228	2758.71
964.531	2724.36
964.833	2722.1
965.136	2690.24
965.438	2690.47
965.741	2681.2
966.043	2693.63
966.345	2680.07
966.648	2641.2
966.95	2637.81
967.252	2628.09
967.554	2620.64
967.856	2613.63
968.158	2594.65
968.46	2581.09
968.761	2607.76
969.063	2585.84
969.365	2574.54
969.666	2512.62
969.968	2505.61
970.269	2527.76
970.571	2520.75
970.872	2495.44
971.174	2510.13
971.475	2472.17
971.776	2430.81
972.077	2453.64
972.378	2426.29
972.679	2446.18
972.98	2450.92
973.281	2437.14
973.582	2393.3
973.883	2396.24
974.183	2390.59
974.484	2410.93
974.785	2347.42
975.085	2363.47
975.386	2378.16
975.686	2353.98
975.986	2332.28
976.287	2335.9
976.587	2317.82
976.887	2307.88
977.187	2310.81
977.487	2326.41
977.787	2276.01
978.087	2280.31
978.387	2268.33
978.687	2255.68
978.987	2250.03
979.286	2267.43
979.586	2219.52
979.885	2211.38
980.185	2194.21
980.484	2192.4
980.784	2153.98
981.083	2154.89
981.382	2138.16
981.682	2168.45
981.981	2169.58
982.28	2162.8
982.579	2106.98
982.878	2132.06
983.177	2141.33
983.475	2111.95
983.774	2098.62
984.073	2096.13
984.372	2069.24
984.67	2072.4
984.969	2093.19
985.267	2094.78
985.566	2042.35
985.864	2022.46
986.162	2021.56
986.461	2030.37
986.759	2026.98
987.057	1986.76
987.355	1987.66
987.653	1989.02
987.951	1981.33
988.249	1950.15
988.547	1959.86
988.844	1967.1
989.142	1962.8
989.44	1918.06
989.737	1907.44
990.035	1883.71
990.332	1907.66
990.63	1899.98
990.927	1901.56
991.224	1877.38
991.521	1873.99
991.819	1875.8
992.116	1882.13
992.413	1838.28
992.71	1847.1
993.006	1837.83
993.303	1822.24
993.6	1791.05
993.897	1791.73
994.193	1806.42
994.49	1787.89
994.787	1795.12
995.083	1752.86
995.379	1757.38
995.676	1766.65
995.972	1770.04
996.268	1750.38
996.565	1748.57
996.861	1752.19
997.157	1754.22
997.453	1709.47
997.749	1704.28
998.044	1695.92
998.34	1709.25
998.636	1673.77
998.932	1687.1
999.227	1639.87
999.523	1676.71
999.818	1637.16
1000.114	1650.95
1000.409	1664.96
1000.704	1628.35
1001	1625.64
1001.295	1625.86
1001.59	1598.29
1001.885	1602.36
1002.18	1578.18
1002.475	1615.69
1002.77	1575.69
1003.065	1569.59
1003.359	1549.48
1003.654	1547.67
1003.949	1523.27
1004.243	1536.15
1004.538	1534.34
1004.832	1530.5
1005.127	1477.62
1005.421	1502.47
1005.715	1505.64
1006.009	1479.42
1006.304	1479.88
1006.598	1477.16
1006.892	1461.12
1007.186	1445.98
1007.48	1444.85
1007.773	1429.26
1008.067	1409.37
1008.361	1443.27
1008.655	1406.66
1008.948	1415.25
1009.242	1389.26
1009.535	1408.24
1009.829	1376.83
1010.122	1390.16
1010.415	1359.65
1010.708	1368.24
1011.001	1361.46
1011.295	1368.01
1011.588	1339.32
1011.881	1321.24
1012.173	1326.89
1012.466	1325.08
1012.759	1301.12
1013.052	1316.94
1013.344	1300.45
1013.637	1286.66
1013.93	1300.9
1014.222	1270.62
1014.514	1247.79
1014.807	1252.54
1015.099	1238.75
1015.391	1254.12
1015.683	1277.4
1015.976	1249.83
1016.268	1229.26
1016.56	1227.91
1016.851	1234.46
1017.143	1204.4
1017.435	1212.31
1017.727	1178.87
1018.018	1161.92
1018.31	1179.55
1018.602	1175.03
1018.893	1188.81
1019.185	1159.88
1019.476	1167.34
1019.767	1152.65
1020.058	1163.73
1020.35	1153.56
1020.641	1118.08
1020.932	1119.89
1021.223	1123.95
1021.514	1110.17
1021.804	1098.19
1022.095	1088.25
1022.386	1097.51
1022.677	1098.19
1022.967	1092.09
1023.258	1066.55
1023.548	1035.82
1023.839	1063.16
1024.129	1043.05
1024.419	1052.54
1024.709	1035.59
1025	1043.73
1025.29	1025.65
1025.58	1029.27
1025.87	991.98
1026.16	1012.32
1026.449	997.63
1026.739	1013.45
1027.029	998.99
1027.319	988.82
1027.608	963.73
1027.898	998.08
1028.187	992.88
1028.477	937.74
1028.766	979.32
1029.055	949.95
1029.344	959.21
1029.634	943.39
1029.923	925.09
1030.212	941.36
1030.501	925.99
1030.79	928.25
1031.078	907.01
1031.367	918.54
1031.656	895.94
1031.945	899.78
1032.233	916.28
1032.522	912.66
1032.81	890.74
1033.099	871.98
1033.387	873.34
1033.675	864.3
1033.963	852.32
1034.251	879.44
1034.54	860.46
1034.828	860.23
1035.116	850.29
1035.403	829.72
1035.691	838.09
1035.979	834.47
1036.267	814.36
1036.554	822.27
1036.842	843.06
1037.129	793.57
1037.417	795.37
1037.704	760.35
1037.992	800.57
1038.279	785.88
1038.566	781.82
1038.853	781.82
1039.14	781.82
