Data from breadboard_white_FLMS001491_00098.txt Node
Date: Wed Feb 08 10:48:34 GMT 2017
User: dcchb
Spectrometer: FLMS00149
Trigger mode: 0
Integration Time (sec): 2.000000E-2
Scans to average: 10
Electric dark correction enabled: true
Nonlinearity correction enabled: false
Boxcar width: 0
XAxis mode: Wavelengths
Number of Pixels in Spectrum: 2048
>>>>>Begin Spectral Data<<<<<
341.393	-19.15
341.776	-19.15
342.16	-19.15
342.543	-51.92
342.927	-67.96
343.31	-60.51
343.693	-71.81
344.077	-41.3
344.46	-92.6
344.843	-50.34
345.226	-43.78
345.61	0.73
345.993	-38.36
346.376	-3.56
346.759	17.23
347.142	19.94
347.525	46.83
347.908	49.55
348.291	73.73
348.674	85.25
349.057	108.98
349.44	109.66
349.823	135.87
350.206	149.66
350.588	190.79
350.971	199.83
351.354	233.27
351.737	235.08
352.119	261.07
352.502	265.13
352.884	259.71
353.267	292.48
353.65	289.31
354.032	308.3
354.414	292.03
354.797	326.6
355.179	327.73
355.562	298.13
355.944	301.07
356.326	332.7
356.709	352.82
357.091	336.09
357.473	352.59
357.855	348.52
358.238	341.97
358.62	354.17
359.002	344.91
359.384	348.52
359.766	357.79
360.148	357.79
360.53	344.45
360.912	354.85
361.294	338.58
361.676	340.84
362.057	322.76
362.439	345.36
362.821	322.08
363.203	342.65
363.584	332.48
363.966	319.14
364.348	335.41
364.729	321.18
365.111	325.7
365.493	346.71
365.874	313.04
366.256	315.98
366.637	322.53
367.019	342.65
367.4	342.87
367.781	330.9
368.163	341.97
368.544	320.5
368.925	318.92
369.306	340.39
369.688	312.36
370.069	325.7
370.45	299.48
370.831	321.18
371.212	318.24
371.593	351.46
371.974	324.57
372.355	342.65
372.736	338.8
373.117	340.16
373.498	315.53
373.879	340.61
374.26	321.18
374.641	320.5
375.021	327.73
375.402	342.65
375.783	358.01
376.163	361.63
376.544	351.23
376.925	338.13
377.305	344.91
377.686	352.59
378.066	355.53
378.447	369.99
378.827	353.49
379.208	369.76
379.588	365.24
379.968	368.18
380.349	375.19
380.729	388.52
381.109	363.21
381.489	371.12
381.87	383.1
382.25	368.63
382.63	387.16
383.01	377.67
383.39	358.92
383.77	379.26
384.15	384.91
384.53	414.73
384.91	402.53
385.29	394.85
385.67	407.5
386.049	401.63
386.429	412.7
386.809	411.35
387.189	408.86
387.568	411.8
387.948	428.97
388.328	428.52
388.707	418.35
389.087	438.92
389.466	430.55
389.846	438.69
390.225	436.43
390.605	441.4
390.984	466.03
391.363	440.95
391.743	474.17
392.122	475.52
392.501	484.34
392.881	478.24
393.26	474.17
393.639	501.06
394.018	496.09
394.397	499.25
394.776	528.86
395.155	514.85
395.534	540.83
395.913	528.63
396.292	522.3
396.671	535.18
397.05	529.31
397.429	540.83
397.808	555.52
398.186	561.62
398.565	585.35
398.944	569.76
399.323	590.78
399.701	575.63
400.08	578.12
400.458	597.78
400.837	589.65
401.215	614.05
401.594	632.58
401.972	646.14
402.351	665.8
402.729	650.43
403.107	661.28
403.486	674.39
403.864	680.04
404.242	684.78
404.62	707.83
404.999	714.16
405.377	682.07
405.755	724.33
406.133	732.47
406.511	746.25
406.889	765.23
407.267	787.38
407.645	789.19
408.023	813.59
408.401	805.46
408.779	841.16
409.156	840.94
409.534	837.1
409.912	899.24
410.29	911.9
410.667	929.3
411.045	918
411.422	927.94
411.8	961.16
412.178	993.02
412.555	1000.93
412.933	1008.17
413.31	1024.21
413.687	1070.08
414.065	1070.31
414.442	1074.38
414.819	1114.38
415.197	1112.8
415.574	1140.82
415.951	1152.79
416.328	1128.39
416.705	1170.42
417.082	1212.45
417.46	1236.63
417.837	1241.38
418.214	1241.61
418.591	1266.24
418.967	1235.5
419.344	1288.61
419.721	1315.28
420.098	1311.21
420.475	1331.32
420.852	1337.42
421.228	1372
421.605	1390.08
421.982	1363.86
422.358	1391.21
422.735	1439.79
423.111	1431.21
423.488	1480.92
423.864	1473.69
424.241	1472.79
424.617	1516.4
424.994	1548.49
425.37	1549.17
425.746	1542.61
426.123	1600.69
426.499	1590.52
426.875	1638.43
427.251	1671.65
427.627	1673.91
428.003	1703.97
428.379	1742.38
428.756	1768.15
429.132	1762.95
429.507	1790.74
429.883	1809.5
430.259	1830.06
430.635	1860.35
431.011	1871.87
431.387	1936.95
431.763	1963.85
432.138	1955.03
432.514	2013.34
432.89	2023.96
433.265	2081.81
433.641	2096.95
434.016	2121.81
434.392	2144.63
434.767	2186.67
435.143	2181.92
435.518	2209.04
435.894	2253.1
436.269	2281.35
436.644	2279.77
437.02	2310.05
437.395	2323.16
437.77	2379.43
438.145	2406.32
438.52	2416.72
438.895	2464.4
439.271	2452.2
439.646	2573.55
440.021	2561.12
440.395	2563.83
440.77	2570.61
441.145	2594.56
441.52	2651.29
441.895	2622.59
442.27	2644.05
442.645	2627.56
443.019	2710.95
443.394	2690.83
443.769	2736.71
444.143	2741.91
444.518	2817.38
444.892	2756.14
445.267	2802.92
445.641	2833.88
446.016	2850.15
446.39	2864.84
446.764	2921.34
447.139	2895.57
447.513	2975.8
447.887	2952.97
448.262	2997.27
448.636	2967.89
449.01	3067.09
449.384	3083.59
449.758	3076.59
450.132	3109.81
450.506	3129.47
450.88	3208.56
451.254	3185.96
451.628	3254.21
452.002	3277.71
452.376	3305.28
452.75	3343.92
453.123	3381.89
453.497	3420.31
453.871	3434.99
454.244	3499.4
454.618	3484.48
454.992	3608.55
455.365	3616.23
455.739	3703.46
456.112	3739.85
456.486	3747.98
456.859	3816.91
457.232	3911.37
457.606	3880.41
457.979	3947.98
458.352	4014.87
458.725	4062.32
459.099	4140.74
459.472	4152.72
459.845	4146.16
460.218	4241.07
460.591	4265.93
460.964	4299.15
461.337	4418.47
461.71	4498.92
462.083	4532.82
462.456	4503.67
462.829	4598.13
463.201	4673.15
463.574	4677.45
463.947	4787.28
464.32	4889.87
464.692	4897.55
465.065	4932.58
465.438	5072.92
465.81	5104.78
466.183	5146.81
466.555	5238.56
466.928	5323.31
467.3	5255.51
467.672	5412.57
468.045	5479.23
468.417	5479.01
468.789	5588.16
469.161	5650.08
469.534	5743.18
469.906	5871.54
470.278	5905.21
470.65	6036.96
471.022	6138.2
471.394	6186.56
471.766	6303.17
472.138	6357.4
472.51	6506.55
472.882	6623.39
473.253	6655.7
473.625	6778.41
473.997	6921.91
474.369	7012.53
474.74	7046.2
475.112	7155.12
475.484	7354.44
475.855	7443.25
476.227	7465.85
476.598	7732.73
476.97	7767.08
477.341	7992.39
477.713	8022.9
478.084	8121.65
478.455	8385.37
478.827	8394.19
479.198	8687.51
479.569	8704.46
479.94	8965.47
480.311	9022.87
480.682	9214.96
481.053	9438
481.424	9559.35
481.795	9681.61
482.166	9795.51
482.537	9924.32
482.908	10124.99
483.279	10320.01
483.65	10464.87
484.021	10694.01
484.391	10711.64
484.762	10888.58
485.133	11079.99
485.503	11184.17
485.874	11443.6
486.244	11612.86
486.615	11801.78
486.985	11907.09
487.356	12172.62
487.726	12293.74
488.097	12441.09
488.467	12543.68
488.837	12811.92
489.207	12974.63
489.578	13134.4
489.948	13258.92
490.318	13497.33
490.688	13500.27
491.058	13742.29
491.428	13875.4
491.798	14069.97
492.168	14352.45
492.538	14391.09
492.908	14602.61
493.278	14758.31
493.648	14870.17
494.017	14987.01
494.387	15200.79
494.757	15289.6
495.126	15528.24
495.496	15619.98
495.866	15666.99
496.235	15886.64
496.605	16004.38
496.974	16111.27
497.344	16175.9
497.713	16412.51
498.082	16542.67
498.452	16678.49
498.821	16802.33
499.19	16904.02
499.559	17107.4
499.928	17122.32
500.298	17243.22
500.667	17498.58
501.036	17341.97
501.405	17580.84
501.774	17645.47
502.143	17878.46
502.512	17945.12
502.88	18075.29
503.249	18140.14
503.618	18378.33
503.987	18389.4
504.356	18519.57
504.724	18667.59
505.093	18864.87
505.462	18854.02
505.83	18967.02
506.199	19258.76
506.567	19482.71
506.936	19441.81
507.304	19737.84
507.672	19853.77
508.041	19810.84
508.409	20065.97
508.777	20164.5
509.145	20319.75
509.514	20399.29
509.882	20646.52
510.25	20611.27
510.618	20772.62
510.986	20982.33
511.354	21113.4
511.722	21403.79
512.09	21452.83
512.458	21480.17
512.826	21695.98
513.193	21869.09
513.561	22062.98
513.929	22208.74
514.297	22358.34
514.664	22439.47
515.032	22617.31
515.4	22848.95
515.767	22900.92
516.135	23130.3
516.502	23111.54
516.869	23495.03
517.237	23539.55
517.604	23510.85
517.972	23867.9
518.339	23982.48
518.706	24115.81
519.073	24328.23
519.44	24452.52
519.808	24793.98
520.175	24671.27
520.542	25052.05
520.909	25231.94
521.276	25234.42
521.643	25603.9
522.009	25790.56
522.376	25973.16
522.743	26111.69
523.11	26375.18
523.477	26658.79
523.843	26751.22
524.21	26994.83
524.577	27242.96
524.943	27393.23
525.31	27600.23
525.676	27768.37
526.043	28036.61
526.409	28123.84
526.776	28480.21
527.142	28617.16
527.508	28710.94
527.874	28977.37
528.241	29029.58
528.607	29292.39
528.973	29613.52
529.339	29628.88
529.705	29999.04
530.071	30099.38
530.437	30319.71
530.803	30481.06
531.169	30472.93
531.535	30600.16
531.901	30743.43
532.267	30970.77
532.632	31176.19
532.998	31299.57
533.364	31477.65
533.73	31582.95
534.095	31860.91
534.461	31935.49
534.826	32113.79
535.192	32184.52
535.557	32367.34
535.923	32422.93
536.288	32709.25
536.653	32824.5
537.019	32860.21
537.384	32918.74
537.749	33078.51
538.114	33217.94
538.479	33381.78
538.845	33492.06
539.21	33558.5
539.575	33563.02
539.94	33783.12
540.305	34171.81
540.67	33916.45
541.034	34171.36
541.399	34185.82
541.764	34475.31
542.129	34550.33
542.494	34694.96
542.858	34745.81
543.223	34756.88
543.587	35019.7
543.952	35003.66
544.316	35134.73
544.681	35125.46
545.045	35359.58
545.41	35576.07
545.774	35624.66
546.138	35527.26
546.503	35879.34
546.867	35766.12
547.231	36077.3
547.595	36240.23
547.959	36324.3
548.324	36281.81
548.688	36389.83
549.052	36652.88
549.416	36787.11
549.779	36707.34
550.143	36860.56
550.507	37106.88
550.871	37152.53
551.235	37285.18
551.599	37637.03
551.962	37501.44
552.326	37831.15
552.689	37868.21
553.053	37867.08
553.417	37990.92
553.78	38455.09
554.143	38397.46
554.507	38573.73
554.87	38757.23
555.234	39057.33
555.597	38928.3
555.96	38971.91
556.323	39344.56
556.686	39372.35
557.05	39682.85
557.413	39587.49
557.776	39838.56
558.139	40098.44
558.502	40121.49
558.865	40257.76
559.228	40557.63
559.59	40593.57
559.953	40697.52
560.316	41306.32
560.679	41136.15
561.041	41343.38
561.404	41506.31
561.767	41809.13
562.129	41568.23
562.492	42028.33
562.854	42151.26
563.217	42101.77
563.579	42333.86
563.941	42612.04
564.304	42869.89
564.666	42959.38
565.028	43108.75
565.39	43259.48
565.753	43376.54
566.115	43575.86
566.477	43851.56
566.839	43923.42
567.201	44144.21
567.563	44200.02
567.925	44386.46
568.287	44400.7
568.648	44500.13
569.01	44826.67
569.372	45047.46
569.734	44787.35
570.095	45223.73
570.457	45351.86
570.819	45461.69
571.18	45409.48
571.542	45733.77
571.903	45840.66
572.265	45958.17
572.626	46001.78
572.987	46219.63
573.349	46077.26
573.71	46440.19
574.071	46404.26
574.432	46626.4
574.794	46803.57
575.155	46786.17
575.516	46817.13
575.877	46918.14
576.238	46993.17
576.599	47131.7
576.96	47168.31
577.32	47153.39
577.681	47308.64
578.042	47273.39
578.403	47432.48
578.763	47499.15
579.124	47435.87
579.485	47588.18
579.845	47653.94
580.206	47574.17
580.566	47565.59
580.927	47700.95
581.287	47946.82
581.648	47726.94
582.008	47932.81
582.368	47911.79
582.728	47990.43
583.089	47833.15
583.449	47866.14
583.809	47901.17
584.169	48024.33
584.529	47973.71
584.889	48195.4
585.249	48014.16
585.609	47845.58
585.969	48139.81
586.329	47989.76
586.688	48044.89
587.048	48015.07
587.408	47934.62
587.768	48027.27
588.127	47914.5
588.487	47901.85
588.846	48270.2
589.206	47959.02
589.565	48064.56
589.925	48180.26
590.284	48031.79
590.643	48093.48
591.003	48348.62
591.362	48288.73
591.721	48231.1
592.08	48302.29
592.44	48293.7
592.799	48400.37
593.158	48367.6
593.517	48316.98
593.876	48283.31
594.235	48375.06
594.593	48343.42
594.952	48380.48
595.311	48263.87
595.67	48455.05
596.029	48512.68
596.387	48573.69
596.746	48665.44
597.104	48438.1
597.463	48575.73
597.822	48699.11
598.18	48521.04
598.538	48454.15
598.897	48649.62
599.255	48407.37
599.613	48936.17
599.972	48743.18
600.33	48734.37
600.688	48627.93
601.046	48780.69
601.404	48874.7
601.762	48836.06
602.12	48982.27
602.478	48905.89
602.836	49004.19
603.194	48789.06
603.552	49045.77
603.91	48878.32
604.268	49144.08
604.625	48863.4
604.983	49142.95
605.341	48852.56
605.698	49220.01
606.056	49282.38
606.413	49189.5
606.771	49293.68
607.128	49349.27
607.485	49170.29
607.843	49218.42
608.2	49397.18
608.557	49492.77
608.914	49340.45
609.272	49511.07
609.629	49633.55
609.986	49652.31
610.343	49616.6
610.7	49752.19
611.057	49645.3
611.414	49705.87
611.771	49763.27
612.127	49817.05
612.484	49798.07
612.841	50022.7
613.198	49814.11
613.554	49922.13
613.911	50170.94
614.267	50066.99
614.624	50016.59
614.98	50200.54
615.337	50255.46
615.693	50179.08
616.05	50172.52
616.406	50303.37
616.762	50145.4
617.118	50168.45
617.475	50220.66
617.831	50325.74
618.187	50450.71
618.543	50478.73
618.899	50601.21
619.255	50477.83
619.611	50504.49
619.967	50668.33
620.323	50561.21
620.678	50488.9
621.034	50452.06
621.39	50434.89
621.746	50534.09
622.101	50862
622.457	50558.05
622.812	50619.74
623.168	50656.13
623.523	50733.64
623.879	50713.07
624.234	50635.79
624.589	50669.01
624.945	50752.85
625.3	50652.96
625.655	50650.25
626.01	50715.56
626.365	50671.04
626.72	50631.04
627.075	50578.39
627.43	50652.51
627.785	50533.87
628.14	50590.82
628.495	50632.85
628.85	50634.66
629.205	50504.94
629.559	50639.4
629.914	50446.87
630.269	50510.37
630.623	50454.32
630.978	50333.65
631.332	50484.6
631.687	50500.88
632.041	50345.63
632.396	50318.51
632.75	50200.09
633.104	50292.75
633.459	50175.46
633.813	50184.95
634.167	50128.68
634.521	50112.19
634.875	50076.93
635.229	50099.76
635.583	49850.27
635.937	49926.43
636.291	49850.05
636.645	49848.01
636.999	49728.24
637.352	49783.61
637.706	49624.06
638.06	49843.04
638.413	49798.97
638.767	49489.83
639.121	49517.17
639.474	49344.07
639.828	49466.78
640.181	49377.74
640.534	49527.79
640.888	49264.07
641.241	49201.93
641.594	49349.27
641.947	49193.57
642.301	49198.54
642.654	49239.21
643.007	49128.03
643.36	49085.77
643.713	48996.51
644.066	49145.88
644.419	48812.56
644.771	48829.06
645.124	48400.37
645.477	48377.99
645.83	48048.74
646.182	47868.85
646.535	47764
646.888	47663.66
647.24	47569.88
647.593	47777.11
647.945	47577.11
648.298	47442.42
648.65	47323.56
649.002	47193.17
649.355	47354.52
649.707	47275.42
650.059	47550.44
650.411	47944.11
650.763	48157.21
651.115	48412.79
651.467	48062.75
651.819	48119.92
652.171	48103.65
652.523	47870.89
652.875	47921.06
653.227	47780.5
653.578	47970.32
653.93	47941.62
654.282	47792.7
654.633	47712.93
654.985	47757.9
655.337	47798.8
655.688	47851.45
656.039	47926.71
656.391	47545.02
656.742	47586.6
657.094	47615.08
657.445	47708.63
657.796	47515.19
658.147	47448.75
658.498	47549.77
658.849	47600.39
659.2	47462.31
659.551	47410.34
659.902	47571.46
660.253	47398.13
660.604	47466.61
660.955	47078.82
661.306	47450.79
661.656	47210.11
662.007	47162.88
662.358	47317.23
662.708	47295.08
663.059	47071.36
663.409	46941.2
663.76	47257.57
664.11	47206.95
664.461	47204.01
664.811	47183.9
665.161	47147.07
665.511	47023.68
665.862	47001.98
666.212	47193.84
666.562	47096.22
666.912	47138.48
667.262	46968.77
667.612	47113.17
667.962	47113.17
668.312	46878.82
668.662	47180.06
669.011	47025.71
669.361	46958.82
669.711	46951.36
670.06	46909.56
670.41	46862.33
670.76	46737.36
671.109	46812.16
671.459	46902.55
671.808	46686.51
672.157	46752.73
672.507	46503.47
672.856	46459.85
673.205	46481.77
673.554	46602.67
673.904	46601.77
674.253	46742.33
674.602	46620.53
674.951	46102.12
675.3	45694.67
675.649	46194.32
675.998	46378.72
676.346	46379.18
676.695	46482.45
677.044	46263.47
677.393	46357.48
677.741	46327.65
678.09	46098.73
678.438	46157.03
678.787	46041.33
679.135	46069.58
679.484	45877.72
679.832	46068.9
680.181	45702.58
680.529	46001.11
680.877	45728.12
681.225	45704.17
681.573	46065.51
681.922	45717.72
682.27	45504.4
682.618	45450.16
682.966	45370.84
683.314	45551.63
683.661	45449.48
684.009	45185.31
684.357	45003.17
684.705	45051.75
685.053	44993
685.4	45086.33
685.748	44805.21
686.095	44834.58
686.443	44675.94
686.79	44553.91
687.138	44658.09
687.485	44611.09
687.832	44496.74
688.18	44437.98
688.527	44259.46
688.874	44252.45
689.221	44136.3
689.568	43895.17
689.915	43887.49
690.262	43908.05
690.609	43838
690.956	43656.76
691.303	43687.04
691.65	43421.74
691.997	43468.74
692.344	43270.56
692.69	43145.14
693.037	43199.15
693.383	42658.82
693.73	42868.53
694.077	42595.32
694.423	42546.06
694.769	42514.19
695.116	42403.46
695.462	42393.07
695.808	42254.54
696.155	42332.73
696.501	42010.25
696.847	41974.55
697.193	41845.06
697.539	41909.91
697.885	41690.49
698.231	41510.83
698.577	41450.27
698.923	41364.62
699.269	41299.54
699.614	41041.01
699.96	40996.94
700.306	41072.2
700.651	40829.27
700.997	40705.88
701.342	40642.38
701.688	40471.53
702.033	40360.13
702.379	40414.59
702.724	40191.54
703.069	40461.82
703.415	39866.58
703.76	40015.73
704.105	39935.05
704.45	39840.82
704.795	39479.92
705.14	39493.93
705.485	39439.02
705.83	39331
706.175	39429.75
706.52	39183.43
706.865	39086.49
707.209	39109.08
707.554	38797.23
707.899	38935.3
708.243	38669.32
708.588	38697.12
708.932	38374.87
709.277	38387.75
709.621	38320.18
709.966	38131.71
710.31	38271.59
710.654	37809.46
710.998	38016.68
711.342	37926.97
711.687	37876.57
712.031	37649.01
712.375	37505.06
712.719	37574.44
713.063	37500.77
713.407	37513.65
713.75	37356.59
714.094	37318.4
714.438	37164.95
714.782	37134.45
715.125	36929.71
715.469	37071.62
715.812	36881.12
716.156	36729.94
716.499	36833.66
716.843	36754.12
717.186	36503.28
717.53	36677.74
717.873	36726.55
718.216	36513.22
718.559	36382.83
718.902	36010.86
719.246	36172.21
719.589	36190.74
719.932	35974.7
720.275	36015.38
720.617	35840.24
720.96	35865.1
721.303	35820.81
721.646	35828.27
721.989	35509.63
722.331	35758.21
722.674	35446.58
723.016	35531.78
723.359	35455.4
723.701	35431.22
724.044	35210.88
724.386	35026.71
724.729	35192.35
725.071	35078.68
725.413	35049.76
725.755	35085.46
726.097	34846.15
726.439	34677.11
726.782	34734.06
727.124	34767.28
727.465	34644.8
727.807	34646.15
728.149	34506.72
728.491	34354.41
728.833	34430.79
729.175	34281.64
729.516	34325.93
729.858	34144.24
730.199	34306.95
730.541	34086.62
730.882	34144.92
731.224	34103.34
731.565	33849.34
731.906	33875.78
732.248	33833.74
732.589	33803.46
732.93	33683.46
733.271	33641.66
733.612	33610.47
733.953	33589.68
734.294	33312.17
734.635	33550.81
734.976	33624.48
735.317	33427.43
735.658	33455.9
735.999	33182.91
736.339	33157.15
736.68	33344.04
737.021	33115.34
737.361	32999.64
737.702	33118.06
738.042	33082.12
738.383	32845.29
738.723	32858.4
739.063	32829.7
739.404	32834.45
739.744	32668.12
740.084	32589.48
740.424	32592.65
740.764	32520.56
741.104	32546.32
741.444	32354.91
741.784	32469.03
742.124	32256.61
742.464	32228.14
742.804	32265.65
743.143	32283.73
743.483	32169.83
743.823	32017.07
744.162	31998.76
744.502	32125.77
744.841	31766.45
745.181	31980.91
745.52	31831.54
745.86	31756.06
746.199	31653.01
746.538	31613.24
746.877	31682.61
747.216	31464.31
747.556	31429.29
747.895	31509.96
748.234	31308.16
748.573	31296.86
748.911	31440.81
749.25	31202.63
749.589	31109.07
749.928	31160.37
750.267	31147.94
750.605	30962.63
750.944	30831.11
751.283	30840.6
751.621	30980.48
751.96	30627.95
752.298	30619.82
752.636	30641.06
752.975	30462.31
753.313	30295.98
753.651	30521.29
753.989	30341.18
754.327	30092.37
754.666	30117.68
755.004	30107.06
755.342	30037.91
755.679	29997.46
756.017	29815.09
756.355	29907.74
756.693	29772.83
757.031	29692.84
757.368	29544.59
757.706	29574.65
758.044	29446.29
758.381	29550.92
758.719	29397.02
759.056	29185.73
759.394	29275.22
759.731	29073.19
760.068	28935.57
760.405	28936.7
760.743	28747.32
761.08	28823.03
761.417	28612.86
761.754	28690.83
762.091	28468.23
762.428	28510.72
762.765	28133.55
763.102	28303.27
763.438	28211.52
763.775	28016.72
764.112	28065.53
764.449	28050.39
764.785	27685.66
765.122	27664.41
765.458	27638.2
765.795	27637.97
766.131	27563.85
766.467	27423.06
766.804	27238.89
767.14	27124.77
767.476	27064.2
767.812	27017.43
768.148	27104.65
768.485	26884.55
768.821	26659.69
769.157	26702.86
769.492	26593.93
769.828	26454.73
770.164	26325.92
770.5	26212.02
770.836	26288.4
771.171	26037.34
771.507	26082.76
771.842	25891.81
772.178	25817.68
772.513	25669.44
772.849	25630.34
773.184	25527.07
773.519	25427.18
773.855	25342.89
774.19	25346.51
774.525	25232.39
774.86	25184.71
775.195	25186.51
775.53	24950.36
775.865	24804.38
776.2	24647.09
776.535	24553.31
776.87	24460.66
777.205	24471.28
777.539	24250.04
777.874	24327.33
778.209	24139.31
778.543	24166.2
778.878	23994.68
779.212	23947
779.547	23794.91
779.881	23776.15
780.215	23690.28
780.55	23632.66
780.884	23558.99
781.218	23403.06
781.552	23596.72
781.886	23355.6
782.22	23210.52
782.554	23214.14
782.888	22859.34
783.222	22863.18
783.556	22785.45
783.889	22729.4
784.223	22488.96
784.557	22504.1
784.89	22393.37
785.224	22298.45
785.557	22183.43
785.891	22225.46
786.224	22201.73
786.558	22202.86
786.891	21893.72
787.224	21845.81
787.557	21802.65
787.891	21748.41
788.224	21747.73
788.557	21704.8
788.89	21622.09
789.223	21566.27
789.556	21346.61
789.888	21346.84
790.221	21327.18
790.554	21041.76
790.887	21055.32
791.219	21020.97
791.552	21049.22
791.884	20838.83
792.217	20808.55
792.549	20734.43
792.882	20558.61
793.214	20429.35
793.546	20519.06
793.879	20398.39
794.211	20223.93
794.543	20315.45
794.875	20181.67
795.207	20284.72
795.539	20113.2
795.871	20037.04
796.203	19916.37
796.535	19816.03
796.867	19809.71
797.198	19746.66
797.53	19733.1
797.862	19589.15
798.193	19644.06
798.525	19477.06
798.856	19555.7
799.188	19310.06
799.519	19231.42
799.85	19067.13
800.182	19167.69
800.513	19116.16
800.844	18811.77
801.175	18977.18
801.506	18911.2
801.837	18745.78
802.168	18829.84
802.499	18734.93
802.83	18622.84
803.161	18564.77
803.491	18604.54
803.822	18591.66
804.153	18525.9
804.483	18357.54
804.814	18236.87
805.145	18263.76
805.475	18271.44
805.805	18138.79
806.136	18196.41
806.466	18083.42
806.796	18022.63
807.126	17972.69
807.457	17968.62
807.787	17890.89
808.117	17904.9
808.447	17784
808.777	17799.36
809.107	17698.8
809.436	17608.41
809.766	17549.2
810.096	17479.14
810.426	17393.05
810.755	17532.7
811.085	17466.94
811.414	17429.88
811.744	17228.98
812.073	17243.67
812.403	17239.15
812.732	17153.05
813.061	17234.63
813.39	16972.04
813.719	16962.1
814.049	17038.48
814.378	16930.46
814.707	16912.38
815.036	16833.51
815.365	16731.14
815.693	16646.85
816.022	16543.35
816.351	16570.24
816.68	16462
817.008	16636
817.337	16405.73
817.665	16437.14
817.994	16410.92
818.322	16417.03
818.651	16194.43
818.979	16209.12
819.307	16273.3
819.636	16251.61
819.964	16069.01
820.292	16169.8
820.62	16116.92
820.948	16071.95
821.276	16155.79
821.604	16074.89
821.932	16108.33
822.259	16100.88
822.587	16052.74
822.915	15982.46
823.243	16081.67
823.57	15951.05
823.898	16009.35
824.225	15954.67
824.553	15946.98
824.88	15914.44
825.207	16064.94
825.535	15936.59
825.862	15976.81
826.189	15894.78
826.516	15881.45
826.843	16041.67
827.17	16040.99
827.497	15989.01
827.824	16013.42
828.151	15975.68
828.478	15979.98
828.805	16036.92
829.131	15960.31
829.458	15971.16
829.785	15880.09
830.111	15897.49
830.438	15959.86
830.764	15936.13
831.09	15893.42
831.417	15800.54
831.743	15860.2
832.069	15864.27
832.395	15904.5
832.722	15806.87
833.048	15800.54
833.374	15769.59
833.7	15646.42
834.026	15803.48
834.351	15726.2
834.677	15764.39
835.003	15704.5
835.329	15718.51
835.654	15663.6
835.98	15633.77
836.306	15636.48
836.631	15508.8
836.956	15606.2
837.282	15698.4
837.607	15540.66
837.932	15534.34
838.258	15563.26
838.583	15578.4
838.908	15424.51
839.233	15393.55
839.558	15319.65
839.883	15271.29
840.208	15301.58
840.533	15242.14
840.858	15320.56
841.182	15238.98
841.507	15153.33
841.832	15076.5
842.156	15129.38
842.481	15011.41
842.805	15065.2
843.13	15025.65
843.454	14959.66
843.778	14909.49
844.103	14890.74
844.427	14789.05
844.751	14804.19
845.075	14753.79
845.399	14701.82
845.723	14576.85
846.047	14661.14
846.371	14475.16
846.695	14527.13
847.019	14463.63
847.343	14349.96
847.666	14286.69
847.99	14186.58
848.313	14279.46
848.637	14166.46
848.96	14146.35
849.284	14092.79
849.607	13972.34
849.931	13914.04
850.254	13859.58
850.577	13723.09
850.9	13700.04
851.223	13611.9
851.546	13559.47
851.869	13469.31
852.192	13533.03
852.515	13478.8
852.838	13413.26
853.161	13379.37
853.483	13331.68
853.806	13252.36
854.129	13296.66
854.451	13187.28
854.774	13134.4
855.096	13060.73
855.419	13055.76
855.741	13001.07
856.063	13018.7
856.385	12821.19
856.708	12944.8
857.03	12833.84
857.352	12815.76
857.674	12771.7
857.996	12724.24
858.318	12622.32
858.64	12639.5
858.961	12655.09
859.283	12599.95
859.605	12591.36
859.926	12561.76
860.248	12476.34
860.57	12446.73
860.891	12322.22
861.212	12394.98
861.534	12408.77
861.855	12302.33
862.176	12374.65
862.498	12314.99
862.819	12272.5
863.14	12244.48
863.461	12187.08
863.782	12105.05
864.103	12150.47
864.424	12137.36
864.745	12114.77
865.065	11977.59
865.386	11985.05
865.707	12017.82
866.027	12032.96
866.348	11953.64
866.668	11842.91
866.989	11923.81
867.309	11861.89
867.63	11817.37
867.95	11824.15
868.27	11695.79
868.59	11781.22
868.91	11679.98
869.23	11736.92
869.55	11667.55
869.87	11768.56
870.19	11656.47
870.51	11682.24
870.83	11679.3
871.15	11589.13
871.469	11627.1
871.789	11613.76
872.109	11629.13
872.428	11491.96
872.748	11516.14
873.067	11517.04
873.386	11523.82
873.706	11486.08
874.025	11430.72
874.344	11342.81
874.663	11379.19
874.982	11395.46
875.301	11347.55
875.62	11290.38
875.939	11257.84
876.258	11294.45
876.577	11287.44
876.896	11285.86
877.214	11197.73
877.533	11210.16
877.852	11268.91
878.17	11146.2
878.489	11226.65
878.807	11251.06
879.125	11185.3
879.444	11099.65
879.762	11090.16
880.08	11109.14
880.398	11106.66
880.716	11062.36
881.034	11028.69
881.352	11057.84
881.67	10991.41
881.988	10983.95
882.306	10976.49
882.624	10900.56
882.941	10903.72
883.259	10821.47
883.577	10815.14
883.894	10815.37
884.212	10864.63
884.529	10721.81
884.846	10687.69
885.164	10679.78
885.481	10601.81
885.798	10656.5
886.115	10636.61
886.432	10619.66
886.75	10609.72
887.067	10579.67
887.383	10468.48
887.7	10568.82
888.017	10524.75
888.334	10437.97
888.651	10522.49
888.967	10411.76
889.284	10379.22
889.6	10327.69
889.917	10261.93
890.233	10306.45
890.55	10146
890.866	10236.62
891.182	10257.41
891.498	10111.43
891.815	10139
892.131	10024.88
892.447	10015.61
892.763	10009.96
893.079	10039.57
893.395	9968.16
893.71	9973.13
894.026	9900.59
894.342	9933.35
894.657	9796.41
894.973	9847.93
895.289	9754.38
895.604	9813.58
895.92	9688.62
896.235	9661.95
896.55	9682.74
896.865	9635.06
897.181	9659.69
897.496	9566.58
897.811	9601.84
898.126	9507.6
898.441	9451.11
898.756	9405.23
899.071	9407.72
899.386	9429.64
899.7	9325.91
900.015	9326.36
900.33	9234.39
900.644	9271.23
900.959	9186.71
901.273	9200.04
901.588	9107.39
901.902	9136.54
902.216	9086.6
902.531	9057.22
902.845	8981.97
903.159	8928.64
903.473	8906.49
903.787	8847.28
904.101	8866.49
904.415	8799.15
904.729	8771.8
905.042	8789.43
905.356	8755.53
905.67	8689.32
905.984	8760.73
906.297	8618.13
906.611	8600.06
906.924	8610.68
907.237	8583.11
907.551	8491.36
907.864	8461.53
908.177	8408.2
908.491	8409.78
908.804	8409.55
909.117	8398.71
909.43	8345.37
909.743	8163.23
910.056	8288.65
910.368	8147.19
910.681	8156.45
910.994	8157.13
911.307	8108.32
911.619	8025.83
911.932	8025.61
912.244	7993.97
912.557	8005.72
912.869	7931.15
913.181	7896.12
913.494	7925.72
913.806	7830.13
914.118	7790.13
914.43	7776.58
914.742	7732.96
915.054	7696.8
915.366	7650.48
915.678	7620.42
915.99	7642.57
916.302	7524.83
916.613	7497.49
916.925	7501.78
917.236	7493.19
917.548	7457.71
917.859	7430.14
918.171	7386.3
918.482	7359.64
918.794	7360.09
919.105	7301.79
919.416	7245.97
919.727	7306.76
920.038	7201.22
920.349	7188.79
920.66	7152.41
920.971	7083.71
921.282	7110.6
921.593	7039.65
921.903	7036.26
922.214	6980.44
922.525	6941.12
922.835	6908.12
923.146	6863.83
923.456	6814.11
923.767	6863.15
924.077	6862.93
924.387	6770.73
924.697	6737.05
925.008	6703.16
925.318	6687.56
925.628	6648.24
925.938	6650.96
926.248	6555.82
926.558	6577.28
926.867	6519.21
927.177	6523.73
927.487	6474.91
927.796	6442.15
928.106	6402.37
928.416	6403.96
928.725	6372.09
929.034	6285.31
929.344	6348.14
929.653	6302.72
929.962	6242.83
930.271	6252.32
930.581	6242.6
930.89	6207.58
931.199	6130.29
931.508	6142.04
931.817	6124.19
932.125	6122.61
932.434	6085.32
932.743	5981.37
933.051	6037.41
933.36	5983.85
933.669	5963.29
933.977	5954.48
934.286	5870.64
934.594	5818.21
934.902	5824.54
935.21	5838.77
935.519	5769.62
935.827	5804.42
936.135	5758.1
936.443	5671.32
936.751	5693.69
937.059	5660.25
937.367	5651.66
937.674	5690.08
937.982	5638.1
938.29	5552
938.597	5574.6
938.905	5555.39
939.213	5519.46
939.52	5494.83
939.827	5465.22
940.135	5462.96
940.442	5413.47
940.749	5422.74
941.056	5411.44
941.363	5373.25
941.67	5344.1
941.977	5301.16
942.284	5296.19
942.591	5232.01
942.898	5211.67
943.205	5189.98
943.511	5214.16
943.818	5203.99
944.125	5117.66
944.431	5144.55
944.738	5106.14
945.044	5053.03
945.35	5091.9
945.657	5027.95
945.963	4985.91
946.269	4975.74
946.575	5016.87
946.881	4976.87
947.187	4925.35
947.493	4896.88
947.799	4879.25
948.105	4838.57
948.41	4868.4
948.716	4826.37
949.022	4818.01
949.327	4714.28
949.633	4762.64
949.938	4746.37
950.244	4760.61
950.549	4712.02
950.854	4656.88
951.16	4664.57
951.465	4620.95
951.77	4663.21
952.075	4610.56
952.38	4604.46
952.685	4525.59
952.99	4533.5
953.294	4518.36
953.599	4508.19
953.904	4468.19
954.209	4496.66
954.513	4485.14
954.818	4439.94
955.122	4383.44
955.426	4385.7
955.731	4381.41
956.035	4325.59
956.339	4316.55
956.643	4294.63
956.948	4284.69
957.252	4263.67
957.556	4246.05
957.86	4234.07
958.163	4244.92
958.467	4222.54
958.771	4220.06
959.075	4124.69
959.378	4150
959.682	4112.04
959.985	4114.3
960.289	4090.8
960.592	4098.48
960.896	4041.31
961.199	4015.09
961.502	4036.11
961.805	4029.33
962.108	3985.26
962.411	3946.62
962.714	3939.61
963.017	3948.2
963.32	3940.52
963.623	3910.91
963.926	3896.68
964.228	3846.28
964.531	3827.07
964.833	3834.98
965.136	3796.34
965.438	3778.26
965.741	3786.85
966.043	3767.64
966.345	3782.78
966.648	3739.85
966.95	3704.59
967.252	3691.94
967.554	3684.03
967.856	3675.89
968.158	3606.52
968.46	3601.77
968.761	3581.66
969.063	3568.1
969.365	3558.38
969.666	3593.41
969.968	3526.29
970.269	3550.7
970.571	3551.38
970.872	3489.68
971.174	3480.19
971.475	3493.3
971.776	3472.96
972.077	3418.5
972.378	3449.46
972.679	3419.63
972.98	3417.14
973.281	3397.26
973.582	3375.33
973.883	3347.09
974.183	3370.36
974.484	3310.7
974.785	3290.14
975.085	3326.75
975.386	3313.87
975.686	3231.38
975.986	3255.79
976.287	3249.46
976.587	3251.95
976.887	3211.5
977.187	3208.79
977.487	3199.75
977.787	3124.72
978.087	3194.55
978.387	3124.72
978.687	3158.39
978.987	3137.83
979.286	3072.29
979.586	3088.11
979.885	3058.51
980.185	3065.51
980.484	3053.31
980.784	3035.46
981.083	3040.2
981.382	3025.29
981.682	2961.79
981.981	2941.22
982.28	2966.53
982.579	2951.62
982.878	2960.43
983.177	2891.73
983.475	2909.58
983.774	2912.3
984.073	2857.38
984.372	2863.48
984.67	2856.93
984.969	2877.04
985.267	2861.45
985.566	2828.91
985.864	2778.51
986.162	2776.93
986.461	2779.19
986.759	2791.62
987.057	2766.31
987.355	2728.8
987.653	2730.61
987.951	2689.48
988.249	2669.14
988.547	2712.08
988.844	2709.36
989.142	2665.3
989.44	2625.52
989.737	2641.79
990.035	2611.29
990.332	2600.67
990.63	2613.55
990.927	2604.96
991.224	2585.3
991.521	2542.81
991.819	2574
992.116	2589.14
992.413	2534.91
992.71	2510.05
993.006	2540.33
993.303	2485.64
993.6	2471.86
993.897	2467.34
994.193	2478.41
994.49	2468.92
994.787	2437.73
995.083	2410.16
995.379	2413.33
995.676	2409.94
995.972	2388.24
996.268	2384.17
996.565	2348.47
996.861	2359.54
997.157	2334.01
997.453	2360.45
997.749	2353.67
998.044	2340.33
998.34	2290.62
998.636	2290.62
998.932	2275.25
999.227	2296.95
999.523	2270.96
999.818	2197.74
1000.114	2215.59
1000.409	2237.74
1000.704	2212.65
1001	2174.91
1001.295	2186.67
1001.59	2185.99
1001.885	2129.94
1002.18	2152.32
1002.475	2121.13
1002.77	2114.8
1003.065	2138.08
1003.359	2099.44
1003.654	2082.94
1003.949	2061.47
1004.243	2044.97
1004.538	2048.59
1004.832	2015.82
1005.127	2018.99
1005.421	2004.3
1005.715	2013.79
1006.009	2000.91
1006.304	1973.34
1006.598	1955.94
1006.892	1960.23
1007.186	1902.61
1007.48	1921.14
1007.773	1931.08
1008.067	1891.76
1008.361	1924.07
1008.655	1907.58
1008.948	1924.07
1009.242	1864.87
1009.535	1864.41
1009.829	1841.59
1010.122	1822.83
1010.415	1812.44
1010.708	1812.44
1011.001	1802.72
1011.295	1777.86
1011.588	1770.86
1011.881	1777.41
1012.173	1728.82
1012.466	1769.73
1012.759	1758.65
1013.052	1765.66
1013.344	1743.97
1013.637	1712.55
1013.93	1698.77
1014.222	1711.65
1014.514	1673.01
1014.807	1688.6
1015.099	1659.45
1015.391	1653.8
1015.683	1686.57
1015.976	1623.52
1016.268	1624.42
1016.56	1603.86
1016.851	1610.64
1017.143	1596.85
1017.435	1597.3
1017.727	1595.49
1018.018	1549.17
1018.31	1560.92
1018.602	1542.16
1018.893	1524.54
1019.185	1502.84
1019.476	1515.95
1019.767	1491.32
1020.058	1525.67
1020.35	1470.98
1020.641	1461.26
1020.932	1465.33
1021.223	1468.94
1021.514	1419.23
1021.804	1433.69
1022.095	1394.37
1022.386	1412
1022.677	1429.4
1022.967	1419.45
1023.258	1370.42
1023.548	1377.87
1023.839	1355.95
1024.129	1387.59
1024.419	1372.22
1024.709	1344.2
1025	1337.65
1025.29	1352.79
1025.58	1339.23
1025.87	1307.82
1026.16	1287.71
1026.449	1301.27
1026.739	1292.23
1027.029	1307.59
1027.319	1286.8
1027.608	1250.65
1027.898	1252.68
1028.187	1248.61
1028.477	1259.91
1028.766	1231.89
1029.055	1233.92
1029.344	1236.63
1029.634	1201.15
1029.923	1201.61
1030.212	1186.01
1030.501	1195.28
1030.79	1172.46
1031.078	1161.83
1031.367	1153.02
1031.656	1160.93
1031.945	1137.88
1032.233	1127.94
1032.522	1137.88
1032.81	1129.74
1033.099	1135.39
1033.387	1108.5
1033.675	1087.71
1033.963	1101.72
1034.251	1108.28
1034.54	1110.08
1034.828	1085.23
1035.116	1091.33
1035.403	1035.06
1035.691	1051.33
1035.979	1049.29
1036.267	1018.79
1036.554	1020.37
1036.842	1012.69
1037.129	1006.13
1037.417	1004.32
1037.704	1006.13
1037.992	975.85
1038.279	983.76
1038.566	998.45
1038.853	998.45
1039.14	998.45
