Data from breadboard_white_FLMS001491_00091.txt Node
Date: Wed Feb 08 10:48:32 GMT 2017
User: dcchb
Spectrometer: FLMS00149
Trigger mode: 0
Integration Time (sec): 2.000000E-2
Scans to average: 10
Electric dark correction enabled: true
Nonlinearity correction enabled: false
Boxcar width: 0
XAxis mode: Wavelengths
Number of Pixels in Spectrum: 2048
>>>>>Begin Spectral Data<<<<<
341.393	6.57
341.776	6.57
342.16	6.57
342.543	-54.45
342.927	-78.4
343.31	-66.88
343.693	-70.49
344.077	-93.54
344.46	-64.16
344.843	-57.39
345.226	-38.85
345.61	-14.45
345.993	-6.09
346.376	-17.61
346.759	12.67
347.142	24.19
347.525	47.92
347.908	56.96
348.291	73.46
348.674	93.12
349.057	121.14
349.44	134.25
349.823	155.72
350.206	145.77
350.588	213.34
350.971	208.37
351.354	230.97
351.737	263.96
352.119	251.53
352.502	266.9
352.884	276.62
353.267	299.22
353.65	301.02
354.032	311.87
354.414	316.62
354.797	318.2
355.179	334.47
355.562	326.33
355.944	307.35
356.326	348.93
356.709	343.06
357.091	350.74
357.473	355.26
357.855	353.68
358.238	355.94
358.62	346.9
359.002	361.13
359.384	367.24
359.766	358.65
360.148	350.74
360.53	351.87
360.912	344.64
361.294	337.63
361.676	357.29
362.057	344.19
362.439	348.48
362.821	343.28
363.203	340.34
363.584	356.16
363.966	349.16
364.348	328.14
364.729	344.86
365.111	348.93
365.493	337.18
365.874	342.6
366.256	351.87
366.637	341.02
367.019	341.47
367.4	329.72
367.781	352.55
368.163	346.22
368.544	336.73
368.925	347.12
369.306	335.37
369.688	345.77
370.069	340.34
370.45	330.4
370.831	327.69
371.212	345.77
371.593	322.04
371.974	342.15
372.355	345.77
372.736	363.39
373.117	344.86
373.498	350.06
373.879	341.25
374.26	342.15
374.641	337.86
375.021	356.84
375.402	354.58
375.783	372.43
376.163	376.73
376.544	375.37
376.925	346.45
377.305	359.33
377.686	366.11
378.066	376.05
378.447	381.47
378.827	369.72
379.208	371.53
379.588	371.98
379.968	346.9
380.349	377.86
380.729	373.79
381.109	402.49
381.489	385.54
381.87	390.74
382.25	393.22
382.63	384.64
383.01	403.17
383.39	387.12
383.77	394.81
384.15	415.14
384.53	407.69
384.91	389.16
385.29	379.44
385.67	435.93
386.049	425.54
386.429	416.5
386.809	420.79
387.189	419.89
387.568	436.16
387.948	429.83
388.328	448.14
388.707	440.68
389.087	433.45
389.466	443.84
389.846	444.3
390.225	460.34
390.605	444.52
390.984	473.22
391.363	480.23
391.743	483.39
392.122	470.28
392.501	478.42
392.881	472.09
393.26	484.3
393.639	502.6
394.018	494.69
394.397	476.61
394.776	497.18
395.155	503.73
395.534	533.56
395.913	531.75
396.292	528.81
396.671	562.94
397.05	545.08
397.429	548.7
397.808	536.72
398.186	581.69
398.565	559.32
398.944	567
399.323	571.3
399.701	596.61
400.08	599.32
400.458	600.45
400.837	594.35
401.215	617.4
401.594	651.75
401.972	644.74
402.351	649.94
402.729	656.27
403.107	666.21
403.486	690.17
403.864	681.58
404.242	700.33
404.62	704.4
404.999	695.14
405.377	729.71
405.755	741.69
406.133	755.25
406.511	728.13
406.889	782.14
407.267	789.6
407.645	818.98
408.023	807.45
408.401	827.34
408.779	844.96
409.156	856.49
409.534	877.73
409.912	885.64
410.29	906.88
410.667	900.33
411.045	929.71
411.422	955.24
411.8	934.68
412.178	979.88
412.555	1004.96
412.933	1019.42
413.31	1039.53
413.687	1048.57
414.065	1055.13
414.442	1081.12
414.819	1109.36
415.197	1103.49
415.574	1128.57
415.951	1156.59
416.328	1151.17
416.705	1171.28
417.082	1211.96
417.46	1202.02
417.837	1236.37
418.214	1204.5
418.591	1260.32
418.967	1286.76
419.344	1319.53
419.721	1331.05
420.098	1305.74
420.475	1353.2
420.852	1352.75
421.228	1372.86
421.605	1393.88
421.982	1392.29
422.358	1413.76
422.735	1440.88
423.111	1460.54
423.488	1481.56
423.864	1476.13
424.241	1537.83
424.617	1543.7
424.994	1552.29
425.37	1563.59
425.746	1583.93
426.123	1572.4
426.499	1585.74
426.875	1646.98
427.251	1659.41
427.627	1666.19
428.003	1703.25
428.379	1696.24
428.756	1766.97
429.132	1760.42
429.507	1799.06
429.883	1821.44
430.259	1870.47
430.635	1870.02
431.011	1895.56
431.387	1952.51
431.763	1980.08
432.138	1985.95
432.514	2005.39
432.89	2034.54
433.265	2060.75
433.641	2126.06
434.016	2129.68
434.392	2126.74
434.767	2199.73
435.143	2170.13
435.518	2223.01
435.894	2240.41
436.269	2265.04
436.644	2303.46
437.02	2348.43
437.395	2383
437.77	2392.95
438.145	2453.96
438.52	2459.84
438.895	2467.75
439.271	2463.23
439.646	2534.41
440.021	2564.24
440.395	2568.08
440.77	2575.77
441.145	2596.33
441.52	2643.79
441.895	2639.94
442.27	2693.05
442.645	2724.91
443.019	2736.67
443.394	2726.04
443.769	2765.59
444.143	2726.72
444.518	2804.46
444.892	2792.71
445.267	2803.1
445.641	2846.49
446.016	2874.51
446.39	2867.06
446.764	2930.11
447.139	2901.86
447.513	2960.61
447.887	2950.9
448.262	2986.38
448.636	3000.16
449.01	3079.93
449.384	3095.53
449.758	3133.27
450.132	3150.21
450.506	3195.41
450.88	3221.85
451.254	3221.17
451.628	3240.61
452.002	3278.12
452.376	3315.18
452.75	3340.72
453.123	3379.81
453.497	3467.04
453.871	3451.67
454.244	3550.2
454.618	3572.58
454.992	3585.46
455.365	3576.19
455.739	3725.11
456.112	3761.27
456.486	3771.21
456.859	3803.98
457.232	3901.15
457.606	3879.01
457.979	3929.63
458.352	4028.61
458.725	4027.93
459.099	4063.64
459.472	4173.01
459.845	4212.33
460.218	4243.74
460.591	4317.64
460.964	4295.72
461.337	4436.51
461.71	4497.07
462.083	4575.04
462.456	4538.65
462.829	4625.2
463.201	4669.27
463.574	4707.46
463.947	4772.54
464.32	4889.83
464.692	4895.93
465.065	4994.91
465.438	5024.29
465.81	5134.57
466.183	5149.26
466.555	5271.74
466.928	5295.92
467.3	5295.92
467.672	5408.46
468.045	5563.26
468.417	5520.55
468.789	5568.23
469.161	5680.99
469.534	5792.63
469.906	5904.94
470.278	5943.36
470.65	6025.62
471.022	6132.51
471.394	6196.69
471.766	6305.16
472.138	6394.87
472.51	6499.73
472.882	6587.86
473.253	6680.97
473.625	6781.08
473.997	6888.87
474.369	6980.4
474.74	7038.7
475.112	7203.89
475.484	7289.09
475.855	7471.68
476.227	7529.08
476.598	7809.07
476.97	7814.72
477.341	8009.97
477.713	8119.12
478.084	8165.68
478.455	8412.22
478.827	8450.64
479.198	8723.63
479.569	8706.9
479.94	8955.48
480.311	9069.38
480.682	9223.05
481.053	9484.74
481.424	9664.84
481.795	9737.84
482.166	9808.12
482.537	10025.29
482.908	10195.45
483.279	10329.69
483.65	10503.69
484.021	10720.18
484.391	10838.83
484.762	10922.44
485.133	11089.89
485.503	11195.65
485.874	11512.93
486.244	11568.75
486.615	11822.53
486.985	11992.69
487.356	12135.51
487.726	12208.51
488.097	12534.83
488.467	12597.2
488.837	12864.76
489.207	12966.45
489.578	13168.71
489.948	13321.25
490.318	13434.01
490.688	13531.18
491.058	13687.11
491.428	13974.79
491.798	14087.1
492.168	14431.27
492.538	14497.49
492.908	14635.34
493.278	14805.05
493.648	14786.29
494.017	15129.79
494.387	15174.98
494.757	15363.23
495.126	15553.73
495.496	15636.67
495.866	15745.14
496.235	15830.78
496.605	15977.67
496.974	16121.62
497.344	16306.48
497.713	16412.92
498.082	16565.45
498.452	16701.27
498.821	16853.81
499.19	16874.37
499.559	17142.84
499.928	17239.79
500.298	17290.63
500.667	17420.35
501.036	17402.04
501.405	17673.67
501.774	17665.09
502.143	17884.29
502.512	17907.57
502.88	18140.78
503.249	18224.62
503.618	18325.18
503.987	18498.51
504.356	18632.29
504.724	18667.77
505.093	18778.73
505.462	19049.23
505.83	19072.51
506.199	19217.59
506.567	19555.88
506.936	19429.79
507.304	19854.18
507.672	19740.96
508.041	19903.67
508.409	20000.39
508.777	20201.97
509.145	20354.73
509.514	20388.86
509.882	20616.65
510.25	20632.24
510.618	20848.51
510.986	20921.27
511.354	21122.62
511.722	21417.3
512.09	21567.58
512.458	21519.45
512.826	21796.5
513.193	21871.98
513.561	22015.48
513.929	22230.16
514.297	22429.25
514.664	22597.84
515.032	22701.56
515.4	22907.66
515.767	22962.35
516.135	23143.13
516.502	23149.01
516.869	23469.68
517.237	23534.76
517.604	23646.62
517.972	23953.06
518.339	24146.72
518.706	24081.19
519.073	24357.79
519.44	24499.71
519.808	24819.02
520.175	24835.07
520.542	25051.56
520.909	25245.45
521.276	25342.85
521.643	25671.88
522.009	25866.68
522.376	25937.41
522.743	26228.25
523.11	26442.71
523.477	26708.24
523.843	26818.52
524.21	27120.2
524.577	27160.88
524.943	27501.89
525.31	27580.53
525.676	27816.23
526.043	28148.2
526.409	28301.64
526.776	28499.38
527.142	28714.06
527.508	28669.54
527.874	29059.36
528.241	29217.78
528.607	29335.74
528.973	29604.43
529.339	29651.44
529.705	30053.69
530.071	30134.59
530.437	30423.85
530.803	30466.56
531.169	30756.49
531.535	30578.87
531.901	30791.07
532.267	31012.98
532.632	31151.96
532.998	31346.08
533.364	31559.18
533.73	31646.64
534.095	31866.29
534.461	31922.11
534.826	32122.33
535.192	32324.14
535.557	32605.71
535.923	32441.65
536.288	32703.11
536.653	32906.27
537.019	32735.42
537.384	33061.07
537.749	33177.22
538.114	33387.61
538.479	33358.23
538.845	33516.2
539.21	33422.86
539.575	33804.77
539.94	33829.18
540.305	33997.09
540.67	33983.75
541.034	34155.95
541.399	34224.42
541.764	34478.43
542.129	34617.86
542.494	34625.54
542.858	34794.35
543.223	34793.22
543.587	35050.62
543.952	34958.87
544.316	35152.76
544.681	35231.18
545.045	35514.56
545.41	35632.52
545.774	35718.62
546.138	35859.86
546.503	35953.19
546.867	35868
547.231	36216.91
547.595	36358.83
547.959	36379.4
548.324	36469.34
548.688	36501.2
549.052	36615.55
549.416	36764.25
549.779	36978.7
550.143	36993.39
550.507	37155.87
550.871	37387.51
551.235	37192.26
551.599	37634.05
551.962	37709.76
552.326	37790.43
552.689	38072.46
553.053	37935.06
553.417	38034.04
553.78	38505.89
554.143	38443.75
554.507	38798.32
554.87	38770.29
555.234	39088.25
555.597	38826.34
555.96	39294.57
556.323	39323.95
556.686	39406.44
557.05	39642.59
557.413	39841.45
557.776	39955.35
558.139	40065.4
558.502	40272.18
558.865	40426.75
559.228	40637.59
559.59	40801.2
559.953	40771.37
560.316	41132.27
560.679	41172.72
561.041	41461.75
561.404	41713.72
561.767	41971.79
562.129	41794.4
562.492	42158.45
562.854	42177.44
563.217	42162.52
563.579	42280.03
563.941	42562.51
564.304	42870.53
564.666	43135.83
565.028	43144.64
565.39	43384.18
565.753	43583.27
566.115	43661.46
566.477	43867.34
566.839	43816.72
567.201	44106.88
567.563	44216.48
567.925	44423.48
568.287	44476.36
568.648	44552.06
569.01	44832.51
569.372	45016.91
569.734	44922.67
570.095	45383.23
570.457	45376.9
570.819	45515.2
571.18	45599.04
571.542	45789.54
571.903	45826.61
572.265	46062.31
572.626	46194.28
572.987	46218.91
573.349	46356.54
573.71	46446.25
574.071	46538.68
574.432	46632.01
574.794	46889.85
575.155	46819.35
575.516	46772.34
575.877	47066.12
576.238	47092.34
576.599	47156.51
576.96	47204.2
577.32	47326.68
577.681	47364.64
578.042	47448.94
578.403	47534.36
578.763	47478.09
579.124	47477.86
579.485	47665.2
579.845	47782.71
580.206	47761.02
580.566	47668.59
580.927	47830.62
581.287	47852.32
581.648	47690.74
582.008	47988.58
582.368	47922.14
582.728	48064.97
583.089	47942.26
583.449	47943.84
583.809	48002.82
584.169	48097.28
584.529	48017.73
584.889	48269.25
585.249	48047.34
585.609	47915.36
585.969	48129.14
586.329	48004.85
586.688	48123.49
587.048	48145.64
587.408	47951.52
587.768	48029.03
588.127	48059.99
588.487	48023.38
588.846	48344.96
589.206	47985.19
589.565	48098.64
589.925	48277.84
590.284	48102.48
590.643	48236.03
591.003	48287.78
591.362	48369.82
591.721	48290.5
592.08	48332.3
592.44	48370.49
592.799	48369.14
593.158	48379.08
593.517	48414.33
593.876	48454.33
594.235	48311.51
594.593	48315.81
594.952	48453.2
595.311	48291.17
595.67	48294.34
596.029	48752.4
596.387	48619.3
596.746	48805.51
597.104	48510.6
597.463	48482.13
597.822	48723.48
598.18	48484.84
598.538	48612.52
598.897	48717.83
599.255	48336.6
599.613	49052.51
599.972	48685.97
600.33	48793.08
600.688	48845.74
601.046	48815.23
601.404	48959.63
601.762	48816.58
602.12	49005.96
602.478	49060.87
602.836	49007.31
603.194	48869.69
603.552	49031.27
603.91	48864.27
604.268	49162.11
604.625	48991.27
604.983	49185.61
605.341	48970.7
605.698	49305.61
606.056	49216.35
606.413	49271.71
606.771	49349.9
607.128	49347.87
607.485	49241.88
607.843	49328.21
608.2	49548.09
608.557	49483.23
608.914	49384.48
609.272	49792.83
609.629	49730.01
609.986	49787.63
610.343	49555.32
610.7	49839.61
611.057	49716.9
611.414	49814.52
611.771	49760.29
612.127	49941.3
612.484	49899.95
612.841	49948.08
613.198	49847.52
613.554	49908.98
613.911	50126.15
614.267	50171.35
614.624	50185.36
614.98	50204.8
615.337	50291.12
615.693	50226.94
616.05	50259.48
616.406	50434.39
616.762	50342.42
617.118	50372.25
617.475	50423.1
617.831	50413.15
618.187	50448.63
618.543	50476.2
618.899	50704.9
619.255	50629.42
619.611	50599.14
619.967	50673.26
620.323	50667.16
620.678	50572.47
621.034	50506.48
621.39	50568.18
621.746	50523.88
622.101	50868.06
622.457	50562.07
622.812	50679.36
623.168	50787.38
623.523	50789.19
623.879	50875.96
624.234	50642.3
624.589	50637.55
624.945	50657.44
625.3	50823.99
625.655	50645.24
626.01	50745.35
626.365	50694.05
626.72	50623.99
627.075	50574.96
627.43	50664.44
627.785	50529.31
628.14	50681.85
628.495	50715.97
628.85	50646.82
629.205	50420.84
629.559	50628.51
629.914	50556.88
630.269	50573.37
630.623	50454.73
630.978	50411.57
631.332	50544
631.687	50567.72
632.041	50381.06
632.396	50478.46
632.75	50273.72
633.104	50416.77
633.459	50249.99
633.813	50115.98
634.167	50159.83
634.521	50081.86
634.875	50165.93
635.229	50145.36
635.583	49855.65
635.937	49899.95
636.291	49891.58
636.645	49934.97
636.999	49844.81
637.352	49949.21
637.706	49637.58
638.06	49825.37
638.413	49748.99
638.767	49652.72
639.121	49730.68
639.474	49432.84
639.828	49473.74
640.181	49496.57
640.534	49571.82
640.888	49394.42
641.241	49172.28
641.594	49210.47
641.947	49395.1
642.301	49167.99
642.654	49279.85
643.007	49233.97
643.36	49140.19
643.713	49062.45
644.066	49148.33
644.419	48925.06
644.771	48763.03
645.124	48621.79
645.477	48447.1
645.83	48176.37
646.182	47938.19
646.535	47784.29
646.888	47756.72
647.24	47530.29
647.593	47848.25
647.945	47519.22
648.298	47579.1
648.65	47389.28
649.002	47196.29
649.355	47514.92
649.707	47352.67
650.059	47498.65
650.411	48082.59
650.763	48193.78
651.115	48484.84
651.467	48295.69
651.819	48110.16
652.171	48174.11
652.523	47986.32
652.875	48129.37
653.227	47857.96
653.578	48105.42
653.93	47939.77
654.282	47808.7
654.633	47873.33
654.985	47862.03
655.337	47867.46
655.688	47865.2
656.039	47915.59
656.391	47618.88
656.742	47501.36
657.094	47536.39
657.445	47828.81
657.796	47610.51
658.147	47464.53
658.498	47627.69
658.849	47540.91
659.2	47536.62
659.551	47348.83
659.902	47554.7
660.253	47490.97
660.604	47423.63
660.955	47306.57
661.306	47546.11
661.656	47306.11
662.007	47331.65
662.358	47319.22
662.708	47288.71
663.059	47337.07
663.409	47050.08
663.76	47307.92
664.11	47398.09
664.461	47350.63
664.811	47257.98
665.161	47330.07
665.511	47147.93
665.862	47143.63
666.212	47187.47
666.562	47223.18
666.912	47204.87
667.262	47228.15
667.612	47175.04
667.962	47185.21
668.312	47121.71
668.662	47221.82
669.011	47123.29
669.361	46937.99
669.711	47006.46
670.06	46852.57
670.41	46834.26
670.76	46904.09
671.109	47028.61
671.459	46895.28
671.808	46874.26
672.157	46788.39
672.507	46556.3
672.856	46623.65
673.205	46647.15
673.554	46782.06
673.904	46535.06
674.253	46932.79
674.602	46675.17
674.951	46130.78
675.3	45934.4
675.649	46524.67
675.998	46501.16
676.346	46284.22
676.695	46502.75
677.044	46237.67
677.393	46267.95
677.741	46465.69
678.09	46158.12
678.438	46248.52
678.787	46153.15
679.135	46144.79
679.484	45892.14
679.832	46155.86
680.181	45848.75
680.529	45870.22
680.877	45803.78
681.225	45814.63
681.573	45961.29
681.922	45723.11
682.27	45550.23
682.618	45612.6
682.966	45434.3
683.314	45545.94
683.661	45409.67
684.009	45321.76
684.357	45208.54
684.705	45143.23
685.053	45161.31
685.4	45127.87
685.748	44833.19
686.095	44689.46
686.443	44686.97
686.79	44583.93
687.138	44832.06
687.485	44756.8
687.832	44646.07
688.18	44630.48
688.527	44267.32
688.874	44438.85
689.221	44154.11
689.568	44027.56
689.915	44053.09
690.262	44065.07
690.609	43911.63
690.956	43685.87
691.303	43762.03
691.65	43551.86
691.997	43355.48
692.344	43192.32
692.69	43106.23
693.037	43268.25
693.383	42897.42
693.73	43069.16
694.077	42776.06
694.423	42779.23
694.769	42616.52
695.116	42478.67
695.462	42466.47
695.808	42411.55
696.155	42402.52
696.501	42001.4
696.847	42139.47
697.193	41761.4
697.539	41995.07
697.885	41664
698.231	41484.8
698.577	41650.67
698.923	41392.6
699.269	41296.56
699.614	41047.97
699.96	41016.11
700.306	40953.51
700.651	40916.45
700.997	40822.67
701.342	40748.32
701.688	40699.96
702.033	40549.68
702.379	40453.41
702.724	40500.19
703.069	40446.86
703.415	39971.17
703.76	39915.12
704.105	39970.49
704.45	39815.46
704.795	39581.12
705.14	39452.54
705.485	39465.64
705.83	39363.95
706.175	39394.68
706.52	39306.33
706.865	39051.87
707.209	39051.42
707.554	38902.04
707.899	39099.55
708.243	38808.94
708.588	38700.92
708.932	38481.71
709.277	38350.19
709.621	38395.39
709.966	38174.6
710.31	38296.41
710.654	37935.97
710.998	38013.48
711.342	38067.94
711.687	37818.68
712.031	37692.36
712.375	37553.83
712.719	37688.97
713.063	37712.92
713.407	37674.28
713.75	37435.41
714.094	37543.21
714.438	37201.52
714.782	37200.17
715.125	36948.87
715.469	37143.67
715.812	36863.9
716.156	36674.76
716.499	36800.85
716.843	36829.33
717.186	36621.88
717.53	36736.45
717.873	36489
718.216	36613.06
718.559	36509.11
718.902	36079.29
719.246	36312.96
719.589	36216.69
719.932	35971.72
720.275	36132.85
720.617	35977.15
720.96	35857.38
721.303	35915
721.646	35976.7
721.989	35610.38
722.331	35763.82
722.674	35615.35
723.016	35521.79
723.359	35507.33
723.701	35524.28
724.044	35250.39
724.386	35076.83
724.729	35272.76
725.071	35192.54
725.413	35153.89
725.755	35084.97
726.097	34846.56
726.439	34637.07
726.782	34804.52
727.124	34959.09
727.465	34730.85
727.807	34550.74
728.149	34624.64
728.491	34454.7
728.833	34560.91
729.175	34432.56
729.516	34254.25
729.858	34242.96
730.199	34428.71
730.541	34102.17
730.882	34175.61
731.224	34199.11
731.565	33990.31
731.906	34029.63
732.248	33955.05
732.589	33782.18
732.93	33733.14
733.271	33731.33
733.612	33650.43
733.953	33856.98
734.294	33557.32
734.635	33471.68
734.976	33591.22
735.317	33550.09
735.658	33457.21
735.999	33389.87
736.339	33333.6
736.68	33261.96
737.021	33268.52
737.361	32933.61
737.702	33200.27
738.042	32940.84
738.383	32900.39
738.723	33102.42
739.063	32843.67
739.404	32908.08
739.744	32732.71
740.084	32629.44
740.424	32690.23
740.764	32685.71
741.104	32773.62
741.444	32426.73
741.784	32348.54
742.124	32506.96
742.464	32387.86
742.804	32286.17
743.143	32197.13
743.483	32319.39
743.823	31928.21
744.162	32086.85
744.502	32082.11
744.841	31847.31
745.181	31986.29
745.52	31863.58
745.86	31864.71
746.199	31783.81
746.538	31615.91
746.877	31781.78
747.216	31712.17
747.556	31589.69
747.895	31511.95
748.234	31346.53
748.573	31331.62
748.911	31394.44
749.25	31387.66
749.589	31128.69
749.928	31378.62
750.267	31154
750.605	30894.8
750.944	30979.31
751.283	30881.01
751.621	30980.89
751.96	30777.06
752.298	30808.7
752.636	30597.85
752.975	30517.86
753.313	30406.22
753.651	30585.42
753.989	30300.69
754.327	30299.1
754.666	30036.96
755.004	30020.92
755.342	30197.64
755.679	30057.98
756.017	29875.84
756.355	29945.44
756.693	29869.06
757.031	29803.52
757.368	29601.5
757.706	29619.57
758.044	29461.61
758.381	29508.16
758.719	29345.23
759.056	29354.95
759.394	29195.4
759.731	29029.31
760.068	29147.04
760.405	29006.03
760.743	28809.88
761.08	28903.43
761.417	28658.02
761.754	28646.94
762.091	28610.56
762.428	28575.53
762.765	28287.86
763.102	28385.03
763.438	28249.21
763.775	28085.6
764.112	28151.14
764.449	28152.95
764.785	27964.02
765.122	27757.02
765.458	27604.03
765.795	27597.25
766.131	27591.15
766.467	27425.28
766.804	27338.96
767.14	27192.52
767.476	27147.77
767.812	27024.84
768.148	27019.19
768.485	26911.85
768.821	26740.55
769.157	26747.56
769.492	26639.31
769.828	26654.45
770.164	26391.86
770.5	26292.66
770.836	26345.54
771.171	26004.08
771.507	25970.63
771.842	25890.86
772.178	25897.19
772.513	25723.63
772.849	25770.41
773.184	25564.31
773.519	25548.27
773.855	25476.63
774.19	25358.22
774.525	25277.54
774.86	25182.18
775.195	25198.9
775.53	24967.27
775.865	24835.52
776.2	24680.5
776.535	24531.35
776.87	24529.09
777.205	24433.04
777.539	24322.99
777.874	24394.4
778.209	24214.29
778.543	24169.77
778.878	23945.83
779.212	23963.68
779.547	23803.91
779.881	23909.67
780.215	23713.06
780.55	23756
780.884	23580.86
781.218	23545.16
781.552	23546.97
781.886	23339.51
782.22	23206.41
782.554	23204.6
782.888	22913.54
783.222	22832.41
783.556	22857.72
783.889	22666.31
784.223	22609.14
784.557	22449.37
784.89	22573.88
785.224	22389.03
785.557	22289.6
785.891	22208.7
786.224	22153.33
786.558	22126.66
786.891	22037.17
787.224	21793.34
787.557	21818.88
787.891	21733.23
788.224	21817.97
788.557	21694.13
788.89	21600.58
789.223	21561.48
789.556	21389.96
789.888	21379.56
790.221	21257.99
790.554	21146.8
790.887	21140.48
791.219	21079.69
791.552	20957.66
791.884	21032
792.217	20830.43
792.549	20783.65
792.882	20676.76
793.214	20512.02
793.546	20612.13
793.879	20430.44
794.211	20377.56
794.543	20428.63
794.875	20311.34
795.207	20270.44
795.539	20155.64
795.871	20106.15
796.203	19927.85
796.535	19864.12
796.867	19857.12
797.198	19740.51
797.53	19832.94
797.862	19660.97
798.193	19657.35
798.525	19539.61
798.856	19656.67
799.188	19326.51
799.519	19230.92
799.85	19261.43
800.182	19128.1
800.513	19158.15
800.844	18925.39
801.175	19059.85
801.506	18952.06
801.837	18901.21
802.168	18835.45
802.499	18760.65
802.83	18687.88
803.161	18621.45
803.491	18580.77
803.822	18562.24
804.153	18396.37
804.483	18353.2
804.814	18277.5
805.145	18260.78
805.475	18219.65
805.805	18172.64
806.136	18200.44
806.466	18253.09
806.796	18105.75
807.126	17986.66
807.457	17863.95
807.787	17931.75
808.117	17806.78
808.447	17831.41
808.777	17804.74
809.107	17748.93
809.436	17637.74
809.766	17671.64
810.096	17627.12
810.426	17478.2
810.755	17526.33
811.085	17380.35
811.414	17382.61
811.744	17284.76
812.073	17330.63
812.403	17262.84
812.732	17188.49
813.061	17154.82
813.39	17018.1
813.719	17129.96
814.049	17109.17
814.378	17020.13
814.707	16804.09
815.036	16921.6
815.365	16783.75
815.693	16775.17
816.022	16758.9
816.351	16588.96
816.68	16538.11
817.008	16558.9
817.337	16435.06
817.665	16446.14
817.994	16416.53
818.322	16415.85
818.651	16416.53
818.979	16266.93
819.307	16336.76
819.636	16205.24
819.964	16183.54
820.292	16155.97
820.62	16179.7
820.948	16100.16
821.276	16191.68
821.604	16071.23
821.932	16132.02
822.259	16104
822.587	16068.74
822.915	16114.39
823.243	16022.64
823.57	16104
823.898	16064.9
824.225	15931.57
824.553	15912.59
824.88	16020.61
825.207	16013.6
825.535	15929.76
825.862	16131.34
826.189	15945.81
826.516	15921.4
826.843	16029.2
827.17	16058.57
827.497	15970.22
827.824	15969.09
828.151	16009.31
828.478	16044.34
828.805	16056.09
829.131	15997.56
829.458	15854.06
829.785	15908.52
830.111	15902.42
830.438	16024
830.764	15933.61
831.09	15924.79
831.417	15797.79
831.743	15962.76
832.069	15934.96
832.395	15824.46
832.722	15858.58
833.048	15808.86
833.374	15853.61
833.7	15706.49
834.026	15813.38
834.351	15812.25
834.677	15759.6
835.003	15793.5
835.329	15723.89
835.654	15717.57
835.98	15598.02
836.306	15695.87
836.631	15619.94
836.956	15655.42
837.282	15582.2
837.607	15537.68
837.932	15468.31
838.258	15561.86
838.583	15535.2
838.908	15336.79
839.233	15408.2
839.558	15393.96
839.883	15322.32
840.208	15285.04
840.533	15293.4
840.858	15248.2
841.182	15215.89
841.507	15193.06
841.832	15015.89
842.156	15134.53
842.481	15039.39
842.805	14999.39
843.13	15079.62
843.454	14944.71
843.778	14833.52
844.103	14895.44
844.427	14836.01
844.751	14887.31
845.075	14805.95
845.399	14752.62
845.723	14641.66
846.047	14666.3
846.371	14562.8
846.695	14519.18
847.019	14479.18
847.343	14426.53
847.666	14351.05
847.99	14259.53
848.313	14283.03
848.637	14228.79
848.96	14151.05
849.284	14066.54
849.607	13940.89
849.931	13937.95
850.254	13847.56
850.577	13772.99
850.9	13709.94
851.223	13725.53
851.546	13609.37
851.869	13501.58
852.192	13616.38
852.515	13500.45
852.838	13487.8
853.161	13361.92
853.483	13340.68
853.806	13321.25
854.129	13291.42
854.451	13188.59
854.774	13127.8
855.096	13097.97
855.419	13104.53
855.741	13066.11
856.063	12926.23
856.385	12969.62
856.708	12865.66
857.03	12802.16
857.352	12847.81
857.674	12810.3
857.996	12784.54
858.318	12741.37
858.64	12682.17
858.961	12638.78
859.283	12670.64
859.605	12562.85
859.926	12526.46
860.248	12462.51
860.57	12436.07
860.891	12542.74
861.212	12452.12
861.534	12422.06
861.855	12383.87
862.176	12324.21
862.498	12372.12
862.819	12296.41
863.14	12261.39
863.461	12179.81
863.782	12042.41
864.103	12127.83
864.424	12109.75
864.745	12149.98
865.065	12068.4
865.386	12024.78
865.707	12048.28
866.027	12009.87
866.348	11947.95
866.668	12023.65
866.989	11870.66
867.309	11845.8
867.63	11862.53
867.95	11767.39
868.27	11694.17
868.59	11733.49
868.91	11786.6
869.23	11799.03
869.55	11570.11
869.87	11784.79
870.19	11728.07
870.51	11731.01
870.83	11715.41
871.15	11641.52
871.469	11594.74
871.789	11648.97
872.109	11590.44
872.428	11592.48
872.748	11502.08
873.067	11619.37
873.386	11502.54
873.706	11471.58
874.025	11469.09
874.344	11431.58
874.663	11401.52
874.982	11387.06
875.301	11338.7
875.62	11228.42
875.939	11330.56
876.258	11341.18
876.577	11234.3
876.896	11295.08
877.214	11234.97
877.533	11211.02
877.852	11241.07
878.17	11223.45
878.489	11241.98
878.807	11223.67
879.125	11122.89
879.444	11183.45
879.762	11166.27
880.08	11119.27
880.398	11050.12
880.716	11142.55
881.034	11069.33
881.352	11051.47
881.67	10960.18
881.988	11031.36
882.306	10980.29
882.624	10842.67
882.941	10864.81
883.259	10828.43
883.577	10875.66
883.894	10813.52
884.212	10839.96
884.529	10798.6
884.846	10696
885.164	10717.7
885.481	10743.01
885.798	10688.77
886.115	10665.72
886.432	10708.21
886.75	10599.96
887.067	10616.23
887.383	10550.7
887.7	10598.38
888.017	10502.11
888.334	10455.78
888.651	10495.78
888.967	10502.79
889.284	10359.74
889.6	10399.29
889.917	10269.8
890.233	10375.33
890.55	10265.51
890.866	10199.75
891.182	10194.32
891.498	10178.96
891.815	10115
892.131	10103.03
892.447	10099.64
892.763	10007.43
893.079	9988
893.395	9975.35
893.71	9995.46
894.026	9943.03
894.342	9901.45
894.657	9773.09
894.973	9841.34
895.289	9866.87
895.604	9787.33
895.92	9729.25
896.235	9706.65
896.55	9712.98
896.865	9636.14
897.181	9543.49
897.496	9626.43
897.811	9578.97
898.126	9538.97
898.441	9478.41
898.756	9457.62
899.071	9405.87
899.386	9463.95
899.7	9325.87
900.015	9285.87
900.33	9217.85
900.644	9238.87
900.959	9259.66
901.273	9178.3
901.588	9151.86
901.902	9154.58
902.216	9157.97
902.531	9107.35
902.845	9031.19
903.159	8939.21
903.473	8953.68
903.787	8911.42
904.101	8809.73
904.415	8867.35
904.729	8827.13
905.042	8787.13
905.356	8779.67
905.67	8730.86
905.984	8695.15
906.297	8647.02
906.611	8581.71
906.924	8606.12
907.237	8589.39
907.551	8539.22
907.864	8510.98
908.177	8421.26
908.491	8422.17
908.804	8411.32
909.117	8389.85
909.43	8348.5
909.743	8291.77
910.056	8263.75
910.368	8201.38
910.681	8166.58
910.994	8132.46
911.307	8103.76
911.619	7991.44
911.932	8039.58
912.244	7955.51
912.557	7967.71
912.869	7938.56
913.181	7967.94
913.494	7908.05
913.806	7825.8
914.118	7828.73
914.43	7753.03
914.742	7760.49
915.054	7706.48
915.366	7695.63
915.678	7656.08
915.99	7677.33
916.302	7529.76
916.613	7541.74
916.925	7484.56
917.236	7511.46
917.548	7433.49
917.859	7474.39
918.171	7429.88
918.482	7371.35
918.794	7300.39
919.105	7405.02
919.416	7346.94
919.727	7236.66
920.038	7191.46
920.349	7193.05
920.66	7150.79
920.971	7133.39
921.282	7101.75
921.593	7089.32
921.903	7026.5
922.214	6992.37
922.525	6963.45
922.835	6929.78
923.146	6839.61
923.456	6946.27
923.767	6899.49
924.077	6801.87
924.387	6815.88
924.697	6776.11
925.008	6697.92
925.318	6722.78
925.628	6721.19
925.938	6640.74
926.248	6567.07
926.558	6593.29
926.867	6573.63
927.177	6509.9
927.487	6535.44
927.796	6436.68
928.106	6450.01
928.416	6383.12
928.725	6424.93
929.034	6343.8
929.344	6343.12
929.653	6338.83
929.962	6277.82
930.271	6276.91
930.581	6266.06
930.89	6207.08
931.199	6129.8
931.508	6201.43
931.817	6152.17
932.125	6149.91
932.434	6137.03
932.743	6062.91
933.051	6048.44
933.36	6013.87
933.669	6001.89
933.977	5982.91
934.286	6009.8
934.594	5968.22
934.902	5889.35
935.21	5870.59
935.519	5834.89
935.827	5841.22
936.135	5792.63
936.443	5725.29
936.751	5700.2
937.059	5690.94
937.367	5700.66
937.674	5703.59
937.982	5587.89
938.29	5599.87
938.597	5610.04
938.905	5539.98
939.213	5538.63
939.52	5504.28
939.827	5514.22
940.135	5444.16
940.442	5419.53
940.749	5432.19
941.056	5415.01
941.363	5365.97
941.67	5365.3
941.977	5302.47
942.284	5261.8
942.591	5257.95
942.898	5237.16
943.205	5245.75
943.511	5181.8
943.818	5195.81
944.125	5184.28
944.431	5113.78
944.738	5111.74
945.044	5069.71
945.35	5063.84
945.657	5092.76
945.963	5055.02
946.269	5010.5
946.575	5019.09
946.881	4955.36
947.187	4932.99
947.493	4924.86
947.799	4889.6
948.105	4896.83
948.41	4921.01
948.716	4848.25
949.022	4821.81
949.327	4834.46
949.633	4794.69
949.938	4793.79
950.244	4826.78
950.549	4701.59
950.854	4686.44
951.16	4663.62
951.465	4693.68
951.77	4627.46
952.075	4606.67
952.38	4601.93
952.685	4604.86
952.99	4585.66
953.294	4526
953.599	4527.58
953.904	4514.92
954.209	4457.52
954.513	4445.77
954.818	4441.93
955.122	4404.64
955.426	4446.68
955.731	4406.23
956.035	4351.31
956.339	4375.27
956.643	4342.5
956.948	4271.54
957.252	4301.37
957.556	4297.53
957.86	4254.37
958.163	4269.96
958.467	4204.42
958.771	4157.64
959.075	4197.87
959.378	4156.29
959.682	4134.37
959.985	4087.59
960.289	4111.54
960.592	4081.04
960.896	4095.5
961.199	4020.25
961.502	4012.79
961.805	4035.61
962.108	3976.41
962.411	3986.35
962.714	3947.03
963.017	3916.75
963.32	3923.98
963.623	3916.97
963.926	3908.84
964.228	3883.98
964.531	3869.74
964.833	3842.85
965.136	3839.01
965.438	3745.45
965.741	3754.27
966.043	3712.23
966.345	3763.31
966.648	3759.46
966.95	3743.19
967.252	3720.59
967.554	3696.87
967.856	3711.1
968.158	3597.66
968.46	3652.12
968.761	3630.2
969.063	3591.11
969.365	3597.66
969.666	3584.55
969.968	3547.04
970.269	3546.81
970.571	3563.99
970.872	3570.77
971.174	3509.75
971.475	3514.5
971.776	3516.53
972.077	3400.15
972.378	3440.38
972.679	3442.86
972.98	3467.72
973.281	3390.43
973.582	3419.81
973.883	3386.82
974.183	3344.33
974.484	3349.98
974.785	3309.76
975.085	3293.49
975.386	3272.7
975.686	3286.93
975.986	3296.42
976.287	3295.75
976.587	3233.6
976.887	3232.25
977.187	3206.48
977.487	3205.58
977.787	3178.24
978.087	3105.24
978.387	3158.8
978.687	3149.54
978.987	3154.28
979.286	3081.52
979.586	3084
979.885	3075.41
980.185	3081.06
980.484	3041.29
980.784	3020.05
981.083	2999.94
981.382	2991.35
981.682	3009.88
981.981	2970.33
982.28	2973.27
982.579	2937.56
982.878	2969.88
983.177	2927.39
983.475	2925.13
983.774	2862.54
984.073	2870.9
984.372	2880.62
984.67	2880.84
984.969	2881.52
985.267	2833.16
985.566	2834.52
985.864	2805.36
986.162	2793.61
986.461	2826.38
986.759	2772.37
987.057	2725.59
987.355	2732.37
987.653	2726.95
987.951	2758.13
988.249	2706.16
988.547	2733.73
988.844	2689.66
989.142	2667.97
989.44	2637.23
989.737	2656.89
990.035	2646.95
990.332	2617.12
990.63	2623.22
990.927	2591.81
991.224	2612.15
991.521	2572.83
991.819	2549.1
992.116	2552.94
992.413	2531.25
992.71	2542.55
993.006	2497.58
993.303	2498.93
993.6	2525.82
993.897	2468.2
994.193	2445.37
994.49	2498.93
994.787	2450.57
995.083	2416.22
995.379	2406.5
995.676	2454.41
995.972	2394.3
996.268	2401.53
996.565	2365.38
996.861	2340.07
997.157	2365.83
997.453	2341.65
997.749	2347.52
998.044	2317.47
998.34	2342.78
998.636	2280.18
998.932	2292.84
999.227	2240.63
999.523	2270.91
999.818	2275.43
1000.114	2239.96
1000.409	2226.4
1000.704	2213.97
1001	2203.12
1001.295	2199.28
1001.59	2164.25
1001.885	2147.53
1002.18	2126.74
1002.475	2166.06
1002.77	2126.06
1003.065	2103.46
1003.359	2108.43
1003.654	2092.61
1003.949	2053.97
1004.243	2091.03
1004.538	2039.73
1004.832	2061.65
1005.127	2052.39
1005.421	2018.27
1005.715	2021.2
1006.009	2014.65
1006.304	1986.18
1006.598	1995.22
1006.892	1992.05
1007.186	1964.71
1007.48	1927.87
1007.773	1917.25
1008.067	1899.17
1008.361	1884.71
1008.655	1897.14
1008.948	1915.44
1009.242	1884.03
1009.535	1827.99
1009.829	1860.53
1010.122	1843.58
1010.415	1823.47
1010.708	1814.88
1011.001	1820.98
1011.295	1811.49
1011.588	1802.23
1011.881	1760.65
1012.173	1749.8
1012.466	1756.58
1012.759	1778.05
1013.052	1793.64
1013.344	1751.38
1013.637	1733.98
1013.93	1717.48
1014.222	1733.98
1014.514	1708.44
1014.807	1687.43
1015.099	1714.55
1015.391	1660.99
1015.683	1668.9
1015.976	1640.2
1016.268	1653.98
1016.56	1639.97
1016.851	1617.15
1017.143	1599.97
1017.435	1580.99
1017.727	1612.85
1018.018	1579.63
1018.31	1574.89
1018.602	1575.34
1018.893	1534.44
1019.185	1545.51
1019.476	1548
1019.767	1548.67
1020.058	1505.29
1020.35	1484.95
1020.641	1462.35
1020.932	1485.4
1021.223	1496.25
1021.514	1475.23
1021.804	1450.82
1022.095	1461.22
1022.386	1463.25
1022.677	1401.79
1022.967	1411.5
1023.258	1396.14
1023.548	1375.57
1023.839	1384.16
1024.129	1376.93
1024.419	1381.22
1024.709	1345.29
1025	1345.97
1025.29	1323.82
1025.58	1328.34
1025.87	1311.39
1026.16	1306.42
1026.449	1318.85
1026.739	1310.49
1027.029	1312.52
1027.319	1268.68
1027.608	1249.7
1027.898	1277.95
1028.187	1272.07
1028.477	1263.03
1028.766	1252.64
1029.055	1234.56
1029.344	1230.26
1029.634	1239.08
1029.923	1213.54
1030.212	1195.69
1030.501	1206.54
1030.79	1223.26
1031.078	1156.59
1031.367	1183.49
1031.656	1148.46
1031.945	1162.24
1032.233	1138.74
1032.522	1122.92
1032.81	1125.41
1033.099	1100.1
1033.387	1127.44
1033.675	1083.38
1033.963	1122.47
1034.251	1094
1034.54	1057.39
1034.828	1076.37
1035.116	1077.95
1035.403	1035.92
1035.691	1063.71
1035.979	1063.49
1036.267	1030.72
1036.554	1016.71
1036.842	1066.2
1037.129	1018.07
1037.417	1027.11
1037.704	999.31
1037.992	991.4
1038.279	1011.29
1038.566	976.71
1038.853	976.71
1039.14	976.71
