Data from breadboard_black_back_FLMS001491_00049.txt Node
Date: Wed Feb 08 10:50:27 GMT 2017
User: dcchb
Spectrometer: FLMS00149
Trigger mode: 0
Integration Time (sec): 2.000000E-2
Scans to average: 10
Electric dark correction enabled: true
Nonlinearity correction enabled: false
Boxcar width: 0
XAxis mode: Wavelengths
Number of Pixels in Spectrum: 2048
>>>>>Begin Spectral Data<<<<<
341.393	-8.94
341.776	-8.94
342.16	-8.94
342.543	-79.67
342.927	-54.81
343.31	-68.15
343.693	-65.89
344.077	-83.74
344.46	-52.56
344.843	-54.36
345.226	-42.84
345.61	-27.25
345.993	-23.86
346.376	-2.61
346.759	1.91
347.142	36.71
347.525	57.27
347.908	55.46
348.291	71.74
348.674	90.49
349.057	107.67
349.44	136.37
349.823	137.5
350.206	163.48
350.588	201.9
350.971	226.99
351.354	246.65
351.737	222.47
352.119	261.33
352.502	286.87
352.884	268.11
353.267	300.2
353.65	310.6
354.032	318.06
354.414	304.27
354.797	308.11
355.179	317.38
355.562	332.07
355.944	330.49
356.326	326.87
356.709	338.62
357.091	330.49
357.473	343.14
357.855	320.77
358.238	355.12
358.62	352.63
359.002	355.57
359.384	370.94
359.766	361.45
360.148	342.24
360.53	359.19
360.912	336.59
361.294	328
361.676	343.37
362.057	356.25
362.439	337.27
362.821	337.49
363.203	319.64
363.584	343.14
363.966	358.51
364.348	357.6
364.729	334.33
365.111	328.23
365.493	329.36
365.874	341.11
366.256	354.44
366.637	364.38
367.019	326.64
367.4	351.5
367.781	351.5
368.163	334.1
368.544	342.69
368.925	346.98
369.306	342.01
369.688	334.55
370.069	357.38
370.45	322.35
370.831	344.95
371.212	333.42
371.593	340.2
371.974	338.4
372.355	325.51
372.736	346.98
373.117	342.24
373.498	339.3
373.879	352.18
374.26	342.01
374.641	330.26
375.021	353.54
375.402	375.46
375.783	368.9
376.163	380.2
376.544	382.46
376.925	374.33
377.305	376.81
377.686	377.94
378.066	365.96
378.447	382.69
378.827	395.12
379.208	375.46
379.588	382.24
379.968	391.95
380.349	387.89
380.729	416.36
381.109	395.79
381.489	427.66
381.87	407.77
382.25	410.94
382.63	399.18
383.01	391.73
383.39	420.65
383.77	412.97
384.15	423.14
384.53	419.75
384.91	421.33
385.29	431.5
385.67	430.37
386.049	443.25
386.429	435.79
386.809	431.95
387.189	448.22
387.568	434.66
387.948	436.47
388.328	444.15
388.707	449.8
389.087	453.87
389.466	438.96
389.846	450.48
390.225	464.95
390.605	481.89
390.984	473.08
391.363	483.7
391.743	463.82
392.122	486.41
392.501	499.52
392.881	503.36
393.26	484.15
393.639	498.16
394.018	506.75
394.397	501.78
394.776	487.32
395.155	514.89
395.534	522.35
395.913	511.72
396.292	497.49
396.671	530.03
397.05	528.9
397.429	539.29
397.808	534.77
398.186	542.91
398.565	547.43
398.944	548.11
399.323	539.97
399.701	568.67
400.08	568.45
400.458	576.81
400.837	567.54
401.215	576.35
401.594	569.8
401.972	591.95
402.351	584.04
402.729	586.07
403.107	593.76
403.486	603.25
403.864	628.78
404.242	610.03
404.62	629.23
404.999	616.81
405.377	638.95
405.755	662.23
406.133	659.06
406.511	662.91
406.889	663.81
407.267	668.1
407.645	673.08
408.023	690.02
408.401	686.86
408.779	680.76
409.156	689.35
409.534	699.29
409.912	711.94
410.29	726.63
410.667	750.14
411.045	737.48
411.422	760.98
411.8	737.25
412.178	773.41
412.555	761.43
412.933	801.89
413.31	816.35
413.687	802.56
414.065	815.22
414.442	798.72
414.819	833.3
415.197	842.56
415.574	847.31
415.951	860.19
416.328	851.83
416.705	854.77
417.082	879.85
417.46	877.82
417.837	890.92
418.214	903.8
418.591	912.62
418.967	923.46
419.344	931.15
419.721	965.27
420.098	948.32
420.475	906.29
420.852	941.32
421.228	963.46
421.605	963.92
421.982	998.26
422.358	971.37
422.735	1012.28
423.111	997.81
423.488	1008.89
423.864	1019.73
424.241	1008.89
424.617	1051.82
424.994	1032.84
425.37	1071.26
425.746	1063.12
426.123	1089.56
426.499	1074.19
426.875	1097.25
427.251	1117.58
427.627	1130.01
428.003	1150.35
428.379	1155.55
428.756	1162.33
429.132	1191.71
429.507	1193.74
429.883	1241.2
430.259	1229.67
430.635	1267.86
431.011	1283
431.387	1304.7
431.763	1306.96
432.138	1300.4
432.514	1323
432.89	1336.33
433.265	1348.09
433.641	1362.1
434.016	1385.15
434.392	1374.07
434.767	1446.39
435.143	1420.63
435.518	1443.45
435.894	1497.01
436.269	1479.83
436.644	1514.86
437.02	1512.38
437.395	1512.83
437.77	1536.78
438.145	1570.68
438.52	1565.93
438.895	1591.7
439.271	1599.15
439.646	1592.6
440.021	1644.8
440.395	1642.09
440.77	1605.93
441.145	1675.76
441.52	1697.23
441.895	1691.81
442.27	1705.14
442.645	1732.48
443.019	1743.78
443.394	1730.22
443.769	1753.27
444.143	1730.45
444.518	1757.57
444.892	1753.5
445.267	1809.99
445.641	1834.85
446.016	1829.2
446.39	1803.22
446.764	1833.27
447.139	1846.83
447.513	1866.49
447.887	1901.74
448.262	1900.16
448.636	1901.74
449.01	1925.47
449.384	1915.98
449.758	1944.68
450.132	1982.19
450.506	2029.2
450.88	1992.14
451.254	2007.05
451.628	2069.65
452.002	2088.41
452.376	2048.41
452.75	2107.61
453.123	2123.88
453.497	2160.72
453.871	2200.49
454.244	2199.82
454.618	2214.5
454.992	2253.15
455.365	2268.74
455.739	2293.6
456.112	2325.01
456.486	2345.57
456.859	2406.59
457.232	2412.69
457.606	2412.46
457.979	2473.93
458.352	2481.84
458.725	2545.57
459.099	2567.49
459.472	2613.14
459.845	2616.98
460.218	2623.08
460.591	2691.1
460.964	2685.45
461.337	2744.89
461.71	2797.77
462.083	2833.92
462.456	2821.49
462.829	2874.83
463.201	2898.1
463.574	2923.41
463.947	2992.34
464.32	3042.5
464.692	3034.37
465.065	3076.4
465.438	3115.72
465.81	3197.98
466.183	3189.85
466.555	3244.99
466.928	3272.33
467.3	3247.7
467.672	3329.28
468.045	3431.65
468.417	3424.87
468.789	3471.19
469.161	3505.09
469.534	3576.95
469.906	3641.81
470.278	3688.14
470.65	3711.64
471.022	3753.67
471.394	3852.43
471.766	3862.6
472.138	3917.51
472.51	4015.36
472.882	4056.49
473.253	4105.08
473.625	4163.38
473.997	4242.93
474.369	4242.93
474.74	4322.02
475.112	4456.03
475.484	4486.53
475.855	4562.69
476.227	4605.18
476.598	4747.77
476.97	4760.43
477.341	4851.5
477.713	4952.29
478.084	4952.74
478.455	5088.1
478.827	5153.18
479.198	5276.34
479.569	5278.15
479.94	5471.37
480.311	5525.38
480.682	5638.37
481.053	5816.67
481.424	5767.4
481.795	5869.32
482.166	6000.39
482.537	6056.21
482.908	6186.38
483.279	6220.05
483.65	6359.48
484.021	6520.15
484.391	6547.05
484.762	6616.65
485.133	6678.79
485.503	6840.82
485.874	6946.81
486.244	6966.24
486.615	7123.08
486.985	7170.08
487.356	7314.93
487.726	7364.43
488.097	7560.35
488.467	7634.93
488.837	7748.82
489.207	7856.84
489.578	7955.14
489.948	8035.37
490.318	8159.88
490.688	8222.93
491.058	8280.56
491.428	8409.14
491.798	8499.08
492.168	8677.84
492.538	8697.27
492.908	8815.46
493.278	8899.53
493.648	8933.88
494.017	9038.96
494.387	9143.59
494.757	9268.1
495.126	9344.71
495.496	9361.66
495.866	9474.43
496.235	9571.37
496.605	9675.1
496.974	9693.86
497.344	9769.56
497.713	9890.01
498.082	9939.05
498.452	10031.47
498.821	10103.34
499.19	10187.85
499.559	10345.14
499.928	10275.76
500.298	10381.07
500.667	10543.1
501.036	10488.64
501.405	10647.95
501.774	10662.87
502.143	10765.01
502.512	10844.33
502.88	10908.74
503.249	10918.23
503.618	11013.59
503.987	11054.27
504.356	11166.81
504.724	11222.4
505.093	11267.6
505.462	11411.78
505.83	11414.04
506.199	11594.37
506.567	11687.48
506.936	11634.37
507.304	11861.48
507.672	11823.29
508.041	11981.25
508.409	12105.54
508.777	12155.94
509.145	12252.21
509.514	12296.27
509.882	12387.8
510.25	12433.67
510.618	12578.75
510.986	12582.59
511.354	12707.79
511.722	12833.21
512.09	12924.28
512.458	13021
512.826	13091.51
513.193	13151.17
513.561	13335.12
513.929	13303.93
514.297	13445.85
514.664	13624.83
515.032	13682.45
515.4	13762.67
515.767	13841.09
516.135	13946.85
516.502	13958.38
516.869	14165.83
517.237	14222.1
517.604	14210.57
517.972	14342.55
518.339	14437.69
518.706	14546.84
519.073	14635.87
519.44	14746.38
519.808	14945.02
520.175	14837.45
520.542	15105.01
520.909	15262.97
521.276	15271.79
521.643	15370.77
522.009	15425.46
522.376	15636.98
522.743	15715.62
523.11	15846.01
523.477	16107.02
523.843	16107.25
524.21	16337.97
524.577	16459.1
524.943	16551.98
525.31	16694.12
525.676	16820.67
526.043	16914.23
526.409	17047.11
526.776	17245.07
527.142	17306.08
527.508	17346.31
527.874	17509.02
528.241	17660.88
528.607	17664.72
528.973	17888.89
529.339	17879.63
529.705	18058.61
530.071	18152.39
530.437	18298.6
530.803	18473.51
531.169	18552.38
531.535	18506.05
531.901	18612.94
532.267	18642.77
532.632	18831.47
532.998	18869.43
533.364	19085.92
533.73	19144.68
534.095	19330.21
534.461	19287.05
534.826	19400.94
535.192	19544.67
535.557	19605.69
535.923	19678.9
536.288	19791.89
536.653	19835.96
537.019	19868.95
537.384	19883.64
537.749	20090.42
538.114	20209.51
538.479	20177.42
538.845	20358.21
539.21	20303.97
539.575	20391.2
539.94	20515.72
540.305	20611.31
540.67	20516.85
541.034	20690.18
541.399	20854.24
541.764	20835.03
542.129	20913.45
542.494	20957.51
542.858	21058.3
543.223	21125.42
543.587	21227.34
543.952	21271.63
544.316	21435.24
544.681	21389.82
545.045	21436.37
545.41	21590.27
545.774	21703.71
546.138	21624.84
546.503	21739.41
546.867	21816.93
547.231	22073.42
547.595	21991.61
547.959	22141.44
548.324	22142.57
548.688	22263.69
549.052	22434.09
549.416	22423.92
549.779	22463.91
550.143	22520.86
550.507	22718.6
550.871	22726.96
551.235	22687.64
551.599	22969.66
551.962	22963.34
552.326	23089.66
552.689	23175.99
553.053	23127.63
553.417	23299.6
553.78	23571.46
554.143	23458.69
554.507	23591.57
554.87	23654.62
555.234	23848.96
555.597	23762.41
555.96	23918.79
556.323	24077.88
556.686	24011.9
557.05	24195.17
557.413	24305
557.776	24330.98
558.139	24487.82
558.502	24542.5
558.865	24793.8
559.228	24887.81
559.59	24917.86
559.953	25053.23
560.316	25236.5
560.679	25241.02
561.041	25378.41
561.404	25535.25
561.767	25698.63
562.129	25634.23
562.492	25834.67
562.854	25885.75
563.217	25938.4
563.579	26047.55
563.941	26251.16
564.304	26443.7
564.666	26506.75
565.028	26559.4
565.39	26671.04
565.753	26783.35
566.115	26915.55
566.477	27056.56
566.839	27272.83
567.201	27333.84
567.563	27326.39
567.925	27572.03
568.287	27494.97
568.648	27562.54
569.01	27804.57
569.372	27900.61
569.734	27945.58
570.095	28139.7
570.457	28233.93
570.819	28205.23
571.18	28271.22
571.542	28471.89
571.903	28384.44
572.265	28590.31
572.626	28749.85
572.987	28737.65
573.349	28748.04
573.71	28898.1
574.071	28927.47
574.432	29044.98
574.794	29303.51
575.155	29122.05
575.516	29177.86
575.877	29303.96
576.238	29340.34
576.599	29486.78
576.96	29446.56
577.32	29534.24
577.681	29693.33
578.042	29776.04
578.403	29717.28
578.763	29678.41
579.124	29666.44
579.485	29917.96
579.845	30028.24
580.206	29999.54
580.566	29896.94
580.927	30071.62
581.287	30135.58
581.648	30056.48
582.008	30156.37
582.368	30134.22
582.728	30196.14
583.089	30134.9
583.449	30217.38
583.809	30162.7
584.169	30252.18
584.529	30242.02
584.889	30382.12
585.249	30254.44
585.609	30154.56
585.969	30358.4
586.329	30197.95
586.688	30396.36
587.048	30358.62
587.408	30249.47
587.768	30286.08
588.127	30316.36
588.487	30236.59
588.846	30284.27
589.206	30291.05
589.565	30374.67
589.925	30601.33
590.284	30392.29
590.643	30447.89
591.003	30561.56
591.362	30550.48
591.721	30432.07
592.08	30553.87
592.44	30627.09
592.799	30620.76
593.158	30614.66
593.517	30562.46
593.876	30634.77
594.235	30518.39
594.593	30553.19
594.952	30678.61
595.311	30556.81
595.67	30720.87
596.029	30761.32
596.387	30834.54
596.746	30878.16
597.104	30781.44
597.463	30753.64
597.822	30945.73
598.18	30897.59
598.538	30857.82
598.897	30932.39
599.255	30738.95
599.613	31176
599.972	30941.88
600.33	31036.57
600.688	30901.89
601.046	30997.7
601.404	31190.47
601.762	31053.97
602.12	31171.03
602.478	31310.46
602.836	31239.73
603.194	31166.96
603.552	31186.4
603.91	31030.92
604.268	31216.45
604.625	31199.5
604.983	31216.91
605.341	31185.04
605.698	31386.84
606.056	31558.37
606.413	31504.81
606.771	31525.15
607.128	31578.25
607.485	31469.78
607.843	31474.3
608.2	31674.75
608.557	31851.01
608.914	31658.48
609.272	31692.37
609.629	31938.69
609.986	31997.9
610.343	31814.4
610.7	32109.31
611.057	31890.11
611.414	32020.5
611.771	31900.5
612.127	32166.48
612.484	32089.42
612.841	32297.55
613.198	32084.68
613.554	32086.03
613.911	32256.88
614.267	32184.11
614.624	32275.18
614.98	32236.77
615.337	32447.61
615.693	32384.33
616.05	32361.28
616.406	32575.51
616.762	32490.09
617.118	32477.21
617.475	32499.36
617.831	32527.38
618.187	32709.07
618.543	32655.96
618.899	32694.38
619.255	32738.9
619.611	32763.76
619.967	32784.77
620.323	32858.44
620.678	32688.96
621.034	32730.31
621.39	32715.17
621.746	32695.06
622.101	33108.15
622.457	32770.31
622.812	32832.23
623.168	32836.07
623.523	32899.57
623.879	32871.55
624.234	32694.15
624.589	32865
624.945	32923.98
625.3	32986.35
625.655	32923.98
626.01	32940.93
626.365	32923.53
626.72	32914.04
627.075	32816.19
627.43	32877.88
627.785	32701.84
628.14	32873.81
628.495	32802.4
628.85	32791.1
629.205	32799.46
629.559	32969.18
629.914	32714.49
630.269	32756.53
630.623	32792.91
630.978	32681.5
631.332	32708.62
631.687	32754.72
632.041	32677.88
632.396	32604.44
632.75	32539.58
633.104	32621.16
633.459	32363.99
633.813	32509.53
634.167	32423.43
634.521	32347.95
634.875	32298.23
635.229	32438.34
635.583	32263.21
635.937	32316.99
636.291	32324.45
636.645	32195.86
636.999	32129.88
637.352	32069.09
637.706	32082.87
638.06	32163.09
638.413	32084.9
638.767	32008.07
639.121	32000.39
639.474	31856.89
639.828	31799.26
640.181	31932.37
640.534	31775.76
640.888	31881.75
641.241	31634.3
641.594	31680.17
641.947	31753.84
642.301	31641.3
642.654	31773.73
643.007	31622.54
643.36	31682.43
643.713	31544.58
644.066	31670
644.419	31306.17
644.771	31273.63
645.124	31025.95
645.477	30936.01
645.83	30837.71
646.182	30677.48
646.535	30397.49
646.888	30484.04
647.24	30246.54
647.593	30422.58
647.945	30284.05
648.298	30184.62
648.65	30194.11
649.002	30039.99
649.355	30259.19
649.707	30245.86
650.059	30265.97
650.411	30727.2
650.763	30802
651.115	30998.83
651.467	30801.77
651.819	30816.69
652.171	30769.46
652.523	30800.64
652.875	30743.92
653.227	30592.06
653.578	30884.26
653.93	30727.65
654.282	30625.28
654.633	30500.54
654.985	30515.91
655.337	30640.65
655.688	30461.67
656.039	30632.29
656.391	30390.26
656.742	30342.13
657.094	30409.47
657.445	30534.89
657.796	30507.55
658.147	30402.46
658.498	30284.05
658.849	30477.94
659.2	30333.09
659.551	30230.72
659.902	30325.63
660.253	30293.54
660.604	30350.26
660.955	30258.29
661.306	30403.59
661.656	30192.53
662.007	30195.46
662.358	30203.82
662.708	30141.23
663.059	30151.4
663.409	29994.56
663.76	30213.09
664.11	30174.45
664.461	30134.9
664.811	30156.37
665.161	30101.68
665.511	30155.46
665.862	30079.76
666.212	30123.83
666.562	30105.97
666.912	30051.29
667.262	30012.64
667.612	29990.04
667.962	30041.34
668.312	29918.41
668.662	30089.03
669.011	29999.31
669.361	29970.16
669.711	29929.03
670.06	29811.07
670.41	29898.52
670.76	29774.23
671.109	29962.47
671.459	29836.38
671.808	29895.58
672.157	29893.55
672.507	29575.82
672.856	29625.76
673.205	29724.06
673.554	29729.94
673.904	29635.25
674.253	29881.8
674.602	29637.51
674.951	29323.85
675.3	29069.62
675.649	29529.94
675.998	29484.07
676.346	29528.14
676.695	29563.84
677.044	29449.27
677.393	29425.09
677.741	29464.18
678.09	29375.6
678.438	29366.56
678.787	29373.11
679.135	29370.17
679.484	29183.06
679.832	29238.65
680.181	29173.12
680.529	29237.52
680.877	29178.31
681.225	29111.88
681.573	29264.64
681.922	29054.02
682.27	28951.65
682.618	29016.06
682.966	28890.41
683.314	28929.28
683.661	28896.06
684.009	28746.46
684.357	28602.06
684.705	28649.97
685.053	28735.84
685.4	28594.6
685.748	28364.78
686.095	28390.31
686.443	28283.65
686.79	28209.3
687.138	28287.94
687.485	28362.29
687.832	28249.53
688.18	28088.85
688.527	27970.89
688.874	28008.85
689.221	27953.49
689.568	27929.08
689.915	27743.1
690.262	27903.32
690.609	27817.9
690.956	27609.77
691.303	27584.46
691.65	27500.39
691.997	27505.14
692.344	27234.64
692.69	27270.79
693.037	27343.56
693.383	27089.78
693.73	27269.89
694.077	27062.66
694.423	26968.66
694.769	26820.64
695.116	26922.55
695.462	26829
695.808	26659.28
696.155	26878.26
696.501	26580.64
696.847	26559.4
697.193	26413.42
697.539	26468.33
697.885	26289.8
698.231	26288.45
698.577	26135.23
698.923	26177.49
699.269	26065.4
699.614	25968.23
699.96	25895.24
700.306	25914.67
700.651	25778.86
700.997	25637.39
701.342	25620.89
701.688	25658.63
702.033	25508.81
702.379	25498.41
702.724	25430.62
703.069	25498.41
703.415	25188.36
703.76	25055.94
704.105	25157.4
704.45	25114.24
704.795	24977.97
705.14	24887.13
705.485	24814.81
705.83	24801.71
706.175	24769.84
706.52	24757.41
706.865	24625.89
707.209	24610.53
707.554	24469.96
707.899	24581.15
708.243	24387.93
708.588	24411.66
708.932	24241.04
709.277	24261.83
709.621	24205.11
709.966	24160.59
710.31	24062.29
710.654	23878.57
710.998	23924.67
711.342	23971.22
711.687	23875.18
712.031	23718.12
712.375	23543.89
712.719	23839.7
713.063	23607.16
713.407	23711.34
713.75	23636.09
714.094	23481.74
714.438	23441.97
714.782	23515.41
715.125	23359.71
715.469	23393.61
715.812	23192.26
716.156	23094.86
716.499	23175.08
716.843	23245.82
717.186	23044.24
717.53	23084.92
717.873	23147.51
718.216	22965.82
718.559	23007.18
718.902	22817.13
719.246	22916.11
719.589	22739.61
719.932	22696.45
720.275	22672.05
720.617	22730.8
720.96	22658.49
721.303	22667.07
721.646	22605.61
721.989	22492.84
722.331	22597.24
722.674	22517.7
723.016	22437.7
723.359	22350.92
723.701	22462.11
724.044	22256.24
724.386	22262.11
724.729	22259.63
725.071	22151.83
725.413	22196.58
725.755	22156.8
726.097	22087.88
726.439	22104.15
726.782	22051.27
727.124	22166.07
727.465	22028.22
727.807	21941.44
728.149	21848.11
728.491	21797.72
728.833	21855.57
729.175	21762.46
729.516	21731.05
729.858	21786.64
730.199	21628
730.541	21663.94
730.882	21593.88
731.224	21664.84
731.565	21457.16
731.906	21490.61
732.248	21547.33
732.589	21484.05
732.93	21301.46
733.271	21334.68
733.612	21383.04
733.953	21286.32
734.294	21225.76
734.635	21208.81
734.976	21233.21
735.317	21169.03
735.658	21135.81
735.999	21101.24
736.339	21088.58
736.68	21168.36
737.021	21026.44
737.361	20908.02
737.702	21027.79
738.042	20928.81
738.383	20903.96
738.723	20890.85
739.063	20750.29
739.404	20876.84
739.744	20771.76
740.084	20738.08
740.424	20694.24
740.764	20686.56
741.104	20758.88
741.444	20547.81
741.784	20451.76
742.124	20569.5
742.464	20490.41
742.804	20445.21
743.143	20508.49
743.483	20461.71
743.823	20320.69
744.162	20341.48
744.502	20353.91
744.841	20306.01
745.181	20343.29
745.52	20130.42
745.86	20237.98
746.199	20220.81
746.538	20265.55
746.877	20219.45
747.216	20173.13
747.556	20128.16
747.895	20087.48
748.234	19987.37
748.573	19990.31
748.911	19947.82
749.25	19957.09
749.589	19755.29
749.928	19758.9
750.267	19770.88
750.605	19713.25
750.944	19695.85
751.283	19685.46
751.621	19703.08
751.96	19524.56
752.298	19501.51
752.636	19456.99
752.975	19336.54
753.313	19209.54
753.651	19536.99
753.989	19321.4
754.327	19262.19
754.666	19149.88
755.004	19194.85
755.342	19237.33
755.679	19178.58
756.017	18931.35
756.355	19099.48
756.693	18977
757.031	18976.1
757.368	18972.03
757.706	18780.85
758.044	18802.09
758.381	18798.7
758.719	18744.24
759.056	18566.84
759.394	18731.58
759.731	18580.18
760.068	18468.31
760.405	18511.02
760.743	18423.34
761.08	18329.33
761.417	18390.58
761.754	18258.15
762.091	18172.73
762.428	18254.76
762.765	18055.9
763.102	18149.23
763.438	17989
763.775	17930.25
764.112	17905.84
764.449	17891.38
764.785	17821.78
765.122	17674.44
765.458	17648.22
765.795	17541.78
766.131	17571.39
766.467	17483.93
766.804	17354.67
767.14	17395.57
767.476	17360.77
767.812	17236.93
768.148	17224.73
768.485	17144.05
768.821	17063.15
769.157	17093.43
769.492	17088.92
769.828	16899.99
770.164	16822.26
770.5	16718.98
770.836	16735.7
771.171	16729.83
771.507	16591.75
771.842	16518.31
772.178	16584.3
772.513	16480.34
772.849	16377.75
773.184	16395.15
773.519	16321.7
773.855	16295.72
774.19	16207.81
774.525	16060.92
774.86	16128.49
775.195	16070.64
775.53	16105.21
775.865	15920.13
776.2	15799.91
776.535	15686.01
776.87	15729.18
777.205	15572.8
777.539	15552.46
777.874	15640.82
778.209	15527.37
778.543	15469.07
778.878	15424.33
779.212	15351.79
779.547	15263.65
779.881	15282.86
780.215	15244.22
780.55	15249.87
780.884	15071.12
781.218	15182.07
781.552	15022.98
781.886	14884.45
782.22	14876.32
782.554	14684.01
782.888	14648.08
783.222	14659.37
783.556	14656.21
783.889	14575.53
784.223	14529.43
784.557	14467.06
784.89	14452.15
785.224	14417.8
785.557	14243.79
785.891	14297.12
786.224	14265.71
786.558	14206.28
786.891	14049.45
787.224	14053.29
787.557	14003.12
787.891	13945.49
788.224	13907.98
788.557	13808.1
788.89	13847.64
789.223	13835.44
789.556	13775.56
789.888	13742.34
790.221	13670.47
790.554	13623.92
790.887	13582.11
791.219	13515.22
791.552	13527.43
791.884	13400.88
792.217	13386.19
792.549	13337.83
792.882	13293.53
793.214	13224.38
793.546	13223.25
793.879	13172.86
794.211	13046.76
794.543	13161.11
794.875	12998.18
795.207	13090.6
795.539	12948.46
795.871	12975.12
796.203	12860.78
796.535	12744.62
796.867	12821.23
797.198	12742.59
797.53	12777.84
797.862	12650.16
798.193	12665.53
798.525	12646.55
798.856	12641.57
799.188	12466.44
799.519	12440.45
799.85	12434.57
800.182	12423.28
800.513	12334.92
800.844	12234.35
801.175	12296.05
801.506	12295.59
801.837	12242.49
802.168	12144.86
802.499	12185.32
802.83	12087.01
803.161	11992.33
803.491	12004.3
803.822	12109.38
804.153	11974.47
804.483	11924.31
804.814	11799.11
805.145	11852.89
805.475	11888.15
805.805	11760.24
806.136	11762.73
806.466	11794.59
806.796	11704.88
807.126	11701.26
807.457	11545.56
807.787	11652.67
808.117	11586.46
808.447	11533.35
808.777	11513.24
809.107	11471.21
809.436	11468.27
809.766	11406.13
810.096	11341.04
810.426	11381.04
810.755	11425.79
811.085	11326.81
811.414	11283.87
811.744	11192.35
812.073	11155.51
812.403	11120.94
812.732	11190.09
813.061	11083.88
813.39	11047.49
813.719	10974.05
814.049	11025.35
814.378	11031.9
814.707	10970.43
815.036	10928.63
815.365	10927.95
815.693	10758.91
816.022	10844.11
816.351	10800.04
816.68	10798.68
817.008	10736.31
817.337	10713.26
817.665	10668.52
817.994	10674.17
818.322	10691.34
818.651	10542.87
818.979	10582.42
819.307	10668.07
819.636	10614.96
819.964	10500.84
820.292	10529.54
820.62	10532.7
820.948	10494.06
821.276	10543.1
821.604	10474.4
821.932	10491.35
822.259	10499.03
822.587	10484.57
822.915	10461.52
823.243	10450.22
823.57	10446.15
823.898	10467.39
824.225	10479.37
824.553	10422.65
824.88	10513.95
825.207	10488.41
825.535	10449.54
825.862	10502.65
826.189	10470.56
826.516	10552.59
826.843	10487.05
827.17	10484.79
827.497	10450.45
827.824	10433.04
828.151	10553.27
828.478	10516.66
828.805	10503.55
829.131	10498.58
829.458	10501.52
829.785	10394.85
830.111	10419.49
830.438	10452.93
830.764	10421.29
831.09	10371.58
831.417	10349.21
831.743	10372.03
832.069	10370.22
832.395	10362.09
832.722	10398.92
833.048	10372.93
833.374	10416.1
833.7	10304.69
834.026	10316.21
834.351	10379.94
834.677	10368.41
835.003	10429.2
835.329	10355.53
835.654	10286.83
835.98	10249.09
836.306	10306.49
836.631	10284.12
836.956	10312.14
837.282	10266.72
837.607	10188.76
837.932	10222.2
838.258	10203.45
838.583	10186.5
838.908	10156.89
839.233	10103.11
839.558	10093.84
839.883	10095.65
840.208	10019.5
840.533	10029.21
840.858	10057.24
841.182	9994.41
841.507	10045.26
841.832	9970.68
842.156	10063.79
842.481	9895.66
842.805	9873.74
843.13	9810.91
843.454	9894.98
843.778	9796.68
844.103	9904.02
844.427	9861.31
844.751	9757.81
845.075	9795.32
845.399	9733.85
845.723	9672.39
846.047	9723.69
846.371	9575.67
846.695	9607.76
847.019	9566.85
847.343	9562.56
847.666	9451.38
847.99	9418.83
848.313	9468.78
848.637	9334.09
848.96	9326.41
849.284	9394.2
849.607	9200.53
849.931	9190.37
850.254	9194.89
850.577	9160.99
850.9	9095
851.223	9107.43
851.546	8982.91
851.869	8998.51
852.192	8996.92
852.515	8922.12
852.838	8882.35
853.161	8959.41
853.483	8898.62
853.806	8846.19
854.129	8826.76
854.451	8739.53
854.774	8751.28
855.096	8682.81
855.419	8711.28
855.741	8659.76
856.063	8625.86
856.385	8589.93
856.708	8554.9
857.03	8505.86
857.352	8499.54
857.674	8434.68
857.996	8476.03
858.318	8377.73
858.64	8447.11
858.961	8415.7
859.283	8414.79
859.605	8359.2
859.926	8344.06
860.248	8323.27
860.57	8310.16
860.891	8324.63
861.212	8299.09
861.534	8262.25
861.855	8213.89
862.176	8281.92
862.498	8186.1
862.819	8173.9
863.14	8118.98
863.461	8165.76
863.782	8144.74
864.103	8104.74
864.424	8094.58
864.745	8127.12
865.065	8062.49
865.386	8085.76
865.707	8037.4
866.027	8060.9
866.348	8020.45
866.668	7989.04
866.989	7999.89
867.309	7955.14
867.63	7936.61
867.95	7969.83
868.27	7908.59
868.59	7898.87
868.91	7962.15
869.23	7852.77
869.55	7828.59
869.87	7881.47
870.19	7795.6
870.51	7835.15
870.83	7829.5
871.15	7786.56
871.469	7804.19
871.789	7809.39
872.109	7787.46
872.428	7829.5
872.748	7782.04
873.067	7756.28
873.386	7818.2
873.706	7745.21
874.025	7658.88
874.344	7618.43
874.663	7734.36
874.982	7641.48
875.301	7673.34
875.62	7651.88
875.939	7628.15
876.258	7631.99
876.577	7590.86
876.896	7551.09
877.214	7556.96
877.533	7585.89
877.852	7568.49
878.17	7612.33
878.489	7631.08
878.807	7537.98
879.125	7511.09
879.444	7499.79
879.762	7435.38
880.08	7506.57
880.398	7487.59
880.716	7475.16
881.034	7427.25
881.352	7474.03
881.67	7421.6
881.988	7400.58
882.306	7366.23
882.624	7342.73
882.941	7383.41
883.259	7340.92
883.577	7314.48
883.894	7236.52
884.212	7325.78
884.529	7289.17
884.846	7232.9
885.164	7239.23
885.481	7202.4
885.798	7242.85
886.115	7159.01
886.432	7168.72
886.75	7192
887.067	7179.8
887.383	7092.57
887.7	7135.96
888.017	7076.52
888.334	7086.69
888.651	7060.25
888.967	7021.61
889.284	6955.4
889.6	6995.62
889.917	6962.4
890.233	6971.44
890.55	6910.65
890.866	6938.9
891.182	6914.27
891.498	6843.08
891.815	6793.82
892.131	6866.81
892.447	6854.38
892.763	6786.14
893.079	6795.85
893.395	6739.36
893.71	6700.49
894.026	6719.7
894.342	6711.33
894.657	6671.34
894.973	6675.18
895.289	6660.49
895.604	6632.69
895.92	6642.64
896.235	6584.33
896.55	6617.1
896.865	6618.46
897.181	6508.85
897.496	6526.25
897.811	6503.66
898.126	6438.35
898.441	6444.22
898.756	6436.31
899.071	6404.22
899.386	6439.03
899.7	6371.68
900.015	6360.84
900.33	6255.75
900.644	6270.22
900.959	6320.84
901.273	6206.72
901.588	6166.72
901.902	6228.64
902.216	6167.17
902.531	6173.5
902.845	6147.51
903.159	6096.21
903.473	6057.34
903.787	6076.32
904.101	6047.62
904.415	6092.82
904.729	6029.54
905.042	5982.99
905.356	6001.3
905.67	5974.41
905.984	5996.78
906.297	5903.67
906.611	5920.17
906.924	5874.52
907.237	5813.73
907.551	5814.64
907.864	5788.42
908.177	5797.01
908.491	5833.84
908.804	5777.8
909.117	5735.54
909.43	5720.4
909.743	5694.41
910.056	5659.84
910.368	5672.04
910.681	5614.41
910.994	5615.77
911.307	5571.03
911.619	5540.74
911.932	5544.59
912.244	5487.86
912.557	5496.68
912.869	5477.47
913.181	5484.93
913.494	5460.97
913.806	5416
914.118	5348.88
914.43	5382.1
914.742	5355.44
915.054	5270.69
915.366	5313.41
915.678	5295.33
915.99	5240.41
916.302	5222.79
916.613	5179.17
916.925	5248.77
917.236	5221.88
917.548	5103.47
917.859	5177.36
918.171	5074.32
918.482	5097.14
918.794	5073.41
919.105	5045.16
919.416	5026.41
919.727	5012.4
920.038	5013.3
920.349	4963.81
920.66	4957.93
920.971	4966.97
921.282	4958.16
921.593	4897.37
921.903	4860.76
922.214	4874.32
922.525	4817.83
922.835	4808.79
923.146	4792.74
923.456	4762.23
923.767	4738.51
924.077	4731.5
924.387	4719.97
924.697	4709.81
925.008	4684.72
925.318	4661.45
925.628	4661.9
925.938	4671.61
926.248	4573.54
926.558	4573.76
926.867	4557.27
927.177	4567.66
927.487	4564.5
927.796	4497.16
928.106	4482.24
928.416	4476.59
928.725	4461.22
929.034	4435.24
929.344	4411.96
929.653	4449.47
929.962	4384.62
930.271	4355.92
930.581	4358.85
930.89	4352.07
931.199	4334
931.508	4281.57
931.817	4320.44
932.125	4297.39
932.434	4280.89
932.743	4270.04
933.051	4241.8
933.36	4169.71
933.669	4187.79
933.977	4123.15
934.286	4111.18
934.594	4118.63
934.902	4052.2
935.21	4076.38
935.519	4100.78
935.827	4063.95
936.135	4037.28
936.443	4071.63
936.751	3966.77
937.059	3976.27
937.367	3979.2
937.674	3983.5
937.982	3898.75
938.29	3900.79
938.597	3853.78
938.905	3888.13
939.213	3897.85
939.52	3850.85
939.827	3895.82
940.135	3875.48
940.442	3848.36
940.749	3786.67
941.056	3793.9
941.363	3773.33
941.67	3776.5
941.977	3745.76
942.284	3717.06
942.591	3696.95
942.898	3721.13
943.205	3703.05
943.511	3657.63
943.818	3651.3
944.125	3611.3
944.431	3616.5
944.738	3586.9
945.044	3606.33
945.35	3584.86
945.657	3535.83
945.963	3567.91
946.269	3548.03
946.575	3543.28
946.881	3509.16
947.187	3477.07
947.493	3489.27
947.799	3467.58
948.105	3375.6
948.41	3394.36
948.716	3410.63
949.022	3388.03
949.327	3373.8
949.633	3343.74
949.938	3371.54
950.244	3371.54
950.549	3295.38
950.854	3319.11
951.16	3312.33
951.465	3290.41
951.77	3250.86
952.075	3244.99
952.38	3260.35
952.685	3247.25
952.99	3204.99
953.294	3214.48
953.599	3193.46
953.904	3180.35
954.209	3167.93
954.513	3182.61
954.818	3172.44
955.122	3119.79
955.426	3112.11
955.731	3101.03
956.035	3106.46
956.339	3075.5
956.643	3063.07
956.948	3050.19
957.252	3032.56
957.556	3046.12
957.86	3038.89
958.163	2999.12
958.467	3004.09
958.771	3003.18
959.075	2953.24
959.378	2990.98
959.682	2922.51
959.985	2979
960.289	2909.17
960.592	2913.02
960.896	2903.75
961.199	2881.15
961.502	2881.38
961.805	2875.05
962.108	2842.28
962.411	2836.41
962.714	2816.75
963.017	2823.75
963.32	2806.13
963.623	2814.04
963.926	2799.8
964.228	2793.7
964.531	2745.11
964.833	2708.5
965.136	2739.69
965.438	2753.7
965.741	2715.51
966.043	2712.12
966.345	2658.11
966.648	2652.01
966.95	2680.03
967.252	2672.8
967.554	2645.91
967.856	2622.63
968.158	2609.52
968.46	2640.93
968.761	2583.31
969.063	2606.58
969.365	2593.7
969.666	2568.39
969.968	2565.68
970.269	2529.98
970.571	2564.33
970.872	2534.72
971.174	2522.52
971.475	2492.01
971.776	2499.47
972.077	2472.58
972.378	2482.75
972.679	2423.76
972.98	2496.76
973.281	2466.93
973.582	2410.66
973.883	2418.11
974.183	2434.39
974.484	2430.09
974.785	2388.51
975.085	2407.49
975.386	2365.46
975.686	2402.75
975.986	2358.45
976.287	2345.12
976.587	2364.78
976.887	2373.6
977.187	2325.69
977.487	2310.55
977.787	2247.72
978.087	2281.85
978.387	2272.81
978.687	2296.08
978.987	2257.21
979.286	2256.31
979.586	2239.14
979.885	2272.36
980.185	2232.13
980.484	2218.12
980.784	2211.34
981.083	2214.05
981.382	2179.48
981.682	2176.76
981.981	2147.16
982.28	2148.74
982.579	2152.81
982.878	2156.65
983.177	2138.57
983.475	2098.12
983.774	2152.13
984.073	2077.56
984.372	2092.25
984.67	2084.34
984.969	2082.3
985.267	2082.98
985.566	2092.7
985.864	2052.47
986.162	2080.72
986.461	2053.83
986.759	2020.38
987.057	2041.18
987.355	2031.91
987.653	2023.77
987.951	2016.77
988.249	2027.62
988.547	1979.93
988.844	1999.37
989.142	1979.48
989.44	1969.09
989.737	1961.63
990.035	1919.37
990.332	1924.79
990.63	1922.08
990.927	1907.62
991.224	1924.79
991.521	1898.81
991.819	1897
992.116	1885.7
992.413	1853.84
992.71	1825.81
993.006	1851.12
993.303	1865.59
993.6	1853.61
993.897	1860.84
994.193	1834.63
994.49	1792.37
994.787	1829.2
995.083	1811.8
995.379	1797.57
995.676	1787.62
995.972	1770.22
996.268	1762.31
996.565	1754.85
996.861	1751.24
997.157	1748.3
997.453	1725.93
997.749	1711.01
998.044	1707.17
998.34	1713.5
998.636	1694.52
998.932	1704.46
999.227	1714.86
999.523	1701.75
999.818	1666.72
1000.114	1692.26
1000.409	1662.43
1000.704	1633.05
1001	1607.74
1001.295	1621.07
1001.59	1613.62
1001.885	1617.23
1002.18	1604.35
1002.475	1572.71
1002.77	1600.73
1003.065	1563.9
1003.359	1583.11
1003.654	1576.78
1003.949	1559.61
1004.243	1537.91
1004.538	1536.1
1004.832	1532.71
1005.127	1535.43
1005.421	1500.4
1005.715	1502.21
1006.009	1495.88
1006.304	1497.01
1006.598	1496.33
1006.892	1482.32
1007.186	1454.98
1007.48	1495.43
1007.773	1455.88
1008.067	1452.94
1008.361	1410.91
1008.655	1447.52
1008.948	1417.46
1009.242	1408.42
1009.535	1412.04
1009.829	1394.64
1010.122	1399.61
1010.415	1405.26
1010.708	1360.29
1011.001	1370.68
1011.295	1379.5
1011.588	1357.8
1011.881	1358.03
1012.173	1311.7
1012.466	1320.29
1012.759	1351.48
1013.052	1339.5
1013.344	1345.83
1013.637	1301.53
1013.93	1306.51
1014.222	1300.86
1014.514	1296.79
1014.807	1266.28
1015.099	1304.92
1015.391	1287.3
1015.683	1252.95
1015.976	1228.99
1016.268	1248.43
1016.56	1238.03
1016.851	1240.52
1017.143	1209.33
1017.435	1206.62
1017.727	1212.5
1018.018	1196.9
1018.31	1178.15
1018.602	1207.52
1018.893	1192.61
1019.185	1222.21
1019.476	1186.51
1019.767	1153.06
1020.058	1161.2
1020.35	1133.85
1020.641	1131.37
1020.932	1150.8
1021.223	1134.31
1021.514	1136.57
1021.804	1101.31
1022.095	1111.03
1022.386	1105.38
1022.677	1101.31
1022.967	1091.37
1023.258	1082.1
1023.548	1068.55
1023.839	1081.2
1024.129	1079.62
1024.419	1039.62
1024.709	1064.7
1025	1055.21
1025.29	1058.15
1025.58	1045.04
1025.87	1004.82
1026.16	1022.44
1026.449	1014.54
1026.739	989.45
1027.029	1010.02
1027.319	1013.18
1027.608	1002.78
1027.898	971.82
1028.187	977.25
1028.477	955.1
1028.766	985.16
1029.055	972.95
1029.344	946.51
1029.634	943.8
1029.923	976.34
1030.212	945.16
1030.501	961.43
1030.79	928.21
1031.078	934.76
1031.367	919.62
1031.656	911.94
1031.945	881.43
1032.233	863.8
1032.522	897.02
1032.81	912.17
1033.099	864.48
1033.387	886.86
1033.675	897.93
1033.963	869.68
1034.251	857.03
1034.54	863.8
1034.828	854.31
1035.116	862.45
1035.403	856.57
1035.691	826.97
1035.979	848.44
1036.267	844.37
1036.554	823.35
1036.842	804.37
1037.129	819.51
1037.417	821.55
1037.704	812.73
1037.992	810.25
1038.279	789.46
1038.566	806.41
1038.853	806.41
1039.14	806.41
