Data from breadboard_black_back_FLMS001491_00031.txt Node
Date: Wed Feb 08 10:50:17 GMT 2017
User: dcchb
Spectrometer: FLMS00149
Trigger mode: 0
Integration Time (sec): 2.000000E-2
Scans to average: 10
Electric dark correction enabled: true
Nonlinearity correction enabled: false
Boxcar width: 0
XAxis mode: Wavelengths
Number of Pixels in Spectrum: 2048
>>>>>Begin Spectral Data<<<<<
341.393	-10.96
341.776	-10.96
342.16	-10.96
342.543	-66.55
342.927	-57.96
343.31	-64.07
343.693	-67.46
344.077	-60.9
344.46	-66.55
344.843	-62.48
345.226	-29.26
345.61	-39.43
345.993	-33.33
346.376	3.95
346.759	0.34
347.142	13.67
347.525	28.36
347.908	45.54
348.291	92.31
348.674	97.96
349.057	141.35
349.44	123.73
349.823	130.28
350.206	136.15
350.588	209.6
350.971	189.94
351.354	217.06
351.737	246.43
352.119	260.45
352.502	255.25
352.884	255.25
353.267	290.73
353.65	286.66
354.032	307.45
354.414	310.39
354.797	320.33
355.179	322.36
355.562	335.92
355.944	345.41
356.326	332.31
356.709	333.21
357.091	348.13
357.473	330.05
357.855	335.25
358.238	347.45
358.62	340.67
359.002	358.07
359.384	344.06
359.766	326.88
360.148	355.58
360.53	350.84
360.912	363.27
361.294	373.21
361.676	335.47
362.057	314.46
362.439	332.53
362.821	351.52
363.203	338.86
363.584	352.65
363.966	332.08
364.348	345.19
364.729	356.26
365.111	335.47
365.493	335.47
365.874	327.34
366.256	333.44
366.637	329.37
367.019	331.18
367.4	347.45
367.781	343.38
368.163	319.43
368.544	332.08
368.925	333.66
369.306	356.04
369.688	349.03
370.069	308.35
370.45	342.25
370.831	358.07
371.212	347.9
371.593	345.87
371.974	345.19
372.355	342.7
372.736	358.97
373.117	354
373.498	314.46
373.879	342.02
374.26	338.64
374.641	347.9
375.021	360.56
375.402	389.03
375.783	373.89
376.163	386.54
376.544	355.81
376.925	377.05
377.305	356.94
377.686	372.53
378.066	378.63
378.447	390.61
378.827	389.93
379.208	378.41
379.588	371.85
379.968	379.76
380.349	389.93
380.729	391.74
381.109	407.79
381.489	422.02
381.87	409.37
382.25	387.67
382.63	395.13
383.01	410.05
383.39	412.31
383.77	399.88
384.15	418.41
384.53	420.21
384.91	411.18
385.29	415.47
385.67	421.57
386.049	429.48
386.429	398.97
386.809	427.45
387.189	441.01
387.568	425.64
387.948	434.23
388.328	444.17
388.707	448.69
389.087	452.08
389.466	465.64
389.846	476.48
390.225	472.87
390.605	461.8
390.984	482.13
391.363	458.63
391.743	480.78
392.122	478.07
392.501	498.4
392.881	499.76
393.26	499.53
393.639	504.73
394.018	491.85
394.397	529.59
394.776	490.27
395.155	500.44
395.534	511.51
395.913	525.3
396.292	558.29
396.671	518.97
397.05	528.46
397.429	528.69
397.808	560.78
398.186	529.14
398.565	544.73
398.944	560.78
399.323	556.26
399.701	549.48
400.08	571.85
400.458	592.64
400.837	579.98
401.215	581.79
401.594	601.91
401.972	589.02
402.351	591.06
402.729	590.15
403.107	601.23
403.486	617.95
403.864	626.09
404.242	633.54
404.62	638.74
404.999	615.01
405.377	613.88
405.755	630.38
406.133	663.82
406.511	632.64
406.889	651.17
407.267	660.89
407.645	673.09
408.023	686.42
408.401	670.15
408.779	702.24
409.156	696.37
409.534	711.51
409.912	722.58
410.29	740.88
410.667	752.86
411.045	785.63
411.422	763.48
411.8	768.68
412.178	765.97
412.555	793.99
412.933	778.4
413.31	781.34
413.687	789.47
414.065	803.03
414.442	840.77
414.819	850.94
415.197	854.78
415.574	861.79
415.951	859.98
416.328	871.5
416.705	884.84
417.082	859.07
417.46	884.16
417.837	901.11
418.214	896.36
418.591	920.99
418.967	904.72
419.344	925.96
419.721	956.02
420.098	928.9
420.475	945.4
420.852	967.55
421.228	974.78
421.605	991.73
421.982	995.34
422.358	998.73
422.735	1029.92
423.111	1012.52
423.488	1021.78
423.864	1050.25
424.241	1042.35
424.617	1046.41
424.994	1051.38
425.37	1091.61
425.746	1067.66
426.123	1122.34
426.499	1107.2
426.875	1115.79
427.251	1115.56
427.627	1157.82
428.003	1188.1
428.379	1201.21
428.756	1177.94
429.132	1202.12
429.507	1230.14
429.883	1203.02
430.259	1254.09
430.635	1259.29
431.011	1276.69
431.387	1297.71
431.763	1303.13
432.138	1307.2
432.514	1334.32
432.89	1356.69
433.265	1370.25
433.641	1404.37
434.016	1393.97
434.392	1409.79
434.767	1455.67
435.143	1478.27
435.518	1459.51
435.894	1468.55
436.269	1500.19
436.644	1518.04
437.02	1549.22
437.395	1538.6
437.77	1548.55
438.145	1584.93
438.52	1597.81
438.895	1603.01
439.271	1620.41
439.646	1654.08
440.021	1639.84
440.395	1689.79
440.77	1646.62
441.145	1684.81
441.52	1705.6
441.895	1718.94
442.27	1727.75
442.645	1749.9
443.019	1761.2
443.394	1756.23
443.769	1770.01
444.143	1745.83
444.518	1834.42
444.892	1803.68
445.267	1812.72
445.641	1837.8
446.016	1813.17
446.39	1823.34
446.764	1886.17
447.139	1886.84
447.513	1896.79
447.887	1913.51
448.262	1900.4
448.636	1906.28
449.01	1960.51
449.384	1975.88
449.758	1957.12
450.132	2004.13
450.506	2007.29
450.88	2044.35
451.254	2031.02
451.628	2071.47
452.002	2097.46
452.376	2138.36
452.75	2132.49
453.123	2150.34
453.497	2179.94
453.871	2235.31
454.244	2226.04
454.618	2252.48
454.992	2263.56
455.365	2282.54
455.739	2353.72
456.112	2333.84
456.486	2384.68
456.859	2390.11
457.232	2433.95
457.606	2480.05
457.979	2463.1
458.352	2532.7
458.725	2560.72
459.099	2577.22
459.472	2656.99
459.845	2647.73
460.218	2682.3
460.591	2715.75
460.964	2720.04
461.337	2806.82
461.71	2847.5
462.083	2863.54
462.456	2901.05
462.829	2890.21
463.201	2944.89
463.574	2983.99
463.947	3003.88
464.32	3058.34
464.692	3094.72
465.065	3111.67
465.438	3184.89
465.81	3185.11
466.183	3215.62
466.555	3289.29
466.928	3310.53
467.3	3338.1
467.672	3416.07
468.045	3457.88
468.417	3473.24
468.789	3496.07
469.161	3560.25
469.534	3607.48
469.906	3656.74
470.278	3713.69
470.65	3773.8
471.022	3776.96
471.394	3863.06
471.766	3905.32
472.138	3988.93
472.51	4023.96
472.882	4113.9
473.253	4135.37
473.625	4195.71
473.997	4272.99
474.369	4362.94
474.74	4423.05
475.112	4436.83
475.484	4536.49
475.855	4601.35
476.227	4658.97
476.598	4786.43
476.97	4817.16
477.341	4942.13
477.713	5021.9
478.084	5038.85
478.455	5181.22
478.827	5206.3
479.198	5401.1
479.569	5383.7
479.94	5489.23
480.311	5585.05
480.682	5726.06
481.053	5818.94
481.424	5910.92
481.795	5929.45
482.166	6077.69
482.537	6091.03
482.908	6230.46
483.279	6371.7
483.65	6401.3
484.021	6554.74
484.391	6660.05
484.762	6710.9
485.133	6735.98
485.503	6878.35
485.874	6960.38
486.244	7026.59
486.615	7219.81
486.985	7234.27
487.356	7364.67
487.726	7473.36
488.097	7656.41
488.467	7685.33
488.837	7864.54
489.207	7964.88
489.578	8022.05
489.948	8071.77
490.318	8203.51
490.688	8257.3
491.058	8441.02
491.428	8510.85
491.798	8552.43
492.168	8711.52
492.538	8780.9
492.908	8916.04
493.278	9007.79
493.648	9049.82
494.017	9170.49
494.387	9186.31
494.757	9251.17
495.126	9404.61
495.496	9438.06
495.866	9561.9
496.235	9678.95
496.605	9711.27
496.974	9778.16
497.344	9894.77
497.713	9976.8
498.082	10023.13
498.452	10248.88
498.821	10237.81
499.19	10234.87
499.559	10351.93
499.928	10445.94
500.298	10480.06
500.667	10653.62
501.036	10596.67
501.405	10753.5
501.774	10776.33
502.143	10829.21
502.512	10879.37
502.88	11032.82
503.249	10994.63
503.618	11114.4
503.987	11166.15
504.356	11268.97
504.724	11314.39
505.093	11390.32
505.462	11464.44
505.83	11584.22
506.199	11612.01
506.567	11805.68
506.936	11817.43
507.304	11927.71
507.672	11988.05
508.041	12140.58
508.409	12159.12
508.777	12197.08
509.145	12325.89
509.514	12343.29
509.882	12442.05
510.25	12441.59
510.618	12653.11
510.986	12735.82
511.354	12878.87
511.722	12962.48
512.09	13100.79
512.458	13044.29
512.826	13185.53
513.193	13301.01
513.561	13369.93
513.929	13423.49
514.297	13560.66
514.664	13702.8
515.032	13753.42
515.4	13914.1
515.767	13873.87
516.135	14008.78
516.502	13985.28
516.869	14181.21
517.237	14318.83
517.604	14287.42
517.972	14421.43
518.339	14561.99
518.706	14614.64
519.073	14715.21
519.44	14877.69
519.808	15082.43
520.175	15055.31
520.542	15159.04
520.909	15335.08
521.276	15305.02
521.643	15522.64
522.009	15589.99
522.376	15686.25
522.743	15789.3
523.11	16006.02
523.477	16204.43
523.843	16251.21
524.21	16471.09
524.577	16606.46
524.943	16640.58
525.31	16735.49
525.676	16991.08
526.043	17071.53
526.409	17081.25
526.776	17270.62
527.142	17340.67
527.508	17463.38
527.874	17581.12
528.241	17757.61
528.607	17755.35
528.973	18020.43
529.339	17967.78
529.705	18173.87
530.071	18287.09
530.437	18375.45
530.803	18422.68
531.169	18676.01
531.535	18755.55
531.901	18811.82
532.267	18775.66
532.632	19051.59
532.998	19052.95
533.364	19158.93
533.73	19162.1
534.095	19458.36
534.461	19422.43
534.826	19583.55
535.192	19735.87
535.557	19654.51
535.923	19824.68
536.288	19901.28
536.653	19894.28
537.019	19996.88
537.384	20062.41
537.749	20230.09
538.114	20266.25
538.479	20279.35
538.845	20366.36
539.21	20377.2
539.575	20510.76
539.94	20612.45
540.305	20706.24
540.67	20685.67
541.034	20840.02
541.399	20952.78
541.764	20904.65
542.129	21088.37
542.494	20987.58
542.858	21174.02
543.223	21250.18
543.587	21397.29
543.952	21306.45
544.316	21430.06
544.681	21403.62
545.045	21696.72
545.41	21685.19
545.774	21704.4
546.138	21802.48
546.503	21983.72
546.867	21860.56
547.231	22134.9
547.595	22147.78
547.959	22253.77
548.324	22245.4
548.688	22230.04
549.052	22385.29
549.416	22500.09
549.779	22524.94
550.143	22568.33
550.507	22678.39
550.871	22814.43
551.235	22852.85
551.599	22992.73
551.962	23021.43
552.326	23134.87
552.689	23399.72
553.053	23293.74
553.417	23289.22
553.78	23623.67
554.143	23553.39
554.507	23725.36
554.87	23704.12
555.234	23920.61
555.597	23800.17
555.96	24071.8
556.323	24044
556.686	24135.07
557.05	24402.64
557.413	24376.2
557.776	24450.77
558.139	24578.45
558.502	24605.79
558.865	24667.71
559.228	24863.87
559.59	25037.42
559.953	25065.67
560.316	25217.98
560.679	25335.72
561.041	25546.33
561.404	25582.49
561.767	25790.4
562.129	25694.58
562.492	26011.63
562.854	25930.73
563.217	26005.08
563.579	26192.64
563.941	26279.87
564.304	26308.12
564.666	26574.78
565.028	26590.15
565.39	26749.24
565.753	26914.43
566.115	26897.48
566.477	27111.72
566.839	27212.5
567.201	27302.67
567.563	27402.78
567.925	27641.19
568.287	27627.64
568.648	27630.12
569.01	27867.63
569.372	27984.69
569.734	27923.45
570.095	28148.07
570.457	28203.44
570.819	28236.43
571.18	28432.36
571.542	28571.34
571.903	28533.37
572.265	28590.32
572.626	28819.92
572.987	28752.58
573.349	28910.54
573.71	28922.06
574.071	29083.19
574.432	29208.84
574.794	29364.09
575.155	29322.05
575.516	29235.05
575.877	29356.4
576.238	29463.75
576.599	29635.94
576.96	29538.77
577.32	29541.94
577.681	29758.88
578.042	29787.58
578.403	29824.87
578.763	29775.83
579.124	29891.3
579.485	30007.01
579.845	30075.25
580.206	30033.9
580.566	30003.39
580.927	30143.05
581.287	30210.62
581.648	29977.18
582.008	30283.84
582.368	30247.45
582.728	30257.4
583.089	30279.77
583.449	30300.79
583.809	30265.53
584.169	30269.37
584.529	30260.11
584.889	30472.76
585.249	30270.05
585.609	30223.05
585.969	30445.64
586.329	30449.93
586.688	30379.2
587.048	30349.37
587.408	30396.6
587.768	30282.93
588.127	30290.16
588.487	30308.47
588.846	30534
589.206	30367.22
589.565	30341.46
589.925	30471.85
590.284	30348.02
590.643	30401.57
591.003	30510.5
591.362	30614.45
591.721	30565.64
592.08	30646.99
592.44	30638.4
592.799	30648.12
593.158	30588.91
593.517	30646.99
593.876	30674.56
594.235	30545.3
594.593	30581.68
594.952	30711.62
595.311	30618.52
595.67	30713.43
596.029	30915.91
596.387	30931.28
596.746	30835.69
597.104	30801.34
597.463	30739.19
597.822	30948.23
598.18	30778.74
598.538	30849.02
598.897	30912.52
599.255	30774.22
599.613	31137.83
599.972	30975.57
600.33	30985.06
600.688	30858.28
601.046	31100.54
601.404	31239.52
601.762	30997.94
602.12	31284.94
602.478	31162.46
602.836	31223.25
603.194	31192.51
603.552	31201.78
603.91	31111.16
604.268	31299.18
604.625	31152.51
604.983	31346.86
605.341	31181.67
605.698	31380.08
606.056	31580.75
606.413	31301.89
606.771	31551.37
607.128	31579.85
607.485	31451.04
607.843	31452.17
608.2	31584.14
608.557	31732.84
608.914	31764.93
609.272	31835.66
609.629	31801.76
609.986	32001.08
610.343	31769.45
610.7	32042.89
611.057	31955.66
611.414	31941.42
611.771	31992.94
612.127	32043.11
612.484	31891.7
612.841	32173.96
613.198	31997.46
613.554	32027.52
613.911	32343.9
614.267	32141.64
614.624	32204.46
614.98	32234.29
615.337	32531.24
615.693	32370.56
616.05	32304.57
616.406	32501.63
616.762	32447.17
617.118	32453.27
617.475	32449.66
617.831	32488.52
618.187	32586.15
618.543	32650.78
618.899	32734.85
619.255	32613.27
619.611	32644.9
619.967	32793.6
620.323	32719.7
620.678	32625.02
621.034	32581.4
621.39	32632.25
621.746	32519.48
622.101	32930.32
622.457	32694.62
622.812	32695.07
623.168	32819.14
623.523	32761.06
623.879	32963.54
624.234	32713.6
624.589	32694.17
624.945	32802.41
625.3	32836.76
625.655	32834.73
626.01	32729.65
626.365	32795.18
626.72	32683.1
627.075	32725.58
627.43	32713.83
627.785	32657.33
628.14	32722.19
628.495	32842.64
628.85	32559.93
629.205	32550.44
629.559	32940.94
629.914	32687.62
630.269	32695.3
630.623	32676.54
630.978	32576.88
631.332	32637.9
631.687	32671.34
632.041	32559.48
632.396	32516.32
632.75	32483.55
633.104	32451.92
633.459	32371.69
633.813	32377.11
634.167	32361.75
634.521	32245.82
634.875	32332.37
635.229	32220.73
635.583	32094.64
635.937	32210.11
636.291	32124.92
636.645	32091.7
636.999	31923.34
637.352	32160.4
637.706	31887.41
638.06	32150
638.413	32003.79
638.767	31931.02
639.121	32013.28
639.474	31765.38
639.828	31669.11
640.181	31818.49
640.534	31799.73
640.888	31733.97
641.241	31609.68
641.594	31591.37
641.947	31613.07
642.301	31545.72
642.654	31598.83
643.007	31579.4
643.36	31482.9
643.713	31423.24
644.066	31458.72
644.419	31376.24
644.771	31328.33
645.124	30835.69
645.477	30777.16
645.83	30628.69
646.182	30512.53
646.535	30383.72
646.888	30350.28
647.24	30080
647.593	30415.36
647.945	30223.05
648.298	30034.13
648.65	29887.01
649.002	30014.69
649.355	30102.37
649.707	30113.9
650.059	30230.05
650.411	30528.8
650.763	30608.35
651.115	30978.28
651.467	30726.31
651.819	30722.92
652.171	30498.75
652.523	30529.93
652.875	30552.3
653.227	30321.8
653.578	30761.79
653.93	30518.18
654.282	30435.24
654.633	30189.15
654.985	30375.36
655.337	30385.3
655.688	30510.72
656.039	30498.52
656.391	30296.27
656.742	30226.21
657.094	30305.76
657.445	30424.62
657.796	30294.68
658.147	30104.86
658.498	30194.57
658.849	30272.99
659.2	30183.73
659.551	30171.75
659.902	30241.58
660.253	30153.22
660.604	30165.42
660.955	29980.57
661.306	30173.78
661.656	30028.93
662.007	30128.59
662.358	29925.2
662.708	30055.37
663.059	30035.26
663.409	29770.86
663.76	30014.47
664.11	30014.69
664.461	30013.11
664.811	30014.92
665.161	29959.1
665.511	29881.59
665.862	29949.38
666.212	29974.47
666.562	29903.96
666.912	29797.07
667.262	29724.76
667.612	29857.63
667.962	29967.46
668.312	29790.97
668.662	30026.67
669.011	29746.9
669.361	29766.56
669.711	29685.89
670.06	29593.91
670.41	29611.76
670.76	29626.23
671.109	29788.93
671.459	29604.53
671.808	29637.07
672.157	29630.97
672.507	29512.56
672.856	29457.87
673.205	29461.49
673.554	29582.16
673.904	29465.55
674.253	29560.24
674.602	29536.06
674.951	28993.02
675.3	28983.53
675.649	29334.03
675.998	29352.79
676.346	29370.64
676.695	29414.03
677.044	29146.92
677.393	29250.87
677.741	29256.97
678.09	29287.25
678.438	29049.74
678.787	29169.29
679.135	29113.47
679.484	28918.67
679.832	29051.78
680.181	28895.4
680.529	29066.69
680.877	29028.5
681.225	28953.48
681.573	29012.23
681.922	28772.92
682.27	28701.73
682.618	28729.53
682.966	28781.73
683.314	28789.41
683.661	28666.48
684.009	28482.75
684.357	28418.8
684.705	28461.96
685.053	28522.75
685.4	28335.87
685.748	28227.85
686.095	28166.6
686.443	28140.84
686.79	28012.26
687.138	28078.02
687.485	28220.84
687.832	27924.12
688.18	28079.15
688.527	27953.05
688.874	27732.49
689.221	27782.21
689.568	27735.65
689.915	27649.1
690.262	27637.58
690.609	27506.96
690.956	27522.55
691.303	27433.74
691.65	27182.45
691.997	27263.12
692.344	27130.02
692.69	27083.92
693.037	27155.33
693.383	26713.08
693.73	26987.88
694.077	26766.64
694.423	26829.24
694.769	26624.95
695.116	26646.19
695.462	26621.33
695.808	26556.02
696.155	26567.32
696.501	26381.34
696.847	26356.48
697.193	26248.01
697.539	26332.3
697.885	26038.75
698.231	26103.83
698.577	26085.3
698.923	26043.72
699.269	25808.7
699.614	25728.7
699.96	25639.21
700.306	25740.45
700.651	25508.82
700.997	25465.88
701.342	25391.31
701.688	25373.01
702.033	25350.41
702.379	25315.15
702.724	25238.09
703.069	25318.32
703.415	25049.17
703.76	24999.91
704.105	24959
704.45	24772.12
704.795	24702.97
705.14	24807.37
705.485	24851.89
705.83	24575.74
706.175	24547.94
706.52	24507.94
706.865	24389.08
707.209	24380.04
707.554	24300.49
707.899	24395.4
708.243	24143.88
708.588	24253.26
708.932	24050.33
709.277	23999.71
709.621	24041.74
709.966	23912.93
710.31	23873.61
710.654	23740.96
710.998	23719.49
711.342	23782.99
711.687	23724.69
712.031	23594.97
712.375	23516.78
712.719	23599.72
713.063	23525.14
713.407	23584.8
713.75	23466.61
714.094	23414.19
714.438	23186.4
714.782	23291.93
715.125	23146.17
715.469	23291.7
715.812	23055.55
716.156	22935.33
716.499	23037.47
716.843	23008.77
717.186	22938.27
717.53	23011.03
717.873	22944.59
718.216	22966.97
718.559	22745.73
718.902	22632.06
719.246	22700.99
719.589	22521.78
719.932	22498.05
720.275	22541.67
720.617	22508.67
720.96	22412.86
721.303	22457.15
721.646	22419.64
721.989	22328.79
722.331	22381.22
722.674	22299.64
723.016	22306.42
723.359	22166.31
723.701	22276.36
724.044	22114.56
724.386	21936.03
724.729	22076.14
725.071	21879.09
725.413	21921.8
725.755	21869.14
726.097	21764.51
726.439	21817.62
726.782	21619.21
727.124	21869.59
727.465	21784.62
727.807	21656.72
728.149	21536.27
728.491	21603.84
728.833	21618.98
729.175	21494.24
729.516	21572.88
729.858	21445.88
730.199	21523.84
730.541	21381.47
730.882	21435.26
731.224	21428.48
731.565	21282.94
731.906	21249.05
732.248	21275.49
732.589	21195.94
732.93	21104.42
733.271	21197.3
733.612	21136.51
733.953	21079.56
734.294	21001.14
734.635	20956.17
734.976	21036.4
735.317	20969.51
735.658	20981.48
735.999	20902.61
736.339	20729.74
736.68	20851.54
737.021	20866.23
737.361	20689.74
737.702	20788.04
738.042	20609.06
738.383	20656.97
738.723	20593.02
739.063	20609.29
739.404	20558.22
739.744	20589.63
740.084	20523.64
740.424	20458.33
740.764	20435.28
741.104	20521.83
741.444	20419.46
741.784	20273.48
742.124	20308.28
742.464	20331.1
742.804	20258.56
743.143	20241.84
743.483	20295.62
743.823	20072.13
744.162	20146.25
744.502	20083.43
744.841	20020.6
745.181	20145.8
745.52	20040.72
745.86	20074.39
746.199	20103.31
746.538	19987.16
746.877	19983.54
747.216	19901.74
747.556	19824.9
747.895	19839.59
748.234	19714.17
748.573	19648.41
748.911	19806.6
749.25	19709.43
749.589	19482.76
749.928	19563.21
750.267	19516.44
750.605	19558.92
750.944	19556.89
751.283	19401.86
751.621	19452.93
751.96	19291.58
752.298	19393.5
752.636	19296.78
752.975	19069.67
753.313	19098.37
753.651	19146.28
753.989	19019.05
754.327	19032.83
754.666	18938.37
755.004	19029.67
755.342	19026.28
755.679	18932.95
756.017	18689.11
756.355	18844.82
756.693	18797.58
757.031	18781.31
757.368	18670.58
757.706	18707.42
758.044	18527.76
758.381	18626.06
758.719	18422.91
759.056	18443.7
759.394	18466.07
759.731	18313.98
760.068	18293.64
760.405	18190.37
760.743	18188.11
761.08	18208.9
761.417	18117.6
761.754	18104.04
762.091	18046.19
762.428	17913.54
762.765	17895.46
763.102	17982.92
763.438	17741.79
763.775	17648.24
764.112	17706.09
764.449	17653.89
764.785	17621.12
765.122	17392.42
765.458	17419.77
765.795	17460.67
766.131	17364.85
766.467	17358.3
766.804	17243.5
767.14	17141.36
767.476	17175.25
767.812	17009.38
768.148	17057.97
768.485	16969.38
768.821	16858.43
769.157	16830.86
769.492	16759.45
769.828	16755.15
770.164	16535.5
770.5	16571.88
770.836	16576.85
771.171	16579.11
771.507	16379.57
771.842	16247.14
772.178	16293.92
772.513	16245.56
772.849	16120.82
773.184	16108.62
773.519	16116.75
773.855	16031.78
774.19	16049.63
774.525	15861.62
774.86	15908.85
775.195	15831.56
775.53	15808.74
775.865	15765.8
776.2	15591.57
776.535	15607.61
776.87	15478.8
777.205	15556.09
777.539	15371.23
777.874	15451.91
778.209	15238.81
778.543	15269.54
778.878	15271.8
779.212	15189.09
779.547	15118.81
779.881	15090.11
780.215	15004.24
780.55	14936.67
780.884	14878.37
781.218	14806.05
781.552	14937.35
781.886	14781.87
782.22	14675.89
782.554	14628.65
782.888	14525.38
783.222	14497.58
783.556	14451.71
783.889	14361.77
784.223	14252.39
784.557	14196.58
784.89	14295.78
785.224	14177.59
785.557	14107.76
785.891	14017.82
786.224	14042.46
786.558	13975.79
786.891	13910.48
787.224	13862.8
787.557	13832.97
787.891	13770.6
788.224	13794.33
788.557	13743.71
788.89	13688.11
789.223	13630.72
789.556	13588
789.888	13639.53
790.221	13543.49
790.554	13441.79
790.887	13452.64
791.219	13346.65
791.552	13336.03
791.884	13222.59
792.217	13188.47
792.549	13182.37
792.882	13096.49
793.214	13018.98
793.546	12970.17
793.879	13027.12
794.211	12911.64
794.543	12883.62
794.875	12899.21
795.207	12872.77
795.539	12786.44
795.871	12813.56
796.203	12708.71
796.535	12690.85
796.867	12626.45
797.198	12586.67
797.53	12548.48
797.862	12533.79
798.193	12501.25
798.525	12448.37
798.856	12446.79
799.188	12356.4
799.519	12293.12
799.85	12225.78
800.182	12308.94
800.513	12211.77
800.844	12108.5
801.175	12110.3
801.506	12175.84
801.837	12075.95
802.168	12046.35
802.499	11965.45
802.83	11891.78
803.161	11874.83
803.491	11828.05
803.822	11884.32
804.153	11785.11
804.483	11741.73
804.814	11689.3
805.145	11587.15
805.475	11626.47
805.805	11633.03
806.136	11608.62
806.466	11589.64
806.796	11506.48
807.126	11518.91
807.457	11500.38
807.787	11468.74
808.117	11398.01
808.447	11341.96
808.777	11306.26
809.107	11319.59
809.436	11265.58
809.766	11266.03
810.096	11205.92
810.426	11211.34
810.755	11150.1
811.085	11103.78
811.414	11130.44
811.744	11047.05
812.073	10960.5
812.403	10994.63
812.732	10945.36
813.061	11000.28
813.39	10910.33
813.719	10930.22
814.049	10911.01
814.378	10902.65
814.707	10829.88
815.036	10788.76
815.365	10762.99
815.693	10685.26
816.022	10661.75
816.351	10620.17
816.68	10517.35
817.008	10664.24
817.337	10528.88
817.665	10514.19
817.994	10502.66
818.322	10554.41
818.651	10511.48
818.979	10414.75
819.307	10492.04
819.636	10390.12
819.964	10293.18
820.292	10377.24
820.62	10391.48
820.948	10365.26
821.276	10349.45
821.604	10436.45
821.932	10399.84
822.259	10371.59
822.587	10317.13
822.915	10336.11
823.243	10335.21
823.57	10265.15
823.898	10345.38
824.225	10252.27
824.553	10295.44
824.88	10327.07
825.207	10347.64
825.535	10334.08
825.862	10270.13
826.189	10253.63
826.516	10349.67
826.843	10343.12
827.17	10281.42
827.497	10283.23
827.824	10326.17
828.151	10354.42
828.478	10327.75
828.805	10314.64
829.131	10274.87
829.458	10302.67
829.785	10228.54
830.111	10244.82
830.438	10300.63
830.764	10239.39
831.09	10273.06
831.417	10239.62
831.743	10315.77
832.069	10213.4
832.395	10222.22
832.722	10297.02
833.048	10156.23
833.374	10227.19
833.7	10219.73
834.026	10189.45
834.351	10140.64
834.677	10200.07
835.003	10215.66
835.329	10185.38
835.654	10152.84
835.98	10125.27
836.306	10071.71
836.631	10075.55
836.956	10133.41
837.282	10019.96
837.607	10050.24
837.932	10010.7
838.258	10047.08
838.583	10041.88
838.908	9966.4
839.233	9971.38
839.558	9921.89
839.883	9908.33
840.208	9867.65
840.533	9784.26
840.858	9867.88
841.182	9856.8
841.507	9824.26
841.832	9823.81
842.156	9796.47
842.481	9761.66
842.805	9765.51
843.13	9781.1
843.454	9691.84
843.778	9673.08
844.103	9660.88
844.427	9635.79
844.751	9699.74
845.075	9580.65
845.399	9587.21
845.723	9592.4
846.047	9497.72
846.371	9441.45
846.695	9367.78
847.019	9379.53
847.343	9342.01
847.666	9255.69
847.99	9265.18
848.313	9210.72
848.637	9190.61
848.96	9132.75
849.284	9155.8
849.607	9094.79
849.931	9098.63
850.254	8977.96
850.577	9028.35
850.9	8920.33
851.223	8875.81
851.546	8792.65
851.869	8795.81
852.192	8842.14
852.515	8815.93
852.838	8722.82
853.161	8727.79
853.483	8656.83
853.806	8668.81
854.129	8645.99
854.451	8571.64
854.774	8569.38
855.096	8555.37
855.419	8496.39
855.741	8538.19
856.063	8466.33
856.385	8460.23
856.708	8462.72
857.03	8363.96
857.352	8337.29
857.674	8375.49
857.996	8264.98
858.318	8281.93
858.64	8282.61
858.961	8240.12
859.283	8265.43
859.605	8188.6
859.926	8220.24
860.248	8151.31
860.57	8113.35
860.891	8132.1
861.212	8137.75
861.534	8165.55
861.855	8137.3
862.176	8019.11
862.498	8056.62
862.819	8078.54
863.14	8041.94
863.461	7997.19
863.782	7969.17
864.103	7974.37
864.424	7945.67
864.745	7942.95
865.065	7946.57
865.386	7892.56
865.707	7939.57
866.027	7908.15
866.348	7908.83
866.668	7921.71
866.989	7887.82
867.309	7838.32
867.63	7843.3
867.95	7857.53
868.27	7779.8
868.59	7791.32
868.91	7765.11
869.23	7802.62
869.55	7685.79
869.87	7737.31
870.19	7695.05
870.51	7737.99
870.83	7712.9
871.15	7716.29
871.469	7709.74
871.789	7721.04
872.109	7649.86
872.428	7585.68
872.748	7578.9
873.067	7582.29
873.386	7649.63
873.706	7608.73
874.025	7533.02
874.344	7512.23
874.663	7526.02
874.982	7532.12
875.301	7507.49
875.62	7528.5
875.939	7547.26
876.258	7442.86
876.577	7506.13
876.896	7464.55
877.214	7422.74
877.533	7426.58
877.852	7358.56
878.17	7340.94
878.489	7402.63
878.807	7376.19
879.125	7363.08
879.444	7384.1
879.762	7332.12
880.08	7382.74
880.398	7273.82
880.716	7322.86
881.034	7240.15
881.352	7320.15
881.67	7274.95
881.988	7286.25
882.306	7247.61
882.624	7214.61
882.941	7177.55
883.259	7177.78
883.577	7156.76
883.894	7164.22
884.212	7148.63
884.529	7094.62
884.846	7137.78
885.164	7073.37
885.481	7038.12
885.798	7053.03
886.115	7020.49
886.432	7072.92
886.75	7053.71
887.067	7030.21
887.383	6981.17
887.7	6935.3
888.017	6902.76
888.334	6954.73
888.651	6965.81
888.967	6878.12
889.284	6868.86
889.6	6817.33
889.917	6777.11
890.233	6747.28
890.55	6758.81
890.866	6829.54
891.182	6780.73
891.498	6760.39
891.815	6765.81
892.131	6693.04
892.447	6688.3
892.763	6665.93
893.079	6615.98
893.395	6648.53
893.71	6632.03
894.026	6632.93
894.342	6580.28
894.657	6537.34
894.973	6547.29
895.289	6534.4
895.604	6494.63
895.92	6483.78
896.235	6419.38
896.55	6421.87
896.865	6400.62
897.181	6398.59
897.496	6444.92
897.811	6348.87
898.126	6333.51
898.441	6350.45
898.756	6292.83
899.071	6280.63
899.386	6260.51
899.7	6221.87
900.015	6133.06
900.33	6129.22
900.644	6182.1
900.959	6158.37
901.273	6095.77
901.588	6096.9
901.902	6015.1
902.216	6062.1
902.531	6060.29
902.845	6082.44
903.159	5950.47
903.473	5941.2
903.787	5976
904.101	5939.84
904.415	5967.41
904.729	5917.47
905.042	5863.46
905.356	5868.43
905.67	5863.01
905.984	5789.79
906.297	5815.1
906.611	5766.29
906.924	5733.97
907.237	5715.89
907.551	5712.51
907.864	5682.22
908.177	5671.83
908.491	5700.98
908.804	5623.92
909.117	5628.21
909.43	5576.92
909.743	5554.77
910.056	5515
910.368	5490.82
910.681	5473.19
910.994	5460.53
911.307	5471.61
911.619	5413.53
911.932	5456.24
912.244	5378.95
912.557	5356.58
912.869	5383.47
913.181	5333.76
913.494	5372.18
913.806	5241.78
914.118	5245.85
914.43	5246.98
914.742	5238.17
915.054	5224.16
915.366	5228.22
915.678	5145.29
915.99	5135.57
916.302	5122.46
916.613	5096.48
916.925	5065.52
917.236	5044.27
917.548	5000.43
917.859	5035.23
918.171	4999.08
918.482	4994.33
918.794	4955.24
919.105	5003.82
919.416	4925.63
919.727	4864.62
920.038	4915.69
920.349	4883.37
920.66	4875.69
920.971	4830.04
921.282	4834.79
921.593	4829.36
921.903	4743.04
922.214	4759.54
922.525	4740.1
922.835	4753.89
923.146	4714.11
923.456	4708.24
923.767	4663.95
924.077	4654
924.387	4594.12
924.697	4616.94
925.008	4556.83
925.318	4555.7
925.628	4555.93
925.938	4527.23
926.248	4532.88
926.558	4542.59
926.867	4443.39
927.177	4442.26
927.487	4437.74
927.796	4422.37
928.106	4403.39
928.416	4397.51
928.725	4366.33
929.034	4344.18
929.344	4340.11
929.653	4321.36
929.962	4318.42
930.271	4287.68
930.581	4267.57
930.89	4266.22
931.199	4257.85
931.508	4183.51
931.817	4211.08
932.125	4210.62
932.434	4162.72
932.743	4135.82
933.051	4094.24
933.36	4077.07
933.669	4080.68
933.977	4096.95
934.286	4057.86
934.594	4040.46
934.902	3975.15
935.21	3984.19
935.519	3971.53
935.827	4002.72
936.135	3934.47
936.443	3893.12
936.751	3921.82
937.059	3916.85
937.367	3862.16
937.674	3907.58
937.982	3868.94
938.29	3805.21
938.597	3836.4
938.905	3801.82
939.213	3771.31
939.52	3754.82
939.827	3743.07
940.135	3723.18
940.442	3733.8
940.749	3727.47
941.056	3720.92
941.363	3647.93
941.67	3648.15
941.977	3657.87
942.284	3628.27
942.591	3620.81
942.898	3592.33
943.205	3593.01
943.511	3566.12
943.818	3581.49
944.125	3510.76
944.431	3544.2
944.738	3516.86
945.044	3467.59
945.35	3529.74
945.657	3474.15
945.963	3445.9
946.269	3476.41
946.575	3448.16
946.881	3405
947.187	3387.37
947.493	3381.04
947.799	3353.25
948.105	3370.42
948.41	3359.35
948.716	3358.89
949.022	3288.39
949.327	3283.42
949.633	3280.93
949.938	3307.6
950.244	3288.61
950.549	3259.69
950.854	3268.73
951.16	3227.37
951.465	3214.49
951.77	3219.24
952.075	3224.43
952.38	3188.05
952.685	3173.81
952.99	3162.06
953.294	3162.29
953.599	3113.48
953.904	3088.39
954.209	3082.29
954.513	3099.92
954.818	3086.36
955.122	3051.78
955.426	3021.28
955.731	3018.56
956.035	3033.71
956.339	3045.68
956.643	3030.77
956.948	2981.5
957.252	2975.4
957.556	2972.24
957.86	2957.1
958.163	2945.12
958.467	2920.04
958.771	2942.18
959.075	2918.23
959.378	2857.21
959.682	2888.17
959.985	2864.22
960.289	2858.12
960.592	2847.5
960.896	2820.38
961.199	2800.49
961.502	2824.22
961.805	2810.21
962.108	2760.72
962.411	2794.16
962.714	2782.41
963.017	2762.53
963.32	2721.85
963.623	2703.54
963.926	2703.09
964.228	2677.78
964.531	2702.87
964.833	2674.84
965.136	2642.53
965.438	2675.75
965.741	2634.85
966.043	2636.43
966.345	2632.59
966.648	2619.93
966.95	2588.52
967.252	2572.7
967.554	2579.03
967.856	2563.44
968.158	2534.51
968.46	2570.67
968.761	2545.13
969.063	2525.47
969.365	2486.15
969.666	2468.3
969.968	2486.83
970.269	2476.21
970.571	2504.23
970.872	2468.52
971.174	2430.56
971.475	2406.15
971.776	2486.83
972.077	2426.26
972.378	2422.87
972.679	2424.68
972.98	2388.52
973.281	2409.09
973.582	2381.97
973.883	2374.06
974.183	2369.09
974.484	2387.17
974.785	2339.26
975.085	2337
975.386	2338.81
975.686	2291.13
975.986	2312.37
976.287	2282.09
976.587	2292.26
976.887	2278.92
977.187	2271.92
977.487	2264.69
977.787	2233.73
978.087	2225.14
978.387	2254.29
978.687	2214.07
978.987	2213.84
979.286	2172.49
979.586	2208.19
979.885	2184.24
980.185	2170.23
980.484	2151.92
980.784	2169.77
981.083	2131.36
981.382	2135.65
981.682	2147.85
981.981	2118.02
982.28	2093.84
982.579	2079.38
982.878	2111.47
983.177	2061.75
983.475	2053.84
983.774	2046.84
984.073	2043.9
984.372	2040.74
984.67	2039.16
984.969	2033.51
985.267	2047.74
985.566	2014.52
985.864	2007.29
986.162	2010.91
986.461	1996.22
986.759	2026.73
987.057	1975.43
987.355	1935.43
987.653	1964.81
987.951	1953.96
988.249	1968.2
988.547	1950.57
988.844	1912.15
989.142	1914.41
989.44	1912.61
989.737	1880.74
990.035	1894.53
990.332	1903.34
990.63	1876
990.927	1865.83
991.224	1849.56
991.521	1857.24
991.819	1848.43
992.116	1838.03
992.413	1816.56
992.71	1806.39
993.006	1824.47
993.303	1821.08
993.6	1795.09
993.897	1778.82
994.193	1811.14
994.49	1798.26
994.787	1779.73
995.083	1763
995.379	1753.97
995.676	1734.76
995.972	1728.43
996.268	1732.72
996.565	1712.61
996.861	1692.05
997.157	1707.86
997.453	1684.36
997.749	1691.82
998.044	1701.99
998.34	1647.3
998.636	1646.4
998.932	1638.49
999.227	1619.51
999.523	1628.09
999.818	1641.2
1000.114	1579.73
1000.409	1600.07
1000.704	1575.21
1001	1596.91
1001.295	1590.13
1001.59	1603.91
1001.885	1578.83
1002.18	1582.67
1002.475	1576.79
1002.77	1548.55
1003.065	1537.25
1003.359	1548.77
1003.654	1541.77
1003.949	1507.19
1004.243	1523.01
1004.538	1504.25
1004.832	1472.62
1005.127	1501.77
1005.421	1497.7
1005.715	1484.14
1006.009	1447.53
1006.304	1464.93
1006.598	1464.93
1006.892	1448.66
1007.186	1450.02
1007.48	1422
1007.773	1394.88
1008.067	1431.71
1008.361	1401.66
1008.655	1394.2
1008.948	1396.69
1009.242	1404.82
1009.535	1380.64
1009.829	1368.66
1010.122	1388.1
1010.415	1382.9
1010.708	1335.22
1011.001	1344.71
1011.295	1310.59
1011.588	1349.68
1011.881	1321.43
1012.173	1304.26
1012.466	1298.61
1012.759	1301.55
1013.052	1297.03
1013.344	1284.82
1013.637	1289.12
1013.93	1272.85
1014.222	1295.9
1014.514	1265.39
1014.807	1248.44
1015.099	1245.5
1015.391	1245.96
1015.683	1240.76
1015.976	1225.84
1016.268	1221.32
1016.56	1192.4
1016.851	1193.75
1017.143	1194.21
1017.435	1192.4
1017.727	1175.22
1018.018	1192.4
1018.31	1160.08
1018.602	1210.48
1018.893	1155.34
1019.185	1161.66
1019.476	1145.85
1019.767	1110.37
1020.058	1147.43
1020.35	1106.3
1020.641	1123.02
1020.932	1116.69
1021.223	1115.11
1021.514	1104.49
1021.804	1092.06
1022.095	1086.19
1022.386	1062.01
1022.677	1075.56
1022.967	1074.89
1023.258	1062.23
1023.548	1054.55
1023.839	1069.46
1024.129	1019.75
1024.419	1043.7
1024.709	1029.01
1025	1022.46
1025.29	1021.56
1025.58	1005.51
1025.87	1017.04
1026.16	1016.81
1026.449	1015.91
1026.739	992.86
1027.029	984.95
1027.319	972.29
1027.608	979.75
1027.898	955.57
1028.187	983.82
1028.477	942.91
1028.766	956.92
1029.055	935
1029.344	933.42
1029.634	940.43
1029.923	918.73
1030.212	937.04
1030.501	942.01
1030.79	908.11
1031.078	892.52
1031.367	879.64
1031.656	892.29
1031.945	904.04
1032.233	857.94
1032.522	864.95
1032.81	876.02
1033.099	863.14
1033.387	895.68
1033.675	862.24
1033.963	852.07
1034.251	836.25
1034.54	850.94
1034.828	840.99
1035.116	826.76
1035.403	835.8
1035.691	812.75
1035.979	824.72
1036.267	825.85
1036.554	835.8
1036.842	820.2
1037.129	819.75
1037.417	810.26
1037.704	788.79
1037.992	793.31
1038.279	794.89
1038.566	784.73
1038.853	784.73
1039.14	784.73
