Data from breadboard_white_FLMS001491_00095.txt Node
Date: Wed Feb 08 10:48:33 GMT 2017
User: dcchb
Spectrometer: FLMS00149
Trigger mode: 0
Integration Time (sec): 2.000000E-2
Scans to average: 10
Electric dark correction enabled: true
Nonlinearity correction enabled: false
Boxcar width: 0
XAxis mode: Wavelengths
Number of Pixels in Spectrum: 2048
>>>>>Begin Spectral Data<<<<<
341.393	-0.78
341.776	-0.78
342.16	-0.78
342.543	-68.57
342.927	-81.45
343.31	-72.19
343.693	-67.89
344.077	-69.48
344.46	-68.57
344.843	-45.75
345.226	-37.84
345.61	-31.06
345.993	-27.89
346.376	-1
346.759	16.4
347.142	5.32
347.525	37.19
347.908	62.5
348.291	79.67
348.674	93.68
349.057	126.9
349.44	124.19
349.823	144.08
350.206	164.64
350.588	192.89
350.971	224.98
351.354	252.32
351.737	252.32
352.119	267.69
352.502	271.31
352.884	277.41
353.267	269.72
353.65	286.9
354.032	315.37
354.414	289.39
354.797	316.05
355.179	323.96
355.562	320.12
355.944	346.33
356.326	330.74
356.709	324.64
357.091	338.42
357.473	351.3
357.855	345.43
358.238	366.22
358.62	370.29
359.002	361.93
359.384	363.28
359.766	327.58
360.148	349.04
360.53	347.24
360.912	350.63
361.294	350.85
361.676	345.43
362.057	340.91
362.439	351.53
362.821	344.07
363.203	352.21
363.584	354.24
363.966	330.29
364.348	324.41
364.729	341.14
365.111	337.97
365.493	338.2
365.874	321.02
366.256	328.93
366.637	314.24
367.019	318.08
367.4	351.3
367.781	353.56
368.163	308.82
368.544	343.62
368.925	346.78
369.306	346.11
369.688	350.17
370.069	325.77
370.45	334.58
370.831	328.25
371.212	335.71
371.593	330.29
371.974	342.94
372.355	343.62
372.736	351.3
373.117	325.32
373.498	331.19
373.879	355.37
374.26	352.66
374.641	345.2
375.021	342.49
375.402	338.2
375.783	338.2
376.163	362.38
376.544	352.66
376.925	342.94
377.305	350.63
377.686	358.99
378.066	363.06
378.447	369.38
378.827	360.34
379.208	373
379.588	378.2
379.968	381.59
380.349	382.04
380.729	359.44
381.109	372.55
381.489	384.52
381.87	387.01
382.25	374.13
382.63	384.75
383.01	389.04
383.39	387.01
383.77	398.53
384.15	390.63
384.53	398.08
384.91	389.5
385.29	416.39
385.67	403.05
386.049	413.9
386.429	402.83
386.809	391.08
387.189	407.57
387.568	421.13
387.948	428.59
388.328	417.52
388.707	442.38
389.087	433.11
389.466	455.48
389.846	418.2
390.225	442.38
390.605	446.67
390.984	448.93
391.363	447.12
391.743	486.44
392.122	481.02
392.501	448.48
392.881	479.21
393.26	476.72
393.639	482.6
394.018	500.68
394.397	495.71
394.776	526.44
395.155	518.53
395.534	513.33
395.913	529.38
396.292	537.74
396.671	540.45
397.05	563.05
397.429	544.52
397.808	558.53
398.186	544.75
398.565	567.8
398.944	570.06
399.323	568.02
399.701	570.96
400.08	601.92
400.458	591.07
400.837	595.14
401.215	612.31
401.594	623.39
401.972	621.13
402.351	631.07
402.729	674.23
403.107	664.74
403.486	679.43
403.864	686.89
404.242	686.66
404.62	701.58
404.999	714.91
405.377	694.35
405.755	745.19
406.133	745.64
406.511	756.72
406.889	778.86
407.267	791.52
407.645	795.59
408.023	816.6
408.401	813.21
408.779	831.07
409.156	852.99
409.534	853.66
409.912	869.26
410.29	901.8
410.667	915.36
411.045	916.71
411.422	930.27
411.8	947.67
412.178	977.95
412.555	1014.34
412.933	986.54
413.31	1048.91
413.687	1044.85
414.065	1083.94
414.442	1057.05
414.819	1077.84
415.197	1099.31
415.574	1135.46
415.951	1142.47
416.328	1166.2
416.705	1177.72
417.082	1191.06
417.46	1230.83
417.837	1220.89
418.214	1246.65
418.591	1254.11
418.967	1282.81
419.344	1297.49
419.721	1305.18
420.098	1318.96
420.475	1340.66
420.852	1353.99
421.228	1373.42
421.605	1381.11
421.982	1377.72
422.358	1398.96
422.735	1463.37
423.111	1444.83
423.488	1476.47
423.864	1474.44
424.241	1518.05
424.617	1494.1
424.994	1538.17
425.37	1575.23
425.746	1553.76
426.123	1609.58
426.499	1591.72
426.875	1629.91
427.251	1631.04
427.627	1685.51
428.003	1705.17
428.379	1725.05
428.756	1699.52
429.132	1753.53
429.507	1780.87
429.883	1789.01
430.259	1847.31
430.635	1878.04
431.011	1920.3
431.387	1942.22
431.763	1958.04
432.138	1961.66
432.514	2044.14
432.89	2028.77
433.265	2046.85
433.641	2083.69
434.016	2114.2
434.392	2159.39
434.767	2211.59
435.143	2191.26
435.518	2214.31
435.894	2246.4
436.269	2296.56
436.644	2337.01
437.02	2354.19
437.395	2341.53
437.77	2405.49
438.145	2401.19
438.52	2441.64
438.895	2468.99
439.271	2457.46
439.646	2549.44
440.021	2568.87
440.395	2533.85
440.77	2547.86
441.145	2582.21
441.52	2653.16
441.895	2698.36
442.27	2678.7
442.645	2679.15
443.019	2716.21
443.394	2697.01
443.769	2759.38
444.143	2711.69
444.518	2816.1
444.892	2778.36
445.267	2832.14
445.641	2861.97
446.016	2847.06
446.39	2882.09
446.764	2891.35
447.139	2929.77
447.513	2955.98
447.887	2967.28
448.262	2958.02
448.636	3017.67
449.01	3049.99
449.384	3084.34
449.758	3120.27
450.132	3134.28
450.506	3183.32
450.88	3172.47
451.254	3219.48
451.628	3238.46
452.002	3280.49
452.376	3309.64
452.75	3359.13
453.123	3377.89
453.497	3428.29
453.871	3484.78
454.244	3564.55
454.618	3535.4
454.992	3566.81
455.365	3607.04
455.739	3722.06
456.112	3772.01
456.486	3770.88
456.859	3862.62
457.232	3839.8
457.606	3885.22
457.979	3960.93
458.352	3989.63
458.725	4052.68
459.099	4090.42
459.472	4166.35
459.845	4194.59
460.218	4228.49
460.591	4310.52
460.964	4303.97
461.337	4415.38
461.71	4486.79
462.083	4544.87
462.456	4579.67
462.829	4581.02
463.201	4689.27
463.574	4727.46
463.947	4760.45
464.32	4863.05
464.692	4867.8
465.065	4928.13
465.438	5032.99
465.81	5109.37
466.183	5191.86
466.555	5228.01
466.928	5295.81
467.3	5254.23
467.672	5366.99
468.045	5478.18
468.417	5561.11
468.789	5647.66
469.161	5706.87
469.534	5769.47
469.906	5930.14
470.278	5976.24
470.65	5986.41
471.022	6125.62
471.394	6174.88
471.766	6260.53
472.138	6383.01
472.51	6512.5
472.882	6611.48
473.253	6716.56
473.625	6747.29
473.997	6978.93
474.369	6960.85
474.74	7072.48
475.112	7215.76
475.484	7306.83
475.855	7441.29
476.227	7499.59
476.598	7704.11
476.97	7840.15
477.341	7981.61
477.713	8101.38
478.084	8199.46
478.455	8343.18
478.827	8443.97
479.198	8723.06
479.569	8705.43
479.94	9009.61
480.311	9031.3
480.682	9255.7
481.053	9399.2
481.424	9633.55
481.795	9642.36
482.166	9822.47
482.537	9995.34
482.908	10153.98
483.279	10276.69
483.65	10484.37
484.021	10683.01
484.391	10767.08
484.762	10948.31
485.133	11040.29
485.503	11254.52
485.874	11491.12
486.244	11490.67
486.615	11785.81
486.985	11976.08
487.356	12161.62
487.726	12256.98
488.097	12533.58
488.467	12526.13
488.837	12812.9
489.207	13010.63
489.578	13111.65
489.948	13263.96
490.318	13464.63
490.688	13592.99
491.058	13717.96
491.428	13928.57
491.798	14063.26
492.168	14354.55
492.538	14489.46
492.908	14585.05
493.278	14810.59
493.648	14779.85
494.017	15103.68
494.387	15206.05
494.757	15326.28
495.126	15467.52
495.496	15564.01
495.866	15733.05
496.235	15849.65
496.605	16020.5
496.974	16155.41
497.344	16188.63
497.713	16399.24
498.082	16565.79
498.452	16754.49
498.821	16760.59
499.19	16816.86
499.559	17019.79
499.928	17212.78
500.298	17265.21
500.667	17559.67
501.036	17496.16
501.405	17635.14
501.774	17709.49
502.143	17858.64
502.512	18015.7
502.88	18186.54
503.249	18163.04
503.618	18380.43
503.987	18422.47
504.356	18583.14
504.724	18624.95
505.093	18688.45
505.462	18945.84
505.83	19022.68
506.199	19149.23
506.567	19514.87
506.936	19378.6
507.304	19604.13
507.672	19810.45
508.041	19913.28
508.409	20012.03
508.777	20249.54
509.145	20284.57
509.514	20332.7
509.882	20673.93
510.25	20634.84
510.618	20901.95
510.986	20929.75
511.354	21196.86
511.722	21250.42
512.09	21555.94
512.458	21463.97
512.826	21782.38
513.193	21915.03
513.561	21971.07
513.929	22117.29
514.297	22417.16
514.664	22551.17
515.032	22677.95
515.4	22864.16
515.767	23037.94
516.135	23166.3
516.502	23011.5
516.869	23416.46
517.237	23575.1
517.604	23561.54
517.972	23714.08
518.339	24052.15
518.706	24090.79
519.073	24223.9
519.44	24508.86
519.808	24680.38
520.175	24814.84
520.542	25181.61
520.909	25268.84
521.276	25320.14
521.643	25639
522.009	25845.1
522.376	25914.7
522.743	26234.01
523.11	26375.03
523.477	26716.03
523.843	26812.76
524.21	27105.4
524.577	27165.74
524.943	27371.61
525.31	27570.48
525.676	27763.69
526.043	28015.66
526.409	28212.27
526.776	28398.25
527.142	28498.59
527.508	28710.33
527.874	29037.1
528.241	29230.09
528.607	29241.84
528.973	29628.95
529.339	29711.21
529.705	29988.27
530.071	30174.47
530.437	30303.06
530.803	30440.46
531.169	30567.91
531.535	30635.93
531.901	30818.3
532.267	30975.81
532.632	31253.32
532.998	31432.07
533.364	31475.23
533.73	31461.67
534.095	31865.73
534.461	31998.61
534.826	32200.18
535.192	32165.61
535.557	32539.61
535.923	32345.04
536.288	32580.06
536.653	32815.76
537.019	32817.8
537.384	33001.75
537.749	33189.31
538.114	33210.78
538.479	33250.78
538.845	33471.79
539.21	33571.67
539.575	33692.35
539.94	33749.97
540.305	33987.93
540.67	33998.1
541.034	34139.12
541.399	34316.29
541.764	34313.12
542.129	34531.2
542.494	34537.3
542.858	34611.87
543.223	34815.48
543.587	35064.74
543.952	35045.53
544.316	35227.45
544.681	35263.61
545.045	35272.19
545.41	35450.72
545.774	35643.48
546.138	35732.52
546.503	35777.94
546.867	35733.2
547.231	36057.94
547.595	36266.52
547.959	36389.68
548.324	36314.43
548.688	36452.05
549.052	36647.53
549.416	36731.36
549.779	36904.69
550.143	36941.53
550.507	37130.68
550.871	37182.65
551.235	37319.15
551.599	37626.48
551.962	37615.41
552.326	37798.91
552.689	38035.06
553.053	37894.72
553.417	37995.74
553.78	38442.51
554.143	38244.55
554.507	38614.03
554.87	38741.71
555.234	39043.85
555.597	38942.15
555.96	39047.69
556.323	39345.53
556.686	39206.78
557.05	39560.22
557.413	39819.65
557.776	39827.78
558.139	40031.62
558.502	40088.56
558.865	40207.21
559.228	40592.51
559.59	40609.45
559.953	40829.79
560.316	41121.31
560.679	41212.83
561.041	41418.02
561.404	41548.41
561.767	41825.92
562.129	41554.06
562.492	42083.77
562.854	42079.7
563.217	42293.7
563.579	42342.29
563.941	42585.45
564.304	42867.7
564.666	42956.74
565.028	43085.32
565.39	43235.83
565.753	43511.07
566.115	43580.68
566.477	43794.91
566.839	43825.42
567.201	44060.21
567.563	44061.79
567.925	44450.94
568.287	44437.15
568.648	44693.42
569.01	44745.17
569.372	45076.68
569.734	44938.15
570.095	45205.49
570.457	45432.15
570.819	45459.27
571.18	45380.63
571.542	45681.86
571.903	45824.68
572.265	46003.21
572.626	46035.07
572.987	46107.62
573.349	46205.01
573.71	46318.01
574.071	46456.98
574.432	46716.86
574.794	46834.15
575.155	46835.73
575.516	46739.69
575.877	46987.59
576.238	46962.28
576.599	47136.97
576.96	47121.37
577.32	47165.21
577.681	47306.45
578.042	47313.23
578.403	47349.84
578.763	47393.01
579.124	47427.58
579.485	47700.57
579.845	47734.01
580.206	47749.38
580.566	47566.33
580.927	47761.81
581.287	47898.98
581.648	47723.39
582.008	47913.22
582.368	47903.5
582.728	48047.45
583.089	47990.96
583.449	47788.25
583.809	47960.9
584.169	48077.28
584.529	47895.59
584.889	48267.56
585.249	47932.2
585.609	47938.53
585.969	48154.34
586.329	47987.11
586.688	48156.15
587.048	48101.69
587.408	47854.91
587.768	48027.79
588.127	47896.49
588.487	47808.36
588.846	48148.01
589.206	48044.74
589.565	48114.12
589.925	48253.55
590.284	48100.78
590.643	48176.71
591.003	48234.11
591.362	48442.92
591.721	48315.69
592.08	48385.52
592.44	48431.4
592.799	48458.51
593.158	48264.39
593.517	48262.13
593.876	48411.51
594.235	48317.05
594.593	48270.04
594.952	48505.07
595.311	48189.14
595.67	48354.79
596.029	48564.95
596.387	48589.81
596.746	48587.1
597.104	48571.28
597.463	48519.08
597.822	48776.7
598.18	48549.59
598.538	48471.62
598.897	48729.02
599.255	48365.64
599.613	49053.75
599.972	48705.51
600.33	48818.73
600.688	48594.78
601.046	48734.89
601.404	48983.7
601.762	48797.71
602.12	48974.21
602.478	49029.8
602.836	48947.31
603.194	48858.73
603.552	49022.57
603.91	48943.92
604.268	49120.19
604.625	48923.81
604.983	49120.87
605.341	48978.27
605.698	49204.26
606.056	49151.15
606.413	49236.57
606.771	49338.94
607.128	49325.16
607.485	49114.09
607.843	49199.96
608.2	49457.36
608.557	49545.94
608.914	49334.65
609.272	49597.69
609.629	49688.54
609.986	49732.6
610.343	49539.39
610.7	49750.91
611.057	49674.3
611.414	49664.58
611.771	49699.61
612.127	49845.14
612.484	49912.94
612.841	49963.11
613.198	49811.47
613.554	49857.8
613.911	50108.41
614.267	50171.46
614.624	50040.62
614.98	50078.13
615.337	50263.89
615.693	50141.63
616.05	50183.67
616.406	50397.9
616.762	50347.05
617.118	50181.41
617.475	50238.35
617.831	50441.74
618.187	50448.29
618.543	50454.62
618.899	50575.29
619.255	50519.25
619.611	50487.39
619.967	50597.89
620.323	50658.68
620.678	50554.05
621.034	50571
621.39	50579.36
621.746	50426.82
622.101	50906.81
622.457	50481.51
622.812	50651.68
623.168	50726.93
623.523	50632.02
623.879	50690.32
624.234	50621.17
624.589	50711.56
624.945	50719.02
625.3	50705.46
625.655	50624.33
626.01	50715.18
626.365	50684.9
626.72	50602.19
627.075	50630.43
627.43	50728.28
627.785	50549.53
628.14	50580.94
628.495	50744.1
628.85	50566.93
629.205	50536.2
629.559	50709.3
629.914	50361.06
630.269	50439.93
630.623	50352.25
630.978	50266.6
631.332	50565.35
631.687	50543.88
632.041	50427.05
632.396	50441.51
632.75	50260.05
633.104	50329.2
633.459	50164.91
633.813	50212.59
634.167	50180.95
634.521	50074.06
634.875	50086.49
635.229	50078.13
635.583	50040.39
635.937	49862.32
636.291	49893.73
636.645	49855.09
636.999	49700.29
637.352	49802.43
637.706	49634.98
638.06	49782.55
638.413	49716.11
638.767	49503.23
639.121	49581.65
639.474	49362.22
639.828	49501.88
640.181	49415.55
640.534	49406.96
640.888	49253.97
641.241	49163.35
641.594	49274.09
641.947	49366.29
642.301	49155.67
642.654	49058.5
643.007	49189.34
643.36	49076.8
643.713	48966.75
644.066	49176.46
644.419	48978.05
644.771	48767.21
645.124	48481.79
645.477	48427.1
645.83	48084.06
646.182	47835.93
646.535	47767.91
646.888	47680.68
647.24	47558.42
647.593	47771.3
647.945	47646.78
648.298	47465.77
648.65	47434.81
649.002	47380.35
649.355	47352.33
649.707	47376.06
650.059	47404.76
650.411	47883.39
650.763	48087
651.115	48402.92
651.467	48204.28
651.819	48166.54
652.171	47979.43
652.523	48113.21
652.875	47923.16
653.227	47838.19
653.578	48112.31
653.93	47970.17
654.282	47790.06
654.633	47657.18
654.985	47753.67
655.337	47703.73
655.688	47832.77
656.039	47847.68
656.391	47593
656.742	47720.45
657.094	47619.89
657.445	47685.88
657.796	47632.1
658.147	47463.51
658.498	47427.81
658.849	47398.65
659.2	47413.8
659.551	47368.6
659.902	47503.28
660.253	47546.9
660.604	47324.08
660.955	47279.34
661.306	47426.45
661.656	47307.13
662.007	47335.38
662.358	47370.41
662.708	47308.04
663.059	47261.03
663.409	46992.79
663.76	47332.89
664.11	47148.94
664.461	47097.65
664.811	47231.65
665.161	47070.53
665.511	47042.05
665.862	47115.5
666.212	47207.25
666.562	47131.09
666.912	47067.59
667.262	46946.92
667.612	47156.4
667.962	47075.5
668.312	46943.53
668.662	47105.78
669.011	47055.61
669.361	46864.43
669.711	47045.9
670.06	46963.19
670.41	46853.36
670.76	46717.54
671.109	46938.1
671.459	46862.85
671.808	46771.1
672.157	46690.2
672.507	46551.45
672.856	46588.73
673.205	46698.79
673.554	46793.25
673.904	46504.22
674.253	46794.6
674.602	46645.45
674.951	45905.59
675.3	45639.38
675.649	46336.99
675.998	46345.58
676.346	46385.12
676.695	46456.98
677.044	46198.46
677.393	46335.18
677.741	46284.11
678.09	46142.64
678.438	46064.45
678.787	46016.54
679.135	46234.17
679.484	45871.92
679.832	45999.82
680.181	45768.19
680.529	45918.02
680.877	45794.4
681.225	45726.61
681.573	45976.09
681.922	45751.92
682.27	45620.85
682.618	45520.74
682.966	45481.64
683.314	45539.27
683.661	45301.53
684.009	45141.77
684.357	45193.52
684.705	45169.56
685.053	45169.11
685.4	44937.7
685.748	44742
686.095	44795.56
686.443	44679.4
686.79	44458.62
687.138	44688.44
687.485	44681.21
687.832	44466.53
688.18	44549.69
688.527	44313.09
688.874	44291.62
689.221	44037.84
689.568	43991.96
689.915	43915.58
690.262	43921.68
690.609	43711.29
690.956	43659.54
691.303	43614.12
691.65	43476.72
691.997	43361.92
692.344	43242.15
692.69	43107.24
693.037	43102.04
693.383	42867.47
693.73	42931.43
694.077	42689.63
694.423	42566.01
694.769	42453.02
695.116	42386.13
695.462	42423.87
695.808	42385.23
696.155	42354.72
696.501	42002.41
696.847	42174.39
697.193	41778.01
697.539	41913.38
697.885	41653.04
698.231	41499.37
698.577	41525.81
698.923	41402.88
699.269	41217.8
699.614	40974.42
699.96	41050.57
700.306	41024.59
700.651	40914.98
700.997	40689
701.342	40638.38
701.688	40582.56
702.033	40482.45
702.379	40398.61
702.724	40421.21
703.069	40527.88
703.415	39931.51
703.76	39816.03
704.105	39964.73
704.45	39791.17
704.795	39608.35
705.14	39532.87
705.485	39416.04
705.83	39350.96
706.175	39346.44
706.52	39166.55
706.865	39006.79
707.209	39153.22
707.554	38948.26
707.899	38874.13
708.243	38894.02
708.588	38628.04
708.932	38394.6
709.277	38521.15
709.621	38367.25
709.966	38200.7
710.31	38263.3
710.654	37782.18
710.998	38026.25
711.342	37980.37
711.687	37735.41
712.031	37765.46
712.375	37590.1
712.719	37564.34
713.063	37342.65
713.407	37609.99
713.75	37407.51
714.094	37400.5
714.438	37176.55
714.782	37167.51
715.125	37012.26
715.469	37115.08
715.812	36930.23
716.156	36703.79
716.499	36686.85
716.843	36750.57
717.186	36474.42
717.53	36630.35
717.873	36778.82
718.216	36408.21
718.559	36412.5
718.902	36154.43
719.246	36197.14
719.589	36215.9
719.932	35956.7
720.275	35897.94
720.617	35967.54
720.96	35919.41
721.303	35910.37
721.646	35815
721.989	35627.44
722.331	35766.64
722.674	35641.45
723.016	35571.4
723.359	35421.79
723.701	35412.53
724.044	35070.39
724.386	35024.29
724.729	35199.65
725.071	35090.05
725.413	35033.33
725.755	35088.02
726.097	34873.11
726.439	34771.19
726.782	34591.99
727.124	34845.54
727.465	34704.3
727.807	34560.35
728.149	34392.9
728.491	34364.42
728.833	34575.49
729.175	34438.09
729.516	34302.28
729.858	34250.75
730.199	34383.18
730.541	34227.25
730.882	34271.99
731.224	34092.79
731.565	33893.93
731.906	33914.72
732.248	33994.49
732.589	33712.69
732.93	33730.99
733.271	33815.96
733.612	33698.9
733.953	33587.27
734.294	33611.45
734.635	33364.45
734.976	33409.64
735.317	33467.04
735.658	33403.54
735.999	33262.76
736.339	33180.72
736.68	33221.17
737.021	33095.75
737.361	32964.23
737.702	33065.02
738.042	33040.84
738.383	32853.73
738.723	32916.32
739.063	32792.03
739.404	32961.07
739.744	32732.37
740.084	32565.82
740.424	32750.45
740.764	32519.72
741.104	32633.39
741.444	32405.83
741.784	32371.71
742.124	32393.17
742.464	32276.57
742.804	32180.98
743.143	32174.2
743.483	32205.16
743.823	31911.15
744.162	31904.37
744.502	32022.34
744.841	31746.86
745.181	31957.7
745.52	31821.66
745.86	31870.93
746.199	31566.53
746.538	31643.59
746.877	31741.21
747.216	31707.54
747.556	31503.93
747.895	31513.2
748.234	31413.09
748.573	31291.96
748.911	31296.93
749.25	31325.41
749.589	31049.71
749.928	31159.76
750.267	31185.97
750.605	31148.69
750.944	30966.32
751.283	30819.43
751.621	30890.84
751.96	30834.12
752.298	30709.83
752.636	30629.6
752.975	30444.3
753.313	30324.3
753.651	30432.77
753.989	30259.44
754.327	30301.93
754.666	30019.9
755.004	29963.41
755.342	30181.48
755.679	29933.8
756.017	29673.25
756.355	30040.92
756.693	29735.16
757.031	29794.37
757.368	29629.18
757.706	29549.18
758.044	29428.73
758.381	29462.63
758.719	29305.8
759.056	29326.36
759.394	29146.48
759.731	29041.62
760.068	28999.82
760.405	28917.78
760.743	28761.18
761.08	28881.18
761.417	28810.44
761.754	28698.13
762.091	28534.97
762.428	28419.49
762.765	28176.11
763.102	28406.16
763.438	28099.5
763.775	28132.95
764.112	28015.66
764.449	27935.89
764.785	27852.28
765.122	27641.43
765.458	27603.7
765.795	27562.79
766.131	27541.1
766.467	27329.13
766.804	27277.15
767.14	27122.13
767.476	27086.42
767.812	26962.36
768.148	27082.8
768.485	26876.26
768.821	26685.98
769.157	26679.2
769.492	26654.12
769.828	26511.29
770.164	26388.36
770.5	26207.12
770.836	26169.61
771.171	26080.8
771.507	26040.8
771.842	25848.26
772.178	25886.23
772.513	25738.89
772.849	25665.67
773.184	25566.01
773.519	25570.75
773.855	25344.09
774.19	25425.22
774.525	25124.21
774.86	25124.66
775.195	25082.86
775.53	25004.44
775.865	24838.57
776.2	24702.75
776.535	24446.26
776.87	24426.15
777.205	24477.22
777.539	24329.88
777.874	24307.51
778.209	24148.42
778.543	24065.03
778.878	23989.33
779.212	23959.5
779.547	23833.17
779.881	23872.27
780.215	23655.78
780.55	23733.74
780.884	23604.25
781.218	23501.88
781.552	23476.57
781.886	23336.24
782.22	23146.64
782.554	23176.92
782.888	22783.48
783.222	22856.7
783.556	22711.17
783.889	22645.63
784.223	22549.59
784.557	22532.19
784.89	22498.97
785.224	22331.29
785.557	22262.59
785.891	22182.82
786.224	22102.37
786.558	22132.2
786.891	21961.36
787.224	21809.5
787.557	21802.72
787.891	21827.58
788.224	21818.08
788.557	21693.12
788.89	21616.06
789.223	21581.71
789.556	21380.58
789.888	21262.62
790.221	21281.15
790.554	21151.21
790.887	20939.69
791.219	21014.94
791.552	20917.09
791.884	20789.41
792.217	20823.08
792.549	20722.07
792.882	20525.69
793.214	20559.59
793.546	20570.43
793.879	20371.12
794.211	20323.43
794.543	20280.95
794.875	20267.39
795.207	20330.67
795.539	20030.11
795.871	20043.44
796.203	19861.53
796.535	19842.09
796.867	19833.28
797.198	19706.05
797.53	19776.56
797.862	19586.5
798.193	19631.7
798.525	19413.63
798.856	19483.23
799.188	19307.19
799.519	19272.84
799.85	19064.03
800.182	19071.72
800.513	19081.43
800.844	18864.26
801.175	19064.71
801.506	18971.38
801.837	18850.25
802.168	18773.87
802.499	18621.33
802.83	18636.7
803.161	18537.94
803.491	18550.83
803.822	18631.28
804.153	18433.31
804.483	18343.83
804.814	18300.44
805.145	18272.42
805.475	18300.21
805.805	18057.73
806.136	18156.94
806.466	18088.47
806.796	18076.49
807.126	17888.02
807.457	17997.17
807.787	17848.25
808.117	17815.48
808.447	17779.55
808.777	17765.99
809.107	17724.18
809.436	17628.14
809.766	17599.66
810.096	17595.6
810.426	17434.92
810.755	17522.15
811.085	17358.54
811.414	17351.99
811.744	17237.87
812.073	17312.89
812.403	17254.14
812.732	17124.65
813.061	17192.22
813.39	17048.72
813.719	17004.88
814.049	17104.31
814.378	17089.62
814.707	16846.01
815.036	16912
815.365	16892.79
815.693	16685.34
816.022	16609.63
816.351	16666.13
816.68	16481.73
817.008	16514.27
817.337	16431.33
817.665	16399.7
817.994	16419.58
818.322	16388.4
818.651	16356.31
818.979	16262.07
819.307	16361.96
819.636	16163.77
819.964	16088.29
820.292	16162.19
820.62	16124.45
820.948	16131
821.276	16186.82
821.604	16058.46
821.932	16035.86
822.259	16086.48
822.587	16010.55
822.915	15937.79
823.243	16024.34
823.57	15936.43
823.898	15943.21
824.225	15985.92
824.553	15892.14
824.88	15946.37
825.207	16058.91
825.535	16021.63
825.862	15949.76
826.189	15939.14
826.516	16038.58
826.843	15957
827.17	15940.05
827.497	16060.95
827.824	16004.45
828.151	16044
828.478	16048.52
828.805	16066.37
829.131	15889.88
829.458	15901.86
829.785	15842.65
830.111	15858.47
830.438	15919.71
830.764	15905.02
831.09	15940.72
831.417	15785.25
831.743	15891.01
832.069	15928.07
832.395	15806.27
832.722	15884.46
833.048	15828.41
833.374	15786.6
833.7	15739.83
834.026	15758.13
834.351	15815.08
834.677	15783.67
835.003	15765.36
835.329	15722.43
835.654	15662.99
835.98	15676.78
836.306	15663.22
836.631	15537.8
836.956	15600.85
837.282	15692.37
837.607	15499.38
837.932	15517.69
838.258	15524.92
838.583	15463.22
838.908	15421.87
839.233	15516.33
839.558	15411.25
839.883	15308.65
840.208	15282.89
840.533	15260.74
840.858	15281.31
841.182	15290.12
841.507	15283.57
841.832	15155.66
842.156	15105.94
842.481	15068.88
842.805	14997.47
843.13	15000.18
843.454	14949.56
843.778	14905.72
844.103	14809
844.427	14842.22
844.751	14820.3
845.075	14743.02
845.399	14703.02
845.723	14669.8
846.047	14680.19
846.371	14540.99
846.695	14559.52
847.019	14314.78
847.343	14439.07
847.666	14265.29
847.99	14248.79
848.313	14310.49
848.637	14109.59
848.96	14239.07
849.284	14130.83
849.607	13969.25
849.931	13853.1
850.254	13848.58
850.577	13768.58
850.9	13678.64
851.223	13650.62
851.546	13640.45
851.869	13504.18
852.192	13595.48
852.515	13535.82
852.838	13394.8
853.161	13440.45
853.483	13270.29
853.806	13289.95
854.129	13249.5
854.451	13211.98
854.774	13122.27
855.096	13077.07
855.419	13079.11
855.741	13022.61
856.063	12963.85
856.385	12924.08
856.708	12830.98
857.03	12845.67
857.352	12822.84
857.674	12784.65
857.996	12762.96
858.318	12609.74
858.64	12711.66
858.961	12545.56
859.283	12658.1
859.605	12526.8
859.926	12552.79
860.248	12515.73
860.57	12416.07
860.891	12448.84
861.212	12386.69
861.534	12305.57
861.855	12356.19
862.176	12363.19
862.498	12259.92
862.819	12219.92
863.14	12217.66
863.461	12250.88
863.782	12174.5
864.103	12169.3
864.424	12095.4
864.745	12080.26
865.065	11998.68
865.386	12005.24
865.707	12004.33
866.027	12101.73
866.348	11976.99
866.668	11965.24
866.989	11938.12
867.309	11802.08
867.63	11882.07
867.95	11904.22
868.27	11834.84
868.59	11798.69
868.91	11730.67
869.23	11692.25
869.55	11685.02
869.87	11721.4
870.19	11706.71
870.51	11707.16
870.83	11699.71
871.15	11625.81
871.469	11609.09
871.789	11626.49
872.109	11567.28
872.428	11473.27
872.748	11605.47
873.067	11523.21
873.386	11500.39
873.706	11508.53
874.025	11456.78
874.344	11440.5
874.663	11374.97
874.982	11377.23
875.301	11317.8
875.62	11286.16
875.939	11263.79
876.258	11297.46
876.577	11261.75
876.896	11287.97
877.214	11237.57
877.533	11177.91
877.852	11244.8
878.17	11278.7
878.489	11216.33
878.807	11180.62
879.125	11120.74
879.444	11155.54
879.762	11178.59
880.08	11115.32
880.398	11053.62
880.716	11067.86
881.034	11034.19
881.352	11078.25
881.67	10981.53
881.988	11050.01
882.306	11007.3
882.624	10880.74
882.941	10830.8
883.259	10836.23
883.577	10776.11
883.894	10812.95
884.212	10766.85
884.529	10757.81
884.846	10734.31
885.164	10678.94
885.481	10683.91
885.798	10709.22
886.115	10638.04
886.432	10620.41
886.75	10607.31
887.067	10656.34
887.383	10498.83
887.7	10508.55
888.017	10496.12
888.334	10485.73
888.651	10418.16
888.967	10434.88
889.284	10407.31
889.6	10341.32
889.917	10198.05
890.233	10272.85
890.55	10236.24
890.866	10170.71
891.182	10172.97
891.498	10153.08
891.815	10060.2
892.131	10088.45
892.447	10034.67
892.763	9997.15
893.079	10044.16
893.395	9978.17
893.71	9961
894.026	9956.48
894.342	9900.66
894.657	9854.33
894.973	9790.6
895.289	9812.07
895.604	9803.94
895.92	9751.28
896.235	9656.82
896.55	9726.65
896.865	9649.36
897.181	9637.39
897.496	9621.12
897.811	9525.75
898.126	9504.28
898.441	9465.41
898.756	9408.24
899.071	9402.14
899.386	9364.63
899.7	9327.34
900.015	9307.68
900.33	9244.4
900.644	9250.73
900.959	9268.36
901.273	9238.75
901.588	9147.68
901.902	9131.41
902.216	9068.14
902.531	9127.57
902.845	9089.83
903.159	8955.82
903.473	8880.12
903.787	8847.8
904.101	8808.71
904.415	8831.53
904.729	8841.02
905.042	8752.89
905.356	8737.98
905.67	8745.43
905.984	8697.98
906.297	8647.36
906.611	8565.1
906.924	8595.83
907.237	8592.67
907.551	8482.16
907.864	8478.77
908.177	8389.51
908.491	8398.32
908.804	8364.88
909.117	8362.85
909.43	8320.36
909.743	8326.91
910.056	8226.35
910.368	8159.91
910.681	8130.99
910.994	8108.84
911.307	8145.45
911.619	8071.55
911.932	8070.42
912.244	7954.95
912.557	8029.29
912.869	7864.33
913.181	7970.09
913.494	7884.89
913.806	7907.04
914.118	7852.35
914.43	7784.78
914.742	7788.17
915.054	7705.24
915.366	7632.47
915.678	7678.34
915.99	7592.02
916.302	7579.59
916.613	7539.59
916.925	7517.9
917.236	7449.2
917.548	7426.37
917.859	7367.84
918.171	7387.28
918.482	7374.4
918.794	7366.49
919.105	7283.1
919.416	7255.08
919.727	7218.24
920.038	7219.82
920.349	7137.11
920.66	7144.8
920.971	7111.8
921.282	7082.43
921.593	7057.79
921.903	6987.06
922.214	6996.78
922.525	6956.1
922.835	6959.49
923.146	6840.4
923.456	6883.34
923.767	6822.77
924.077	6814.86
924.387	6714.07
924.697	6769.44
925.008	6730.57
925.318	6695.32
925.628	6698.03
925.938	6641.31
926.248	6600.41
926.558	6564.25
926.867	6516.79
927.177	6513.63
927.487	6493.97
927.796	6437.7
928.106	6468.88
928.416	6414.87
928.725	6365.84
929.034	6359.73
929.344	6345.5
929.653	6361.32
929.962	6276.35
930.271	6260.53
930.581	6226.4
930.89	6218.72
931.199	6139.63
931.508	6178.72
931.817	6247.65
932.125	6108.44
932.434	6107.31
932.743	6015.79
933.051	5999.74
933.36	6002.91
933.669	5997.26
933.977	5939.18
934.286	5952.96
934.594	5900.76
934.902	5892.63
935.21	5861.44
935.519	5917.49
935.827	5798.84
936.135	5760.43
936.443	5666.19
936.751	5685.4
937.059	5670.26
937.367	5632.97
937.674	5643.82
937.982	5625.29
938.29	5566.53
938.597	5594.78
938.905	5516.14
939.213	5509.36
939.52	5528.8
939.827	5527.21
940.135	5468.23
940.442	5403.15
940.749	5428.46
941.056	5440.44
941.363	5305.3
941.67	5335.81
941.977	5282.25
942.284	5303.26
942.591	5261.91
942.898	5250.61
943.205	5243.61
943.511	5190.27
943.818	5189.6
944.125	5097.39
944.431	5140.1
944.738	5120.44
945.044	5096.26
945.35	5029.6
945.657	5046.77
945.963	5037.28
946.269	5016.72
946.575	4987.11
946.881	4937.17
947.187	4983.27
947.493	4919.32
947.799	4912.54
948.105	4878.64
948.41	4804.29
948.716	4825.54
949.022	4836.16
949.327	4819.89
949.633	4779.44
949.938	4767.69
950.244	4752.09
950.549	4724.75
950.854	4713.22
951.16	4697.63
951.465	4646.11
951.77	4635.94
952.075	4598.88
952.38	4621.25
952.685	4556.84
952.99	4528.82
953.294	4513.68
953.599	4522.04
953.904	4469.84
954.209	4486.11
954.513	4464.64
954.818	4432.1
955.122	4422.16
955.426	4386.45
955.731	4357.3
956.035	4351.65
956.339	4322.05
956.643	4321.37
956.948	4264.65
957.252	4270.52
957.556	4286.12
957.86	4233.24
958.163	4252.44
958.467	4198.66
958.771	4229.62
959.075	4194.14
959.378	4171.09
959.682	4141.71
959.985	4080.7
960.289	4059.91
960.592	4038.44
960.896	4088.83
961.199	4060.81
961.502	4050.19
961.805	3986.46
962.108	3956.41
962.411	3947.59
962.714	3906.69
963.017	3937.65
963.32	3956.18
963.623	3903.3
963.926	3897.65
964.228	3884.09
964.531	3850.42
964.833	3809.97
965.136	3788.5
965.438	3771.1
965.741	3764.77
966.043	3761.61
966.345	3735.62
966.648	3776.98
966.95	3739.46
967.252	3726.58
967.554	3661.27
967.856	3627.38
968.158	3586.25
968.46	3602.74
968.761	3624.21
969.063	3615.17
969.365	3581.5
969.666	3599.58
969.968	3559.58
970.269	3528.62
970.571	3505.57
970.872	3519.58
971.174	3522.07
971.475	3527.94
971.776	3491.56
972.077	3449.53
972.378	3446.14
972.679	3456.76
972.98	3392.58
973.281	3402.75
973.582	3377.89
973.883	3381.06
974.183	3383.31
974.484	3308.29
974.785	3313.94
975.085	3311.68
975.386	3290.66
975.686	3253.15
975.986	3252.24
976.287	3234.84
976.587	3207.5
976.887	3200.72
977.187	3183.09
977.487	3164.79
977.787	3173.83
978.087	3188.74
978.387	3156.88
978.687	3103.77
978.987	3094.51
979.286	3104
979.586	3100.84
979.885	3089.99
980.185	3067.17
980.484	3050.89
980.784	3035.75
981.083	3050.67
981.382	3017.45
981.682	2988.52
981.981	2977
982.28	2957.79
982.579	2919.82
982.878	2949.65
983.177	2932.25
983.475	2926.83
983.774	2870.56
984.073	2864.68
984.372	2857
984.67	2882.76
984.969	2813.16
985.267	2817.91
985.566	2786.95
985.864	2785.82
986.162	2837.57
986.461	2793.05
986.759	2752.6
987.057	2745.37
987.355	2741.07
987.653	2746.27
987.951	2739.72
988.249	2705.14
988.547	2717.57
988.844	2686.84
989.142	2662.43
989.44	2666.72
989.737	2674.41
990.035	2634.18
990.332	2616.78
990.63	2582.66
990.927	2620.62
991.224	2610.45
991.521	2595.09
991.819	2523.9
992.116	2534.52
992.413	2542.89
992.71	2576.33
993.006	2510.8
993.303	2517.58
993.6	2530.91
993.897	2493.39
994.193	2492.49
994.49	2492.72
994.787	2449.33
995.083	2438.93
995.379	2436.45
995.676	2389.22
995.972	2376.56
996.268	2376.56
996.565	2344.92
996.861	2372.04
997.157	2347.41
997.453	2354.19
997.749	2345.6
998.044	2307.86
998.34	2344.7
998.636	2259.28
998.932	2269.45
999.227	2285.49
999.523	2259.05
999.818	2228.09
1000.114	2238.71
1000.409	2201.65
1000.704	2194.42
1001	2187.19
1001.295	2181.31
1001.59	2184.02
1001.885	2180.86
1002.18	2155.32
1002.475	2115.1
1002.77	2095.89
1003.065	2101.09
1003.359	2128.21
1003.654	2104.48
1003.949	2057.93
1004.243	2072.39
1004.538	2029.9
1004.832	2035.55
1005.127	2037.81
1005.421	2019.28
1005.715	2006.18
1006.009	1988.32
1006.304	1990.58
1006.598	1984.26
1006.892	1946.52
1007.186	1942.67
1007.48	1938.38
1007.773	1909.91
1008.067	1941.09
1008.361	1885.95
1008.655	1874.43
1008.948	1868.1
1009.242	1863.35
1009.535	1852.06
1009.829	1863.35
1010.122	1819.51
1010.415	1844.6
1010.708	1815.22
1011.001	1804.15
1011.295	1800.76
1011.588	1799.4
1011.881	1749.69
1012.173	1772.96
1012.466	1756.01
1012.759	1760.98
1013.052	1725.73
1013.344	1777.71
1013.637	1710.59
1013.93	1721.66
1014.222	1735.45
1014.514	1696.35
1014.807	1706.97
1015.099	1663.81
1015.391	1629.91
1015.683	1656.35
1015.976	1664.72
1016.268	1649.35
1016.56	1628.33
1016.851	1597.83
1017.143	1623.59
1017.435	1600.76
1017.727	1566.41
1018.018	1565.96
1018.31	1559.41
1018.602	1513.31
1018.893	1570.48
1019.185	1517.6
1019.476	1517.38
1019.767	1508.56
1020.058	1534.55
1020.35	1475.57
1020.641	1500.65
1020.932	1469.92
1021.223	1477.6
1021.514	1445.96
1021.804	1432.63
1022.095	1448.45
1022.386	1433.08
1022.677	1439.41
1022.967	1440.32
1023.258	1400.54
1023.548	1387.44
1023.839	1389.7
1024.129	1389.47
1024.419	1359.19
1024.709	1359.64
1025	1345.18
1025.29	1342.24
1025.58	1317.61
1025.87	1307.89
1026.16	1318.74
1026.449	1316.25
1026.739	1320.77
1027.029	1320.77
1027.319	1282.13
1027.608	1266.08
1027.898	1244.16
1028.187	1214.11
1028.477	1216.37
1028.766	1225.41
1029.055	1223.82
1029.344	1221.11
1029.634	1205.75
1029.923	1203.03
1030.212	1203.49
1030.501	1205.52
1030.79	1201
1031.078	1161.68
1031.367	1152.87
1031.656	1156.25
1031.945	1155.12
1032.233	1146.31
1032.522	1122.58
1032.81	1129.81
1033.099	1109.7
1033.387	1109.7
1033.675	1085.3
1033.963	1110.83
1034.251	1099.31
1034.54	1105.63
1034.828	1099.53
1035.116	1070.38
1035.403	1043.26
1035.691	1051.85
1035.979	1062.7
1036.267	1045.3
1036.554	1036.26
1036.842	1030.61
1037.129	1025.18
1037.417	1018.86
1037.704	1015.69
1037.992	996.49
1038.279	1008.46
1038.566	962.81
1038.853	962.81
1039.14	962.81
