Data from breadboard_white_FLMS001491_00038.txt Node
Date: Wed Feb 08 10:47:39 GMT 2017
User: dcchb
Spectrometer: FLMS00149
Trigger mode: 0
Integration Time (sec): 2.000000E-2
Scans to average: 10
Electric dark correction enabled: true
Nonlinearity correction enabled: false
Boxcar width: 0
XAxis mode: Wavelengths
Number of Pixels in Spectrum: 2048
>>>>>Begin Spectral Data<<<<<
341.393	3.35
341.776	3.35
342.16	3.35
342.543	-52.92
342.927	-69.87
343.31	-35.52
343.693	-59.02
344.077	-89.98
344.46	-61.28
344.843	-66.93
345.226	-34.39
345.61	-29.19
345.993	-7.73
346.376	-2.98
346.759	6.51
347.142	7.19
347.525	42.22
347.908	72.27
348.291	78.83
348.674	83.35
349.057	96.68
349.44	112.5
349.823	145.94
350.206	176.68
350.588	208.54
350.971	222.32
351.354	246.73
351.737	224.13
352.119	272.49
352.502	245.37
352.884	262.32
353.267	280.63
353.65	303
354.032	304.81
354.414	308.88
354.797	320.85
355.179	321.98
355.562	354.52
355.944	328.76
356.326	326.73
356.709	342.1
357.091	328.31
357.473	333.28
357.855	347.07
358.238	342.55
358.62	362.66
359.002	346.62
359.384	361.76
359.766	366.28
360.148	371.02
360.53	359.5
360.912	341.87
361.294	319.05
361.676	344.13
362.057	328.08
362.439	333.73
362.821	345.26
363.203	343.45
363.584	341.87
363.966	343.23
364.348	341.19
364.729	330.34
365.111	328.08
365.493	332.38
365.874	331.7
366.256	343.23
366.637	325.82
367.019	313.4
367.4	327.86
367.781	321.76
368.163	332.83
368.544	310.23
368.925	346.84
369.306	316.11
369.688	322.89
370.069	304.81
370.45	329.89
370.831	326.73
371.212	330.8
371.593	319.72
371.974	326.05
372.355	328.08
372.736	322.89
373.117	317.69
373.498	314.07
373.879	337.58
374.26	337.8
374.641	332.15
375.021	344.36
375.402	337.58
375.783	357.24
376.163	345.49
376.544	355.43
376.925	358.14
377.305	333.06
377.686	353.62
378.066	360.85
378.447	339.61
378.827	333.96
379.208	373.28
379.588	363.79
379.968	352.94
380.349	343.45
380.729	365.37
381.109	372.6
381.489	355.2
381.87	371.25
382.25	364.69
382.63	356.56
383.01	374.86
383.39	365.82
383.77	380.06
384.15	385.48
384.53	416.67
384.91	382.32
385.29	406.95
385.67	398.59
386.049	386.61
386.429	393.39
386.809	412.15
387.189	397.24
387.568	418.48
387.948	407.63
388.328	410.12
388.707	436.78
389.087	441.98
389.466	404.47
389.846	434.97
390.225	448.99
390.605	422.55
390.984	423.22
391.363	435.43
391.743	447.86
392.122	436.78
392.501	448.76
392.881	482.2
393.26	447.18
393.639	474.07
394.018	463.45
394.397	480.4
394.776	465.71
395.155	491.47
395.534	495.31
395.913	503
396.292	500.96
396.671	525.59
397.05	503.9
397.429	522.66
397.808	527.85
398.186	533.95
398.565	545.48
398.944	532.15
399.323	558.36
399.701	553.39
400.08	572.37
400.458	582.32
400.837	586.61
401.215	594.07
401.594	627.06
401.972	626.61
402.351	611.02
402.729	625.93
403.107	629.09
403.486	636.55
403.864	654.63
404.242	681.07
404.62	659.6
404.999	709.32
405.377	696.21
405.755	690.33
406.133	720.62
406.511	726.72
406.889	747.96
407.267	755.64
407.645	762.65
408.023	808.98
408.401	770.33
408.779	803.78
409.156	837
409.534	843.55
409.912	867.96
410.29	883.55
410.667	882.65
411.045	902.08
411.422	914.28
411.8	944.11
412.178	947.73
412.555	982.3
412.933	981.4
413.31	988.18
413.687	1006.03
414.065	1039.25
414.442	1054.17
414.819	1078.35
415.197	1089.65
415.574	1093.71
415.951	1135.3
416.328	1135.97
416.705	1171.45
417.082	1178.01
417.46	1164.9
417.837	1203.77
418.214	1227.72
418.591	1228.63
418.967	1254.16
419.344	1260.49
419.721	1245.35
420.098	1267.49
420.475	1296.42
420.852	1295.29
421.228	1333.71
421.605	1358.11
421.982	1365.35
422.358	1384.55
422.735	1357.89
423.111	1389.53
423.488	1455.74
423.864	1401.95
424.241	1449.64
424.617	1493.25
424.994	1499.81
425.37	1485.12
425.746	1499.35
426.123	1534.38
426.499	1548.62
426.875	1587.03
427.251	1592.23
427.627	1616.19
428.003	1636.3
428.379	1665.9
428.756	1703.42
429.132	1703.42
429.507	1743.19
429.883	1755.39
430.259	1782.28
430.635	1793.36
431.011	1843.07
431.387	1832.23
431.763	1857.54
432.138	1918.55
432.514	1921.49
432.89	1921.94
433.265	1999.45
433.641	1994.48
434.016	2036.97
434.392	2080.35
434.767	2157.19
435.143	2114.93
435.518	2144.76
435.894	2187.02
436.269	2168.26
436.644	2198.54
437.02	2273.12
437.395	2252.1
437.77	2279.9
438.145	2329.61
438.52	2329.39
438.895	2377.97
439.271	2375.71
439.646	2433.34
440.021	2468.82
440.395	2488.71
440.77	2432.44
441.145	2485.32
441.52	2523.96
441.895	2535.03
442.27	2554.92
442.645	2581.36
443.019	2627.01
443.394	2593.79
443.769	2648.02
444.143	2638.31
444.518	2712.88
444.892	2672.2
445.267	2668.36
445.641	2696.84
446.016	2737.74
446.39	2748.59
446.764	2762.6
447.139	2797.4
447.513	2788.81
447.887	2847.11
448.262	2878.3
448.636	2891.86
449.01	2931.18
449.384	2946.32
449.758	2953.33
450.132	3021.12
450.506	2963.72
450.88	3022.93
451.254	2986.09
451.628	3053.21
452.002	3122.14
452.376	3115.13
452.75	3142.02
453.123	3248.23
453.497	3224.73
453.871	3269.02
454.244	3338.85
454.618	3396.48
454.992	3401.9
455.365	3393.99
455.739	3496.14
456.112	3536.36
456.486	3584.72
456.859	3627.21
457.232	3657.49
457.606	3658.17
457.979	3736.13
458.352	3775.45
458.725	3864.26
459.099	3878.95
459.472	3866.07
459.845	4002.34
460.218	4007.08
460.591	4025.61
460.964	4059.51
461.337	4127.08
461.71	4260.18
462.083	4273.52
462.456	4234.42
462.829	4362.1
463.201	4369.33
463.574	4474.19
463.947	4455.89
464.32	4605.94
464.692	4623.79
465.065	4670.8
465.438	4717.8
465.81	4803
466.183	4871.47
466.555	4930.22
466.928	4973.16
467.3	4974.06
467.672	5071.01
468.045	5224.23
468.417	5182.19
468.789	5273.27
469.161	5309.65
469.534	5361.62
469.906	5512.81
470.278	5565.01
470.65	5589.42
471.022	5722.75
471.394	5820.6
471.766	5893.14
472.138	5962.74
472.51	6063.53
472.882	6150.98
473.253	6215.39
473.625	6302.16
473.997	6467.13
474.369	6529.28
474.74	6506.68
475.112	6653.34
475.484	6855.14
475.855	6961.13
476.227	7028.93
476.598	7182.59
476.97	7286.09
477.341	7408.35
477.713	7507.33
478.084	7541.23
478.455	7825.51
478.827	7887.43
479.198	8062.57
479.569	8061.21
479.94	8316.8
480.311	8404.48
480.682	8604.03
481.053	8802.89
481.424	8879.5
481.795	8971.25
482.166	9202.88
482.537	9258.02
482.908	9466.83
483.279	9572.81
483.65	9692.58
484.021	9912.47
484.391	10055.51
484.762	10125.79
485.133	10194.27
485.503	10402.85
485.874	10593.13
486.244	10668.6
486.615	10871.76
486.985	11040.35
487.356	11163.51
487.726	11318.98
488.097	11507.68
488.467	11601.01
488.837	11764.85
489.207	11986.08
489.578	12166.19
489.948	12232.4
490.318	12405.28
490.688	12465.17
491.058	12682.56
491.428	12838.94
491.798	13008.88
492.168	13207.52
492.538	13291.59
492.908	13426.5
493.278	13638.92
493.648	13688.19
494.017	13835.3
494.387	13924.56
494.757	14066.48
495.126	14183.54
495.496	14299.02
495.866	14422.18
496.235	14573.81
496.605	14734.71
496.974	14837.08
497.344	14976.29
497.713	15041.37
498.082	15154.36
498.452	15387.12
498.821	15377.18
499.19	15493.11
499.559	15653.78
499.928	15756.61
500.298	15782.59
500.667	16041.12
501.036	15996.6
501.405	16200.21
501.774	16202.02
502.143	16395.91
502.512	16432.29
502.88	16703.47
503.249	16625.96
503.618	16754.32
503.987	16842.68
504.356	17002.45
504.724	17116.57
505.093	17192.05
505.462	17297.13
505.83	17411.48
506.199	17450.12
506.567	17874.06
506.936	17709.1
507.304	17952.48
507.672	17994.29
508.041	18208.29
508.409	18308.18
508.777	18402.41
509.145	18652.35
509.514	18622.07
509.882	18853.02
510.25	18899.8
510.618	19048.5
510.986	19095.05
511.354	19332.56
511.722	19453.91
512.09	19722.15
512.458	19676.5
512.826	19900.45
513.193	19997.85
513.561	20047.57
513.929	20198.75
514.297	20422.25
514.664	20485.29
515.032	20718.51
515.4	20829.69
515.767	20887.32
516.135	21083.25
516.502	20960.54
516.869	21475.33
517.237	21489.56
517.604	21485.95
517.972	21746.96
518.339	22026.95
518.706	21972.71
519.073	22128.64
519.44	22181.07
519.808	22527.05
520.175	22477.56
520.542	22836.65
520.909	22978.11
521.276	23102.4
521.643	23309.4
522.009	23392.11
522.376	23628.49
522.743	23706.45
523.11	24014.02
523.477	24164.75
523.843	24355.48
524.21	24644.06
524.577	24695.81
524.943	24911.17
525.31	25036.36
525.676	25265.28
526.043	25482.45
526.409	25577.36
526.776	25884.7
527.142	25920.63
527.508	26062.32
527.874	26272.71
528.241	26542.31
528.607	26560.16
528.973	26759.25
529.339	26858.91
529.705	27034.05
530.071	27173.71
530.437	27500.48
530.803	27602.85
531.169	27810.53
531.535	27819.34
531.901	27970.52
532.267	28108.82
532.632	28304.52
532.998	28340.46
533.364	28531.41
533.73	28527.8
534.095	28811.63
534.461	28869.93
534.826	29166.65
535.192	29165.29
535.557	29469.24
535.923	29273.31
536.288	29478.05
536.653	29655.68
537.019	29644.38
537.384	29804.82
537.749	30052.95
538.114	30108.32
538.479	30137.02
538.845	30316.45
539.21	30259.27
539.575	30514.86
539.94	30525.26
540.305	30785.81
540.67	30658.13
541.034	30814.51
541.399	30976.54
541.764	31094.96
542.129	31256.08
542.494	31135.18
542.858	31529.07
543.223	31404.33
543.587	31582.63
543.952	31612.46
544.316	31858.33
544.681	31827.37
545.045	31951.43
545.41	32235.72
545.774	32267.81
546.138	32228.26
546.503	32402.5
546.867	32447.69
547.231	32801.58
547.595	32723.39
547.959	32943.95
548.324	32730.17
548.688	33010.84
549.052	33159.54
549.416	33212.87
549.779	33265.98
550.143	33375.13
550.507	33608.34
550.871	33675.91
551.235	33740.31
551.599	33963.13
551.962	33972.4
552.326	34077.25
552.689	34295.55
553.053	34182.79
553.417	34264.14
553.78	34831.58
554.143	34592.95
554.507	34810.12
554.87	34991.81
555.234	35169.65
555.597	34998.59
555.96	35471.34
556.323	35521.96
556.686	35718.57
557.05	35851.9
557.413	35856.87
557.776	36071.78
558.139	36259.12
558.502	36414.14
558.865	36385.67
559.228	36708.82
559.59	36737.75
559.953	36839.89
560.316	37294.34
560.679	37273.55
561.041	37529.82
561.404	37532.98
561.767	37816.14
562.129	37742.69
562.492	38158.28
562.854	38042.8
563.217	38224.72
563.579	38323.7
563.941	38603.46
564.304	38694.08
564.666	38992.6
565.028	39028.76
565.39	39170.23
565.753	39498.58
566.115	39606.83
566.477	39744.22
566.839	39977.66
567.201	40193.48
567.563	40155.06
567.925	40381.49
568.287	40425.11
568.648	40445.45
569.01	40762.28
569.372	41032.33
569.734	40896.96
570.095	41169.27
570.457	41296.95
570.819	41357.51
571.18	41347.57
571.542	41622.59
571.903	41654
572.265	41701.01
572.626	41842.25
572.987	41888.35
573.349	42020.55
573.71	42310.71
574.071	42291.5
574.432	42485.85
574.794	42691.49
575.155	42680.19
575.516	42623.24
575.877	42811.04
576.238	42988.21
576.599	42991.82
576.96	43088.99
577.32	42964.25
577.681	43164.25
578.042	43257.13
578.403	43228.65
578.763	43179.61
579.124	43281.53
579.485	43520.62
579.845	43606.27
580.206	43526.72
580.566	43524.91
580.927	43584.8
581.287	43738.24
581.648	43587.51
582.008	43859.37
582.368	43747.06
582.728	43841.52
583.089	43896.43
583.449	43932.14
583.809	43798.13
584.169	43874.06
584.529	43776.89
584.889	44074.05
585.249	43766.72
585.609	43760.61
585.969	43972.81
586.329	43851.23
586.688	44057.33
587.048	43815.98
587.408	43857.56
587.768	43893.27
588.127	43991.57
588.487	43851.91
588.846	44124.45
589.206	43805.13
589.565	43970.33
589.925	44114.05
590.284	43940.95
590.643	43932.59
591.003	44238.12
591.362	44116.31
591.721	44116.09
592.08	44107.27
592.44	44115.41
592.799	44270.43
593.158	44088.29
593.517	44173.94
593.876	44193.82
594.235	43999.03
594.593	44328.74
594.952	44200.15
595.311	44081.28
595.67	44187.04
596.029	44420.03
596.387	44350.88
596.746	44543.87
597.104	44291.22
597.463	44306.36
597.822	44413.03
598.18	44246.03
598.538	44157.89
598.897	44443.08
599.255	44121.51
599.613	44852.34
599.972	44528.05
600.33	44632.23
600.688	44450.77
601.046	44573.93
601.404	44750.42
601.762	44838.55
602.12	44808.72
602.478	44826.35
602.836	44883.98
603.194	44665.68
603.552	44829.51
603.91	44744.09
604.268	44862.05
604.625	44592.68
604.983	44946.35
605.341	44761.72
605.698	44960.58
606.056	45043.52
606.413	44934.37
606.771	45113.35
607.128	45082.16
607.485	45012.56
607.843	45074.7
608.2	45329.61
608.557	45402.61
608.914	45262.04
609.272	45319.44
609.629	45385.2
609.986	45696.38
610.343	45441.25
610.7	45716.72
611.057	45649.38
611.414	45544.75
611.771	45629.49
612.127	45863.61
612.484	45815.48
612.841	45809.37
613.198	45721.92
613.554	45790.62
613.911	46005.3
614.267	45895.47
614.624	45849.37
614.98	45905.64
615.337	46169.82
615.693	46078.29
616.05	45965.75
616.406	46399.42
616.762	46171.4
617.118	46228.8
617.475	46283.03
617.831	46323.03
618.187	46292.53
618.543	46354.9
618.899	46497.49
619.255	46452.75
619.611	46391.73
619.967	46572.52
620.323	46548.11
620.678	46500.2
621.034	46386.08
621.39	46436.02
621.746	46246.88
622.101	46687.77
622.457	46370.94
622.812	46549.24
623.168	46624.49
623.523	46622.01
623.879	46649.35
624.234	46395.35
624.589	46665.62
624.945	46746.07
625.3	46638.73
625.655	46578.17
626.01	46641.67
626.365	46547.66
626.72	46626.75
627.075	46455.69
627.43	46408.68
627.785	46412.97
628.14	46589.69
628.495	46483.93
628.85	46621.1
629.205	46337.5
629.559	46520.32
629.914	46301.57
630.269	46296.82
630.623	46223.6
630.978	46055.92
631.332	46258.18
631.687	46218.4
632.041	46219.08
632.396	46234.67
632.75	46039.65
633.104	46165.07
633.459	45997.39
633.813	45964.62
634.167	45789.94
634.521	45950.84
634.875	45885.76
635.229	45778.19
635.583	45594.01
635.937	45629.94
636.291	45677.85
636.645	45586.1
636.999	45574.13
637.352	45667.01
637.706	45194.02
638.06	45531.19
638.413	45376.39
638.767	45193.8
639.121	45345.66
639.474	45028.38
639.828	45069.73
640.181	45048.49
640.534	45129.62
640.888	44991.77
641.241	44714.49
641.594	44869.06
641.947	44971.2
642.301	44849.63
642.654	44820.02
643.007	44768.27
643.36	44614.38
643.713	44626.81
644.066	44872.68
644.419	44509.07
644.771	44298.91
645.124	43903.21
645.477	43833.38
645.83	43662.31
646.182	43307.97
646.535	43270.68
646.888	43177.13
647.24	43086.96
647.593	43335.32
647.945	43190.23
648.298	42868.66
648.65	42878.38
649.002	42833.41
649.355	42879.73
649.707	42804.71
650.059	42968.09
650.411	43558.59
650.763	43580.05
651.115	43884.45
651.467	43655.76
651.819	43588.19
652.171	43304.36
652.523	43506.16
652.875	43538.47
653.227	43284.47
653.578	43604.23
653.93	43494.18
654.282	43194.08
654.633	43322.66
654.985	43262.32
655.337	43205.38
655.688	43175.09
656.039	43317.91
656.391	42943.69
656.742	43063.68
657.094	43037.92
657.445	43183.23
657.796	43027.3
658.147	43028.66
658.498	42900.52
658.849	43026.62
659.2	42841.99
659.551	42796.8
659.902	42968.32
660.253	42859.17
660.604	42892.16
660.955	42616.01
661.306	42769.68
661.656	42766.97
662.007	42728.1
662.358	42667.08
662.708	42626.41
663.059	42694.2
663.409	42400.2
663.76	42654.43
664.11	42732.62
664.461	42576.47
664.811	42546.64
665.161	42636.8
665.511	42515.9
665.862	42493.3
666.212	42565.62
666.562	42472.97
666.912	42325.85
667.262	42360.43
667.612	42342.57
667.962	42377.83
668.312	42360.65
668.662	42587.31
669.011	42318.62
669.361	42308.68
669.711	42266.19
670.06	42259.86
670.41	42286.08
670.76	42117.95
671.109	42288.56
671.459	42244.95
671.808	42071.85
672.157	42234.1
672.507	41874.56
672.856	41979.19
673.205	42042.92
673.554	42126.53
673.904	41863.72
674.253	42008.57
674.602	41961.34
674.951	41442.71
675.3	41169.04
675.649	41722.48
675.998	41654.46
676.346	41649.48
676.695	41849.48
677.044	41426.44
677.393	41663.49
677.741	41633.89
678.09	41458.08
678.438	41583.27
678.787	41327.23
679.135	41523.16
679.484	41341.47
679.832	41367.91
680.181	41121.59
680.529	41284.52
680.877	41061.7
681.225	41202.49
681.573	41288.36
681.922	40898.54
682.27	40838.21
682.618	40935.83
682.966	40688.15
683.314	40787.59
683.661	40656.52
684.009	40564.09
684.357	40412.23
684.705	40322.06
685.053	40356.64
685.4	40303.3
685.748	40205.23
686.095	40177.43
686.443	39897.21
686.79	40035.74
687.138	39943.54
687.485	40007.27
687.832	39772.02
688.18	39784
688.527	39635.53
688.874	39546.26
689.221	39548.75
689.568	39363.22
689.915	39301.75
690.262	39409.32
690.609	39264.91
690.956	39156.22
691.303	39038.25
691.65	38925.49
691.997	38797.58
692.344	38570.47
692.69	38626.96
693.037	38480.08
693.383	38140.88
693.73	38468.55
694.077	38242.12
694.423	38089.13
694.769	37857.04
695.116	37930.71
695.462	37873.76
695.808	37815.23
696.155	37885.06
696.501	37443.04
696.847	37569.14
697.193	37201.69
697.539	37390.84
697.885	37097.29
698.231	37022.71
698.577	37050.06
698.923	36994.47
699.269	36771.19
699.614	36530.97
699.96	36548.38
700.306	36562.16
700.651	36353.35
700.997	36123.75
701.342	36169.4
701.688	36026.13
702.033	35879.24
702.379	36017.77
702.724	35725.8
703.069	35816.87
703.415	35504.56
703.76	35434.73
704.105	35481.74
704.45	35310.67
704.795	35173.95
705.14	35069.32
705.485	35074.52
705.83	34893.28
706.175	34915.88
706.52	34828.87
706.865	34739.84
707.209	34634.98
707.554	34735.99
707.899	34764.69
708.243	34381.2
708.588	34245.38
708.932	34163.35
709.277	34151.6
709.621	34091.49
709.966	33901.89
710.31	33957.93
710.654	33650.37
710.998	33761.33
711.342	33693.31
711.687	33568.79
712.031	33560.88
712.375	33343.49
712.719	33426.88
713.063	33256.48
713.407	33381.45
713.75	33139.88
714.094	33139.88
714.438	33057.17
714.782	32956.83
715.125	32804.07
715.469	32888.36
715.812	32601.59
716.156	32556.39
716.499	32616.05
716.843	32525.43
717.186	32324.08
717.53	32553.23
717.873	32422.61
718.216	32432.33
718.559	32217.64
718.902	32067.82
719.246	31989.17
719.589	31971.55
719.932	31877.31
720.275	31910.76
720.617	31807.48
720.96	31897.2
721.303	31828.5
721.646	31754.38
721.989	31656.53
722.331	31649.97
722.674	31534.27
723.016	31428.74
723.359	31382.41
723.701	31398.68
724.044	31208.63
724.386	31125.92
724.729	31353.48
725.071	31152.81
725.413	31239.36
725.755	31068.52
726.097	30928.41
726.439	30785.36
726.782	30875.53
727.124	30896.32
727.465	30669.43
727.807	30679.38
728.149	30605.93
728.491	30626.27
728.833	30494.75
729.175	30321.42
729.516	30332.72
729.858	30376.79
730.199	30418.37
730.541	30357.35
730.882	30193.74
731.224	30320.74
731.565	30036
731.906	30048.89
732.248	30113.74
732.589	29838.27
732.93	29740.42
733.271	29774.54
733.612	29873.07
733.953	29734.77
734.294	29687.09
734.635	29729.12
734.976	29633.98
735.317	29569.58
735.658	29488
735.999	29532.74
736.339	29382.24
736.68	29436.02
737.021	29275.57
737.361	29312.86
737.702	29358.28
738.042	29317.6
738.383	29059.76
738.723	29149.7
739.063	28985.18
739.404	29073.09
739.744	28894.34
740.084	28731.86
740.424	28808.24
740.764	28852.08
741.104	28735.25
741.444	28674.91
741.784	28497.29
742.124	28646.89
742.464	28487.57
742.804	28400.79
743.143	28342.72
743.483	28294.13
743.823	28117.18
744.162	28290.06
744.502	28366.9
744.841	28098.65
745.181	28278.76
745.52	28115.6
745.86	28122.83
746.199	28081.03
746.538	28020.92
746.877	28065.66
747.216	28083.96
747.556	27886.23
747.895	27911.31
748.234	27808.49
748.573	27740.25
748.911	27580.93
749.25	27520.36
749.589	27491.21
749.928	27526.92
750.267	27508.84
750.605	27387.49
750.944	27317.43
751.283	27106.14
751.621	27182.07
751.96	27001.06
752.298	27014.61
752.636	26996.54
752.975	27025.91
753.313	26775.3
753.651	26871.12
753.989	26727.84
754.327	26674.06
754.666	26612.59
755.004	26576.66
755.342	26566.04
755.679	26523.1
756.017	26373.28
756.355	26432.93
756.693	26241.53
757.031	26224.58
757.368	26013.28
757.706	26052.61
758.044	25965.83
758.381	25986.17
758.719	25852.61
759.056	25862.33
759.394	25646.51
759.731	25596.12
760.068	25542.79
760.405	25472.96
760.743	25463.24
761.08	25397.71
761.417	25373.3
761.754	25240.2
762.091	25206.75
762.428	25023.93
762.765	24851.51
763.102	25022.8
763.438	24691.51
763.775	24722.92
764.112	24713.21
764.449	24640.89
764.785	24539.88
765.122	24476.83
765.458	24297.62
765.795	24352.09
766.131	24285.42
766.467	24071.87
766.804	24023.28
767.14	23866
767.476	23810.63
767.812	23796.17
768.148	23749.16
768.485	23605.89
768.821	23546.46
769.157	23439.34
769.492	23351.21
769.828	23346.91
770.164	23114.15
770.5	23083.42
770.836	23109.86
771.171	23038
771.507	22950.99
771.842	22722.3
772.178	22697.89
772.513	22621.51
772.849	22599.59
773.184	22494.28
773.519	22470.33
773.855	22264.68
774.19	22145.82
774.525	22202.09
774.86	22121.18
775.195	22216.32
775.53	22000.28
775.865	21762.78
776.2	21681.2
776.535	21591.25
776.87	21551.93
777.205	21473.29
777.539	21376.57
777.874	21448.89
778.209	21160.08
778.543	21117.14
778.878	20999.86
779.212	21026.3
779.547	20958.95
779.881	20958.28
780.215	20793.08
780.55	20926.41
780.884	20619.08
781.218	20675.35
781.552	20688.91
781.886	20457.72
782.22	20348.35
782.554	20221.12
782.888	20082.14
783.222	20136.15
783.556	19971.18
783.889	20047.11
784.223	19876.05
784.557	19867.68
784.89	19799.44
785.224	19753.34
785.557	19587.92
785.891	19571.19
786.224	19447.13
786.558	19442.84
786.891	19171.66
787.224	19262.5
787.557	19113.81
787.891	19038.33
788.224	19056.18
788.557	18957.2
788.89	19026.35
789.223	18968.72
789.556	18823.87
789.888	18732.8
790.221	18657.77
790.554	18586.59
790.887	18555.63
791.219	18409.87
791.552	18399.93
791.884	18263.66
792.217	18248.29
792.549	18163.1
792.882	18051.69
793.214	17946.83
793.546	17972.82
793.879	17914.29
794.211	17757.46
794.543	17851.24
794.875	17761.07
795.207	17873.61
795.539	17685.37
795.871	17661.87
796.203	17375.32
796.535	17375.77
796.867	17337.13
797.198	17332.84
797.53	17297.81
797.862	17145.5
798.193	17187.08
798.525	17052.62
798.856	17059.17
799.188	16836.35
799.519	16898.5
799.85	16749.12
800.182	16818.27
800.513	16740.08
800.844	16587.32
801.175	16677.26
801.506	16555.23
801.837	16524.04
802.168	16481.56
802.499	16372.18
802.83	16372.18
803.161	16236.82
803.491	16325.86
803.822	16341.45
804.153	16131.06
804.483	16035.02
804.814	16063.26
805.145	16089.25
805.475	15974.23
805.805	15956.6
806.136	15950.05
806.466	15847.9
806.796	15846.09
807.126	15652.65
807.457	15605.65
807.787	15659.66
808.117	15520.23
808.447	15506.67
808.777	15536.05
809.107	15474.58
809.436	15404.07
809.766	15451.08
810.096	15372.43
810.426	15293.11
810.755	15274.13
811.085	15210.18
811.414	15190.29
811.744	15091.99
812.073	15081.59
812.403	15117.75
812.732	14968.6
813.061	14996.4
813.39	14975.16
813.719	14861.49
814.049	14858.78
814.378	14724.32
814.707	14681.38
815.036	14786.01
815.365	14632.57
815.693	14513.7
816.022	14564.09
816.351	14538.56
816.68	14468.05
817.008	14505.56
817.337	14388.05
817.665	14398.68
817.994	14364.78
818.322	14286.36
818.651	14286.14
818.979	14206.82
819.307	14190.77
819.636	14204.78
819.964	14057.22
820.292	14111.23
820.62	14065.58
820.948	14063.09
821.276	14089.08
821.604	14045.92
821.932	14062.41
822.259	14038.23
822.587	13990.78
822.915	13987.61
823.243	14007.05
823.57	13963.21
823.898	14075.29
824.225	13920.95
824.553	13965.92
824.88	13955.3
825.207	13984.22
825.535	14016.09
825.862	13988.06
826.189	13958.01
826.516	13993.26
826.843	14074.84
827.17	14063.54
827.497	14023.32
827.824	14033.26
828.151	14094.73
828.478	14000.27
828.805	14038.01
829.131	14011.79
829.458	13926.82
829.785	13855.64
830.111	14017.67
830.438	14020.61
830.764	13932.92
831.09	13932.92
831.417	13805.24
831.743	13961.85
832.069	13893.83
832.395	13819.03
832.722	13889.08
833.048	13846.37
833.374	13881.85
833.7	13777.22
834.026	13784.23
834.351	13816.54
834.677	13758.24
835.003	13779.26
835.329	13725.02
835.654	13733.16
835.98	13611.8
836.306	13703.1
836.631	13598.7
836.956	13603.22
837.282	13631.46
837.607	13589.66
837.932	13510.79
838.258	13584.23
838.583	13473.05
838.908	13489.09
839.233	13492.03
839.558	13407.51
839.883	13434.41
840.208	13372.94
840.533	13365.71
840.858	13360.96
841.182	13277.8
841.507	13244.36
841.832	13260.85
842.156	13266.28
842.481	13234.86
842.805	13135.88
843.13	13114.19
843.454	13077.58
843.778	13026.06
844.103	13012.27
844.427	13098.82
844.751	12966.62
845.075	12880.97
845.399	12902.22
845.723	12760.98
846.047	12839.62
846.371	12724.82
846.695	12699.96
847.019	12632.17
847.343	12582.23
847.666	12538.39
847.99	12557.37
848.313	12394.66
848.637	12388.78
848.96	12407.77
849.284	12290.71
849.607	12178.85
849.931	12222.91
850.254	12100.88
850.577	12120.54
850.9	11910.83
851.223	11930.94
851.546	11958.74
851.869	11772.3
852.192	11900.21
852.515	11743.15
852.838	11707.45
853.161	11665.64
853.483	11619.09
853.806	11591.74
854.129	11584.96
854.451	11534.12
854.774	11475.36
855.096	11409.38
855.419	11364.4
855.741	11332.77
856.063	11256.38
856.385	11292.99
856.708	11267.46
857.03	11185.43
857.352	11199.44
857.674	11131.19
857.996	11085.32
858.318	11022.72
858.64	11028.59
858.961	10976.39
859.283	11024.53
859.605	10941.82
859.926	10960.12
860.248	10912.89
860.57	10813.23
860.891	10885.77
861.212	10759.9
861.534	10878.09
861.855	10709.28
862.176	10733.69
862.498	10757.64
862.819	10707.92
863.14	10674.93
863.461	10669.28
863.782	10638.32
864.103	10631.32
864.424	10583.41
864.745	10622.96
865.065	10546.57
865.386	10482.62
865.707	10456.86
866.027	10510.64
866.348	10479.46
866.668	10505.67
866.989	10422.96
867.309	10277.88
867.63	10373.47
867.95	10304.77
868.27	10233.36
868.59	10233.36
868.91	10258.67
869.23	10243.08
869.55	10208.5
869.87	10229.07
870.19	10225.45
870.51	10195.4
870.83	10118.79
871.15	10133.93
871.469	10137.32
871.789	10109.75
872.109	10111.33
872.428	10028.85
872.748	10094.61
873.067	10016.87
873.386	10064.1
873.706	9994.5
874.025	9952.46
874.344	9965.57
874.663	9939.13
874.982	9927.83
875.301	9911.56
875.62	9838.57
875.939	9855.74
876.258	9890.32
876.577	9781.62
876.896	9815.74
877.214	9752.7
877.533	9762.64
877.852	9760.83
878.17	9708.18
878.489	9794.05
878.807	9738.23
879.125	9705.24
879.444	9714.73
879.762	9647.61
880.08	9675.41
880.398	9625.69
880.716	9652.13
881.034	9630.44
881.352	9584.11
881.67	9502.08
881.988	9539.59
882.306	9554.51
882.624	9475.87
882.941	9510.22
883.259	9389.77
883.577	9457.56
883.894	9398.58
884.212	9399.48
884.529	9403.33
884.846	9357.9
885.164	9372.82
885.481	9314.97
885.798	9332.37
886.115	9283.78
886.432	9329.43
886.75	9173.05
887.067	9229.32
887.383	9181.41
887.7	9147.06
888.017	9122.43
888.334	9182.77
888.651	9155.65
888.967	9033.17
889.284	9051.02
889.6	9049.89
889.917	8955.43
890.233	8966.05
890.55	8897.35
890.866	8897.58
891.182	8812.83
891.498	8860.97
891.815	8854.64
892.131	8772.38
892.447	8726.96
892.763	8718.37
893.079	8719.5
893.395	8680.18
893.71	8688.54
894.026	8613.97
894.342	8635.66
894.657	8542.11
894.973	8565.16
895.289	8518.83
895.604	8544.59
895.92	8500.53
896.235	8452.62
896.55	8488.55
896.865	8418.49
897.181	8344.82
897.496	8312.96
897.811	8318.16
898.126	8297.82
898.441	8223.92
898.756	8214.66
899.071	8234.32
899.386	8169.23
899.7	8143.02
900.015	8145.96
900.33	8030.48
900.644	8015.34
900.959	8044.49
901.273	7975.79
901.588	8003.14
901.902	7896.47
902.216	7917.94
902.531	7896.7
902.845	7846.3
903.159	7813.09
903.473	7754.56
903.787	7695.12
904.101	7705.07
904.415	7750.26
904.729	7623.03
905.042	7638.85
905.356	7635.69
905.67	7647.89
905.984	7594.33
906.297	7507.33
906.611	7532.87
906.924	7474.56
907.237	7464.85
907.551	7405.41
907.864	7367.9
908.177	7351.4
908.491	7379.42
908.804	7283.38
909.117	7210.84
909.43	7241.8
909.743	7175.59
910.056	7188.24
910.368	7153.22
910.681	7067.34
910.994	7093.33
911.307	7035.25
911.619	7020.34
911.932	6980.57
912.244	6965.2
912.557	6900.79
912.869	6889.72
913.181	6856.5
913.494	6826.9
913.806	6760.68
914.118	6800
914.43	6737.63
914.742	6733.57
915.054	6700.57
915.366	6634.36
915.678	6628.26
915.99	6601.14
916.302	6576.06
916.613	6586.45
916.925	6551.88
917.236	6531.54
917.548	6445.44
917.859	6494.02
918.171	6410.41
918.482	6404.08
918.794	6347.81
919.105	6364.31
919.416	6273.69
919.727	6232.79
920.038	6245.22
920.349	6181.94
920.66	6237.53
920.971	6233.69
921.282	6202.28
921.593	6109.85
921.903	6082.74
922.214	6079.8
922.525	6067.37
922.835	6023.53
923.146	6036.64
923.456	6022.85
923.767	5958.45
924.077	5944.21
924.387	5897.88
924.697	5872.57
925.008	5863.98
925.318	5831.67
925.628	5835.74
925.938	5805.23
926.248	5741.28
926.558	5686.59
926.867	5676.64
927.177	5696.76
927.487	5666.25
927.796	5552.35
928.106	5561.62
928.416	5577.21
928.725	5522.3
929.034	5473.03
929.344	5512.81
929.653	5523.2
929.962	5430.78
930.271	5421.28
930.581	5391.68
930.89	5393.71
931.199	5354.85
931.508	5334.28
931.817	5352.13
932.125	5275.75
932.434	5331.34
932.743	5191.91
933.051	5175.64
933.36	5171.57
933.669	5162.31
933.977	5154.62
934.286	5164.34
934.594	5148.52
934.902	5147.17
935.21	5083.89
935.519	5054.29
935.827	5035.98
936.135	5037.11
936.443	4996.66
936.751	4994.18
937.059	4989.66
937.367	4910.34
937.674	4918.92
937.982	4868.3
938.29	4851.13
938.597	4860.17
938.905	4837.57
939.213	4804.8
939.52	4747.4
939.827	4784.46
940.135	4732.04
940.442	4727.97
940.749	4735.65
941.056	4657.69
941.363	4638.93
941.67	4623.56
941.977	4630.12
942.284	4590.12
942.591	4581.31
942.898	4593.28
943.205	4569.78
943.511	4550.8
943.818	4467.86
944.125	4461.54
944.431	4484.81
944.738	4456.34
945.044	4472.38
945.35	4411.37
945.657	4383.35
945.963	4399.39
946.269	4393.51
946.575	4347.87
946.881	4292.95
947.187	4310.13
947.493	4258.15
947.799	4242.11
948.105	4252.73
948.41	4205.27
948.716	4199.85
949.022	4163.69
949.327	4129.57
949.633	4157.59
949.938	4158.72
950.244	4095.22
950.549	4096.12
950.854	4065.39
951.16	4061.55
951.465	4073.52
951.77	4036.24
952.075	3984.94
952.38	3990.36
952.685	4000.76
952.99	3947.88
953.294	3953.3
953.599	3900.87
953.904	3862.91
954.209	3868.78
954.513	3845.73
954.818	3851.83
955.122	3820.2
955.426	3839.86
955.731	3791.27
956.035	3797.82
956.339	3787.43
956.643	3765.06
956.948	3724.83
957.252	3695.91
957.556	3696.13
957.86	3685.74
958.163	3683.7
958.467	3642.35
958.771	3639.64
959.075	3633.99
959.378	3582.69
959.682	3588.34
959.985	3604.16
960.289	3523.25
960.592	3540.88
960.896	3522.35
961.199	3502.92
961.502	3495.91
961.805	3444.84
962.108	3452.75
962.411	3420.66
962.714	3452.52
963.017	3431.05
963.32	3453.65
963.623	3397.83
963.926	3390.15
964.228	3347.21
964.531	3359.87
964.833	3369.13
965.136	3339.3
965.438	3345.63
965.741	3292.3
966.043	3298.63
966.345	3273.54
966.648	3255.24
966.95	3229.7
967.252	3191.96
967.554	3174.79
967.856	3183.38
968.158	3162.81
968.46	3184.51
968.761	3099.76
969.063	3139.76
969.365	3118.75
969.666	3139.99
969.968	3072.65
970.269	3070.39
970.571	3082.36
970.872	3040.33
971.174	3053.21
971.475	3030.84
971.776	3048.01
972.077	2980.67
972.378	2986.32
972.679	2985.87
972.98	2968.02
973.281	2998.52
973.582	2987.9
973.883	2935.93
974.183	2894.57
974.484	2882.14
974.785	2894.34
975.085	2852.31
975.386	2893.67
975.686	2823.16
975.986	2814.8
976.287	2845.76
976.587	2791.3
976.887	2768.47
977.187	2761.47
977.487	2764.63
977.787	2756.72
978.087	2795.14
978.387	2723.73
978.687	2756.04
978.987	2686.44
979.286	2685.54
979.586	2679.89
979.885	2655.48
980.185	2683.73
980.484	2640.11
980.784	2633.79
981.083	2631.07
981.382	2579.55
981.682	2600.12
981.981	2593.79
982.28	2555.37
982.579	2563.73
982.878	2577.74
983.177	2573
983.475	2515.15
983.774	2514.69
984.073	2524.86
984.372	2478.31
984.67	2479.44
984.969	2459.1
985.267	2453.68
985.566	2484.41
985.864	2438.31
986.162	2440.12
986.461	2425.2
986.759	2424.07
987.057	2422.72
987.355	2409.16
987.653	2380.46
987.951	2388.37
988.249	2375.49
988.547	2328.94
988.844	2345.21
989.142	2327.58
989.44	2308.15
989.737	2306.11
990.035	2292.78
990.332	2291.42
990.63	2257.98
990.927	2268.82
991.224	2259.11
991.521	2274.7
991.819	2223.18
992.116	2231.99
992.413	2192.67
992.71	2190.41
993.006	2202.61
993.303	2185.66
993.6	2207.36
993.897	2159
994.193	2140.92
994.49	2155.16
994.787	2102.05
995.083	2086
995.379	2128.26
995.676	2100.47
995.972	2129.39
996.268	2063.63
996.565	2060.24
996.861	2056.17
997.157	2032.45
997.453	2025.44
997.749	2027.47
998.044	1999.23
998.34	1986.57
998.636	2013.69
998.932	1970.08
999.227	1970.53
999.523	1997.87
999.818	1974.14
1000.114	1957.42
1000.409	1942.51
1000.704	1904.77
1001	1913.58
1001.295	1907.48
1001.59	1900.02
1001.885	1900.47
1002.18	1876.97
1002.475	1861.38
1002.77	1866.8
1003.065	1853.69
1003.359	1835.62
1003.654	1838.33
1003.949	1803.98
1004.243	1802.4
1004.538	1791.55
1004.832	1802.17
1005.127	1814.6
1005.421	1785.22
1005.715	1784.77
1006.009	1732.57
1006.304	1737.54
1006.598	1733.02
1006.892	1694.83
1007.186	1716.97
1007.48	1698.22
1007.773	1687.14
1008.067	1660.03
1008.361	1644.89
1008.655	1669.52
1008.948	1666.81
1009.242	1661.83
1009.535	1641.5
1009.829	1649.86
1010.122	1591.1
1010.415	1592.46
1010.708	1632.91
1011.001	1562.4
1011.295	1590.65
1011.588	1567.6
1011.881	1552.23
1012.173	1544.32
1012.466	1526.25
1012.759	1534.38
1013.052	1528.51
1013.344	1536.64
1013.637	1514.04
1013.93	1509.75
1014.222	1491.67
1014.514	1510.65
1014.807	1453.7
1015.099	1468.62
1015.391	1458.22
1015.683	1451.67
1015.976	1437.89
1016.268	1446.25
1016.56	1433.59
1016.851	1421.39
1017.143	1420.94
1017.435	1414.16
1017.727	1391.79
1018.018	1392.01
1018.31	1377.1
1018.602	1384.33
1018.893	1346.36
1019.185	1356.31
1019.476	1334.84
1019.767	1333.03
1020.058	1322.63
1020.35	1309.3
1020.641	1302.07
1020.932	1293.03
1021.223	1286.48
1021.514	1277.89
1021.804	1247.16
1022.095	1249.64
1022.386	1251.68
1022.677	1267.72
1022.967	1250.77
1023.258	1227.04
1023.548	1205.12
1023.839	1226.82
1024.129	1215.29
1024.419	1215.97
1024.709	1180.27
1025	1185.01
1025.29	1186.59
1025.58	1148.18
1025.87	1170.55
1026.16	1167.38
1026.449	1146.59
1026.739	1153.83
1027.029	1120.83
1027.319	1129.87
1027.608	1108.63
1027.898	1153.83
1028.187	1106.82
1028.477	1095.97
1028.766	1082.19
1029.055	1084.22
1029.344	1099.59
1029.634	1071.57
1029.923	1060.27
1030.212	1060.04
1030.501	1047.84
1030.79	1069.53
1031.078	1059.14
1031.367	1059.14
1031.656	1029.31
1031.945	1030.66
1032.233	1012.13
1032.522	1001.51
1032.81	1003.77
1033.099	1000.38
1033.387	974.62
1033.675	1015.3
1033.963	976.43
1034.251	981.4
1034.54	950.67
1034.828	964.23
1035.116	931.91
1035.403	934.85
1035.691	940.72
1035.979	939.59
1036.267	924.45
1036.554	928.75
1036.842	907.5
1037.129	908.86
1037.417	892.36
1037.704	900.95
1037.992	901.4
1038.279	900.5
1038.566	868.41
1038.853	868.41
1039.14	868.41
