Data from breadboard_black_back_FLMS001491_00015.txt Node
Date: Wed Feb 08 10:50:01 GMT 2017
User: dcchb
Spectrometer: FLMS00149
Trigger mode: 0
Integration Time (sec): 2.000000E-2
Scans to average: 10
Electric dark correction enabled: true
Nonlinearity correction enabled: false
Boxcar width: 0
XAxis mode: Wavelengths
Number of Pixels in Spectrum: 2048
>>>>>Begin Spectral Data<<<<<
341.393	-25.88
341.776	-25.88
342.16	-25.88
342.543	-52.77
342.927	-80.34
343.31	-76.5
343.693	-67.68
344.077	-57.96
344.46	-56.38
344.843	-69.94
345.226	-40.79
345.61	-29.94
345.993	-17.06
346.376	1.92
346.759	32.65
347.142	21.13
347.525	26.78
347.908	45.76
348.291	68.36
348.674	99.77
349.057	119.88
349.44	134.12
349.823	151.52
350.206	153.78
350.588	199.88
350.971	202.82
351.354	231.75
351.737	254.8
352.119	257.73
352.502	252.08
352.884	272.87
353.267	266.32
353.65	297.05
354.032	320.78
354.414	299.31
354.797	319.43
355.179	326.21
355.562	320.33
355.944	333.21
356.326	331.4
356.709	341.12
357.091	347.9
357.473	346.32
357.855	353.32
358.238	351.97
358.62	340.89
359.002	332.53
359.384	348.35
359.766	334.79
360.148	351.52
360.53	361.01
360.912	354.91
361.294	351.74
361.676	346.32
362.057	346.54
362.439	342.7
362.821	348.58
363.203	352.42
363.584	358.52
363.966	347.9
364.348	348.8
364.729	347.45
365.111	337.73
365.493	335.7
365.874	341.8
366.256	339.09
366.637	334.57
367.019	328.69
367.4	340.44
367.781	349.93
368.163	344.74
368.544	339.09
368.925	332.76
369.306	342.02
369.688	323.04
370.069	335.25
370.45	337.51
370.831	336.38
371.212	357.17
371.593	338.18
371.974	346.32
372.355	358.75
372.736	353.1
373.117	342.48
373.498	356.94
373.879	355.81
374.26	369.59
374.641	367.11
375.021	351.97
375.402	349.03
375.783	359.88
376.163	384.74
376.544	390.84
376.925	377.05
377.305	373.44
377.686	365.3
378.066	393.1
378.447	383.15
378.827	383.83
379.208	386.77
379.588	405.3
379.968	391.74
380.349	402.36
380.729	404.85
381.109	377.5
381.489	399.88
381.87	426.77
382.25	392.42
382.63	407.79
383.01	438.75
383.39	414.79
383.77	439.65
384.15	414.57
384.53	423.83
384.91	412.53
385.29	428.58
385.67	411.85
386.049	429.25
386.429	432.87
386.809	426.54
387.189	463.83
387.568	454.34
387.948	439.42
388.328	463.15
388.707	495.24
389.087	462.93
389.466	456.37
389.846	469.03
390.225	482.59
390.605	476.94
390.984	498.86
391.363	490.27
391.743	478.07
392.122	485.3
392.501	505.64
392.881	507.67
393.26	521.68
393.639	520.78
394.018	506.09
394.397	528.46
394.776	532.3
395.155	517.84
395.534	532.75
395.913	524.17
396.292	537.27
396.671	535.92
397.05	541.34
397.429	576.37
397.808	553.32
398.186	546.09
398.565	562.13
398.944	550.83
399.323	559.19
399.701	564.62
400.08	581.57
400.458	588.12
400.837	597.16
401.215	580.66
401.594	603.71
401.972	615.92
402.351	611.4
402.729	617.05
403.107	615.92
403.486	641
403.864	643.49
404.242	630.15
404.62	641
404.999	643.26
405.377	654.56
405.755	667.44
406.133	674.22
406.511	659.3
406.889	671.96
407.267	692.3
407.645	707.89
408.023	713.54
408.401	702.02
408.779	717.83
409.156	718.74
409.534	728.23
409.912	742.01
410.29	746.53
410.667	768.45
411.045	790.37
411.422	765.74
411.8	781.79
412.178	789.02
412.555	808.91
412.933	832.18
413.31	808.91
413.687	823.59
414.065	825.18
414.442	838.28
414.819	850.94
415.197	865.17
415.574	864.72
415.951	901.56
416.328	878.28
416.705	885.29
417.082	904.5
417.46	911.5
417.837	932.52
418.214	947.21
418.591	936.36
418.967	959.64
419.344	966.42
419.721	974.78
420.098	962.12
420.475	989.92
420.852	986.08
421.228	991.95
421.605	1019.75
421.982	1029.46
422.358	1027.66
422.735	1037.37
423.111	1021.33
423.488	1066.53
423.864	1065.17
424.241	1074.44
424.617	1078.05
424.994	1093.19
425.37	1113.08
425.746	1151.04
426.123	1125.28
426.499	1154.21
426.875	1144.49
427.251	1144.94
427.627	1212.96
428.003	1205.05
428.379	1213.41
428.756	1244.83
429.132	1241.66
429.507	1254.32
429.883	1267.88
430.259	1279.18
430.635	1317.59
431.011	1303.13
431.387	1339.74
431.763	1363.69
432.138	1351.26
432.514	1386.97
432.89	1402.34
433.265	1457.25
433.641	1438.04
434.016	1431.71
434.392	1500.19
434.767	1520.98
435.143	1496.34
435.518	1528.43
435.894	1547.19
436.269	1534.08
436.644	1566.85
437.02	1569.56
437.395	1588.32
437.77	1615.66
438.145	1666.51
438.52	1627.19
438.895	1654.31
439.271	1661.99
439.646	1712.16
440.021	1728.43
440.395	1740.86
440.77	1711.93
441.145	1739.05
441.52	1788.31
441.895	1748.32
442.27	1828.31
442.645	1779.95
443.019	1804.13
443.394	1809.78
443.769	1838.93
444.143	1801.65
444.518	1889.55
444.892	1870.8
445.267	1883.23
445.641	1887.07
446.016	1882.55
446.39	1929.33
446.764	1950.8
447.139	1944.69
447.513	1948.54
447.887	1946.28
448.262	1985.15
448.636	1971.81
449.01	2031.02
449.384	2066.73
449.758	2056.1
450.132	2093.39
450.506	2056.33
450.88	2103.79
451.254	2115.99
451.628	2155.54
452.002	2179.26
452.376	2198.7
452.75	2196.89
453.123	2224.91
453.497	2244.8
453.871	2276.44
454.244	2306.04
454.618	2340.39
454.992	2360.73
455.365	2360.95
455.739	2407.96
456.112	2467.39
456.486	2476.21
456.859	2501.97
457.232	2532.25
457.606	2534.96
457.979	2567.05
458.352	2621.51
458.725	2652.7
459.099	2674.62
459.472	2744
459.845	2736.99
460.218	2759.81
460.591	2833.48
460.964	2865.8
461.337	2905.8
461.71	2937.44
462.083	2976.76
462.456	2963.88
462.829	2995.97
463.201	3085
463.574	3053.37
463.947	3123.87
464.32	3210.88
464.692	3175.17
465.065	3265.56
465.438	3270.76
465.81	3333.81
466.183	3336.07
466.555	3444.32
466.928	3463.3
467.3	3460.81
467.672	3489.74
468.045	3624.2
468.417	3638.21
468.789	3605.89
469.161	3669.62
469.534	3777.19
469.906	3824.65
470.278	3847.02
470.65	3876.4
471.022	3969.95
471.394	4020.57
471.766	4096.73
472.138	4113.45
472.51	4220.79
472.882	4287.68
473.253	4346.44
473.625	4396.61
473.997	4479.09
474.369	4499.43
474.74	4521.58
475.112	4626.66
475.484	4744.4
475.855	4837.73
476.227	4896.71
476.598	4961.56
476.97	5039.08
477.341	5118.4
477.713	5180.77
478.084	5246.98
478.455	5416.24
478.827	5374.66
479.198	5574.88
479.569	5598.61
479.94	5714.54
480.311	5790.47
480.682	5939.39
481.053	6028.2
481.424	6140.74
481.795	6172.15
482.166	6252.38
482.537	6369.89
482.908	6530.79
483.279	6588.19
483.65	6657.57
484.021	6789.76
484.391	6926.26
484.762	6897.33
485.133	7066.37
485.503	7133.26
485.874	7288.06
486.244	7383.87
486.615	7478.79
486.985	7575.96
487.356	7719.01
487.726	7759.68
488.097	7960.58
488.467	7966.01
488.837	8130.97
489.207	8260.23
489.578	8388.59
489.948	8395.37
490.318	8536.84
490.688	8621.36
491.058	8717.4
491.428	8846.89
491.798	8889.14
492.168	9071.06
492.538	9170.04
492.908	9263.37
493.278	9386.08
493.648	9408.68
494.017	9535.46
494.387	9628.11
494.757	9735.68
495.126	9787.88
495.496	9876.69
495.866	9988.32
496.235	10050.02
496.605	10116.68
496.974	10172.27
497.344	10321.65
497.713	10400.29
498.082	10484.81
498.452	10571.13
498.821	10557.12
499.19	10660.4
499.559	10770.45
499.928	10887.28
500.298	10925.7
500.667	11042.53
501.036	11047.51
501.405	11169.08
501.774	11176.32
502.143	11246.37
502.512	11340.15
502.88	11367.27
503.249	11494.73
503.618	11591.67
503.987	11576.76
504.356	11817.2
504.724	11815.85
505.093	11798.67
505.462	11899.91
505.83	11995.96
506.199	12120.25
506.567	12267.36
506.936	12286.34
507.304	12411.76
507.672	12492.44
508.041	12552.33
508.409	12636.16
508.777	12750.06
509.145	12911.64
509.514	12923.84
509.882	12995.48
510.25	13111.18
510.618	13154.8
510.986	13205.87
511.354	13465.75
511.722	13458.97
512.09	13593.2
512.458	13615.8
512.826	13753.42
513.193	13785.51
513.561	13888.11
513.929	13969.69
514.297	14155
514.664	14263.69
515.032	14270.7
515.4	14434.08
515.767	14538.94
516.135	14599.73
516.502	14496.68
516.869	14788.42
517.237	14870.68
517.604	14785.49
517.972	15132.37
518.339	15179.15
518.706	15225.93
519.073	15328.75
519.44	15380.73
519.808	15681.51
520.175	15713.6
520.542	15821.62
520.909	15946.59
521.276	15991.33
521.643	16173.93
522.009	16319.91
522.376	16427.93
522.743	16496.4
523.11	16703.4
523.477	16845.55
523.843	16890.06
524.21	17045.09
524.577	17270.39
524.943	17283.27
525.31	17463.38
525.676	17603.27
526.043	17706.77
526.409	17841.23
526.776	18029.24
527.142	18065.4
527.508	18235.11
527.874	18316.92
528.241	18458.16
528.607	18497.48
528.973	18730.69
529.339	18750.13
529.705	18880.29
530.071	19003.91
530.437	19182.89
530.803	19282.54
531.169	19369.77
531.535	19411.13
531.901	19524.12
532.267	19580.16
532.632	19665.58
532.998	19866.26
533.364	19871.91
533.73	20051.34
534.095	20151.9
534.461	20188.06
534.826	20301.27
535.192	20362.74
535.557	20626.24
535.923	20594.6
536.288	20658.1
536.653	20794.82
537.019	20811.54
537.384	20899.9
537.749	20974.93
538.114	21110.29
538.479	21157.3
538.845	21285.88
539.21	21210.18
539.575	21284.53
539.94	21373.34
540.305	21622.37
540.67	21618.53
541.034	21683.16
541.399	21771.97
541.764	21894
542.129	21987.33
542.494	21899.42
542.858	22094
543.223	22063.49
543.587	22279.53
543.952	22128.34
544.316	22317.49
544.681	22333.09
545.045	22461.9
545.41	22600.65
545.774	22723.81
546.138	22616.47
546.503	22793.86
546.867	22813.98
547.231	23006.06
547.595	23008.1
547.959	23080.41
548.324	23192.27
548.688	23240.63
549.052	23358.82
549.416	23287.64
549.779	23328.54
550.143	23412.83
550.507	23648.76
550.871	23684.69
551.235	23612.83
551.599	23960.61
551.962	24034.74
552.326	24118.8
552.689	24222.53
553.053	24171.68
553.417	24211.68
553.78	24699.8
554.143	24461.84
554.507	24646.92
554.87	24717.88
555.234	25002.39
555.597	24798.56
555.96	24989.51
556.323	25097.31
556.686	25156.29
557.05	25331.88
557.413	25440.8
557.776	25437.86
558.139	25520.57
558.502	25756.27
558.865	25771.64
559.228	25950.39
559.59	26012.08
559.953	26034.46
560.316	26423.6
560.679	26357.16
561.041	26615.01
561.404	26660.43
561.767	26798.5
562.129	26773.65
562.492	26987.88
562.854	27010.48
563.217	27052.96
563.579	27217.25
563.941	27435.78
564.304	27582.21
564.666	27649.78
565.028	27640.74
565.39	27827.63
565.753	28021.52
566.115	28122.99
566.477	28245.7
566.839	28290.67
567.201	28521.4
567.563	28531.34
567.925	28581.73
568.287	28757.77
568.648	28794.16
569.01	29006.13
569.372	29168.16
569.734	29152.57
570.095	29401.37
570.457	29362.28
570.819	29547.81
571.18	29494.03
571.542	29570.63
571.903	29672.1
572.265	29805.88
572.626	29828.93
572.987	30019.89
573.349	30029.61
573.71	30189.83
574.071	30283.61
574.432	30433.66
574.794	30652.19
575.155	30502.59
575.516	30505.07
575.877	30555.24
576.238	30543.49
576.599	30879.53
576.96	30836.82
577.32	30867.55
577.681	30875.23
578.042	30998.39
578.403	31089.24
578.763	31017.38
579.124	31078.62
579.485	31350.7
579.845	31336.69
580.206	31208.78
580.566	31355.45
580.927	31249.23
581.287	31468.66
581.648	31305.28
582.008	31520.87
582.368	31526.06
582.728	31532.39
583.089	31488.78
583.449	31481.32
583.809	31566.97
584.169	31627.08
584.529	31615.33
584.889	31742.56
585.249	31587.53
585.609	31569.68
585.969	31601.77
586.329	31599.51
586.688	31704.82
587.048	31613.07
587.408	31608.55
587.768	31653.29
588.127	31572.16
588.487	31587.31
588.846	31747.3
589.206	31670.24
589.565	31617.36
589.925	31658.49
590.284	31751.14
590.643	31757.24
591.003	31694.19
591.362	31873.63
591.721	31769
592.08	31768.32
592.44	31892.83
592.799	31758.15
593.158	31779.84
593.517	31841.08
593.876	31843.57
594.235	31779.84
594.593	31973.06
594.952	31941.42
595.311	31924.7
595.67	32042.66
596.029	32193.39
596.387	32072.94
596.746	32196.78
597.104	32094.64
597.463	31998.14
597.822	32103
598.18	32084.69
598.538	32047.86
598.897	32351.8
599.255	31959.5
599.613	32475.64
599.972	32236.1
600.33	32367.4
600.688	32238.81
601.046	32348.87
601.404	32341.18
601.762	32358.13
602.12	32434.06
602.478	32492.82
602.836	32554.06
603.194	32394.06
603.552	32485.13
603.91	32494.85
604.268	32707.5
604.625	32561.97
604.983	32697.33
605.341	32514.74
605.698	32789.99
606.056	32693.04
606.413	32761.29
606.771	32728.07
607.128	32904.11
607.485	32818.91
607.843	32806.03
608.2	32904.78
608.557	32954.27
608.914	32967.16
609.272	33098.45
609.629	33174.83
609.986	33299.35
610.343	33045.35
610.7	33300.25
611.057	33256.87
611.414	33234.95
611.771	33235.4
612.127	33410.53
612.484	33370.08
612.841	33436.97
613.198	33360.82
613.554	33443.98
613.911	33564.2
614.267	33564.65
614.624	33387.26
614.98	33669.74
615.337	33751.77
615.693	33696.63
616.05	33645.56
616.406	33719.23
616.762	33622.05
617.118	33656.4
617.475	33800.35
617.831	33944.53
618.187	34044.19
618.543	33871.54
618.899	34050.29
619.255	33880.58
619.611	33996.28
619.967	34108.59
620.323	34079.67
620.678	34012.33
621.034	34030.4
621.39	33977.75
621.746	33928.03
622.101	34352.66
622.457	33961.48
622.812	34109.27
623.168	34142.94
623.523	34219.55
623.879	34219.55
624.234	33980.24
624.589	34141.59
624.945	34275.37
625.3	34159.44
625.655	34088.48
626.01	34128.03
626.365	34077.18
626.72	34170.51
627.075	34070.18
627.43	34099.1
627.785	34033.57
628.14	34082.15
628.495	34048.71
628.85	34025.88
629.205	33985.43
629.559	34134.58
629.914	33935.04
630.269	33966.68
630.623	34006.9
630.978	33990.63
631.332	33940.92
631.687	34007.35
632.041	33901.14
632.396	33823.63
632.75	33748.15
633.104	33862.05
633.459	33726.46
633.813	33482.17
634.167	33483.07
634.521	33668.61
634.875	33650.3
635.229	33572.79
635.583	33470.87
635.937	33473.36
636.291	33447.6
636.645	33370.99
636.999	33280.59
637.352	33394.94
637.706	33047.83
638.06	33445.79
638.413	33283.08
638.767	33117.89
639.121	33180.71
639.474	32990.88
639.828	33061.84
640.181	33004.22
640.534	33131.67
640.888	32919.25
641.241	32750.89
641.594	32836.99
641.947	32961.73
642.301	32821.85
642.654	32884.67
643.007	32893.03
643.36	32757.9
643.713	32631.8
644.066	32672.25
644.419	32568.3
644.771	32405.81
645.124	32267.97
645.477	32154.3
645.83	31782.1
646.182	31688.09
646.535	31689.22
646.888	31641.99
647.24	31461.66
647.593	31526.06
647.945	31519.51
648.298	31363.58
648.65	31343.7
649.002	31127.66
649.355	31382.79
649.707	31342.11
650.059	31573.07
650.411	31860.74
650.763	31894.42
651.115	32064.13
651.467	32019.84
651.819	31988.65
652.171	31898.26
652.523	31949.1
652.875	31829.11
653.227	31594.31
653.578	31920.63
653.93	31813.97
654.282	31729
654.633	31658.04
654.985	31637.25
655.337	31737.13
655.688	31707.3
656.039	31786.4
656.391	31373.53
656.742	31616.46
657.094	31438.16
657.445	31717.47
657.796	31533.52
658.147	31430.92
658.498	31432.96
658.849	31462.56
659.2	31457.82
659.551	31405.16
659.902	31517.02
660.253	31493.75
660.604	31577.14
660.955	31244.72
661.306	31335.79
661.656	31270.03
662.007	31346.63
662.358	31234.09
662.708	31230.93
663.059	31287.88
663.409	31005.4
663.76	31235.9
664.11	31292.62
664.461	31297.82
664.811	31319.74
665.161	31183.47
665.511	31179.18
665.862	31063.25
666.212	31267.77
666.562	31244.04
666.912	31187.77
667.262	31030.03
667.612	31046.3
667.962	31071.61
668.312	31049.47
668.662	31182.8
669.011	31039.97
669.361	30988.9
669.711	30914.33
670.06	30898.28
670.41	30920.2
670.76	30872.52
671.109	30973.76
671.459	30796.59
671.808	30880.43
672.157	30985.06
672.507	30717.27
672.856	30794.11
673.205	30731.28
673.554	30842.47
673.904	30836.59
674.253	30914.33
674.602	30803.6
674.951	30321.12
675.3	30181.69
675.649	30524.96
675.998	30626.2
676.346	30535.81
676.695	30746.42
677.044	30411.06
677.393	30582.36
677.741	30564.06
678.09	30363.61
678.438	30346.66
678.787	30450.84
679.135	30440.22
679.484	30194.8
679.832	30357.73
680.181	30160.9
680.529	30178.3
680.877	30087.23
681.225	29991.19
681.573	30313.89
681.922	30007.46
682.27	29956.39
682.618	29870.74
682.966	30017.4
683.314	29981.47
683.661	29831.64
684.009	29670.52
684.357	29605.66
684.705	29663.97
685.053	29692.44
685.4	29684.53
685.748	29421.71
686.095	29494.25
686.443	29274.6
686.79	29303.07
687.138	29284.31
687.485	29288.83
687.832	29154.15
688.18	29159.8
688.527	29129.97
688.874	29013.36
689.221	28862.63
689.568	28935.62
689.915	28847.26
690.262	28778.79
690.609	28720.71
690.956	28619.25
691.303	28627.83
691.65	28378.8
691.997	28454.73
692.344	28233.95
692.69	28260.84
693.037	28216.09
693.383	28195.98
693.73	28200.28
694.077	27864.24
694.423	27928.19
694.769	27948.53
695.116	27741.53
695.462	27905.14
695.808	27629.89
696.155	27814.75
696.501	27443.69
696.847	27549.45
697.193	27368.43
697.539	27368.66
697.885	27224.03
698.231	27045.96
698.577	27204.14
698.923	27034.88
699.269	26890.48
699.614	26855.45
699.96	26749.92
700.306	26771.39
700.651	26599.64
700.997	26572.97
701.342	26582.46
701.688	26508.12
702.033	26362.58
702.379	26407.1
702.724	26303.83
703.069	26397.16
703.415	25979.54
703.76	26109.26
704.105	26029.26
704.45	25873.33
704.795	25822.48
705.14	25809.6
705.485	25799.21
705.83	25577.97
706.175	25693.9
706.52	25517.41
706.865	25437.64
707.209	25425.66
707.554	25414.81
707.899	25406.68
708.243	25323.74
708.588	25308.15
708.932	25110.87
709.277	25111.54
709.621	25081.26
709.966	25038.55
710.31	25001.04
710.654	24792.46
710.998	24769.63
711.342	24887.37
711.687	24757.43
712.031	24652.12
712.375	24640.14
712.719	24611.9
713.063	24538.68
713.407	24577.55
713.75	24455.06
714.094	24297.55
714.438	24197.22
714.782	24244.22
715.125	24116.09
715.469	24192.25
715.812	23992.48
716.156	24005.81
716.499	24002.87
716.843	24026.83
717.186	23876.55
717.53	23973.72
717.873	23933.27
718.216	23868.41
718.559	23726.04
718.902	23655.76
719.246	23652.15
719.589	23603.56
719.932	23520.4
720.275	23451.25
720.617	23427.75
720.96	23418.93
721.303	23384.36
721.646	23470.91
721.989	23245.38
722.331	23373.28
722.674	23186.17
723.016	23284.47
723.359	23216.68
723.701	23150.24
724.044	23034.54
724.386	22918.83
724.729	22964.03
725.071	22942.11
725.413	22909.79
725.755	22827.08
726.097	22788.67
726.439	22743.47
726.782	22681.32
727.124	22771.49
727.465	22545.28
727.807	22648.33
728.149	22554.55
728.491	22513.65
728.833	22483.59
729.175	22481.56
729.516	22526.53
729.858	22406.08
730.199	22546.86
730.541	22305.74
730.882	22345.51
731.224	22448.11
731.565	22262.13
731.906	22169.02
732.248	22246.31
732.589	22152.07
732.93	22043.38
733.271	22108.46
733.612	21987.56
733.953	22125.63
734.294	21920.21
734.635	21961.12
734.976	21909.37
735.317	21859.43
735.658	21776.72
735.999	21845.41
736.339	21853.78
736.68	21889.03
737.021	21719.09
737.361	21562.26
737.702	21722.71
738.042	21690.16
738.383	21571.52
738.723	21684.29
739.063	21527
739.404	21537.85
739.744	21533.33
740.084	21434.8
740.424	21345.99
740.764	21363.62
741.104	21463.96
741.444	21351.87
741.784	21202.04
742.124	21342.15
742.464	21246.33
742.804	21184.87
743.143	21172.44
743.483	21174.47
743.823	21142.38
744.162	21007.24
744.502	21084.08
744.841	20891.32
745.181	21035.49
745.52	21026
745.86	21019
746.199	20928.83
746.538	20867.36
746.877	20883.86
747.216	20769.28
747.556	20677.08
747.895	20749.17
748.234	20651.55
748.573	20548.05
748.911	20652.23
749.25	20545.79
749.589	20444.55
749.928	20503.3
750.267	20575.84
750.605	20425.56
750.944	20305.57
751.283	20279.35
751.621	20363.19
751.96	20159.13
752.298	20159.81
752.636	20058.57
752.975	20002.52
753.313	19916.65
753.651	20030.77
753.989	19980.15
754.327	19843.21
754.666	19712.59
755.004	19879.82
755.342	19744.23
755.679	19832.13
756.017	19688.86
756.355	19836.65
756.693	19566.6
757.031	19633.95
757.368	19508.98
757.706	19546.94
758.044	19441.86
758.381	19417.68
758.719	19365.48
759.056	19364.12
759.394	19353.28
759.731	19086.84
760.068	19141.76
760.405	19048.88
760.743	18994.42
761.08	19067.86
761.417	18813.86
761.754	18897.47
762.091	18761.65
762.428	18791.48
762.765	18624.71
763.102	18683.24
763.438	18535.44
763.775	18510.13
764.112	18462.23
764.449	18506.97
764.785	18419.52
765.122	18252.51
765.458	18217.04
765.795	18168.67
766.131	18184.72
766.467	18058.4
766.804	17980.88
767.14	17988.11
767.476	17883.03
767.812	17845.75
768.148	17848.46
768.485	17729.59
768.821	17629.93
769.157	17614.34
769.492	17544.74
769.828	17558.75
770.164	17405.08
770.5	17347.23
770.836	17332.31
771.171	17237.4
771.507	17253.44
771.842	17075.82
772.178	17129.83
772.513	17093.45
772.849	16930.52
773.184	16918.54
773.519	16928.03
773.855	16806.45
774.19	16677.41
774.525	16759.45
774.86	16693.01
775.195	16613.01
775.53	16552.9
775.865	16369.63
776.2	16327.59
776.535	16202.17
776.87	16237.88
777.205	16187.94
777.539	16085.57
777.874	16086.02
778.209	15940.48
778.543	15968.51
778.878	15881.5
779.212	15905.46
779.547	15728.51
779.881	15739.36
780.215	15653.71
780.55	15712.02
780.884	15583.43
781.218	15526.71
781.552	15518.58
781.886	15418.92
782.22	15334.85
782.554	15266.38
782.888	15175.31
783.222	15186.38
783.556	15000.62
783.889	15071.36
784.223	14907.97
784.557	14935.31
784.89	14952.49
785.224	14820.06
785.557	14785.03
785.891	14738.71
786.224	14712.72
786.558	14734.87
786.891	14642.44
787.224	14515.66
787.557	14476.12
787.891	14485.83
788.224	14396.57
788.557	14280.42
788.89	14283.58
789.223	14302.56
789.556	14192.96
789.888	14123.13
790.221	14096.47
790.554	14085.39
790.887	14016.02
791.219	14009.69
791.552	13892.18
791.884	13892.86
792.217	13795.91
792.549	13876.13
792.882	13721.11
793.214	13563.15
793.546	13705.74
793.879	13620.55
794.211	13516.14
794.543	13462.36
794.875	13399.31
795.207	13454.45
795.539	13400.66
795.871	13404.05
796.203	13242.93
796.535	13188.47
796.867	13185.08
797.198	13159.09
797.53	13039.32
797.862	13057.4
798.193	13100.33
798.525	13038.87
798.856	12955.93
799.188	12837.52
799.519	12803.39
799.85	12779.21
800.182	12821.47
800.513	12825.09
800.844	12675.49
801.175	12717.29
801.506	12684.07
801.837	12586.22
802.168	12622.83
802.499	12528.37
802.83	12471.42
803.161	12448.83
803.491	12437.3
803.822	12402.27
804.153	12376.96
804.483	12307.81
804.814	12251.09
805.145	12218.77
805.475	12194.14
805.805	12154.37
806.136	12133.81
806.466	12164.99
806.796	12130.42
807.126	12003.41
807.457	12039.34
807.787	11974.49
808.117	11890.65
808.447	11901.04
808.777	11836.64
809.107	11886.13
809.436	11793.25
809.766	11777.66
810.096	11753.48
810.426	11634.61
810.755	11671.9
811.085	11641.84
811.414	11667.15
811.744	11560.71
812.073	11529.08
812.403	11574.05
812.732	11476.65
813.061	11472.35
813.39	11439.36
813.719	11377.67
814.049	11464.67
814.378	11424.22
814.707	11354.39
815.036	11324.11
815.365	11271
815.693	11119.82
816.022	11151.46
816.351	11125.7
816.68	11121.4
817.008	11131.8
817.337	11048.18
817.665	10962.54
817.994	10982.88
818.322	11022.2
818.651	10845.03
818.979	10920.05
819.307	10955.53
819.636	10923.22
819.964	10912.82
820.292	10885.93
820.62	10826.95
820.948	10839.15
821.276	10897.91
821.604	10803.22
821.932	10810.45
822.259	10831.01
822.587	10780.85
822.915	10823.78
823.243	10827.4
823.57	10758.47
823.898	10810.9
824.225	10743.56
824.553	10762.99
824.88	10820.85
825.207	10831.24
825.535	10850.22
825.862	10871.69
826.189	10758.7
826.516	10796.44
826.843	10862.2
827.17	10854.52
827.497	10832.82
827.824	10801.18
828.151	10843.67
828.478	10790.56
828.805	10837.57
829.131	10788.76
829.458	10779.49
829.785	10692.94
830.111	10777
830.438	10749.21
830.764	10767.06
831.09	10757.12
831.417	10757.57
831.743	10757.34
832.069	10750.11
832.395	10712.15
832.722	10724.35
833.048	10732.26
833.374	10735.88
833.7	10683.22
834.026	10734.75
834.351	10625.82
834.677	10685.71
835.003	10653.39
835.329	10656.56
835.654	10621.98
835.98	10576.78
836.306	10587.18
836.631	10554.19
836.956	10604.13
837.282	10633.96
837.607	10552.6
837.932	10458.14
838.258	10602.77
838.583	10497.24
838.908	10425.83
839.233	10434.87
839.558	10415.43
839.883	10380.86
840.208	10319.16
840.533	10294.76
840.858	10279.62
841.182	10259.05
841.507	10315.1
841.832	10233.74
842.156	10218.15
842.481	10241.2
842.805	10255.66
843.13	10151.94
843.454	10109.9
843.778	10174.76
844.103	10088.21
844.427	10058.83
844.751	10074.2
845.075	10102.45
845.399	10002.56
845.723	9989.68
846.047	10015.44
846.371	9895.22
846.695	9977.7
847.019	9851.38
847.343	9853.87
847.666	9714.21
847.99	9742.23
848.313	9619.3
848.637	9584.95
848.96	9646.19
849.284	9585.17
849.607	9577.04
849.931	9522.35
850.254	9452.75
850.577	9387.21
850.9	9376.59
851.223	9393.31
851.546	9260.89
851.869	9190.15
852.192	9299.98
852.515	9189.25
852.838	9214.33
853.161	9172.98
853.483	9114.68
853.806	9073.09
854.129	9058.41
854.451	9015.24
854.774	9025.41
855.096	8964.17
855.419	8849.6
855.741	8914.68
856.063	8864.29
856.385	8854.34
856.708	8807.79
857.03	8804.4
857.352	8798.53
857.674	8828.36
857.996	8674.01
858.318	8577.74
858.64	8726.44
858.961	8613.45
859.283	8589.94
859.605	8608.02
859.926	8554.24
860.248	8530.96
860.57	8535.03
860.891	8562.83
861.212	8497.74
861.534	8472.66
861.855	8462.94
862.176	8493.67
862.498	8456.16
862.819	8416.61
863.14	8417.97
863.461	8415.48
863.782	8340.91
864.103	8358.54
864.424	8392.43
864.745	8444.41
865.065	8315.6
865.386	8244.19
865.707	8298.43
866.027	8252.1
866.348	8259.33
866.668	8233.57
866.989	8238.09
867.309	8096.85
867.63	8217.07
867.95	8172.1
868.27	8144.31
868.59	8177.07
868.91	8187.47
869.23	8144.08
869.55	8085.1
869.87	8163.74
870.19	8151.09
870.51	8064.99
870.83	8072.44
871.15	7945.89
871.469	8045.1
871.789	8029.73
872.109	8031.54
872.428	7982.28
872.748	7983.63
873.067	7967.59
873.386	8032.67
873.706	8021.82
874.025	7925.78
874.344	7928.72
874.663	7936.85
874.982	7946.12
875.301	7833.58
875.62	7841.94
875.939	7855.27
876.258	7857.31
876.577	7839.23
876.896	7878.1
877.214	7841.04
877.533	7818.44
877.852	7814.6
878.17	7790.19
878.489	7816.86
878.807	7814.37
879.125	7733.02
879.444	7734.15
879.762	7744.54
880.08	7701.83
880.398	7649.4
880.716	7653.92
881.034	7623.19
881.352	7623.42
881.67	7643.75
881.988	7621.61
882.306	7662.51
882.624	7566.47
882.941	7566.47
883.259	7548.62
883.577	7545.23
883.894	7454.15
884.212	7496.87
884.529	7479.24
884.846	7465.91
885.164	7436.53
885.481	7434.72
885.798	7465.91
886.115	7367.83
886.432	7467.49
886.75	7380.03
887.067	7415.96
887.383	7318.11
887.7	7369.18
888.017	7276.31
888.334	7300.49
888.651	7275.18
888.967	7295.51
889.284	7246.7
889.6	7219.81
889.917	7148.85
890.233	7220.71
890.55	7120.38
890.866	7057.33
891.182	7098.91
891.498	7090.1
891.815	7077.44
892.131	7036.09
892.447	6977.33
892.763	6935.98
893.079	6905.69
893.395	6909.99
893.71	6896.65
894.026	6981.4
894.342	6906.82
894.657	6883.1
894.973	6822.98
895.289	6853.72
895.604	6858.24
895.92	6762.2
896.235	6763.78
896.55	6756.32
896.865	6788.86
897.181	6743.21
897.496	6723.1
897.811	6666.38
898.126	6677.23
898.441	6630
898.756	6627.51
899.071	6609.2
899.386	6579.15
899.7	6507.96
900.015	6512.71
900.33	6455.99
900.644	6456.89
900.959	6470.68
901.273	6419.83
901.588	6390
901.902	6404.69
902.216	6360.4
902.531	6328.99
902.845	6303.9
903.159	6294.64
903.473	6234.3
903.787	6175.77
904.101	6249.67
904.415	6253.73
904.729	6206.96
905.042	6105.26
905.356	6155.88
905.67	6107.52
905.984	6131.7
906.297	6107.3
906.611	6051.25
906.924	6032.72
907.237	5999.73
907.551	6011.25
907.864	5906.4
908.177	5948.43
908.491	5925.38
908.804	5846.74
909.117	5828.89
909.43	5848.55
909.743	5821.88
910.056	5779.17
910.368	5781.43
910.681	5743.46
910.994	5754.76
911.307	5743.69
911.619	5659.17
911.932	5662.11
912.244	5681.55
912.557	5645.61
912.869	5593.86
913.181	5625.05
913.494	5616.01
913.806	5497.82
914.118	5526.3
914.43	5477.71
914.742	5505.73
915.054	5453.3
915.366	5468.44
915.678	5463.92
915.99	5413.08
916.302	5432.74
916.613	5371.72
916.925	5320.2
917.236	5323.59
917.548	5249.01
917.859	5282.69
918.171	5267.09
918.482	5179.86
918.794	5189.13
919.105	5178.51
919.416	5164.72
919.727	5175.12
920.038	5115.91
920.349	5052.41
920.66	5127.44
920.971	5093.54
921.282	5094.22
921.593	4995.91
921.903	5007.21
922.214	4981.45
922.525	4984.61
922.835	4977.61
923.146	4890.38
923.456	4922.47
923.767	4868.91
924.077	4825.07
924.387	4854.45
924.697	4812.64
925.008	4776.03
925.318	4763.83
925.628	4745.3
925.938	4717.28
926.248	4677.73
926.558	4683.83
926.867	4662.36
927.177	4644.28
927.487	4647.45
927.796	4600.44
928.106	4585.98
928.416	4591.18
928.725	4555.93
929.034	4551.18
929.344	4555.47
929.653	4544.4
929.962	4471.63
930.271	4457.17
930.581	4486.1
930.89	4438.64
931.199	4413.78
931.508	4426.44
931.817	4387.57
932.125	4374.01
932.434	4390.05
932.743	4310.06
933.051	4304.41
933.36	4321.81
933.669	4258.31
933.977	4273.9
934.286	4271.87
934.594	4234.58
934.902	4208.82
935.21	4140.8
935.519	4194.58
935.827	4205.2
936.135	4155.03
936.443	4101.47
936.751	4088.59
937.059	4126.33
937.367	4104.41
937.674	4100.34
937.982	4063.73
938.29	4033.91
938.597	4016.73
938.905	3975.6
939.213	3994.81
939.52	3951.42
939.827	3956.17
940.135	3913.68
940.442	3898.09
940.749	3906.22
941.056	3875.49
941.363	3865.55
941.67	3878.88
941.977	3797.08
942.284	3806.34
942.591	3804.31
942.898	3797.3
943.205	3776.74
943.511	3752.33
943.818	3702.39
944.125	3765.21
944.431	3717.98
944.738	3703.29
945.044	3649.73
945.35	3684.54
945.657	3606.8
945.963	3635.05
946.269	3606.57
946.575	3621.71
946.881	3583.97
947.187	3542.17
947.493	3539.23
947.799	3509.4
948.105	3505.11
948.41	3503.07
948.716	3515.73
949.022	3511.43
949.327	3497.87
949.633	3435.28
949.938	3469.17
950.244	3478.44
950.549	3434.15
950.854	3403.64
951.16	3392.57
951.465	3392.57
951.77	3368.39
952.075	3305.79
952.38	3325.9
952.685	3318.67
952.99	3322.74
953.294	3306.24
953.599	3272.8
953.904	3245
954.209	3259.01
954.513	3234.38
954.818	3233.93
955.122	3187.37
955.426	3170.65
955.731	3191.89
956.035	3181.27
956.339	3195.06
956.643	3136.08
956.948	3128.62
957.252	3105.34
957.556	3116.42
957.86	3116.87
958.163	3091.56
958.467	3087.94
958.771	3021.95
959.075	3092.24
959.378	3024.21
959.682	3019.02
959.985	3025.34
960.289	2996.42
960.592	2976.31
960.896	2962.07
961.199	2911.22
961.502	2927.27
961.805	2900.6
962.108	2900.38
962.411	2885.01
962.714	2886.14
963.017	2877.78
963.32	2893.82
963.623	2873.03
963.926	2857.66
964.228	2805.69
964.531	2820.83
964.833	2832.35
965.136	2778.35
965.438	2777.44
965.741	2786.25
966.043	2785.58
966.345	2779.93
966.648	2697.44
966.95	2721.62
967.252	2722.98
967.554	2734.05
967.856	2693.15
968.158	2650.66
968.46	2675.75
968.761	2634.62
969.063	2636.65
969.365	2638.69
969.666	2670.78
969.968	2580.16
970.269	2650.44
970.571	2605.92
970.872	2596.2
971.174	2569.76
971.475	2560.05
971.776	2532.7
972.077	2540.16
972.378	2552.36
972.679	2555.53
972.98	2523.66
973.281	2468.97
973.582	2445.47
973.883	2513.04
974.183	2481.86
974.484	2452.48
974.785	2472.82
975.085	2432.14
975.386	2456.77
975.686	2433.04
975.986	2404.57
976.287	2422.2
976.587	2327.74
976.887	2394.63
977.187	2419.71
977.487	2398.47
977.787	2320.28
978.087	2334.74
978.387	2360.05
978.687	2314.85
978.987	2317.34
979.286	2322.09
979.586	2319.83
979.885	2277.34
980.185	2256.55
980.484	2283.67
980.784	2230.34
981.083	2258.81
981.382	2238.25
981.682	2222.88
981.981	2210.45
982.28	2241.41
982.579	2188.08
982.878	2198.25
983.177	2202.54
983.475	2178.13
983.774	2152.15
984.073	2165.25
984.372	2154.86
984.67	2128.42
984.969	2129.77
985.267	2149.21
985.566	2116.89
985.864	2112.15
986.162	2098.14
986.461	2068.53
986.759	2080.51
987.057	2069.21
987.355	2035.31
987.653	2049.32
987.951	2049.1
988.249	2024.69
988.547	2024.47
988.844	2024.47
989.142	2012.26
989.44	1993.73
989.737	1976.11
990.035	1989.21
990.332	1976.11
990.63	1964.13
990.927	1931.14
991.224	1916.67
991.521	1943.79
991.819	1928.88
992.116	1886.39
992.413	1902.89
992.71	1898.82
993.006	1901.98
993.303	1895.2
993.6	1876.22
993.897	1869.22
994.193	1851.36
994.49	1871.93
994.787	1824.47
995.083	1835.09
995.379	1817.24
995.676	1817.69
995.972	1818.82
996.268	1813.85
996.565	1789.44
996.861	1797.58
997.157	1775.21
997.453	1781.99
997.749	1778.37
998.044	1758.71
998.34	1739.28
998.636	1765.49
998.932	1729.56
999.227	1686.62
999.523	1711.93
999.818	1727.07
1000.114	1709.45
1000.409	1684.81
1000.704	1674.19
1001	1661.76
1001.295	1673.74
1001.59	1642.56
1001.885	1643.01
1002.18	1622.22
1002.475	1603.69
1002.77	1627.87
1003.065	1610.69
1003.359	1635.78
1003.654	1574.99
1003.949	1600.75
1004.243	1563.24
1004.538	1580.86
1004.832	1563.24
1005.127	1573.63
1005.421	1518.04
1005.715	1534.31
1006.009	1524.82
1006.304	1519.85
1006.598	1525.27
1006.892	1511.94
1007.186	1507.87
1007.48	1503.58
1007.773	1480.53
1008.067	1501.99
1008.361	1464.26
1008.655	1456.35
1008.948	1440.08
1009.242	1455.22
1009.535	1426.29
1009.829	1417.93
1010.122	1417.93
1010.415	1429.23
1010.708	1396.91
1011.001	1422.45
1011.295	1408.89
1011.588	1389
1011.881	1383.58
1012.173	1365.95
1012.466	1358.27
1012.759	1374.99
1013.052	1338.38
1013.344	1358.95
1013.637	1343.13
1013.93	1318.5
1014.222	1332.28
1014.514	1322.56
1014.807	1334.77
1015.099	1315.11
1015.391	1311.26
1015.683	1281.44
1015.976	1284.82
1016.268	1261.1
1016.56	1271.27
1016.851	1260.42
1017.143	1244.15
1017.435	1243.02
1017.727	1244.83
1018.018	1251.83
1018.31	1246.18
1018.602	1218.16
1018.893	1201.44
1019.185	1191.04
1019.476	1185.62
1019.767	1192.17
1020.058	1189.01
1020.35	1188.78
1020.641	1161.66
1020.932	1160.99
1021.223	1131.38
1021.514	1147.65
1021.804	1136.81
1022.095	1146.75
1022.386	1130.93
1022.677	1096.13
1022.967	1104.49
1023.258	1084.38
1023.548	1111.27
1023.839	1107.65
1024.129	1088.67
1024.419	1078.95
1024.709	1057.71
1025	1064.94
1025.29	1051.61
1025.58	1033.76
1025.87	1065.85
1026.16	1038.5
1026.449	1057.49
1026.739	1036.47
1027.029	1033.98
1027.319	1035.11
1027.608	1029.69
1027.898	994.44
1028.187	1004.61
1028.477	1005.74
1028.766	987.66
1029.055	984.04
1029.344	966.19
1029.634	971.84
1029.923	961.67
1030.212	982.23
1030.501	966.19
1030.79	926.42
1031.078	949.01
1031.367	928.22
1031.656	960.31
1031.945	925.29
1032.233	904.5
1032.522	892.74
1032.81	902.01
1033.099	884.16
1033.387	892.29
1033.675	897.94
1033.963	891.84
1034.251	883.93
1034.54	877.15
1034.828	866.98
1035.116	865.63
1035.403	849.58
1035.691	852.75
1035.979	872.86
1036.267	843.25
1036.554	864.05
1036.842	844.61
1037.129	831.28
1037.417	821.56
1037.704	829.47
1037.992	806.42
1038.279	813.88
1038.566	798.51
1038.853	798.51
1039.14	798.51
