Data from breadboard_white_FLMS001491_00027.txt Node
Date: Wed Feb 08 10:47:30 GMT 2017
User: dcchb
Spectrometer: FLMS00149
Trigger mode: 0
Integration Time (sec): 2.000000E-2
Scans to average: 10
Electric dark correction enabled: true
Nonlinearity correction enabled: false
Boxcar width: 0
XAxis mode: Wavelengths
Number of Pixels in Spectrum: 2048
>>>>>Begin Spectral Data<<<<<
341.393	-4.15
341.776	-4.15
342.16	-4.15
342.543	-62.91
342.927	-76.24
343.31	-81.66
343.693	-69.46
344.077	-74.66
344.46	-39.86
344.843	-38.5
345.226	-59.52
345.61	-23.59
345.993	-19.75
346.376	6.24
346.759	18.67
347.142	26.58
347.525	45.34
347.908	53.25
348.291	63.64
348.674	88.5
349.057	104.77
349.44	134.83
349.823	135.28
350.206	174.6
350.588	204.2
350.971	240.13
351.354	253.47
351.737	275.84
352.119	291.88
352.502	300.02
352.884	296.4
353.267	319
353.65	323.07
354.032	321.94
354.414	322.62
354.797	361.49
355.179	340.25
355.562	351.54
355.944	358.32
356.326	368.27
356.709	357.19
357.091	371.43
357.473	376.63
357.855	373.69
358.238	383.63
358.62	366.01
359.002	384.09
359.384	366.69
359.766	367.36
360.148	390.87
360.53	385.89
360.912	370.3
361.294	386.8
361.676	366.23
362.057	378.44
362.439	375.95
362.821	378.44
363.203	347.7
363.584	366.91
363.966	354.03
364.348	378.44
364.729	370.3
365.111	365.1
365.493	360.81
365.874	371.88
366.256	377.76
366.637	359
367.019	372.33
367.4	381.15
367.781	352
368.163	364.43
368.544	375.72
368.925	368.27
369.306	391.32
369.688	372.56
370.069	380.02
370.45	378.44
370.831	363.52
371.212	363.97
371.593	353.58
371.974	363.07
372.355	371.2
372.736	390.64
373.117	394.48
373.498	365.56
373.879	377.53
374.26	391.32
374.641	375.72
375.021	341.83
375.402	388.38
375.783	394.03
376.163	399.45
376.544	407.14
376.925	375.27
377.305	405.55
377.686	379.11
378.066	405.1
378.447	434.93
378.827	410.75
379.208	425.44
379.588	455.95
379.968	413.24
380.349	429.96
380.729	420.92
381.109	415.5
381.489	415.72
381.87	419.79
382.25	436.74
382.63	427.7
383.01	439.68
383.39	462.5
383.77	444.2
384.15	443.75
384.53	455.04
384.91	466.34
385.29	457.3
385.67	467.7
386.049	462.05
386.429	485.1
386.809	489.62
387.189	481.48
387.568	487.36
387.948	495.27
388.328	509.28
388.707	509.51
389.087	514.25
389.466	525.78
389.846	512.9
390.225	512.44
390.605	542.05
390.984	544.08
391.363	553.8
391.743	558.32
392.122	549.96
392.501	557.41
392.881	574.82
393.26	579.11
393.639	607.13
394.018	604.42
394.397	576.62
394.776	614.14
395.155	634.93
395.534	616.17
395.913	618.88
396.292	635.38
396.671	656.17
397.05	644.19
397.429	669.5
397.808	659.78
398.186	676.51
398.565	710.63
398.944	720.12
399.323	729.16
399.701	709.05
400.08	742.72
400.458	751.31
400.837	758.54
401.215	765.09
401.594	768.71
401.972	777.97
402.351	805.77
402.729	791.76
403.107	810.74
403.486	835.6
403.864	853.68
404.242	849.61
404.62	868.37
404.999	902.04
405.377	875.15
405.755	929.16
406.133	929.38
406.511	956.27
406.889	972.77
407.267	986.1
407.645	1031.3
408.023	1073.33
408.401	1027.01
408.779	1063.16
409.156	1133.44
409.534	1094.58
409.912	1125.76
410.29	1193.33
410.667	1168.92
411.045	1203.73
411.422	1198.53
411.8	1255.7
412.178	1282.37
412.555	1315.81
412.933	1330.5
413.31	1345.64
413.687	1372.53
414.065	1401.01
414.442	1440.33
414.819	1466.54
415.197	1443.04
415.574	1496.83
415.951	1531.4
416.328	1556.03
416.705	1522.14
417.082	1584.05
417.46	1587.44
417.837	1608.46
418.214	1652.3
418.591	1656.37
418.967	1669.93
419.344	1713.32
419.721	1724.62
420.098	1725.29
420.475	1768.68
420.852	1793.77
421.228	1796.93
421.605	1797.61
421.982	1872.86
422.358	1887.1
422.735	1929.81
423.111	1913.76
423.488	1943.14
423.864	2012.74
424.241	2020.2
424.617	2029.47
424.994	2038.51
425.37	2082.57
425.746	2073.53
426.123	2125.74
426.499	2167.32
426.875	2188.33
427.251	2225.62
427.627	2276.69
428.003	2298.84
428.379	2300.42
428.756	2339.29
429.132	2358.5
429.507	2437.37
429.883	2452.05
430.259	2513.52
430.635	2511.04
431.011	2573.41
431.387	2586.97
431.763	2662.67
432.138	2697.25
432.514	2676.46
432.89	2692.5
433.265	2751.26
433.641	2772.05
434.016	2886.17
434.392	2909.9
434.767	2979.72
435.143	2976.33
435.518	3056.78
435.894	3064.92
436.269	3113.51
436.644	3134.75
437.02	3197.57
437.395	3203.22
437.77	3254.74
438.145	3283.9
438.52	3317.12
438.895	3372.26
439.271	3394.18
439.646	3452.48
440.021	3460.62
440.395	3492.03
440.77	3498.81
441.145	3547.62
441.52	3560.95
441.895	3578.58
442.27	3629.2
442.645	3619.03
443.019	3686.6
443.394	3674.85
443.769	3724.34
444.143	3740.38
444.518	3815.41
444.892	3758.91
445.267	3850.21
445.641	3894.05
446.016	3897.21
446.39	3939.47
446.764	3910.09
447.139	3970.66
447.513	4035.74
447.887	4038.23
448.262	4017.89
448.636	4114.61
449.01	4158.9
449.384	4184.66
449.758	4176.98
450.132	4237.54
450.506	4308.05
450.88	4350.99
451.254	4342.63
451.628	4386.92
452.002	4508.95
452.376	4509.85
452.75	4538.78
453.123	4567.03
453.497	4668.49
453.871	4702.39
454.244	4827.13
454.618	4855.38
454.992	4921.37
455.365	4891.54
455.739	5053.12
456.112	5033.91
456.486	5131.08
456.859	5186.22
457.232	5276.39
457.606	5303.96
457.979	5311.19
458.352	5503.27
458.725	5564.29
459.099	5594.57
459.472	5683.83
459.845	5747.11
460.218	5830.27
460.591	5879.31
460.964	5898.74
461.337	6075.24
461.71	6180.77
462.083	6206.53
462.456	6206.31
462.829	6299.41
463.201	6378.5
463.574	6425.96
463.947	6530.37
464.32	6637.71
464.692	6767.42
465.065	6888.32
465.438	6858.49
465.81	7019.84
466.183	7039.73
466.555	7248.31
466.928	7239.27
467.3	7302.1
467.672	7412.6
468.045	7656.21
468.417	7616.44
468.789	7699.6
469.161	7741.63
469.534	7973.72
469.906	8124.67
470.278	8180.72
470.65	8334.84
471.022	8427.26
471.394	8628.39
471.766	8743.41
472.138	8817.99
472.51	8923.97
472.882	9104.76
473.253	9259.56
473.625	9300.46
473.997	9589.72
474.369	9632.88
474.74	9778.19
475.112	9961.24
475.484	10106.32
475.855	10339.08
476.227	10345.86
476.598	10676.7
476.97	10801.67
477.341	11067.42
477.713	11163.01
478.084	11243.01
478.455	11647.07
478.827	11623.79
479.198	12075.98
479.569	11979.71
479.94	12379.93
480.311	12536.99
480.682	12845.91
481.053	13034.6
481.424	13296.51
481.795	13381.48
482.166	13715.03
482.537	13842.94
482.908	14129.94
483.279	14217.17
483.65	14613.77
484.021	14843.59
484.391	15018.05
484.762	15098.5
485.133	15306.18
485.503	15626.62
485.874	15842.44
486.244	15993.62
486.615	16266.61
486.985	16485.81
487.356	16873.37
487.726	17027.49
488.097	17347.48
488.467	17339.8
488.837	17810.97
489.207	18027.01
489.578	18248.47
489.948	18407.79
490.318	18697.73
490.688	18696.15
491.058	19098.4
491.428	19379.07
491.798	19547.42
492.168	19965.72
492.538	20005.04
492.908	20123.23
493.278	20543.56
493.648	20545.82
494.017	20892.25
494.387	21076.2
494.757	21195.06
495.126	21499.01
495.496	21475.96
495.866	21656.29
496.235	21888.15
496.605	22162.27
496.974	22278.2
497.344	22513.22
497.713	22621.24
498.082	22716.15
498.452	23008.8
498.821	23253.99
499.19	23254.22
499.559	23486.76
499.928	23625.96
500.298	23811.49
500.667	24150.47
501.036	24046.97
501.405	24335.09
501.774	24483.34
502.143	24601.3
502.512	24754.52
502.88	25021.63
503.249	25003.1
503.618	25220.04
503.987	25455.52
504.356	25510.43
504.724	25820.71
505.093	25921.72
505.462	26059.12
505.83	26290.75
506.199	26497.98
506.567	26769.38
506.936	26777.29
507.304	27100.22
507.672	27256.6
508.041	27357.61
508.409	27673.09
508.777	27773.2
509.145	28013.19
509.514	28150.59
509.882	28451.14
510.25	28460.64
510.618	28602.33
510.986	28845.03
511.354	29050.68
511.722	29265.81
512.09	29652.24
512.458	29566.6
512.826	29966.81
513.193	29934.5
513.561	30240.7
513.929	30428.27
514.297	30742.38
514.664	31020.12
515.032	31054.01
515.4	31498.75
515.767	31465.98
516.135	31700.1
516.502	31585.53
516.869	32149.35
517.237	32329.46
517.604	32288.78
517.972	32601.77
518.339	33008.09
518.706	32912.5
519.073	33176.9
519.44	33529.88
519.808	34045.8
520.175	33987.04
520.542	34376.86
520.909	34467.03
521.276	34682.85
521.643	35006
522.009	35148.14
522.376	35454.35
522.743	35706.55
523.11	36028.8
523.477	36448.67
523.843	36630.36
524.21	37089.11
524.577	37282.78
524.943	37337.92
525.31	37615.65
525.676	37900.16
526.043	38219.7
526.409	38529.07
526.776	38919.34
527.142	38947.59
527.508	39263.06
527.874	39502.15
528.241	39715.48
528.607	39782.15
528.973	40195.69
529.339	40177.84
529.705	40625.97
530.071	40961.32
530.437	41255.1
530.803	41368.55
531.169	41663
531.535	41677.69
531.901	41862.54
532.267	41980.05
532.632	42372.59
532.998	42439.48
533.364	42668.4
533.73	43059.35
534.095	43133.02
534.461	43302.51
534.826	43624.3
535.192	43645.32
535.557	43947.91
535.923	43846.9
536.288	44273.78
536.653	44320.56
537.019	44262.71
537.384	44551.74
537.749	44809.36
538.114	44850.49
538.479	44911.28
538.845	45196.24
539.21	45119.63
539.575	45326.86
539.94	45509
540.305	45657.02
540.67	45854.98
541.034	45977.01
541.399	46195.08
541.764	46291.58
542.129	46389.2
542.494	46579.71
542.858	46738.35
543.223	46766.14
543.587	46949.87
543.952	46974.95
544.316	47241.61
544.681	47235.74
545.045	47419.46
545.41	47659.45
545.774	47684.09
546.138	47832.33
546.503	47832.33
546.867	47817.19
547.231	48293.79
547.595	48216.05
547.959	48442.26
548.324	48448.13
548.688	48675.7
549.052	48765.64
549.416	48849.7
549.779	48939.87
550.143	49018.06
550.507	49324.95
550.871	49378.5
551.235	49349.35
551.599	49851.94
551.962	49816.91
552.326	49903.46
552.689	50102.1
553.053	50027.98
553.417	50159.5
553.78	50531.69
554.143	50435.2
554.507	50713.61
554.87	50747.96
555.234	51035.18
555.597	50949.76
555.96	51099.81
556.323	51251.45
556.686	51312.24
557.05	51485.57
557.413	51654.15
557.776	51805.11
558.139	51939.34
558.502	51992.22
558.865	52144.53
559.228	52297.07
559.59	52473.34
559.953	52431.3
560.316	52725.08
560.679	52836.49
561.041	53017.96
561.404	53169.59
561.767	53314.67
562.129	53370.49
562.492	53609.58
562.854	53581.33
563.217	53637.37
563.579	53849.8
563.941	53925.28
564.304	54136.34
564.666	54251.82
565.028	54291.82
565.39	54491.82
565.753	54539.95
566.115	54611.13
566.477	54847.06
566.839	54906.72
567.201	55119.82
567.563	55172.25
567.925	55280.72
568.287	55287.28
568.648	55421.73
569.01	55528.62
569.372	55626.02
569.734	55598.68
570.095	55777.66
570.457	55913.02
570.819	55921.38
571.18	56016.07
571.542	56112.79
571.903	56188.49
572.265	56217.87
572.626	56362.73
572.987	56390.97
573.349	56468.94
573.71	56605.88
574.071	56662.83
574.432	56724.07
574.794	56900.57
575.155	56906.89
575.516	56902.37
575.877	56953.45
576.238	56965.2
576.599	57155.25
576.96	57095.82
577.32	57060.11
577.681	57243.16
578.042	57298.07
578.403	57234.34
578.763	57301.69
579.124	57383.27
579.485	57456.26
579.845	57520.89
580.206	57440.66
580.566	57537.61
580.927	57485.64
581.287	57627.33
581.648	57501
582.008	57686.08
582.368	57558.18
582.728	57648.79
583.089	57623.48
583.449	57621.9
583.809	57693.99
584.169	57654.67
584.529	57595.69
584.889	57822.35
585.249	57708
585.609	57615.12
585.969	57728.11
586.329	57719.53
586.688	57759.3
587.048	57758.85
587.408	57649.25
587.768	57685.86
588.127	57744.16
588.487	57689.02
588.846	57825.97
589.206	57680.88
589.565	57720.66
589.925	57846.53
590.284	57783.48
590.643	57729.7
591.003	57877.26
591.362	57900.54
591.721	57901.44
592.08	57852.18
592.44	57877.04
592.799	57903.25
593.158	57816.47
593.517	57877.94
593.876	57924.72
594.235	57785.51
594.593	57975.57
594.952	57938.05
595.311	57837.94
595.67	57857.83
596.029	58059.86
596.387	58041.1
596.746	58025.28
597.104	57893.31
597.463	57964.27
597.822	58058.5
598.18	57957.49
598.538	58011.72
598.897	58126.97
599.255	57888.79
599.613	58278.38
599.972	58110.93
600.33	58148.67
600.688	58084.04
601.046	58240.42
601.404	58216.46
601.762	58178.27
602.12	58313.86
602.478	58266.63
602.836	58252.85
603.194	58217.37
603.552	58257.37
603.91	58194.09
604.268	58331.49
604.625	58278.61
604.983	58467.08
605.341	58254.43
605.698	58419.17
606.056	58446.06
606.413	58439.73
606.771	58510.47
607.128	58506.17
607.485	58412.16
607.843	58496
608.2	58558.15
608.557	58655.32
608.914	58598.15
609.272	58716.79
609.629	58726.51
609.986	58775.77
610.343	58705.94
610.7	58813.06
611.057	58809.22
611.414	58728.31
611.771	58796.34
612.127	58933.51
612.484	58867.75
612.841	58963.56
613.198	58860.29
613.554	58874.53
613.911	59028.42
614.267	59046.27
614.624	58987.97
614.98	59027.29
615.337	59143.44
615.693	59095.99
616.05	59080.62
616.406	59269.54
616.762	59114.52
617.118	59204.46
617.475	59130.56
617.831	59298.92
618.187	59288.53
618.543	59259.83
618.899	59447.17
619.255	59326.72
619.611	59315.64
619.967	59336.43
620.323	59452.82
620.678	59272.71
621.034	59315.64
621.39	59325.59
621.746	59295.08
622.101	59488.52
622.457	59296.66
622.812	59386.83
623.168	59504.11
623.523	59423.66
623.879	59490.55
624.234	59376.66
624.589	59433.61
624.945	59393.83
625.3	59484
625.655	59405.58
626.01	59404.23
626.365	59438.13
626.72	59404.23
627.075	59291.01
627.43	59416.66
627.785	59306.6
628.14	59347.73
628.495	59398.81
628.85	59286.27
629.205	59253.5
629.559	59373.72
629.914	59235.87
630.269	59289.88
630.623	59199.94
630.978	59151.35
631.332	59241.97
631.687	59235.42
632.041	59188.64
632.396	59215.31
632.75	59149.77
633.104	59148.19
633.459	59032.71
633.813	59002.43
634.167	58988.65
634.521	58992.94
634.875	58969.66
635.229	58947.07
635.583	58841.08
635.937	58841.31
636.291	58750.91
636.645	58832.49
636.999	58823.68
637.352	58804.24
637.706	58654.19
638.06	58799.27
638.413	58734.64
638.767	58617.81
639.121	58639.5
639.474	58489.68
639.828	58470.24
640.181	58517.92
640.534	58504.14
640.888	58393.86
641.241	58343.01
641.594	58407.65
641.947	58511.15
642.301	58322.22
642.654	58364.48
643.007	58324.03
643.36	58273.41
643.713	58242.68
644.066	58259.4
644.419	58113.42
644.771	57996.36
645.124	57791.62
645.477	57763.82
645.83	57547.1
646.182	57428.69
646.535	57352.08
646.888	57430.27
647.24	57256.94
647.593	57350.72
647.945	57321.12
648.298	57185.08
648.65	57152.54
649.002	57039.09
649.355	57145.53
649.707	57122.93
650.059	57214.46
650.411	57527.44
650.763	57590.49
651.115	57771.73
651.467	57713.2
651.819	57677.72
652.171	57597.27
652.523	57554.33
652.875	57500.1
653.227	57373.77
653.578	57636.59
653.93	57503.71
654.282	57377.62
654.633	57325.41
654.985	57430.5
655.337	57383.49
655.688	57370.16
656.039	57450.83
656.391	57221.91
656.742	57205.42
657.094	57249.03
657.445	57357.05
657.796	57302.59
658.147	57272.31
658.498	57269.82
658.849	57291.74
659.2	57203.61
659.551	57145.76
659.902	57235.7
660.253	57241.35
660.604	57217.17
660.955	57066.89
661.306	57195.02
661.656	57079.77
662.007	57056.04
662.358	57008.59
662.708	57065.31
663.059	56985.31
663.409	56864.18
663.76	57050.84
664.11	56990.51
664.461	57053.33
664.811	57044.29
665.161	56941.47
665.511	56894.92
665.862	57008.13
666.212	56993.44
666.562	56994.8
666.912	56915.25
667.262	56945.76
667.612	56869.61
667.962	56870.28
668.312	56827.12
668.662	56981.02
669.011	56838.65
669.361	56852.88
669.711	56842.94
670.06	56781.25
670.41	56732.66
670.76	56684.98
671.109	56761.36
671.459	56764.75
671.808	56693.57
672.157	56713.45
672.507	56510.52
672.856	56511.42
673.205	56628.48
673.554	56541.03
673.904	56457.87
674.253	56688.82
674.602	56601.36
674.951	56120.93
675.3	56037.54
675.649	56458.54
675.998	56348.26
676.346	56416.96
676.695	56441.6
677.044	56312.78
677.393	56367.25
677.741	56414.03
678.09	56259.9
678.438	56214.48
678.787	56302.84
679.135	56239.11
679.484	56035.73
679.832	56178.1
680.181	55987.14
680.529	56116.18
680.877	55971.55
681.225	55959.12
681.573	56055.39
681.922	55910.31
682.27	55814.04
682.618	55855.62
682.966	55810.65
683.314	55867.6
683.661	55750.09
684.009	55611.11
684.357	55573.6
684.705	55532.47
685.053	55591.45
685.4	55445.91
685.748	55302.64
686.095	55240.27
686.443	55181.52
686.79	55122.31
687.138	55194.85
687.485	55254.28
687.832	55073.72
688.18	55158.01
688.527	55002.08
688.874	54897.23
689.221	54878.02
689.568	54736.1
689.915	54656.33
690.262	54735.88
690.609	54721.19
690.956	54609.1
691.303	54523.23
691.65	54353.74
691.997	54331.14
692.344	54150.81
692.69	54188.32
693.037	54186.51
693.383	53946.07
693.73	53981.55
694.077	53856.8
694.423	53828.78
694.769	53782
695.116	53630.37
695.462	53468.79
695.808	53473.31
696.155	53494.78
696.501	53203.49
696.847	53306.54
697.193	53049.82
697.539	53238.52
697.885	52895.7
698.231	52851.63
698.577	52770.96
698.923	52718.98
699.269	52654.12
699.614	52497.29
699.96	52358.54
700.306	52479.21
700.651	52280.8
700.997	52166.45
701.342	52172.55
701.688	52076.74
702.033	51834.94
702.379	51831.32
702.724	51785.9
703.069	51823.19
703.415	51535.51
703.76	51548.16
704.105	51488.96
704.45	51295.97
704.795	51191.34
705.14	51074.28
705.485	51086.26
705.83	50975.75
706.175	50877.67
706.52	50870.22
706.865	50694.4
707.209	50647.17
707.554	50648.53
707.899	50580.96
708.243	50322.43
708.588	50405.6
708.932	50232.27
709.277	50107.52
709.621	50146.85
709.966	49889.45
710.31	50053.74
710.654	49643.13
710.998	49758.15
711.342	49712.28
711.687	49668.21
712.031	49430.25
712.375	49324.72
712.719	49309.35
713.063	49151.84
713.407	49488.11
713.75	49101.22
714.094	49146.42
714.438	48879.08
714.782	49006.76
715.125	48713.21
715.469	48808.35
715.812	48583.04
716.156	48421.24
716.499	48461.92
716.843	48609.71
717.186	48304.63
717.53	48427.12
717.873	48329.72
718.216	48238.65
718.559	48119.33
718.902	47727.02
719.246	47978.31
719.589	47864.42
719.932	47597.31
720.275	47646.8
720.617	47560.47
720.96	47489.74
721.303	47560.25
721.646	47422.62
721.989	47331.1
722.331	47395.05
722.674	47173.36
723.016	47048.17
723.359	47117.32
723.701	47144.21
724.044	46841.62
724.386	46638.46
724.729	46876.65
725.071	46543.1
725.413	46681.17
725.755	46520.5
726.097	46397.57
726.439	46135.65
726.782	46124.58
727.124	46261.07
727.465	46065.37
727.807	46187.63
728.149	45930.01
728.491	45924.36
728.833	45907.86
729.175	45734.98
729.516	45713.74
729.858	45722.55
730.199	45807.98
730.541	45680.75
730.882	45452.28
731.224	45649.79
731.565	45226.07
731.906	45367.76
732.248	45234.66
732.589	45083.93
732.93	45069.46
733.271	45073.76
733.612	44957.6
733.953	44887.1
734.294	44840.54
734.635	44557.61
734.976	44759.42
735.317	44518.52
735.658	44511.29
735.999	44513.32
736.339	44431.52
736.68	44590.83
737.021	44317.62
737.361	44074.01
737.702	44326.43
738.042	44046.44
738.383	44078.53
738.723	44074.46
739.063	43952.88
739.404	43958.31
739.744	43930.06
740.084	43649.39
740.424	43742.72
740.764	43612.55
741.104	43720.8
741.444	43403.07
741.784	43400.13
742.124	43481.48
742.464	43229.51
742.804	43303.64
743.143	43248.04
743.483	43050.53
743.823	42956.53
744.162	42911.56
744.502	42946.81
744.841	42888.51
745.181	42916.53
745.52	42758.34
745.86	42730.32
746.199	42549.76
746.538	42566.25
746.877	42606.93
747.216	42561.06
747.556	42268.63
747.895	42279.26
748.234	42135.3
748.573	42114.74
748.911	41989.77
749.25	41867.06
749.589	41636.33
749.928	41852.6
750.267	41738.48
750.605	41615.09
750.944	41486.96
751.283	41341.43
751.621	41460.97
751.96	41152.28
752.298	41151.38
752.636	41098.27
752.975	40968.56
753.313	40814.89
753.651	40837.71
753.989	40695.12
754.327	40801.78
754.666	40528.34
755.004	40464.39
755.342	40375.58
755.679	40324.96
756.017	40156.6
756.355	40072.53
756.693	39923.39
757.031	40096.49
757.368	39795.48
757.706	39707.35
758.044	39585.09
758.381	39645.2
758.719	39367.02
759.056	39338.77
759.394	39200.24
759.731	39044.76
760.068	38869.4
760.405	38744.66
760.743	38777.2
761.08	38774.49
761.417	38518
761.754	38492.24
762.091	38369.98
762.428	38269.64
762.765	38015.86
763.102	38092.7
763.438	37920.05
763.775	37777
764.112	37778.81
764.449	37762.76
764.785	37526.39
765.122	37315.32
765.458	37184.02
765.795	37108.54
766.131	36941.99
766.467	36899.96
766.804	36776.35
767.14	36565.51
767.476	36459.97
767.812	36367.09
768.148	36344.04
768.485	36130.26
768.821	35900.89
769.157	35868.35
769.492	35785.41
769.828	35772.08
770.164	35510.17
770.5	35444.41
770.836	35447.12
771.171	35124.42
771.507	35042.61
771.842	34814.59
772.178	34669.74
772.513	34732.56
772.849	34646.69
773.184	34476.3
773.519	34373.02
773.855	34216.87
774.19	34234.27
774.525	33923.32
774.86	33977.78
775.195	33725.58
775.53	33683.78
775.865	33347.29
776.2	33297.57
776.535	32961.76
776.87	32966.51
777.205	32902.33
777.539	32773.74
777.874	32845.61
778.209	32588.21
778.543	32462.34
778.878	32359.97
779.212	32280.65
779.547	32026.42
779.881	32086.98
780.215	31924.05
780.55	32025.51
780.884	31789.81
781.218	31686.09
781.552	31642.93
781.886	31541.46
782.22	31311.41
782.554	31181.02
782.888	30962.04
783.222	30717.07
783.556	30731.54
783.889	30566.34
784.223	30447.48
784.557	30276.63
784.89	30335.61
785.224	30146.92
785.557	30096.98
785.891	30021.05
786.224	29821.05
786.558	29939.92
786.891	29484.79
787.224	29500.38
787.557	29385.13
787.891	29292.48
788.224	29188.3
788.557	29244.34
788.89	29186.04
789.223	28974.97
789.556	28939.95
789.888	28889.33
790.221	28651.14
790.554	28490.69
790.887	28501.31
791.219	28360.3
791.552	28250.02
791.884	28114.88
792.217	28072.4
792.549	28038.73
792.882	27779.52
793.214	27593.09
793.546	27738.17
793.879	27578.4
794.211	27394.9
794.543	27474.45
794.875	27307.67
795.207	27279.65
795.539	27169.37
795.871	27109.26
796.203	26899.09
796.535	26797.18
796.867	26796.95
797.198	26730.51
797.53	26580.46
797.862	26473.12
798.193	26464.76
798.525	26295.72
798.856	26267.25
799.188	25961.94
799.519	26092.11
799.85	25857.31
800.182	25840.37
800.513	25824.77
800.844	25567.38
801.175	25705.23
801.506	25608.73
801.837	25479.02
802.168	25470.21
802.499	25316.09
802.83	25244.22
803.161	25088.3
803.491	25077.45
803.822	25098.01
804.153	25001.07
804.483	24798.59
804.814	24723.33
805.145	24770.79
805.475	24687.4
805.805	24502.55
806.136	24452.15
806.466	24460.29
806.796	24383.91
807.126	24210.13
807.457	24133.74
807.787	24160.18
808.117	24057.59
808.447	23953.41
808.777	23968.78
809.107	23843.36
809.436	23846.75
809.766	23826.63
810.096	23630.48
810.426	23481.56
810.755	23672.29
811.085	23564.04
811.414	23340.54
811.744	23322.92
812.073	23259.19
812.403	23237.72
812.732	23118.18
813.061	23131.06
813.39	22898.97
813.719	22832.76
814.049	22995.92
814.378	22836.83
814.707	22777.17
815.036	22647.23
815.365	22626.66
815.693	22407.24
816.022	22451.3
816.351	22338.54
816.68	22259.44
817.008	22334.7
817.337	22171.31
817.665	22189.39
817.994	22160.69
818.322	22090.86
818.651	21998.21
818.979	21936.74
819.307	21979
819.636	21967.7
819.964	21788.04
820.292	21879.11
820.62	21864.65
820.948	21793.69
821.276	21781.72
821.604	21680.25
821.932	21623.08
822.259	21818.1
822.587	21725.67
822.915	21589.86
823.243	21741.26
823.57	21624.21
823.898	21646.58
824.225	21501.04
824.553	21583.75
824.88	21542.17
825.207	21607.26
825.535	21554.83
825.862	21633.47
826.189	21419.92
826.516	21564.55
826.843	21631.89
827.17	21609.06
827.497	21571.1
827.824	21520.48
828.151	21559.57
828.478	21497.66
828.805	21602.29
829.131	21477.32
829.458	21419.47
829.785	21394.61
830.111	21409.97
830.438	21574.26
830.764	21406.36
831.09	21447.94
831.417	21272.12
831.743	21409.97
832.069	21418.34
832.395	21326.59
832.722	21375.4
833.048	21445.91
833.374	21348.05
833.7	21250.88
834.026	21232.35
834.351	21240.03
834.677	21213.37
835.003	21259.47
835.329	21240.49
835.654	21195.29
835.98	21115.97
836.306	21147.16
836.631	21022.41
836.956	21052.02
837.282	21042.75
837.607	20844.56
837.932	20902.19
838.258	20867.84
838.583	20887.5
838.908	20809.09
839.233	20802.08
839.558	20713.95
839.883	20774.06
840.208	20598.02
840.533	20694.96
840.858	20501.52
841.182	20602.31
841.507	20450.68
841.832	20458.36
842.156	20366.61
842.481	20342.66
842.805	20268.53
843.13	20258.37
843.454	20258.82
843.778	20206.84
844.103	20000.75
844.427	20042.55
844.751	20055.43
845.075	19929.79
845.399	19779.96
845.723	19729.79
846.047	19724.82
846.371	19590.81
846.695	19619.96
847.019	19474.66
847.343	19409.57
847.666	19283.7
847.99	19266.53
848.313	19186.3
848.637	19090.03
848.96	19054.78
849.284	18971.62
849.607	18851.17
849.931	18740.89
850.254	18657.05
850.577	18554
850.9	18446.89
851.223	18396.49
851.546	18355.59
851.869	18215.26
852.192	18304.74
852.515	18153.79
852.838	18038.76
853.161	18012.1
853.483	17901.37
853.806	17920.57
854.129	17812.78
854.451	17728.94
854.774	17666.57
855.096	17556.06
855.419	17624.54
855.741	17412.34
856.063	17509.06
856.385	17395.39
856.708	17364.88
857.03	17305.67
857.352	17258.44
857.674	17194.94
857.996	17133.48
858.318	16978.45
858.64	17046.47
858.961	17004.67
859.283	16960.6
859.605	16888.06
859.926	16860.04
860.248	16855.97
860.57	16696.88
860.891	16807.16
861.212	16746.82
861.534	16588.86
861.855	16570.55
862.176	16483.32
862.498	16577.33
862.819	16542.76
863.14	16410.11
863.461	16389.77
863.782	16325.59
864.103	16283.1
864.424	16257.79
864.745	16326.49
865.065	16136.67
865.386	16108.42
865.707	16187.51
866.027	16139.83
866.348	16045.14
866.668	16040.17
866.989	15994.3
867.309	15786.62
867.63	16001.53
867.95	15838.37
868.27	15595.89
868.59	15845.15
868.91	15781.65
869.23	15912.04
869.55	15720.18
869.87	15860.74
870.19	15731.25
870.51	15736.22
870.83	15710.24
871.15	15635.44
871.469	15652.61
871.789	15574.42
872.109	15568.55
872.428	15411.04
872.748	15493.29
873.067	15456.91
873.386	15484.03
873.706	15458.27
874.025	15341.66
874.344	15239.51
874.663	15303.47
874.982	15327.2
875.301	15276.12
875.62	15296.46
875.939	15193.19
876.258	15178.27
876.577	15192.28
876.896	15191.61
877.214	15024.38
877.533	15046.75
877.852	15009.92
878.17	14994.1
878.489	15045.17
878.807	15066.64
879.125	15050.14
879.444	15011.5
879.762	14897.6
880.08	14904.16
880.398	14829.36
880.716	14827.55
881.034	14818.28
881.352	14816.02
881.67	14747.1
881.988	14732.41
882.306	14642.02
882.624	14622.81
882.941	14492.64
883.259	14483.6
883.577	14441.12
883.894	14462.36
884.212	14488.57
884.529	14341.01
884.846	14368.58
885.164	14379.42
885.481	14325.87
885.798	14357.5
886.115	14164.74
886.432	14206.55
886.75	14142.59
887.067	14256.49
887.383	14124.52
887.7	14130.84
888.017	14080.67
888.334	14031.18
888.651	14014.24
888.967	14018.76
889.284	13879.1
889.6	13950.06
889.917	13734.7
890.233	13802.94
890.55	13788.71
890.866	13790.06
891.182	13689.27
891.498	13675.49
891.815	13591.42
892.131	13584.64
892.447	13508.71
892.763	13459.45
893.079	13435.27
893.395	13487.24
893.71	13336.06
894.026	13372.9
894.342	13322.05
894.657	13196.63
894.973	13142.85
895.289	13170.64
895.604	13079.12
895.92	12988.27
896.235	12995.28
896.55	13049.29
896.865	12880.48
897.181	12848.84
897.496	12937.2
897.811	12808.62
898.126	12731.33
898.441	12725.91
898.756	12674.38
899.071	12551.9
899.386	12592.8
899.7	12554.39
900.015	12467.38
900.33	12317.78
900.644	12415.18
900.959	12326.6
901.273	12321.4
901.588	12174.51
901.902	12157.56
902.216	12156.21
902.531	12093.38
902.845	12033.27
903.159	11977.68
903.473	11907.17
903.787	11900.62
904.101	11759.38
904.415	11909.88
904.729	11795.09
905.042	11690.23
905.356	11690.91
905.67	11635.54
905.984	11617.01
906.297	11563
906.611	11460.86
906.924	11506.73
907.237	11423.8
907.551	11438.03
907.864	11346.51
908.177	11309.67
908.491	11244.37
908.804	11184.93
909.117	11126.85
909.43	11079.4
909.743	11099.51
910.056	11010.47
910.368	10964.37
910.681	10918.5
910.994	10850.93
911.307	10792.17
911.619	10741.78
911.932	10769.58
912.244	10654.55
912.557	10620.88
912.869	10630.37
913.181	10556.7
913.494	10547.43
913.806	10486.65
914.118	10459.53
914.43	10356.25
914.742	10337.27
915.054	10253.2
915.366	10215.24
915.678	10232.41
915.99	10152.42
916.302	10083.04
916.613	10056.37
916.925	10041.23
917.236	9969.82
917.548	9954.91
917.859	9919.88
918.171	9817.28
918.482	9826.78
918.794	9780.68
919.105	9746.1
919.416	9690.96
919.727	9647.35
920.038	9642.15
920.349	9586.1
920.66	9530.74
920.971	9489.16
921.282	9401.48
921.593	9404.41
921.903	9230.41
922.214	9213.01
922.525	9277.19
922.835	9188.6
923.146	9158.54
923.456	9111.09
923.767	9120.35
924.077	9127.81
924.387	9058.21
924.697	9062.73
925.008	9019.34
925.318	8884.2
925.628	8995.16
925.938	8813.69
926.248	8778.89
926.558	8739.35
926.867	8709.52
927.177	8723.53
927.487	8708.61
927.796	8589.52
928.106	8545.68
928.416	8480.6
928.725	8576.86
929.034	8460.94
929.344	8434.5
929.653	8458
929.962	8350.43
930.271	8294.39
930.581	8272.47
930.89	8272.01
931.199	8185.24
931.508	8114.96
931.817	8177.55
932.125	8141.85
932.434	8086.03
932.743	8008.52
933.051	7937.11
933.36	7957.9
933.669	7893.49
933.977	7809.88
934.286	7827.28
934.594	7818.47
934.902	7783.67
935.21	7695.53
935.519	7633.39
935.827	7732.59
936.135	7651.47
936.443	7554.74
936.751	7521.98
937.059	7562.43
937.367	7465.03
937.674	7508.42
937.982	7435.2
938.29	7396.33
938.597	7384.81
938.905	7328.76
939.213	7273.62
939.52	7264.13
939.827	7250.57
940.135	7198.82
940.442	7154.08
940.749	7175.77
941.056	7100.97
941.363	7032.72
941.67	7053.06
941.977	7059.62
942.284	7009.9
942.591	6938.26
942.898	6885.16
943.205	6915.21
943.511	6849.68
943.818	6841.09
944.125	6791.6
944.431	6807.65
944.738	6742.79
945.044	6708.67
945.35	6664.15
945.657	6678.16
945.963	6597.71
946.269	6634.54
946.575	6564.94
946.881	6516.81
947.187	6547.09
947.493	6479.74
947.799	6436.36
948.105	6410.59
948.41	6367.66
948.716	6342.8
949.022	6286.76
949.327	6322.69
949.633	6237.72
949.938	6227.55
950.244	6254.89
950.549	6163.82
950.854	6133.54
951.16	6122.01
951.465	6086.99
951.77	6053.54
952.075	6054.9
952.38	6053.32
952.685	6037.27
952.99	5980.77
953.294	5982.13
953.599	5906.43
953.904	5861.46
954.209	5844.28
954.513	5850.83
954.818	5838.18
955.122	5799.76
955.426	5769.93
955.731	5749.59
956.035	5672.08
956.339	5686.09
956.643	5718.86
956.948	5645.19
957.252	5598.86
957.556	5580.56
957.86	5515.02
958.163	5567.9
958.467	5496.95
958.771	5498.08
959.075	5483.16
959.378	5450.85
959.682	5423.28
959.985	5377.4
960.289	5331.3
960.592	5344.18
960.896	5279.1
961.199	5258.76
961.502	5241.36
961.805	5228.7
962.108	5207.24
962.411	5170.63
962.714	5132.44
963.017	5181.7
963.32	5085.21
963.623	5067.35
963.926	5072.1
964.228	5054.02
964.531	5060.35
964.833	5030.29
965.136	4956.4
965.438	5019.44
965.741	4965.66
966.043	4934.7
966.345	4886.57
966.648	4875.95
966.95	4834.59
967.252	4832.1
967.554	4773.58
967.856	4793.91
968.158	4782.16
968.46	4776.74
968.761	4702.39
969.063	4708.04
969.365	4689.74
969.666	4649.28
969.968	4607.93
970.269	4614.26
970.571	4561.6
970.872	4572.22
971.174	4543.07
971.475	4562.06
971.776	4499.91
972.077	4486.58
972.378	4454.71
972.679	4498.1
972.98	4418.1
973.281	4402.06
973.582	4415.62
973.883	4356.41
974.183	4354.15
974.484	4331.78
974.785	4333.81
975.085	4266.7
975.386	4312.57
975.686	4268.5
975.986	4286.81
976.287	4219.92
976.587	4154.38
976.887	4173.59
977.187	4167.26
977.487	4137.43
977.787	4121.39
978.087	4115.29
978.387	4081.84
978.687	4085.91
978.987	4040.49
979.286	3951.22
979.586	4021.96
979.885	4011.11
980.185	3975.4
980.484	3987.61
980.784	3949.87
981.083	3890.43
981.382	3879.36
981.682	3916.2
981.981	3874.62
982.28	3894.95
982.579	3835.29
982.878	3790.32
983.177	3813.6
983.475	3810.89
983.774	3774.73
984.073	3756.65
984.372	3765.69
984.67	3733.38
984.969	3736.09
985.267	3687.95
985.566	3664.45
985.864	3645.24
986.162	3661.74
986.461	3615.41
986.759	3574.51
987.057	3563.44
987.355	3563.66
987.653	3529.09
987.951	3516.66
988.249	3509.88
988.547	3517.34
988.844	3449.77
989.142	3497.9
989.44	3432.14
989.737	3459.03
990.035	3365.02
990.332	3379.71
990.63	3363.67
990.927	3347.4
991.224	3330
991.521	3350.34
991.819	3287.74
992.116	3297.46
992.413	3297.23
992.71	3271.02
993.006	3292.94
993.303	3219.27
993.6	3201.64
993.897	3158.7
994.193	3213.39
994.49	3176.33
994.787	3167.06
995.083	3129.55
995.379	3095.2
995.676	3139.72
995.972	3142.88
996.268	3059.27
996.565	3033.73
996.861	3034.64
997.157	3056.33
997.453	2989.89
997.749	2980.4
998.044	2957.58
998.34	2958.26
998.636	2942.89
998.932	2916
999.227	2904.47
999.523	2914.87
999.818	2903.34
1000.114	2831.48
1000.409	2850.24
1000.704	2818.6
1001	2808.65
1001.295	2806.17
1001.59	2760.52
1001.885	2767.75
1002.18	2748.32
1002.475	2724.36
1002.77	2746.06
1003.065	2683.23
1003.359	2654.31
1003.654	2651.6
1003.949	2642.33
1004.243	2645.95
1004.538	2603.24
1004.832	2658.6
1005.127	2595.78
1005.421	2593.07
1005.715	2549.68
1006.009	2580.41
1006.304	2523.92
1006.598	2526.85
1006.892	2513.07
1007.186	2482.56
1007.48	2462.68
1007.773	2459.51
1008.067	2449.12
1008.361	2394.43
1008.655	2431.26
1008.948	2372.06
1009.242	2364.37
1009.535	2367.99
1009.829	2352.62
1010.122	2357.14
1010.415	2318.95
1010.708	2305.84
1011.001	2319.18
1011.295	2310.59
1011.588	2260.42
1011.881	2281.44
1012.173	2244.15
1012.466	2231.95
1012.759	2212.96
1013.052	2204.6
1013.344	2184.04
1013.637	2235.79
1013.93	2158.28
1014.222	2153.98
1014.514	2142.91
1014.807	2111.72
1015.099	2100.65
1015.391	2094.78
1015.683	2074.44
1015.976	2092.29
1016.268	2056.58
1016.56	2048.45
1016.851	2073.53
1017.143	2032.86
1017.435	2004.61
1017.727	1983.14
1018.018	2002.57
1018.31	1986.76
1018.602	1999.18
1018.893	1926.42
1019.185	1931.62
1019.476	1884.61
1019.767	1882.13
1020.058	1878.28
1020.35	1877.38
1020.641	1866.08
1020.932	1845.29
1021.223	1836.03
1021.514	1810.72
1021.804	1802.81
1022.095	1831.73
1022.386	1780.66
1022.677	1791.96
1022.967	1727.78
1023.258	1712.41
1023.548	1758.97
1023.839	1740.21
1024.129	1695.92
1024.419	1690.04
1024.709	1650.04
1025	1689.36
1025.29	1658.18
1025.58	1640.32
1025.87	1637.39
1026.16	1616.82
1026.449	1644.84
1026.739	1615.92
1027.029	1607.1
1027.319	1585.18
1027.608	1570.04
1027.898	1565.52
1028.187	1573.89
1028.477	1556.94
1028.766	1553.77
1029.055	1520.55
1029.344	1515.58
1029.634	1500.21
1029.923	1481.23
1030.212	1476.94
1030.501	1481.01
1030.79	1447.11
1031.078	1446.2
1031.367	1462.48
1031.656	1443.04
1031.945	1426.77
1032.233	1418.41
1032.522	1427.67
1032.81	1394.45
1033.099	1387.45
1033.387	1366.66
1033.675	1372.76
1033.963	1371.18
1034.251	1347.45
1034.54	1309.49
1034.828	1318.52
1035.116	1314.91
1035.403	1292.76
1035.691	1309.71
1035.979	1257.28
1036.267	1276.94
1036.554	1251.41
1036.842	1286.66
1037.129	1229.71
1037.417	1236.72
1037.704	1248.47
1037.992	1240.79
1038.279	1223.61
1038.566	1170.51
1038.853	1170.51
1039.14	1170.51
