Data from breadboard_white_FLMS001491_00083.txt Node
Date: Wed Feb 08 10:48:23 GMT 2017
User: dcchb
Spectrometer: FLMS00149
Trigger mode: 0
Integration Time (sec): 2.000000E-2
Scans to average: 10
Electric dark correction enabled: true
Nonlinearity correction enabled: false
Boxcar width: 0
XAxis mode: Wavelengths
Number of Pixels in Spectrum: 2048
>>>>>Begin Spectral Data<<<<<
341.393	-17.47
341.776	-17.47
342.16	-17.47
342.543	-41.65
342.927	-49.11
343.31	-56.34
343.693	-62.89
344.077	-68.54
344.46	-60.86
344.843	-50.92
345.226	-39.62
345.61	-8.88
345.993	-29.22
346.376	-23.12
346.759	15.07
347.142	26.14
347.525	39.02
347.908	63.66
348.291	66.59
348.674	96.2
349.057	93.71
349.44	136.42
349.823	156.08
350.206	179.81
350.588	207.61
350.971	218.91
351.354	230.21
351.737	238.12
352.119	266.59
352.502	271.56
352.884	281.05
353.267	284.44
353.65	303.2
354.032	329.41
354.414	326.25
354.797	321.95
355.179	327.15
355.562	349.52
355.944	359.02
356.326	344.55
356.709	362.18
357.091	357.21
357.473	362.18
357.855	372.12
358.238	367.15
358.62	333.25
359.002	360.37
359.384	373.7
359.766	349.98
360.148	362.63
360.53	356.76
360.912	373.48
361.294	350.2
361.676	355.85
362.057	356.53
362.439	359.24
362.821	355.85
363.203	361.73
363.584	362.41
363.966	332.8
364.348	355.63
364.729	358.56
365.111	324.89
365.493	334.84
365.874	346.59
366.256	352.46
366.637	347.94
367.019	356.53
367.4	341.16
367.781	361.73
368.163	355.17
368.544	352.01
368.925	349.98
369.306	345.23
369.688	358.56
370.069	356.08
370.45	355.85
370.831	347.04
371.212	355.63
371.593	356.76
371.974	362.41
372.355	351.56
372.736	345.01
373.117	348.17
373.498	337.32
373.879	359.24
374.26	374.83
374.641	345.23
375.021	360.6
375.402	375.51
375.783	377.77
376.163	396.53
376.544	373.7
376.925	388.62
377.305	373.25
377.686	371.9
378.066	367.6
378.447	391.11
378.827	378.9
379.208	382.97
379.588	383.65
379.968	383.65
380.349	394.95
380.729	391.78
381.109	406.25
381.489	391.11
381.87	415.96
382.25	400.14
382.63	414.83
383.01	419.58
383.39	422.07
383.77	410.54
384.15	425.23
384.53	428.62
384.91	421.16
385.29	452.8
385.67	445.34
386.049	420.71
386.429	459.8
386.809	448.51
387.189	469.75
387.568	468.62
387.948	451.22
388.328	472.91
388.707	467.04
389.087	460.93
389.466	485.79
389.846	479.24
390.225	480.14
390.605	485.57
390.984	475.62
391.363	481.72
391.743	508.16
392.122	520.82
392.501	520.82
392.881	524.44
393.26	531.67
393.639	531.89
394.018	524.21
394.397	529.63
394.776	543.42
395.155	549.52
395.534	552.01
395.913	566.02
396.292	560.37
396.671	580.25
397.05	580.93
397.429	602.17
397.808	599.46
398.186	610.08
398.565	610.31
398.944	611.21
399.323	629.97
399.701	645.56
400.08	639.01
400.458	655.73
400.837	641.49
401.215	686.01
401.594	684.21
401.972	696.18
402.351	685.79
402.729	711.1
403.107	729.63
403.486	716.75
403.864	739.12
404.242	752.9
404.62	764.2
404.999	761.27
405.377	798.1
405.755	784.32
406.133	825.44
406.511	845.33
406.889	845.56
407.267	866.35
407.645	885.33
408.023	883.07
408.401	922.62
408.779	926.01
409.156	916.52
409.534	959.45
409.912	969.4
410.29	969.4
410.667	994.03
411.045	1044.2
411.422	1024.99
411.8	1079.9
412.178	1086
412.555	1136.85
412.933	1113.12
413.31	1137.07
413.687	1190.86
414.065	1163.06
414.442	1191.31
414.819	1210.52
415.197	1208.71
415.574	1252.55
415.951	1273.34
416.328	1280.8
416.705	1294.13
417.082	1295.71
417.46	1350.4
417.837	1349.72
418.214	1365.77
418.591	1380.23
418.967	1366.9
419.344	1425.65
419.721	1461.13
420.098	1427.69
420.475	1473.11
420.852	1474.47
421.228	1481.7
421.605	1519.44
421.982	1530.96
422.358	1573
422.735	1609.38
423.111	1566.22
423.488	1602.15
423.864	1615.03
424.241	1665.87
424.617	1654.35
424.994	1702.03
425.37	1707.68
425.746	1697.51
426.123	1737.74
426.499	1744.52
426.875	1792.42
427.251	1822.71
427.627	1850.05
428.003	1907.68
428.379	1906.55
428.756	1919.43
429.132	1947.67
429.507	1980.22
429.883	2008.24
430.259	2027.9
430.635	2070.38
431.011	2074
431.387	2136.37
431.763	2160.55
432.138	2205.3
432.514	2220.21
432.89	2236.48
433.265	2301.11
433.641	2260.89
434.016	2327.33
434.392	2368.23
434.767	2428.57
435.143	2386.76
435.518	2413.88
435.894	2475.57
436.269	2539.07
436.644	2562.35
437.02	2559.64
437.395	2585.85
437.77	2617.26
438.145	2657.71
438.52	2665.85
438.895	2735.9
439.271	2728.22
439.646	2809.35
440.021	2828.56
440.395	2823.13
440.77	2812.28
441.145	2875.79
441.52	2919.17
441.895	2881.21
442.27	2946.29
442.645	2933.86
443.019	2987.87
443.394	2964.15
443.769	3032.62
444.143	3019.96
444.518	3084.59
444.892	3080.3
445.267	3100.41
445.641	3161.65
446.016	3172.5
446.39	3184.03
446.764	3202.56
447.139	3217.25
447.513	3286.17
447.887	3329.33
448.262	3286.17
448.636	3304.25
449.01	3324.36
449.384	3393.06
449.758	3403
450.132	3458.6
450.506	3450.23
450.88	3501.53
451.254	3466.5
451.628	3574.3
452.002	3578.37
452.376	3637.8
452.75	3685.48
453.123	3701.75
453.497	3813.16
453.871	3777.23
454.244	3858.81
454.618	3877.79
454.992	3922.31
455.365	3909.88
455.739	4060.84
456.112	4100.39
456.486	4136.54
456.859	4200.04
457.232	4210.44
457.606	4287.5
457.979	4293.83
458.352	4421.51
458.725	4440.26
459.099	4458.57
459.472	4612.46
459.845	4607.94
460.218	4642.52
460.591	4732.01
460.964	4715.29
461.337	4853.14
461.71	4927.26
462.083	5007.26
462.456	5011.55
462.829	5031.66
463.201	5083.19
463.574	5107.59
463.947	5221.94
464.32	5355.72
464.692	5370.41
465.065	5394.59
465.438	5512.33
465.81	5581.7
466.183	5617.18
466.555	5720.46
466.928	5766.11
467.3	5838.19
467.672	5970.17
468.045	6051.3
468.417	6066.21
468.789	6159.99
469.161	6201.12
469.534	6341.91
469.906	6425.98
470.278	6477.95
470.65	6583.94
471.022	6708
471.394	6795.68
471.766	6879.52
472.138	6962.01
472.51	7111.61
472.882	7243.35
473.253	7357.93
473.625	7452.16
473.997	7519.05
474.369	7628.43
474.74	7720.63
475.112	7881.76
475.484	7980.74
475.855	8154.52
476.227	8187.74
476.598	8418.92
476.97	8499.14
477.341	8738.91
477.713	8871.11
478.084	8892.58
478.455	9135.73
478.827	9227.94
479.198	9522.39
479.569	9554.48
479.94	9818.43
480.311	9860.91
480.682	10059.78
481.053	10327.34
481.424	10494.12
481.795	10584.74
482.166	10791.51
482.537	10971.62
482.908	11126.42
483.279	11259.07
483.65	11504.94
484.021	11639.4
484.391	11784.48
484.762	12018.37
485.133	12040.97
485.503	12265.14
485.874	12494.74
486.244	12614.96
486.615	12888.18
486.985	13028.06
487.356	13277.09
487.726	13372.01
488.097	13627.37
488.467	13708.04
488.837	13957.98
489.207	14210.63
489.578	14336.28
489.948	14468.93
490.318	14725.42
490.688	14764.06
491.058	14976.94
491.428	15190.72
491.798	15437.72
492.168	15746.41
492.538	15776.46
492.908	15941.21
493.278	16135.32
493.648	16133.52
494.017	16390.01
494.387	16621.41
494.757	16680.39
495.126	16781.41
495.496	16922.42
495.866	17103.89
496.235	17286.25
496.605	17395.86
496.974	17510.2
497.344	17698.67
497.713	17858.89
498.082	18063.86
498.452	18188.83
498.821	18222.05
499.19	18376.4
499.559	18592.66
499.928	18628.82
500.298	18855.7
500.667	18980.22
501.036	18868.13
501.405	19220.44
501.774	19183.15
502.143	19420.44
502.512	19509.7
502.88	19676.25
503.249	19815
503.618	19901.78
503.987	20024.71
504.356	20215.9
504.724	20261.77
505.093	20426.51
505.462	20551.48
505.83	20724.13
506.199	20826.5
506.567	21168.41
506.936	21128.64
507.304	21338.35
507.672	21532.7
508.041	21626.48
508.409	21695.86
508.777	21891.56
509.145	22099.01
509.514	22181.04
509.882	22377.19
510.25	22387.59
510.618	22665.1
510.986	22708.94
511.354	23000
511.722	23181.92
512.09	23436.6
512.458	23373.33
512.826	23667.78
513.193	23725.41
513.561	23831.85
513.929	24010.15
514.297	24238.84
514.664	24393.41
515.032	24599.06
515.4	24859.61
515.767	24933.96
516.135	25072.94
516.502	25033.85
516.869	25395.42
517.237	25524
517.604	25602.19
517.972	25920.83
518.339	26059.13
518.706	26189.52
519.073	26311.55
519.44	26523.98
519.808	26959.45
520.175	26994.93
520.542	27192.43
520.909	27404.41
521.276	27308.14
521.643	27775.7
522.009	27978.18
522.376	28016.82
522.743	28299.07
523.11	28580.42
523.477	28820.64
523.843	29077.13
524.21	29356.67
524.577	29476.44
524.943	29721.63
525.31	29893.83
525.676	30149.87
526.043	30345.12
526.409	30486.81
526.776	30894.26
527.142	30936.74
527.508	31174.93
527.874	31487.24
528.241	31680.45
528.607	31602.71
528.973	32071.63
529.339	32065.53
529.705	32409.25
530.071	32567.89
530.437	32672.97
530.803	33030.93
531.169	33122.45
531.535	33184.37
531.901	33336.23
532.267	33455.09
532.632	33849.89
532.998	33918.59
533.364	34075.19
533.73	34179.37
534.095	34412.81
534.461	34525.12
534.826	34893.93
535.192	34962.17
535.557	35212.79
535.923	35095.5
536.288	35333.01
536.653	35444.2
537.019	35503.63
537.384	35647.35
537.749	35890.29
538.114	35936.61
538.479	36028.81
538.845	36190.84
539.21	36250.73
539.575	36430.84
539.94	36574.56
540.305	36754.67
540.67	36796.48
541.034	37025.62
541.399	37161.89
541.764	37108.56
542.129	37350.13
542.494	37426.52
542.858	37491.37
543.223	37684.59
543.587	37831.93
543.952	37835.32
544.316	37973.85
544.681	38156.21
545.045	38200.96
545.41	38519.37
545.774	38713.49
546.138	38617.67
546.503	38746.03
546.867	38724.79
547.231	39160.03
547.595	39081.61
547.959	39311.89
548.324	39439.8
548.688	39449.29
549.052	39592.56
549.416	39748.49
549.779	39891.08
550.143	39907.58
550.507	40271.19
550.871	40276.38
551.235	40384.86
551.599	40661.91
551.962	40710.72
552.326	40922.7
552.689	41129.47
553.053	40947.1
553.417	41082.24
553.78	41673.86
554.143	41470.03
554.507	41627.54
554.87	41836.57
555.234	42248.31
555.597	42076.79
555.96	42370.34
556.323	42479.26
556.686	42474.07
557.05	42939.82
557.413	42929.87
557.776	42995.64
558.139	43258
558.502	43396.08
558.865	43504.1
559.228	43975.27
559.59	43956.06
559.953	43966.23
560.316	44438.53
560.679	44411.19
561.041	44776.61
561.404	44837.17
561.767	45239.19
562.129	45021.12
562.492	45416.81
562.854	45492.97
563.217	45401.67
563.579	45720.76
563.941	46031.71
564.304	46211.14
564.666	46396.45
565.028	46417.69
565.39	46684.35
565.753	46890.45
566.115	47082.08
566.477	47254.05
566.839	47229.87
567.201	47595.06
567.563	47447.72
567.925	47847.94
568.287	47805.23
568.648	47977.42
569.01	48113.92
569.372	48367.02
569.734	48271.2
570.095	48609.72
570.457	48691.76
570.819	48795.26
571.18	48806.33
571.542	49096.27
571.903	48986.66
572.265	49225.75
572.626	49309.37
572.987	49387.11
573.349	49452.19
573.71	49678.17
574.071	49750.94
574.432	49880.88
574.794	50012.17
575.155	49981.89
575.516	49982.12
575.877	50180.98
576.238	50236.8
576.599	50333.07
576.96	50289.91
577.32	50405.84
577.681	50408.55
578.042	50584.81
578.403	50609.45
578.763	50606.28
579.124	50760.63
579.485	50872.72
579.845	50995.88
580.206	50793.17
580.566	50877.01
580.927	50992.49
581.287	51039.94
581.648	50884.02
582.008	51184.12
582.368	50991.36
582.728	51134.4
583.089	51086.04
583.449	51072.48
583.809	51082.2
584.169	51177.34
584.529	51151.8
584.889	51329.2
585.249	51124.46
585.609	51081.07
585.969	51302.76
586.329	51153.16
586.688	51260.73
587.048	51198.13
587.408	51210.11
587.768	51204.01
588.127	51224.35
588.487	51164.01
588.846	51445.58
589.206	51155.19
589.565	51242.65
589.925	51346.83
590.284	51203.78
590.643	51361.74
591.003	51312.48
591.362	51487.62
591.721	51440.16
592.08	51386.6
592.44	51551.34
592.799	51480.84
593.158	51446.71
593.517	51469.54
593.876	51495.75
594.235	51456.43
594.593	51460.95
594.952	51452.81
595.311	51476.09
595.67	51578.91
596.029	51679.02
596.387	51647.38
596.746	51618.69
597.104	51594.5
597.463	51602.19
597.822	51755.18
598.18	51630.89
598.538	51550.89
598.897	51834.05
599.255	51527.61
599.613	51956.3
599.972	51859.36
600.33	51906.36
600.688	51780.26
601.046	51847.61
601.404	52053.25
601.762	52014.38
602.12	52029.97
602.478	52055.51
602.836	52137.32
603.194	51981.61
603.552	51997.21
603.91	51940.94
604.268	52077.66
604.625	52019.8
604.983	52180.7
605.341	52119.69
605.698	52247.6
606.056	52255.96
606.413	52137.99
606.771	52350.87
607.128	52357.2
607.485	52271.55
607.843	52197.43
608.2	52492.56
608.557	52522.16
608.914	52447.82
609.272	52560.36
609.629	52568.94
609.986	52687.13
610.343	52533.24
610.7	52879.89
611.057	52693.69
611.414	52789.95
611.771	52717.41
612.127	52852.1
612.484	52786.79
612.841	52949.27
613.198	52828.37
613.554	52883.51
613.911	52974.13
614.267	52993.11
614.624	52977.29
614.98	53056.16
615.337	53168.93
615.693	53161.7
616.05	53126.89
616.406	53307.23
616.762	53162.83
617.118	53161.02
617.475	53219.1
617.831	53200.11
618.187	53324.63
618.543	53297.96
618.899	53502.48
619.255	53423.61
619.611	53339.77
619.967	53416.6
620.323	53466.09
620.678	53288.92
621.034	53341.13
621.39	53420.45
621.746	53269.94
622.101	53632.19
622.457	53434.23
622.812	53490.27
623.168	53565.07
623.523	53598.97
623.879	53629.48
624.234	53405.08
624.589	53528.69
624.945	53578.41
625.3	53586.32
625.655	53521.46
626.01	53589.03
626.365	53461.35
626.72	53528.47
627.075	53554.23
627.43	53497.96
627.785	53410.5
628.14	53491.86
628.495	53497.05
628.85	53478.3
629.205	53332.76
629.559	53472.87
629.914	53330.05
630.269	53448.69
630.623	53304.97
630.978	53277.85
631.332	53323.95
631.687	53408.24
632.041	53325.98
632.396	53217.74
632.75	53140.68
633.104	53269.49
633.459	53048.48
633.813	53017.07
634.167	52975.03
634.521	53039.21
634.875	53109.95
635.229	53036.73
635.583	52815.72
635.937	52943.62
636.291	52867.69
636.645	52878.99
636.999	52777.75
637.352	52889.61
637.706	52591.09
638.06	52742.27
638.413	52693.46
638.767	52618.88
639.121	52606.91
639.474	52484.65
639.828	52533.92
640.181	52539.11
640.534	52542.28
640.888	52286.01
641.241	52203.98
641.594	52359.91
641.947	52367.59
642.301	52271.78
642.654	52274.94
643.007	52292.11
643.36	52255.96
643.713	52202.85
644.066	52260.7
644.419	52035.17
644.771	51887.38
645.124	51559.48
645.477	51471.12
645.83	51190.22
646.182	51128.98
646.535	50954.3
646.888	51121.98
647.24	50860.51
647.593	51062.54
647.945	50981.64
648.298	50778.03
648.65	50669.11
649.002	50662.33
649.355	50833.17
649.707	50707.52
650.059	50844.69
650.411	51152.03
650.763	51288.07
651.115	51574.17
651.467	51386.37
651.819	51351.12
652.171	51318.13
652.523	51147.51
652.875	51235.87
653.227	51074.29
653.578	51222.31
653.93	51205.14
654.282	50996.33
654.633	50855.99
654.985	51019.15
655.337	50931.25
655.688	51037.01
656.039	51123.78
656.391	50865.26
656.742	50850.8
657.094	50909.33
657.445	50965.37
657.796	50862.09
658.147	50838.14
658.498	50838.59
658.849	50845.15
659.2	50848.08
659.551	50748.65
659.902	50890.57
660.253	50824.58
660.604	50917.46
660.955	50726.05
661.306	50731.02
661.656	50670.24
662.007	50701.2
662.358	50684.92
662.708	50725.6
663.059	50513.4
663.409	50433.18
663.76	50641.08
664.11	50608.32
664.461	50610.12
664.811	50528.54
665.161	50535.32
665.511	50479.96
665.862	50478.83
666.212	50534.87
666.562	50567.41
666.912	50460.07
667.262	50367.42
667.612	50345.05
667.962	50484.93
668.312	50351.37
668.662	50519.73
669.011	50369.23
669.361	50301.88
669.711	50421.2
670.06	50262.11
670.41	50293.97
670.76	50322
671.109	50309.57
671.459	50228.67
671.808	50164.03
672.157	50289.91
672.507	49952.51
672.856	50105.5
673.205	50137.37
673.554	50175.33
673.904	50010.37
674.253	50162.9
674.602	50063.92
674.951	49614.22
675.3	49454.9
675.649	49883.82
675.998	49742.12
676.346	49835.23
676.695	49954.32
677.044	49637.27
677.393	49668.23
677.741	49793.42
678.09	49634.1
678.438	49706.42
678.787	49705.74
679.135	49583.48
679.484	49401.34
679.832	49439.31
680.181	49370.83
680.529	49470.04
680.877	49309.14
681.225	49256.49
681.573	49576.7
681.922	49282.93
682.27	49142.82
682.618	49130.16
682.966	49112.08
683.314	49172.2
683.661	49021.92
684.009	48875.25
684.357	48731.76
684.705	48756.61
685.053	48673.68
685.4	48644.53
685.748	48471.88
686.095	48320.69
686.443	48285.21
686.79	48193.46
687.138	48263.97
687.485	48209.96
687.832	48052.68
688.18	48164.99
688.527	47895.17
688.874	47945.79
689.221	47892.91
689.568	47729.75
689.915	47587.6
690.262	47558.45
690.609	47558.45
690.956	47325.69
691.303	47318.23
691.65	47257.9
691.997	47176.77
692.344	46910.33
692.69	46834.86
693.037	46752.6
693.383	46517.58
693.73	46759.38
694.077	46422.21
694.423	46494.53
694.769	46267.41
695.116	46228.09
695.462	46169.79
695.808	45943.13
696.155	46132.73
696.501	45827.2
696.847	45772.74
697.193	45415.68
697.539	45641.44
697.885	45238.97
698.231	45194.67
698.577	45126.2
698.923	45081.46
699.269	44848.47
699.614	44708.58
699.96	44749.71
700.306	44745.87
700.651	44463.62
700.997	44384.75
701.342	44305.21
701.688	44238.77
702.033	44089.17
702.379	43970.07
702.724	43924.42
703.069	44038.77
703.415	43561.5
703.76	43583.42
704.105	43557.65
704.45	43401.27
704.795	43222.97
705.14	43051.9
705.485	43141.85
705.83	42977.33
706.175	42902.3
706.52	42908.86
706.865	42618.92
707.209	42626.61
707.554	42406.95
707.899	42505.93
708.243	42329.66
708.588	42331.7
708.932	42150.69
709.277	42097.13
709.621	41926.96
709.966	41758.15
710.31	41872.05
710.654	41580.98
710.998	41570.36
711.342	41623.92
711.687	41411.95
712.031	41204.5
712.375	41115.91
712.719	41183.48
713.063	41067.32
713.407	41256.47
713.75	40860.78
714.094	40894
714.438	40708.01
714.782	40861.23
715.125	40449.71
715.469	40697.16
715.812	40258.31
716.156	40246.78
716.499	40242.49
716.843	40292.43
717.186	39950.74
717.53	40283.84
717.873	40167.91
718.216	39977.41
718.559	39923.63
718.902	39626.01
719.246	39755.27
719.589	39607.25
719.932	39432.11
720.275	39457.2
720.617	39449.06
720.96	39295.62
721.303	39200.25
721.646	39299.46
721.989	38949.64
722.331	39271.21
722.674	38933.59
723.016	38895.63
723.359	38863.09
723.701	38928.62
724.044	38651.12
724.386	38487.28
724.729	38501.06
725.071	38509.43
725.413	38538.8
725.755	38401.63
726.097	38103.79
726.439	38030.12
726.782	38138.81
727.124	38274.18
727.465	37951.47
727.807	38000.96
728.149	38017.01
728.491	37806.39
728.833	37874.41
729.175	37554.2
729.516	37622.67
729.858	37595.78
730.199	37619.05
730.541	37447.31
730.882	37340.42
731.224	37682.1
731.565	37247.31
731.906	37221.78
732.248	37305.16
732.589	37035.11
732.93	36964.38
733.271	37039.41
733.612	36934.33
733.953	36984.49
734.294	36843.03
734.635	36669.25
734.976	36901.11
735.317	36779.53
735.658	36620.89
735.999	36646.65
736.339	36473.09
736.68	36506.99
737.021	36356.71
737.361	36216.15
737.702	36562.36
738.042	36225.42
738.383	36109.71
738.723	36253.67
739.063	36061.13
739.404	36051.64
739.744	35997.63
740.084	35879.89
740.424	35935.93
740.764	35750.4
741.104	35903.62
741.444	35696.84
741.784	35582.04
742.124	35662.49
742.464	35507.47
742.804	35491.65
743.143	35451.2
743.483	35394.7
743.823	35156.52
744.162	35148.84
744.502	35182.51
744.841	35056.41
745.181	35129.18
745.52	34966.92
745.86	35003.98
746.199	34871.33
746.538	34818.22
746.877	34786.13
747.216	34930.76
747.556	34694.61
747.895	34575.29
748.234	34489.42
748.573	34353.15
748.911	34400.38
749.25	34385.69
749.589	34255.07
749.928	34252.59
750.267	34240.84
750.605	33978.02
750.944	34204
751.283	33875.87
751.621	33982.76
751.96	33609.22
752.298	33723.11
752.636	33685.6
752.975	33565.6
753.313	33484.7
753.651	33586.62
753.989	33458.48
754.327	33272.73
754.666	33107.99
755.004	33128.32
755.342	33193.86
755.679	33048.78
756.017	32841.78
756.355	32906.18
756.693	32787.09
757.031	32788.22
757.368	32528.34
757.706	32514.55
758.044	32318.18
758.381	32383.48
758.719	32294
759.056	32392.98
759.394	32186.65
759.731	31940.78
760.068	31996.6
760.405	31900.79
760.743	31733.11
761.08	31781.24
761.417	31562.94
761.754	31569.27
762.091	31329.73
762.428	31167.7
762.765	30981.49
763.102	31209.96
763.438	30997.98
763.775	30872.11
764.112	30926.12
764.449	30764.09
764.785	30750.76
765.122	30507.15
765.458	30447.04
765.795	30313.48
766.131	30245.91
766.467	30209.08
766.804	30026.94
767.14	29942.42
767.476	29760.05
767.812	29680.73
768.148	29849.77
768.485	29530.23
768.821	29322.32
769.157	29373.39
769.492	29129.11
769.828	29309.22
770.164	29019.05
770.5	28911.26
770.836	28992.84
771.171	28666.29
771.507	28626.97
771.842	28459.97
772.178	28473.98
772.513	28422.23
772.849	28293.65
773.184	28258.85
773.519	28257.27
773.855	27910.83
774.19	27854.56
774.525	27805.98
774.86	27718.3
775.195	27630.84
775.53	27488.92
775.865	27436.72
776.2	27188.82
776.535	27094.81
776.87	27010.52
777.205	26827.7
777.539	26817.76
777.874	26968.26
778.209	26714.26
778.543	26559.46
778.878	26377.09
779.212	26377.54
779.547	26333.47
779.881	26275.85
780.215	26075.63
780.55	26141.61
780.884	25909.76
781.218	25794.05
781.552	25884.22
781.886	25672.7
782.22	25560.84
782.554	25419.37
782.888	25275.87
783.222	25215.54
783.556	25019.38
783.889	24971.93
784.223	24849.9
784.557	24886.51
784.89	24865.26
785.224	24697.81
785.557	24566.97
785.891	24474.54
786.224	24341.89
786.558	24332.85
786.891	24193.19
787.224	24027.77
787.557	24028.68
787.891	24037.04
788.224	23934.22
788.557	23915.68
788.89	23683.6
789.223	23768.12
789.556	23548.69
789.888	23439.99
790.221	23527.45
790.554	23238.19
790.887	23269.83
791.219	23210.84
791.552	22986.44
791.884	22964.3
792.217	22934.92
792.549	22724.98
792.882	22611.31
793.214	22535.16
793.546	22599.79
793.879	22548.04
794.211	22330.42
794.543	22468.49
794.875	22382.17
795.207	22242.28
795.539	22131.32
795.871	22139.91
796.203	22035.06
796.535	21960.26
796.867	21819.92
797.198	21748.06
797.53	21852.24
797.862	21579.93
798.193	21762.3
798.525	21482.98
798.856	21538.8
799.188	21243.21
799.519	21192.82
799.85	21031.01
800.182	21117.57
800.513	21036.44
800.844	20949.89
801.175	20969.32
801.506	21000.51
801.837	20884.58
802.168	20746.95
802.499	20671.48
802.83	20615.88
803.161	20572.04
803.491	20471.93
803.822	20534.76
804.153	20270.13
804.483	20213.18
804.814	20152.17
805.145	20120.98
805.475	20080.53
805.805	19999.86
806.136	20041.44
806.466	20038.05
806.796	19920.31
807.126	19771.84
807.457	19792.86
807.787	19720.99
808.117	19577.04
808.447	19598.51
808.777	19581.11
809.107	19514.67
809.436	19466.99
809.766	19381.11
810.096	19267.45
810.426	19212.08
810.755	19237.62
811.085	19276.48
811.414	19140.67
811.744	19003.5
812.073	18920.34
812.403	18992.42
812.732	18865.2
813.061	18864.97
813.39	18796.72
813.719	18749.72
814.049	18742.04
814.378	18706.56
814.707	18655.94
815.036	18547.24
815.365	18561.25
815.693	18472.21
816.022	18429.5
816.351	18269.73
816.68	18190.64
817.008	18403.74
817.337	18145.89
817.665	18000.81
817.994	18064.31
818.322	18131.88
818.651	18046.91
818.979	17924.88
819.307	17961.94
819.636	17909.51
819.964	17712.46
820.292	17871.78
820.62	17876.97
820.948	17815.28
821.276	17833.13
821.604	17830.65
821.932	17805.34
822.259	17721.5
822.587	17803.53
822.915	17683.31
823.243	17708.62
823.57	17704.77
823.898	17737.77
824.225	17670.88
824.553	17498.23
824.88	17660.03
825.207	17690.31
825.535	17598.11
825.862	17661.39
826.189	17584.78
826.516	17674.49
826.843	17700.25
827.17	17719.24
827.497	17641.27
827.824	17632.01
828.151	17700.93
828.478	17671.1
828.805	17743.87
829.131	17624.78
829.458	17643.31
829.785	17550.65
830.111	17538.45
830.438	17680.59
830.764	17549.98
831.09	17678.79
831.417	17544.55
831.743	17509.07
832.069	17508.17
832.395	17538.9
832.722	17498.23
833.048	17473.82
833.374	17520.6
833.7	17410.09
834.026	17369.87
834.351	17492.12
834.677	17371
835.003	17357.67
835.329	17358.34
835.654	17322.86
835.98	17394.5
836.306	17229.08
836.631	17206.03
836.956	17254.84
837.282	17334.61
837.607	17173.94
837.932	17125.13
838.258	17094.85
838.583	17091.46
838.908	17042.42
839.233	17073.6
839.558	16977.34
839.883	16918.81
840.208	16775.08
840.533	16781.64
840.858	16882.65
841.182	16798.13
841.507	16784.57
841.832	16708.87
842.156	16700.51
842.481	16700.06
842.805	16630.23
843.13	16502.77
843.454	16550.45
843.778	16368.09
844.103	16450.12
844.427	16283.57
844.751	16386.84
845.075	16373.28
845.399	16228.43
845.723	16195.44
846.047	16165.83
846.371	16002.22
846.695	16146.62
847.019	16036.34
847.343	15898.49
847.666	15761.77
847.99	15728.78
848.313	15746.86
848.637	15653.98
848.96	15680.65
849.284	15669.12
849.607	15493.76
849.931	15453.53
850.254	15335.35
850.577	15225.74
850.9	15144.39
851.223	15185.74
851.546	14992.76
851.869	14870.27
852.192	15029.59
852.515	14819.88
852.838	14769.03
853.161	14784.63
853.483	14687.68
853.806	14639.54
854.129	14650.62
854.451	14636.61
854.774	14482.03
855.096	14463.5
855.419	14398.87
855.741	14397.06
856.063	14295.37
856.385	14303.73
856.708	14238.43
857.03	14182.38
857.352	14200.91
857.674	14173.12
857.996	14116.62
858.318	13969.73
858.64	14022.39
858.961	13957.3
859.283	13908.94
859.605	13913.01
859.926	13863.97
860.248	13923.63
860.57	13724.54
860.891	13766.57
861.212	13772
861.534	13685.9
861.855	13686.58
862.176	13641.6
862.498	13564.32
862.819	13631.21
863.14	13538.56
863.461	13467.37
863.782	13474.83
864.103	13433.7
864.424	13337.21
864.745	13352.57
865.065	13322.74
865.386	13269.41
865.707	13272.57
866.027	13287.04
866.348	13184.89
866.668	13140.37
866.989	13129.75
867.309	13113.03
867.63	13059.02
867.95	13172.24
868.27	12967.05
868.59	12973.83
868.91	12953.71
869.23	13035.74
869.55	12868.74
869.87	13040.26
870.19	12917.1
870.51	12939.48
870.83	12906.71
871.15	12798.69
871.469	12861.06
871.789	12908.74
872.109	12828.74
872.428	12746.26
872.748	12831.23
873.067	12765.7
873.386	12747.62
873.706	12692.25
874.025	12590.33
874.344	12647.73
874.663	12629.65
874.982	12622.42
875.301	12601.63
875.62	12481.64
875.939	12488.41
876.258	12451.58
876.577	12520.5
876.896	12458.13
877.214	12430.56
877.533	12402.99
877.852	12412.48
878.17	12368.42
878.489	12417
878.807	12255.2
879.125	12303.56
879.444	12337.23
879.762	12296.78
880.08	12244.81
880.398	12250
880.716	12265.14
881.034	12198.48
881.352	12221.98
881.67	12100.18
881.988	12199.38
882.306	12136.11
882.624	11995.32
882.941	12036.9
883.259	11956.23
883.577	11973.85
883.894	11920.07
884.212	11978.6
884.529	11919.16
884.846	11860.86
885.164	11852.5
885.481	11804.82
885.798	11828.32
886.115	11710.58
886.432	11760.75
886.75	11737.93
887.067	11712.16
887.383	11600.08
887.7	11660.19
888.017	11604.37
888.334	11610.47
888.651	11600.08
888.967	11516.46
889.284	11438.72
889.6	11394.88
889.917	11394.66
890.233	11330.7
890.55	11328.22
890.866	11290.25
891.182	11363.92
891.498	11252.06
891.815	11186.98
892.131	11104.72
892.447	11143.59
892.763	11031.96
893.079	11081.67
893.395	11048.45
893.71	10994.89
894.026	10943.14
894.342	10915.57
894.657	10867.89
894.973	10943.6
895.289	10928
895.604	10862.47
895.92	10766.88
896.235	10724.62
896.55	10678.07
896.865	10695.92
897.181	10725.98
897.496	10606.43
897.811	10462.48
898.126	10526.88
898.441	10524.62
898.756	10437.85
899.071	10383.61
899.386	10393.78
899.7	10289.38
900.015	10300.68
900.33	10184.75
900.644	10231.52
900.959	10223.16
901.273	10181.81
901.588	10134.35
901.902	10099.55
902.216	10040.12
902.531	9964.87
902.845	10030.4
903.159	9924.19
903.473	9911.99
903.787	9854.59
904.101	9859.56
904.415	9749.05
904.729	9777.07
905.042	9700.24
905.356	9666.57
905.67	9693.91
905.984	9666.57
906.297	9575.5
906.611	9483.3
906.924	9490.53
907.237	9481.94
907.551	9411.66
907.864	9356.75
908.177	9393.81
908.491	9308.61
908.804	9275.39
909.117	9205.34
909.43	9160.82
909.743	9135.51
910.056	9190.87
910.368	9065.91
910.681	9009.41
910.994	9053.25
911.307	8999.24
911.619	8856.42
911.932	8898.9
912.244	8832.92
912.557	8829.08
912.869	8737.55
913.181	8735.74
913.494	8702.53
913.806	8695.97
914.118	8629.31
914.43	8637.67
914.742	8552.02
915.054	8514.06
915.366	8554.28
915.678	8430.89
915.99	8395.19
916.302	8361.29
916.613	8312.25
916.925	8328.75
917.236	8284.01
917.548	8234.29
917.859	8225.02
918.171	8184.35
918.482	8121.98
918.794	8127.4
919.105	8058.47
919.416	8069.1
919.727	7997.01
920.038	7995.65
920.349	7931.92
920.66	7903.45
920.971	7838.14
921.282	7858.93
921.593	7829.55
921.903	7770.12
922.214	7727.41
922.525	7724.47
922.835	7670.69
923.146	7632.72
923.456	7594.53
923.767	7567.64
924.077	7492.61
924.387	7437.25
924.697	7459.85
925.008	7452.61
925.318	7399.28
925.628	7420.3
925.938	7383.46
926.248	7355.22
926.558	7253.75
926.867	7247.2
927.177	7206.75
927.487	7148.67
927.796	7085.17
928.106	7106.41
928.416	7065.73
928.725	7072.96
929.034	6938.96
929.344	7016.47
929.653	6949.8
929.962	6949.13
930.271	6915.23
930.581	6835.46
930.89	6813.76
931.199	6808.79
931.508	6785.51
931.817	6793.65
932.125	6735.12
932.434	6742.12
932.743	6644.27
933.051	6623.71
933.36	6578.97
933.669	6578.97
933.977	6527.44
934.286	6531.96
934.594	6500.78
934.902	6451.29
935.21	6412.64
935.519	6425.52
935.827	6391.85
936.135	6358.18
936.443	6364.28
936.751	6290.16
937.059	6299.88
937.367	6236.6
937.674	6218.3
937.982	6233.21
938.29	6178.07
938.597	6202.48
938.905	6072.54
939.213	6093.33
939.52	6037.96
939.827	6026.66
940.135	5984.86
940.442	5919.55
940.749	5912.54
941.056	5954.58
941.363	5903.95
941.67	5915.48
941.977	5820.34
942.284	5852.2
942.591	5788.93
942.898	5795.26
943.205	5817.86
943.511	5705.54
943.818	5710.06
944.125	5621.7
944.431	5668.93
944.738	5626.22
945.044	5619.89
945.35	5560.01
945.657	5612.21
945.963	5534.02
946.269	5504.42
946.575	5469.84
946.881	5448.83
947.187	5447.92
947.493	5449.05
947.799	5392.78
948.105	5368.15
948.41	5403.4
948.716	5336.29
949.022	5273.24
949.327	5293.8
949.633	5247.93
949.938	5199.79
950.244	5233.01
950.549	5193.69
950.854	5104.43
951.16	5169.96
951.465	5135.39
951.77	5066.91
952.075	5021.72
952.38	5061.94
952.685	5014.03
952.99	4993.7
953.294	4968.39
953.599	4942.85
953.904	4947.6
954.209	4898.78
954.513	4877.99
954.818	4898.56
955.122	4848.16
955.426	4829.18
955.731	4819.24
956.035	4770.65
956.339	4758
956.643	4746.25
956.948	4747.6
957.252	4630.32
957.556	4658.34
957.86	4643.65
958.163	4676.87
958.467	4616.31
958.771	4565.23
959.075	4557.32
959.378	4534.5
959.682	4567.94
959.985	4489.75
960.289	4455.63
960.592	4488.4
960.896	4451.34
961.199	4425.35
961.502	4425.8
961.805	4422.41
962.108	4350.1
962.411	4402.75
962.714	4344.45
963.017	4286.6
963.32	4312.36
963.623	4251.12
963.926	4280.72
964.228	4219.25
964.531	4238.46
964.833	4193.27
965.136	4173.38
965.438	4153.27
965.741	4148.29
966.043	4136.32
966.345	4081.63
966.648	4087.73
966.95	4070.56
967.252	4061.74
967.554	3992.14
967.856	4061.29
968.158	4012.71
968.46	4015.19
968.761	3938.13
969.063	3905.82
969.365	3910.11
969.666	3901.97
969.968	3890
970.269	3982.42
970.571	3858.36
970.872	3852.48
971.174	3820.85
971.475	3835.53
971.776	3771.36
972.077	3794.86
972.378	3755.99
972.679	3739.04
972.98	3749.66
973.281	3734.97
973.582	3683.67
973.883	3687.97
974.183	3671.92
974.484	3682.32
974.785	3600.96
975.085	3602.09
975.386	3592.38
975.686	3565.26
975.986	3569.78
976.287	3548.76
976.587	3518.48
976.887	3517.13
977.187	3534.07
977.487	3520.74
977.787	3520.51
978.087	3492.04
978.387	3431.03
978.687	3492.94
978.987	3448.43
979.286	3444.13
979.586	3411.37
979.885	3373.17
980.185	3361.42
980.484	3357.36
980.784	3337.92
981.083	3339.5
981.382	3279.17
981.682	3278.71
981.981	3257.24
982.28	3232.84
982.579	3212.27
982.878	3212.27
983.177	3195.55
983.475	3199.17
983.774	3150.81
984.073	3158.26
984.372	3108.32
984.67	3126.17
984.969	3133.18
985.267	3064.26
985.566	3066.29
985.864	3110.81
986.162	3068.1
986.461	3051.37
986.759	3053.41
987.057	3025.61
987.355	3002.34
987.653	2994.88
987.951	2958.5
988.249	2958.5
988.547	2906.52
988.844	2943.35
989.142	2927.31
989.44	2926.18
989.737	2862
990.035	2867.65
990.332	2822.91
990.63	2853.87
990.927	2824.26
991.224	2859.29
991.521	2792.4
991.819	2813.19
992.116	2807.31
992.413	2773.87
992.71	2793.75
993.006	2735.68
993.303	2735.68
993.6	2743.36
993.897	2711.04
994.193	2709.24
994.49	2678.95
994.787	2619.07
995.083	2653.19
995.379	2647.32
995.676	2629.92
995.972	2647.32
996.268	2615.91
996.565	2605.96
996.861	2588.56
997.157	2559.86
997.453	2518.73
997.749	2532.07
998.044	2528.22
998.34	2531.61
998.636	2463.14
998.932	2482.58
999.227	2472.18
999.523	2442.13
999.818	2425.4
1000.114	2435.35
1000.409	2401.45
1000.704	2395.12
1001	2349.92
1001.295	2390.15
1001.59	2373.65
1001.885	2372.75
1002.18	2307.21
1002.475	2335.69
1002.77	2293.43
1003.065	2285.07
1003.359	2316.7
1003.654	2263.37
1003.949	2284.16
1004.243	2256.59
1004.538	2224.5
1004.832	2225.63
1005.127	2216.59
1005.421	2213.2
1005.715	2154.67
1006.009	2188.12
1006.304	2184.05
1006.598	2146.54
1006.892	2133.21
1007.186	2131.85
1007.48	2138.18
1007.773	2110.61
1008.067	2085.98
1008.361	2090.04
1008.655	2076.94
1008.948	2066.32
1009.242	2041.23
1009.535	2010.27
1009.829	2001.23
1010.122	2038.52
1010.415	1998.07
1010.708	1982.7
1011.001	1963.72
1011.295	1947.22
1011.588	1958.97
1011.881	1942.93
1012.173	1913.55
1012.466	1901.8
1012.759	1910.61
1013.052	1878.3
1013.344	1873.1
1013.637	1848.69
1013.93	1855.93
1014.222	1846.66
1014.514	1831.52
1014.807	1812.54
1015.099	1779.09
1015.391	1803.05
1015.683	1788.36
1015.976	1758.75
1016.268	1763.05
1016.56	1762.14
1016.851	1742.26
1017.143	1754.01
1017.435	1729.83
1017.727	1719.43
1018.018	1719.43
1018.31	1664.97
1018.602	1679.21
1018.893	1672.88
1019.185	1658.42
1019.476	1639.66
1019.767	1623.62
1020.058	1637.85
1020.35	1591.07
1020.641	1607.34
1020.932	1575.48
1021.223	1572.32
1021.514	1559.89
1021.804	1555.14
1022.095	1555.82
1022.386	1514.01
1022.677	1525.09
1022.967	1523.51
1023.258	1510.17
1023.548	1493.68
1023.839	1481.7
1024.129	1475.82
1024.419	1438.76
1024.709	1446.45
1025	1464.75
1025.29	1414.13
1025.58	1401.25
1025.87	1432.89
1026.16	1396.5
1026.449	1408.93
1026.739	1374.13
1027.029	1390.63
1027.319	1395.15
1027.608	1375.94
1027.898	1355.37
1028.187	1357.18
1028.477	1349.27
1028.766	1306.79
1029.055	1315.83
1029.344	1289.61
1029.634	1321.7
1029.923	1282.83
1030.212	1300.91
1030.501	1269.5
1030.79	1276.51
1031.078	1256.85
1031.367	1240.35
1031.656	1223.17
1031.945	1232.89
1032.233	1211.42
1032.522	1224.76
1032.81	1209.84
1033.099	1209.84
1033.387	1195.38
1033.675	1180.69
1033.963	1161.93
1034.251	1177.75
1034.54	1169.16
1034.828	1117.64
1035.116	1133.68
1035.403	1116.51
1035.691	1130.75
1035.979	1107.24
1036.267	1127.58
1036.554	1116.28
1036.842	1081.71
1037.129	1099.11
1037.417	1079.45
1037.704	1072.22
1037.992	1056.17
1038.279	1058.43
1038.566	1051.2
1038.853	1051.2
1039.14	1051.2
