Data from breadboard_black_back_FLMS001491_00061.txt Node
Date: Wed Feb 08 10:50:43 GMT 2017
User: dcchb
Spectrometer: FLMS00149
Trigger mode: 0
Integration Time (sec): 2.000000E-2
Scans to average: 10
Electric dark correction enabled: true
Nonlinearity correction enabled: false
Boxcar width: 0
XAxis mode: Wavelengths
Number of Pixels in Spectrum: 2048
>>>>>Begin Spectral Data<<<<<
341.393	-33.16
341.776	-33.16
342.16	-33.16
342.543	-53.5
342.927	-71.81
343.31	-77
343.693	-76.55
344.077	-56.67
344.46	-42.88
344.843	-41.98
345.226	-35.87
345.61	-53.28
345.993	-30.23
346.376	3.67
346.759	17.46
347.142	32.6
347.525	37.34
347.908	52.94
348.291	82.77
348.674	74.18
349.057	113.5
349.44	124.12
349.823	137
350.206	156.21
350.588	195.31
350.971	206.38
351.354	223.1
351.737	240.95
352.119	237.11
352.502	267.17
352.884	267.62
353.267	281.18
353.65	293.61
354.032	291.35
354.414	313.49
354.797	314.17
355.179	314.62
355.562	317.11
355.944	339.48
356.326	341.74
356.709	363.21
357.091	335.87
357.473	344.23
357.855	360.27
358.238	344.68
358.62	358.47
359.002	347.62
359.384	352.59
359.766	355.53
360.148	335.64
360.53	346.94
360.912	353.04
361.294	356.88
361.676	349.88
362.057	337.67
362.439	328.18
362.821	331.8
363.203	333.16
363.584	357.56
363.966	332.93
364.348	338.35
364.729	322.53
365.111	343.78
365.493	330.22
365.874	323.21
366.256	327.28
366.637	345.81
367.019	344
367.4	338.35
367.781	338.13
368.163	331.8
368.544	334.06
368.925	331.35
369.306	326.83
369.688	328.86
370.069	331.8
370.45	345.58
370.831	354.85
371.212	326.15
371.593	340.61
371.974	369.99
372.355	352.59
372.736	334.06
373.117	344.45
373.498	361.85
373.879	346.94
374.26	340.84
374.641	332.7
375.021	357.11
375.402	332.48
375.783	339.93
376.163	398.92
376.544	365.47
376.925	362.98
377.305	353.27
377.686	371.8
378.066	364.34
378.447	373.61
378.827	378.35
379.208	377
379.588	376.09
379.968	396.66
380.349	366.6
380.729	384.23
381.109	395.07
381.489	393.72
381.87	396.88
382.25	388.75
382.63	402.98
383.01	382.42
383.39	406.83
383.77	408.63
384.15	399.37
384.53	393.72
384.91	395.75
385.29	412.48
385.67	426.94
386.049	404.79
386.429	412.02
386.809	423.77
387.189	444.34
387.568	434.62
387.948	414.96
388.328	441.17
388.707	436.88
389.087	433.72
389.466	436.2
389.846	454.96
390.225	456.77
390.605	448.63
390.984	447.5
391.363	470.33
391.743	470.78
392.122	471
392.501	486.37
392.881	498.8
393.26	485.47
393.639	505.13
394.018	494.96
394.397	484.79
394.776	479.82
395.155	484.79
395.534	485.92
395.913	523.21
396.292	516.65
396.671	540.83
397.05	484.79
397.429	531.57
397.808	533.6
398.186	523.66
398.565	531.79
398.944	513.49
399.323	529.76
399.701	570.66
400.08	537.67
400.458	548.06
400.837	550.55
401.215	571.57
401.594	576.09
401.972	571.34
402.351	580.38
402.729	595.3
403.107	594.62
403.486	583.54
403.864	591.68
404.242	610.89
404.62	611.11
404.999	604.79
405.377	618.57
405.755	626.25
406.133	623.99
406.511	620.38
406.889	657.21
407.267	645.01
407.645	648.63
408.023	671
408.401	673.94
408.779	680.72
409.156	679.36
409.534	712.58
409.912	687.27
410.29	711.22
410.667	729.53
411.045	714.16
411.422	719.59
411.8	755.97
412.178	740.15
412.555	756.87
412.933	755.97
413.31	736.99
413.687	774.95
414.065	767.04
414.442	797.78
414.819	801.62
415.197	825.8
415.574	838.45
415.951	824.89
416.328	830.77
416.705	810.2
417.082	817.44
417.46	862.41
417.837	880.49
418.214	856.53
418.591	844.78
418.967	840.71
419.344	898.11
419.721	903.54
420.098	889.98
420.475	930.2
420.852	902.18
421.228	936.76
421.605	923.65
421.982	942.63
422.358	984.89
422.735	946.92
423.111	953.03
423.488	969.3
423.864	1000.93
424.241	1003.87
424.617	997.32
424.994	1016.07
425.37	1044.1
425.746	1013.59
426.123	1039.13
426.499	1049.07
426.875	1040.71
427.251	1066.47
427.627	1089.52
428.003	1101.27
428.379	1116.19
428.756	1114.38
429.132	1127.48
429.507	1164.32
429.883	1172.46
430.259	1192.34
430.635	1194.6
431.011	1200.93
431.387	1205.22
431.763	1266.46
432.138	1244.32
432.514	1282.28
432.89	1279.34
433.265	1308.95
433.641	1306.46
434.016	1350.76
434.392	1345.78
434.767	1348.5
435.143	1380.59
435.518	1396.63
435.894	1397.53
436.269	1437.53
436.644	1427.59
437.02	1460.13
437.395	1485.89
437.77	1447.25
438.145	1485.22
438.52	1510.53
438.895	1506.68
439.271	1498.55
439.646	1565.67
440.021	1563.63
440.395	1571.31
440.77	1569.28
441.145	1589.62
441.52	1641.37
441.895	1614.03
442.27	1642.73
442.645	1633.91
443.019	1649.96
443.394	1619.67
443.769	1694.48
444.143	1677.3
444.518	1687.92
444.892	1727.02
445.267	1706.23
445.641	1748.49
446.016	1721.59
446.39	1771.76
446.764	1768.15
447.139	1774.93
447.513	1798.43
447.887	1775.15
448.262	1794.13
448.636	1816.28
449.01	1847.01
449.384	1849.05
449.758	1881.36
450.132	1896.73
450.506	1900.57
450.88	1915.94
451.254	1924.07
451.628	1961.81
452.002	1977.63
452.376	1982.83
452.75	1989.83
453.123	2003.39
453.497	2052.66
453.871	2086.56
454.244	2091.98
454.618	2100.11
454.992	2131.07
455.365	2126.33
455.739	2233.44
456.112	2202.94
456.486	2251.75
456.859	2253.1
457.232	2324.29
457.606	2292.43
457.979	2362.25
458.352	2391.18
458.725	2429.15
459.099	2439.31
459.472	2497.17
459.845	2494.45
460.218	2512.08
460.591	2566.54
460.964	2543.04
461.337	2613.1
461.71	2619.2
462.083	2712.53
462.456	2677.27
462.829	2736.48
463.201	2747.1
463.574	2757.72
463.947	2806.54
464.32	2887.89
464.692	2917.95
465.065	2962.24
465.438	2953.2
465.81	2996.81
466.183	3020.09
466.555	3113.87
466.928	3112.74
467.3	3153.42
467.672	3159.75
468.045	3278.16
468.417	3248.56
468.789	3273.19
469.161	3353.64
469.534	3339.18
469.906	3434.09
470.278	3479.96
470.65	3547.31
471.022	3595.44
471.394	3648.32
471.766	3713.18
472.138	3772.39
472.51	3825.94
472.882	3833.63
473.253	3930.35
473.625	3938.94
473.997	4038.37
474.369	4076.11
474.74	4146.39
475.112	4186.61
475.484	4260.06
475.855	4310.45
476.227	4425.93
476.598	4480.84
476.97	4546.15
477.341	4639.71
477.713	4708.63
478.084	4733.27
478.455	4855.52
478.827	4861.4
479.198	5042.41
479.569	5044.9
479.94	5202.86
480.311	5221.61
480.682	5294.61
481.053	5446.24
481.424	5542.51
481.795	5625.45
482.166	5662.51
482.537	5755.39
482.908	5857.76
483.279	5925.1
483.65	5981.59
484.021	6136.17
484.391	6178.43
484.762	6245.77
485.133	6347.01
485.503	6422.26
485.874	6573.67
486.244	6659.54
486.615	6722.59
486.985	6803.72
487.356	7002.13
487.726	7042.81
488.097	7177.27
488.467	7205.29
488.837	7349.47
489.207	7454.78
489.578	7524.6
489.948	7593.76
490.318	7764.82
490.688	7771.83
491.058	7871.26
491.428	8027.64
491.798	8090.69
492.168	8198.94
492.538	8280.52
492.908	8384.47
493.278	8475.77
493.648	8497.46
494.017	8605.48
494.387	8630.34
494.757	8698.13
495.126	8846.6
495.496	8872.82
495.866	8979.26
496.235	9059.25
496.605	9108.52
496.974	9260.38
497.344	9320.26
497.713	9324.11
498.082	9421.73
498.452	9523.65
498.821	9614.94
499.19	9618.11
499.559	9689.75
499.928	9807.26
500.298	9799.8
500.667	9902.17
501.036	9934.48
501.405	10086.57
501.774	10128.83
502.143	10214.7
502.512	10261.26
502.88	10322.27
503.249	10359.11
503.618	10464.87
503.987	10511.64
504.356	10591.42
504.724	10612.66
505.093	10676.16
505.462	10791.19
505.83	10867.79
506.199	10951.41
506.567	11082.48
506.936	11063.27
507.304	11193.43
507.672	11268.46
508.041	11376.93
508.409	11450.38
508.777	11455.8
509.145	11559.98
509.514	11618.28
509.882	11679.3
510.25	11751.39
510.618	11810.37
510.986	11972.4
511.354	12092.39
511.722	12170.13
512.09	12218.27
512.458	12176.69
512.826	12328.09
513.193	12445.15
513.561	12538.26
513.929	12654.64
514.297	12694.64
514.664	12814.18
515.032	12879.27
515.4	12996.78
515.767	13074.97
516.135	13101.41
516.502	13175.3
516.869	13409.42
517.237	13379.37
517.604	13322.64
517.972	13589.3
518.339	13599.25
518.706	13760.37
519.073	13747.49
519.44	13968.05
519.808	14080.36
520.175	14096.18
520.542	14301.15
520.909	14326.01
521.276	14466.79
521.643	14568.94
522.009	14664.08
522.376	14679.67
522.743	14847.12
523.11	15051.64
523.477	15215.02
523.843	15256.38
524.21	15476.71
524.577	15595.8
524.943	15616.14
525.31	15732.75
525.676	15887.77
526.043	15936.59
526.409	15949.47
526.776	16206.64
527.142	16296.8
527.508	16376.8
527.874	16455.44
528.241	16545.16
528.607	16662.9
528.973	16918.93
529.339	16841.42
529.705	17115.99
530.071	17207.06
530.437	17314.18
530.803	17370.45
531.169	17334.74
531.535	17421.07
531.901	17448.19
532.267	17665.13
532.632	17754.62
532.998	17811.79
533.364	18013.14
533.73	17975.4
534.095	18190.54
534.461	18169.07
534.826	18344.88
535.192	18483.86
535.557	18640.02
535.923	18585.78
536.288	18626.91
536.653	18708.94
537.019	18724.54
537.384	18857.41
537.749	19000.23
538.114	18953.68
538.479	19011.31
538.845	19121.14
539.21	19104.64
539.575	19294.01
539.94	19359.77
540.305	19437.96
540.67	19454.23
541.034	19520.9
541.399	19614.68
541.764	19703.49
542.129	19786.88
542.494	19832.98
542.858	19877.5
543.223	19912.53
543.587	20035.91
543.952	19995.24
544.316	20160.88
544.681	20163.14
545.045	20262.35
545.41	20508.67
545.774	20398.16
546.138	20410.59
546.503	20564.49
546.867	20606.07
547.231	20830.92
547.595	20818.04
547.959	20775.78
548.324	20893.07
548.688	21012.84
549.052	20928.32
549.416	21020.29
549.779	21103.23
550.143	21112.27
550.507	21372.83
550.871	21441.53
551.235	21433.84
551.599	21588.87
551.962	21624.8
552.326	21799.26
552.689	21829.54
553.053	21841.06
553.417	22034.28
553.78	22210.77
554.143	21946.82
554.507	22199.25
554.87	22320.15
555.234	22533.02
555.597	22486.47
555.96	22473.14
556.323	22727.14
556.686	22660.48
557.05	22810.3
557.413	22849.63
557.776	22924.43
558.139	23116.06
558.502	23077.64
558.865	23249.16
559.228	23458.87
559.59	23381.81
559.953	23472.43
560.316	23843.95
560.679	23741.81
561.041	23861.58
561.404	24010.05
561.767	24164.39
562.129	24093.21
562.492	24272.19
562.854	24295.69
563.217	24402.8
563.579	24519.64
563.941	24777.26
564.304	24769.57
564.666	24868.78
565.028	24959.63
565.39	25078.04
565.753	25213.63
566.115	25352.61
566.477	25423.12
566.839	25540.18
567.201	25534.75
567.563	25738.81
567.925	25774.97
568.287	25860.39
568.648	26003.89
569.01	26135.19
569.372	26259.71
569.734	26191.23
570.095	26455.86
570.457	26466.48
570.819	26514.61
571.18	26564.56
571.542	26807.94
571.903	26662.86
572.265	26835.06
572.626	27085.9
572.987	26952.57
573.349	27129.74
573.71	27245.22
574.071	27297.87
574.432	27401.37
574.794	27473.68
575.155	27575.6
575.516	27523.4
575.877	27736.73
576.238	27596.17
576.599	27791.87
576.96	27760.46
577.32	27823.96
577.681	27867.8
578.042	27954.58
578.403	28047.23
578.763	28024.63
579.124	28038.64
579.485	28143.95
579.845	28077.74
580.206	28279.99
580.566	28141.01
580.927	28291.52
581.287	28425.3
581.648	28328.8
582.008	28387.78
582.368	28276.15
582.728	28395.24
583.089	28258.75
583.449	28388.69
583.809	28434.79
584.169	28459.42
584.529	28415.35
584.889	28727.89
585.249	28424.39
585.609	28332.64
585.969	28600.89
586.329	28473.21
586.688	28581.68
587.048	28438.86
587.408	28393.21
587.768	28621.68
588.127	28556.37
588.487	28406.54
588.846	28601.56
589.206	28468.46
589.565	28473.43
589.925	28619.19
590.284	28504.84
590.643	28613.32
591.003	28601.34
591.362	28709.58
591.721	28675.91
592.08	28658.51
592.44	28724.95
592.799	28733.31
593.158	28796.59
593.517	28741.22
593.876	28752.52
594.235	28700.54
594.593	28702.8
594.952	28872.07
595.311	28705.52
595.67	28684.05
596.029	28956.81
596.387	29051.5
596.746	28996.36
597.104	28833.2
597.463	28914.78
597.822	29040.87
598.18	28808.34
598.538	28962.46
598.897	29073.19
599.255	28741.67
599.613	29152.74
599.972	29082.23
600.33	29168.78
600.688	28915.68
601.046	29218.72
601.404	29182.34
601.762	29215.56
602.12	29219.18
602.478	29387.08
602.836	29354.76
603.194	29182.79
603.552	29375.1
603.91	29173.07
604.268	29361.09
604.625	29316.57
604.983	29435.67
605.341	29299.63
605.698	29385.5
606.056	29406.06
606.413	29405.84
606.771	29555.44
607.128	29574.42
607.485	29442.22
607.843	29595.89
608.2	29685.38
608.557	29701.87
608.914	29687.64
609.272	29841.76
609.629	29904.81
609.986	29919.5
610.343	29809.22
610.7	29968.31
611.057	29992.94
611.414	30017.35
611.771	30041.98
612.127	30150.22
612.484	30132.6
612.841	30134.63
613.198	29968.76
613.554	30179.6
613.911	30373.04
614.267	30233.61
614.624	30315.42
614.98	30290.33
615.337	30450.33
615.693	30401.07
616.05	30416.43
616.406	30509.99
616.762	30469.54
617.118	30406.26
617.475	30391.35
617.831	30517.9
618.187	30538.69
618.543	30669.08
618.899	30723.32
619.255	30604
619.611	30695.52
619.967	30767.84
620.323	30751.11
620.678	30681.96
621.034	30560.61
621.39	30658.46
621.746	30540.27
622.101	30903.88
622.457	30727.84
622.812	30785.01
623.168	30815.07
623.523	30724.22
623.879	30926.93
624.234	30653.94
624.589	30867.95
624.945	30920.83
625.3	30859.36
625.655	30941.84
626.01	30834.73
626.365	30771.68
626.72	30783.43
627.075	30759.02
627.43	30708.85
627.785	30747.72
628.14	30843.09
628.495	30791.34
628.85	30646.03
629.205	30657.1
629.559	30843.54
629.914	30734.62
630.269	30726.03
630.623	30717.44
630.978	30568.29
631.332	30686.48
631.687	30752.47
632.041	30549.76
632.396	30746.14
632.75	30504.11
633.104	30663.66
633.459	30351.8
633.813	30462.08
634.167	30404
634.521	30341.41
634.875	30246.94
635.229	30314.97
635.583	30178.47
635.937	30197.91
636.291	30190
636.645	30128.76
636.999	30042.2
637.352	30239.26
637.706	30017.57
638.06	30096.89
638.413	30141.86
638.767	29948.87
639.121	29982.09
639.474	29861.42
639.828	29880.17
640.181	29854.86
640.534	29780.52
640.888	29673.17
641.241	29524.7
641.594	29548.43
641.947	29808.54
642.301	29623.91
642.654	29651.03
643.007	29608.09
643.36	29552.27
643.713	29433.41
644.066	29648.99
644.419	29467.08
644.771	29145.5
645.124	29012.85
645.477	29119.06
645.83	28789.58
646.182	28610.38
646.535	28467.78
646.888	28560.89
647.24	28312.98
647.593	28503.94
647.945	28326.09
648.298	28219.2
648.65	28149.15
649.002	28143.95
649.355	28244.74
649.707	28282.25
650.059	28399.76
650.411	28710.04
650.763	28640.66
651.115	29071.38
651.467	28898.73
651.819	28939.86
652.171	28808.79
652.523	28709.58
652.875	28688.57
653.227	28509.82
653.578	28851.73
653.93	28653.77
654.282	28566.31
654.633	28447.44
654.985	28597.95
655.337	28564.5
655.688	28568.34
656.039	28631.17
656.391	28317.73
656.742	28418.52
657.094	28462.58
657.445	28658.29
657.796	28500.32
658.147	28336.94
658.498	28329.48
658.849	28444.73
659.2	28327.9
659.551	28250.39
659.902	28429.37
660.253	28320.67
660.604	28376.94
660.955	28204.51
661.306	28401.12
661.656	28216.94
662.007	28294.68
662.358	28191.41
662.708	28204.96
663.059	28141.92
663.409	28020.56
663.76	28202.7
664.11	28131.97
664.461	28077.96
664.811	28085.42
665.161	28112.76
665.511	28026.21
665.862	28059.21
666.212	28131.75
666.562	28119.32
666.912	28144.18
667.262	28026.21
667.612	28111.63
667.962	28033.9
668.312	27998.19
668.662	28165.64
669.011	28003.61
669.361	28057.4
669.711	27816.73
670.06	27956.16
670.41	27827.12
670.76	27840.45
671.109	27999.55
671.459	27881.13
671.808	27844.52
672.157	28015.37
672.507	27766.11
672.856	27653.11
673.205	27575.38
673.554	27698.54
673.904	27701.25
674.253	27782.15
674.602	27670.97
674.951	27320.47
675.3	27154.37
675.649	27491.99
675.998	27475.72
676.346	27504.42
676.695	27588.71
677.044	27197.76
677.393	27443.63
677.741	27493.34
678.09	27446.57
678.438	27264.42
678.787	27323.86
679.135	27286.12
679.484	27089.29
679.832	27355.5
680.181	27148.27
680.529	27303.75
680.877	27157.76
681.225	27196.63
681.573	27342.16
681.922	26912.34
682.27	27075.73
682.618	26891.1
682.966	26963.19
683.314	26974.49
683.661	26792.12
684.009	26725.68
684.357	26705.57
684.705	26658.11
685.053	26696.76
685.4	26600.26
685.748	26387.61
686.095	26436.88
686.443	26436.65
686.79	26347.61
687.138	26396.65
687.485	26310.1
687.832	26211.57
688.18	26292.25
688.527	26006.6
688.874	26175.87
689.221	26033.95
689.568	25939.49
689.915	25914.86
690.262	25898.36
690.609	25882.77
690.956	25833.73
691.303	25754.18
691.65	25653.17
691.997	25523.68
692.344	25418.6
692.69	25460.86
693.037	25388.54
693.383	25289.34
693.73	25357.81
694.077	25154.42
694.423	25181.32
694.769	25064.93
695.116	24993.52
695.462	25007.08
695.808	24953.75
696.155	25014.09
696.501	24842.57
696.847	24784.94
697.193	24602.8
697.539	24657.94
697.885	24522.12
698.231	24360.55
698.577	24380.43
698.923	24322.35
699.269	24316.48
699.614	24273.09
699.96	24225.86
700.306	24196.48
700.651	23933.66
700.997	23999.65
701.342	23845.98
701.688	23763.73
702.033	23780.45
702.379	23656.61
702.724	23650.28
703.069	23752.2
703.415	23370.06
703.76	23465.65
704.105	23444.64
704.45	23393.79
704.795	23278.77
705.14	23180.92
705.485	23208.94
705.83	23044.2
706.175	23186.11
706.52	23080.81
706.865	22883.07
707.209	22855.05
707.554	22793.58
707.899	22871.77
708.243	22867.48
708.588	22646.69
708.932	22631.33
709.277	22613.93
709.621	22647.82
709.966	22469.3
710.31	22481.95
710.654	22205.12
710.998	22378.45
711.342	22289.19
711.687	22265.69
712.031	22143.2
712.375	22097.55
712.719	22094.84
713.063	22069.76
713.407	22092.36
713.75	22077.22
714.094	21989.08
714.438	21890.55
714.782	21938.46
715.125	21739.6
715.469	21788.64
715.812	21665.02
716.156	21499.83
716.499	21525.14
716.843	21606.49
717.186	21557.91
717.53	21572.82
717.873	21594.74
718.216	21506.84
718.559	21293.73
718.902	21325.15
719.246	21247.18
719.589	21103.23
719.932	21200.63
720.275	21242.66
720.617	21107.75
720.96	21120.41
721.303	21088.09
721.646	21128.09
721.989	20879.96
722.331	21002.67
722.674	20945.27
723.016	20941.43
723.359	20817.36
723.701	20841.99
724.044	20628.44
724.386	20632.73
724.729	20663.02
725.071	20644.49
725.413	20609.46
725.755	20610.81
726.097	20556.35
726.439	20421.21
726.782	20431.16
727.124	20489.01
727.465	20329.47
727.807	20453.53
728.149	20314.32
728.491	20262.57
728.833	20243.37
729.175	20215.8
729.516	20194.55
729.858	20148
730.199	20193.42
730.541	20184.61
730.882	20069.81
731.224	20074.1
731.565	19959.31
731.906	19908.69
732.248	19959.08
732.589	19929.02
732.93	19907.78
733.271	19869.82
733.612	19848.35
733.953	19920.44
734.294	19743.72
734.635	19663.49
734.976	19790.04
735.317	19736.49
735.658	19725.64
735.999	19699.65
736.339	19554.57
736.68	19575.81
737.021	19563.38
737.361	19503.5
737.702	19536.27
738.042	19467.34
738.383	19408.59
738.723	19476.83
739.063	19261.02
739.404	19436.38
739.744	19279.55
740.084	19355.25
740.424	19325.88
740.764	19153
741.104	19384.41
741.444	19090.4
741.784	19068.26
742.124	19094.92
742.464	19104.64
742.804	19122.94
743.143	18961.82
743.483	19057.86
743.823	18839.79
744.162	18903.51
744.502	18936.06
744.841	18828.26
745.181	18935.6
745.52	18865.55
745.86	18840.47
746.199	18768.83
746.538	18708.27
746.877	18808.6
747.216	18726.34
747.556	18720.02
747.895	18652.67
748.234	18572.9
748.573	18468.27
748.911	18539.46
749.25	18356.18
749.589	18372
749.928	18486.8
750.267	18401.15
750.605	18320.48
750.944	18303.76
751.283	18084.1
751.621	18162.06
751.96	18104.89
752.298	18146.47
752.636	18145.79
752.975	17929.3
753.313	17965.01
753.651	17960.94
753.989	17917.55
754.327	17870.77
754.666	17670.33
755.004	17843.88
755.342	17822.64
755.679	17791.68
756.017	17591.68
756.355	17584.68
756.693	17594.62
757.031	17661.74
757.368	17490.67
757.706	17578.8
758.044	17425.36
758.381	17471.46
758.719	17392.59
759.056	17421.07
759.394	17330.9
759.731	17202.99
760.068	17204.8
760.405	17069.44
760.743	16995.77
761.08	17125.71
761.417	16926.84
761.754	17005.71
762.091	16913.74
762.428	16849.1
762.765	16833.06
763.102	16842.1
763.438	16762.78
763.775	16718.71
764.112	16615.44
764.449	16660.64
764.785	16441.43
765.122	16377.7
765.458	16351.94
765.795	16315.56
766.131	16266.97
766.467	16193.98
766.804	16130.48
767.14	16133.87
767.476	16157.37
767.812	16047.09
768.148	16010.03
768.485	15955.57
768.821	15822.01
769.157	15788.34
769.492	15828.11
769.828	15810.49
770.164	15589.48
770.5	15550.38
770.836	15562.36
771.171	15499.99
771.507	15484.4
771.842	15380.22
772.178	15379.54
772.513	15246.89
772.849	15358.07
773.184	15121.01
773.519	15185.87
773.855	15109.72
774.19	15021.13
774.525	14939.78
774.86	14940.91
775.195	14985.88
775.53	14865.43
775.865	14831.76
776.2	14652.1
776.535	14614.36
776.87	14612.78
777.205	14490.52
777.539	14450.52
777.874	14457.08
778.209	14435.16
778.543	14326.69
778.878	14275.16
779.212	14256.18
779.547	14151.55
779.881	14225.67
780.215	14054.6
780.55	14130.53
780.884	14054.6
781.218	13936.87
781.552	13963.31
781.886	13854.16
782.22	13733.48
782.554	13684.44
782.888	13616.42
783.222	13603.77
783.556	13496.65
783.889	13501.17
784.223	13371.91
784.557	13391.79
784.89	13441.51
785.224	13323.1
785.557	13261.63
785.891	13239.26
786.224	13199.71
786.558	13184.12
786.891	13039.26
787.224	12989.55
787.557	13057.11
787.891	12980.96
788.224	12978.7
788.557	12923.56
788.89	12810.79
789.223	12835.43
789.556	12715.88
789.888	12757.46
790.221	12788.65
790.554	12603.34
790.887	12625.71
791.219	12479.5
791.552	12488.09
791.884	12458.71
792.217	12350.69
792.549	12368.32
792.882	12304.59
793.214	12277.7
793.546	12248.55
793.879	12218.04
794.211	12103.69
794.543	12197.48
794.875	12098.04
795.207	12142.34
795.539	12076.8
795.871	12017.82
796.203	11890.82
796.535	11895.56
796.867	11814.44
797.198	11822.8
797.53	11818.95
797.862	11697.6
798.193	11811.72
798.525	11632.07
798.856	11640.2
799.188	11605.63
799.519	11551.17
799.85	11413.77
800.182	11473.88
800.513	11460.55
800.844	11364.5
801.175	11448.8
801.506	11372.64
801.837	11357.27
802.168	11309.14
802.499	11270.72
802.83	11182.36
803.161	11129.26
803.491	11190.72
803.822	11084.28
804.153	11083.83
804.483	11029.37
804.814	10948.47
805.145	10905.53
805.475	10932.65
805.805	10937.17
806.136	10877.74
806.466	10823.05
806.796	10877.28
807.126	10825.76
807.457	10699.89
807.787	10828.7
808.117	10668.93
808.447	10687.23
808.777	10719.32
809.107	10654.01
809.436	10570.4
809.766	10595.03
810.096	10562.26
810.426	10492.21
810.755	10501.7
811.085	10481.81
811.414	10414.25
811.744	10289.73
812.073	10412.44
812.403	10397.07
812.732	10315.94
813.061	10301.03
813.39	10228.49
813.719	10184.65
814.049	10344.19
814.378	10188.04
814.707	10203.18
815.036	10150.3
815.365	10083.63
815.693	10025.78
816.022	10036.18
816.351	10025.78
816.68	9964.54
817.008	9978.78
817.337	9898.33
817.665	9862.17
817.994	9876.86
818.322	9913.24
818.651	9823.98
818.979	9782.62
819.307	9846.13
819.636	9794.38
819.964	9754.6
820.292	9761.16
820.62	9745.56
820.948	9708.73
821.276	9766.58
821.604	9731.78
821.932	9740.59
822.259	9760.48
822.587	9724.32
822.915	9680.25
823.243	9666.69
823.57	9652.46
823.898	9700.14
824.225	9717.99
824.553	9670.08
824.88	9686.13
825.207	9701.5
825.535	9657.88
825.862	9692.01
826.189	9617.88
826.516	9730.42
826.843	9680.71
827.17	9757.31
827.497	9648.84
827.824	9698.11
828.151	9702.85
828.478	9696.75
828.805	9735.85
829.131	9689.75
829.458	9709.18
829.785	9580.82
830.111	9602.97
830.438	9707.82
830.764	9701.72
831.09	9688.62
831.417	9658.56
831.743	9662.85
832.069	9601.39
832.395	9635.51
832.722	9591.44
833.048	9642.06
833.374	9639.8
833.7	9578.11
834.026	9617.66
834.351	9612.46
834.677	9546.47
835.003	9538.34
835.329	9560.03
835.654	9549.86
835.98	9556.42
836.306	9496.98
836.631	9531.56
836.956	9463.99
837.282	9464.89
837.607	9439.13
837.932	9383.76
838.258	9406.36
838.583	9421.96
838.908	9386.7
839.233	9367.27
839.558	9325.24
839.883	9311.68
840.208	9277.33
840.533	9267.16
840.858	9234.62
841.182	9228.97
841.507	9356.65
841.832	9197.78
842.156	9203.88
842.481	9198.23
842.805	9180.83
843.13	9104.68
843.454	9159.59
843.778	9126.14
844.103	9113.94
844.427	9035.98
844.751	9106.71
845.075	9006.37
845.399	8976.54
845.723	8981.29
846.047	9047.95
846.371	8924.57
846.695	8872.82
847.019	8894.06
847.343	8872.82
847.666	8735.65
847.99	8706.72
848.313	8764.35
848.637	8661.75
848.96	8623.11
849.284	8630.34
849.607	8558.48
849.931	8594.18
850.254	8532.26
850.577	8455.88
850.9	8404.58
851.223	8400.29
851.546	8332.49
851.869	8300.18
852.192	8367.52
852.515	8316.22
852.838	8281.87
853.161	8281.65
853.483	8190.35
853.806	8150.58
854.129	8029.22
854.451	8127.75
854.774	8069
855.096	8055.44
855.419	8026.29
855.741	8005.72
856.063	7885.72
856.385	7992.61
856.708	7878.27
857.03	7890.7
857.352	7970.24
857.674	7879.85
857.996	7843.47
858.318	7785.84
858.64	7872.62
858.961	7847.31
859.283	7807.31
859.605	7735.67
859.926	7754.88
860.248	7745.62
860.57	7664.94
860.891	7706.97
861.212	7673.53
861.534	7692.96
861.855	7546.98
862.176	7600.53
862.498	7620.2
862.819	7575.22
863.14	7551.95
863.461	7546.07
863.782	7532.29
864.103	7492.97
864.424	7435.79
864.745	7522.12
865.065	7475.11
865.386	7423.36
865.707	7447.32
866.027	7492.74
866.348	7385.17
866.668	7413.87
866.989	7400.09
867.309	7367.55
867.63	7344.5
867.95	7280.54
868.27	7269.92
868.59	7362.8
868.91	7337.04
869.23	7338.62
869.55	7219.53
869.87	7318.73
870.19	7349.92
870.51	7306.31
870.83	7254.33
871.15	7205.74
871.469	7265.18
871.789	7217.95
872.109	7217.04
872.428	7157.83
872.748	7182.24
873.067	7109.7
873.386	7174.11
873.706	7175.69
874.025	7074.9
874.344	7137.72
874.663	7118.97
874.982	7106.31
875.301	7151.73
875.62	7107.21
875.939	7064.5
876.258	7032.41
876.577	7010.72
876.896	7037.61
877.214	7018.4
877.533	7035.13
877.852	7067.44
878.17	7055.01
878.489	7001.23
878.807	6974.34
879.125	6971.85
879.444	6988.8
879.762	6914.9
880.08	6868.12
880.398	6897.28
880.716	6855.92
881.034	6819.09
881.352	6876.26
881.67	6812.98
881.988	6872.19
882.306	6803.72
882.624	6815.47
882.941	6805.3
883.259	6761.23
883.577	6738.86
883.894	6741.57
884.212	6699.32
884.529	6688.02
884.846	6659.54
885.164	6683.95
885.481	6723.27
885.798	6725.53
886.115	6619.32
886.432	6680.11
886.75	6618.64
887.067	6614.57
887.383	6584.29
887.7	6653.44
888.017	6577.51
888.334	6521.92
888.651	6511.3
888.967	6529.15
889.284	6520.56
889.6	6497.51
889.917	6413.22
890.233	6420
890.55	6377.74
890.866	6417.74
891.182	6354.01
891.498	6398.98
891.815	6362.38
892.131	6321.02
892.447	6354.47
892.763	6321.92
893.079	6255.03
893.395	6271.08
893.71	6283.73
894.026	6250.74
894.342	6261.36
894.657	6273.56
894.973	6185.43
895.289	6205.32
895.604	6114.7
895.92	6111.76
896.235	6075.6
896.55	6114.7
896.865	6088.03
897.181	6055.94
897.496	6040.35
897.811	6001.48
898.126	5986.57
898.441	5985.21
898.756	5957.41
899.071	5899.79
899.386	5910.86
899.7	5855.72
900.015	5883.52
900.33	5824.99
900.644	5826.34
900.959	5822.28
901.273	5776.63
901.588	5777.08
901.902	5752.22
902.216	5701.83
902.531	5695.73
902.845	5630.87
903.159	5643.98
903.473	5631.32
903.787	5592.68
904.101	5620.7
904.415	5587.25
904.729	5602.62
905.042	5589.97
905.356	5507.93
905.67	5491.89
905.984	5497.09
906.297	5469.29
906.611	5388.16
906.924	5431.55
907.237	5432.91
907.551	5379.12
907.864	5380.71
908.177	5353.81
908.491	5369.18
908.804	5321.27
909.117	5304.32
909.43	5309.07
909.743	5238.79
910.056	5240.37
910.368	5246.92
910.681	5164.21
910.994	5222.07
911.307	5183.65
911.619	5154.05
911.932	5129.64
912.244	5039.92
912.557	5073.14
912.869	5054.39
913.181	5070.21
913.494	5065.69
913.806	5033.82
914.118	5014.61
914.43	4947.05
914.742	4969.87
915.054	4933.49
915.366	4882.87
915.678	4881.74
915.99	4872.7
916.302	4850.32
916.613	4830.66
916.925	4822.98
917.236	4799.48
917.548	4769.87
917.859	4818.01
918.171	4707.5
918.482	4729.88
918.794	4699.59
919.105	4715.64
919.416	4667.73
919.727	4667.96
920.038	4619.37
920.349	4633.61
920.66	4516.55
920.971	4617.11
921.282	4573.95
921.593	4512.03
921.903	4507.06
922.214	4530.33
922.525	4494.18
922.835	4459.6
923.146	4453.05
923.456	4425.02
923.767	4394.29
924.077	4420.73
924.387	4375.53
924.697	4376.21
925.008	4346.61
925.318	4344.8
925.628	4306.16
925.938	4263.22
926.248	4232.71
926.558	4229.32
926.867	4207.63
927.177	4209.66
927.487	4241.07
927.796	4151.59
928.106	4166.5
928.416	4099.61
928.725	4135.09
929.034	4130.57
929.344	4097.58
929.653	4128.54
929.962	4076.56
930.271	4105.94
930.581	4013.96
930.89	4015.32
931.199	3996.79
931.508	3987.07
931.817	3983
932.125	3951.37
932.434	3951.37
932.743	3940.29
933.051	3903
933.36	3880.86
933.669	3874.53
933.977	3853.29
934.286	3810.35
934.594	3816.68
934.902	3818.71
935.21	3771.93
935.519	3804.7
935.827	3741.43
936.135	3764.03
936.443	3739.17
936.751	3720.64
937.059	3702.56
937.367	3693.52
937.674	3696.23
937.982	3672.73
938.29	3634.31
938.597	3604.48
938.905	3601.32
939.213	3606.97
939.52	3581.43
939.827	3571.26
940.135	3552.28
940.442	3538.49
940.749	3495.78
941.056	3515.67
941.363	3481.77
941.67	3470.25
941.977	3448.78
942.284	3428.21
942.591	3446.52
942.898	3419.63
943.205	3421.21
943.511	3421.21
943.818	3388.22
944.125	3342.12
944.431	3364.71
944.738	3353.87
945.044	3326.3
945.35	3323.13
945.657	3311.83
945.963	3306.18
946.269	3277.48
946.575	3245.62
946.881	3224.6
947.187	3243.59
947.493	3244.94
947.799	3210.14
948.105	3210.82
948.41	3195.45
948.716	3199.29
949.022	3164.72
949.327	3162.46
949.633	3098.28
949.938	3174.21
950.244	3089.47
950.549	3089.24
950.854	3085.85
951.16	3037.49
951.465	3052.41
951.77	3044.27
952.075	3048.34
952.38	3031.62
952.685	2976.25
952.99	3002.69
953.294	2960.43
953.599	2962.24
953.904	2916.82
954.209	2939.64
954.513	2912.75
954.818	2922.01
955.122	2914.78
955.426	2892.86
955.731	2873.88
956.035	2887.44
956.339	2875.46
956.643	2858.06
956.948	2862.35
957.252	2808.8
957.556	2790.94
957.86	2787.1
958.163	2826.2
958.467	2757.72
958.771	2750.49
959.075	2756.82
959.378	2756.59
959.682	2708.91
959.985	2709.59
960.289	2679.53
960.592	2674.56
960.896	2656.03
961.199	2665.75
961.502	2658.07
961.805	2670.95
962.108	2661
962.411	2639.99
962.714	2654
963.017	2600.67
963.32	2617.61
963.623	2620.1
963.926	2569.03
964.228	2576.71
964.531	2542.36
964.833	2563.6
965.136	2561.35
965.438	2517.28
965.741	2508.47
966.043	2536.94
966.345	2507.34
966.648	2479.54
966.95	2470.95
967.252	2459.88
967.554	2487.67
967.856	2451.52
968.158	2420.78
968.46	2444.51
968.761	2395.93
969.063	2379.88
969.365	2381.46
969.666	2449.26
969.968	2388.69
970.269	2369.49
970.571	2365.42
970.872	2361.12
971.174	2322.48
971.475	2342.82
971.776	2322.48
972.077	2326.77
972.378	2281.8
972.679	2295.82
972.98	2286.78
973.281	2274.12
973.582	2273.67
973.883	2233.44
974.183	2256.04
974.484	2221.69
974.785	2186.21
975.085	2235.93
975.386	2242.94
975.686	2192.54
975.986	2176.72
976.287	2217.17
976.587	2200.22
976.887	2160.45
977.187	2176.72
977.487	2147.12
977.787	2171.07
978.087	2152.54
978.387	2153.22
978.687	2127.01
978.987	2144.41
979.286	2067.12
979.586	2063.73
979.885	2071.64
980.185	2068.48
980.484	2056.73
980.784	2049.95
981.083	2034.58
981.382	2024.86
981.682	2007.69
981.981	2043.17
982.28	2026.9
982.579	1988.48
982.878	2007.01
983.177	2016.95
983.475	1990.29
983.774	1966.56
984.073	1949.38
984.372	1990.51
984.67	1948.03
984.969	1948.93
985.267	1940.34
985.566	1920.23
985.864	1924.98
986.162	1912.1
986.461	1903.96
986.759	1887.69
987.057	1898.76
987.355	1874.13
987.653	1891.31
987.951	1862.15
988.249	1818.31
988.547	1859.67
988.844	1838.65
989.142	1802.49
989.44	1829.84
989.737	1802.27
990.035	1796.39
990.332	1809.73
990.63	1789.84
990.927	1764.08
991.224	1765.66
991.521	1765.66
991.819	1774.25
992.116	1733.34
992.413	1770.63
992.71	1709.84
993.006	1720.01
993.303	1719.79
993.6	1701.71
993.897	1706.9
994.193	1738.54
994.49	1691.54
994.787	1687.24
995.083	1680.69
995.379	1645.44
995.676	1663.06
995.972	1658.09
996.268	1639.79
996.565	1650.63
996.861	1620.35
997.157	1634.82
997.453	1626.23
997.749	1629.39
998.044	1624.87
998.34	1593.23
998.636	1606.79
998.932	1595.27
999.227	1598.66
999.523	1573.35
999.818	1541.26
1000.114	1576.74
1000.409	1579.45
1000.704	1549.85
1001	1526.34
1001.295	1477.08
1001.59	1511.66
1001.885	1512.56
1002.18	1485.22
1002.475	1501.71
1002.77	1494.25
1003.065	1485.22
1003.359	1448.61
1003.654	1470.53
1003.949	1492.67
1004.243	1477.76
1004.538	1455.16
1004.832	1431.66
1005.127	1429.85
1005.421	1402.05
1005.715	1427.59
1006.009	1403.18
1006.304	1412.45
1006.598	1411.09
1006.892	1404.31
1007.186	1381.04
1007.48	1372.68
1007.773	1368.61
1008.067	1374.48
1008.361	1343.75
1008.655	1324.99
1008.948	1315.95
1009.242	1322.51
1009.535	1344.43
1009.829	1311.21
1010.122	1303.53
1010.415	1311.66
1010.708	1303.07
1011.001	1295.62
1011.295	1275.28
1011.588	1283.86
1011.881	1241.61
1012.173	1251.77
1012.466	1243.19
1012.759	1243.64
1013.052	1249.74
1013.344	1223.53
1013.637	1246.13
1013.93	1194.38
1014.222	1226.46
1014.514	1216.3
1014.807	1216.52
1015.099	1217.65
1015.391	1193.7
1015.683	1185.34
1015.976	1179.01
1016.268	1191.89
1016.56	1188.5
1016.851	1147.14
1017.143	1160.48
1017.435	1130.87
1017.727	1136.3
1018.018	1115.06
1018.31	1102.4
1018.602	1109.86
1018.893	1095.85
1019.185	1097.88
1019.476	1090.2
1019.767	1116.86
1020.058	1105.11
1020.35	1088.39
1020.641	1063.53
1020.932	1057.43
1021.223	1083.64
1021.514	1049.97
1021.804	1065.11
1022.095	1055.17
1022.386	1035.96
1022.677	1041.16
1022.967	1020.82
1023.258	1043.64
1023.548	1026.47
1023.839	1001.16
1024.129	1000.48
1024.419	1004.32
1024.709	1020.82
1025	1000.71
1025.29	994.38
1025.58	969.75
1025.87	969.97
1026.16	962.74
1026.449	981.05
1026.739	953.03
1027.029	962.97
1027.319	934.27
1027.608	926.59
1027.898	915.06
1028.187	896.53
1028.477	922.29
1028.766	934.04
1029.055	906.93
1029.344	916.87
1029.634	881.16
1029.923	914.38
1030.212	889.98
1030.501	885
1030.79	893.82
1031.078	860.15
1031.367	862.41
1031.656	873.93
1031.945	853.59
1032.233	854.95
1032.522	840.49
1032.81	844.55
1033.099	845.23
1033.387	814.05
1033.675	853.82
1033.963	836.64
1034.251	821.96
1034.54	841.62
1034.828	817.66
1035.116	812.01
1035.403	798
1035.691	805.23
1035.979	793.48
1036.267	810.88
1036.554	795.52
1036.842	776.99
1037.129	786.48
1037.417	779.92
1037.704	775.86
1037.992	778.12
1038.279	773.37
1038.566	768.85
1038.853	768.85
1039.14	768.85
