Data from breadboard_black_back_FLMS001491_00010.txt Node
Date: Wed Feb 08 10:49:53 GMT 2017
User: dcchb
Spectrometer: FLMS00149
Trigger mode: 0
Integration Time (sec): 2.000000E-2
Scans to average: 10
Electric dark correction enabled: true
Nonlinearity correction enabled: false
Boxcar width: 0
XAxis mode: Wavelengths
Number of Pixels in Spectrum: 2048
>>>>>Begin Spectral Data<<<<<
341.393	-11.77
341.776	-11.77
342.16	-11.77
342.543	-33.91
342.927	-80.69
343.31	-58.54
343.693	-66.68
344.077	-54.02
344.46	-40.92
344.843	-56.74
345.226	-54.93
345.61	-20.58
345.993	-28.26
346.376	-1.82
346.759	17.84
347.142	7.44
347.525	44.28
347.908	47.22
348.291	58.52
348.674	86.09
349.057	121.11
349.44	102.58
349.823	133.77
350.206	163.37
350.588	199.08
350.971	233.65
351.354	221.45
351.737	235.01
352.119	246.53
352.502	236.36
352.884	279.3
353.267	294.22
353.65	296.93
354.032	304.61
354.414	311.39
354.797	327.43
355.179	312.75
355.562	336.25
355.944	340.32
356.326	355.68
356.709	336.7
357.091	359.98
357.473	360.88
357.855	332.41
358.238	354.55
358.62	340.54
359.002	340.99
359.384	354.78
359.766	337.83
360.148	371.73
360.53	344.16
360.912	365.17
361.294	342.58
361.676	353.65
362.057	347.1
362.439	342.12
362.821	352.52
363.203	336.02
363.584	326.76
363.966	358.39
364.348	322.01
364.729	343.03
365.111	326.3
365.493	351.84
365.874	323.37
366.256	328.79
366.637	344.38
367.019	321.33
367.4	329.47
367.781	345.51
368.163	341.22
368.544	333.54
368.925	340.99
369.306	343.71
369.688	357.26
370.069	357.04
370.45	331.73
370.831	360.2
371.212	344.16
371.593	338.28
371.974	374.21
372.355	356.59
372.736	345.29
373.117	359.75
373.498	338.06
373.879	341.22
374.26	343.71
374.641	340.09
375.021	337.83
375.402	362.24
375.783	356.36
376.163	366.3
376.544	391.84
376.925	357.94
377.305	377.83
377.686	392.97
378.066	363.59
378.447	371.28
378.827	402.91
379.208	377.6
379.588	375.34
379.968	398.85
380.349	405.85
380.729	388.45
381.109	392.97
381.489	423.48
381.87	403.59
382.25	419.41
382.63	426.87
383.01	405.62
383.39	416.92
383.77	408.11
384.15	396.36
384.53	413.99
384.91	405.62
385.29	421.44
385.67	428.22
386.049	430.03
386.429	432.74
386.809	443.14
387.189	453.31
387.568	444.72
387.948	439.75
388.328	456.47
388.707	436.36
389.087	470.93
389.466	471.84
389.846	467.77
390.225	467.09
390.605	477.04
390.984	480.2
391.363	477.49
391.743	482.01
392.122	482.01
392.501	494.66
392.881	510.93
393.26	500.99
393.639	507.77
394.018	499.63
394.397	492.63
394.776	493.08
395.155	530.14
395.534	525.85
395.913	526.3
396.292	552.06
396.671	533.31
397.05	541.67
397.429	537.37
397.808	558.16
398.186	553.42
398.565	553.87
398.944	565.62
399.323	574.21
399.701	566.75
400.08	565.39
400.458	587.09
400.837	568.56
401.215	609.69
401.594	591.16
401.972	609.24
402.351	584.83
402.729	605.39
403.107	581.89
403.486	605.85
403.864	596.81
404.242	644.26
404.62	644.71
404.999	621.21
405.377	646.75
405.755	642
406.133	648.1
406.511	664.38
406.889	679.06
407.267	666.41
407.645	677.93
408.023	688.1
408.401	696.69
408.779	696.69
409.156	723.13
409.534	740.76
409.912	722.23
410.29	710.02
410.667	745.28
411.045	759.51
411.422	770.81
411.8	769.46
412.178	777.82
412.555	786.86
412.933	787.76
413.31	790.93
413.687	835.9
414.065	815.78
414.442	836.35
414.819	840.64
415.197	837.48
415.574	880.19
415.951	860.53
416.328	884.03
416.705	883.13
417.082	885.16
417.46	900.08
417.837	919.51
418.214	912.28
418.591	926.06
418.967	944.14
419.344	928.55
419.721	947.53
420.098	938.49
420.475	971.94
420.852	980.98
421.228	973.75
421.605	979.4
421.982	999.51
422.358	1011.03
422.735	1008.09
423.111	1004.48
423.488	1028.21
423.864	1054.42
424.241	1037.7
424.617	1067.08
424.994	1077.25
425.37	1094.87
425.746	1089.9
426.123	1109.34
426.499	1109.11
426.875	1111.6
427.251	1169.45
427.627	1137.13
428.003	1156.34
428.379	1188.43
428.756	1190.01
429.132	1242.44
429.507	1204.47
429.883	1227.75
430.259	1275.88
430.635	1245.38
431.011	1301.87
431.387	1312.49
431.763	1326.96
432.138	1327.63
432.514	1366.5
432.89	1358.59
433.265	1381.42
433.641	1416.67
434.016	1415.32
434.392	1406.5
434.767	1439.72
435.143	1444.47
435.518	1467.97
435.894	1454.41
436.269	1520.85
436.644	1544.35
437.02	1526.73
437.395	1548.65
437.77	1578.48
438.145	1608.76
438.52	1626.16
438.895	1645.37
439.271	1629.32
439.646	1678.59
440.021	1645.37
440.395	1674.07
440.77	1675.2
441.145	1722.43
441.52	1729.66
441.895	1735.08
442.27	1734.4
442.645	1778.24
443.019	1770.33
443.394	1765.14
443.769	1769.88
444.143	1777.34
444.518	1817.79
444.892	1835.87
445.267	1827.73
445.641	1846.94
446.016	1848.3
446.39	1882.2
446.764	1918.81
447.139	1896.89
447.513	1908.41
447.887	1895.53
448.262	1917.68
448.636	1975.53
449.01	1998.35
449.384	1962.19
449.758	2007.62
450.132	2026.37
450.506	2049.88
450.88	2046.71
451.254	2040.61
451.628	2094.39
452.002	2119.48
452.376	2094.62
452.75	2148.4
453.123	2196.54
453.497	2208.97
453.871	2194.5
454.244	2246.03
454.618	2279.93
454.992	2320.38
455.365	2296.2
455.739	2356.08
456.112	2383.88
456.486	2421.62
456.859	2451.22
457.232	2455.29
457.606	2464.33
457.979	2522.41
458.352	2596.08
458.725	2599.24
459.099	2586.36
459.472	2651.44
459.845	2690.76
460.218	2745.68
460.591	2748.61
460.964	2787.94
461.337	2825
461.71	2869.97
462.083	2865.45
462.456	2890.53
462.829	2870.87
463.201	2945.22
463.574	2991.09
463.947	3051.43
464.32	3108.38
464.692	3112.45
465.065	3115.16
465.438	3201.71
465.81	3214.14
466.183	3266.57
466.555	3330.75
466.928	3351.08
467.3	3354.7
467.672	3444.64
468.045	3540.01
468.417	3532.77
468.789	3555.6
469.161	3554.24
469.534	3667.46
469.906	3712.2
470.278	3749.72
470.65	3779.32
471.022	3873.33
471.394	3903.84
471.766	4014.57
472.138	4010.95
472.51	4111.97
472.882	4179.54
473.253	4166.2
473.625	4257.73
473.997	4318.97
474.369	4337.5
474.74	4458.85
475.112	4508.79
475.484	4650.71
475.855	4688.68
476.227	4698.17
476.598	4835.11
476.97	4886.86
477.341	4961.89
477.713	5061.55
478.084	5124.14
478.455	5210.47
478.827	5286.4
479.198	5425.61
479.569	5465.6
479.94	5613.17
480.311	5597.35
480.682	5816.1
481.053	5883.22
481.424	5947.63
481.795	6023.56
482.166	6127.96
482.537	6171.12
482.908	6318.01
483.279	6364.56
483.65	6501.51
484.021	6615.18
484.391	6695.4
484.762	6780.37
485.133	6847.04
485.503	6935.17
485.874	7158.67
486.244	7174.49
486.615	7258.55
486.985	7405.21
487.356	7512.1
487.726	7612.22
488.097	7766.56
488.467	7756.62
488.837	7944.41
489.207	8027.57
489.578	8105.99
489.948	8190.5
490.318	8334.91
490.688	8345.3
491.058	8469.59
491.428	8607.44
491.798	8708.46
492.168	8810.38
492.538	8845.85
492.908	9032.06
493.278	9125.62
493.648	9182.34
494.017	9259.4
494.387	9308.89
494.757	9472.51
495.126	9557.93
495.496	9528.77
495.866	9680.86
496.235	9773.97
496.605	9844.25
496.974	9887.18
497.344	10008.54
497.713	10052.6
498.082	10136.89
498.452	10253.28
498.821	10311.81
499.19	10361.07
499.559	10467.51
499.928	10545.92
500.298	10645.58
500.667	10705.47
501.036	10752.25
501.405	10871.79
501.774	10903.88
502.143	10992.24
502.512	11071.11
502.88	11149.07
503.249	11185.45
503.618	11221.61
503.987	11313.13
504.356	11352.91
504.724	11488.95
505.093	11523.52
505.462	11618.21
505.83	11680.58
506.199	11759
506.567	11821.82
506.936	11881.93
507.304	12075.15
507.672	12084.64
508.041	12151.08
508.409	12336.16
508.777	12358.76
509.145	12485.76
509.514	12543.16
509.882	12640.11
510.25	12691.18
510.618	12776.6
510.986	12923.26
511.354	12931.85
511.722	13091.62
512.09	13246.19
512.458	13190.37
512.826	13371.16
513.193	13451.61
513.561	13566.18
513.929	13631.27
514.297	13716.69
514.664	13774.31
515.032	13838.04
515.4	14003.46
515.767	14154.42
516.135	14149.44
516.502	14166.17
516.869	14375.88
517.237	14554.86
517.604	14394.18
517.972	14696.32
518.339	14712.14
518.706	14867.62
519.073	14872.14
519.44	14984.22
519.808	15197.78
520.175	15212.47
520.542	15439.58
520.909	15450.2
521.276	15631.44
521.643	15692
522.009	15851.55
522.376	15880.47
522.743	16043.63
523.11	16184.65
523.477	16308.03
523.843	16409.95
524.21	16670.73
524.577	16776.04
524.943	16840.22
525.31	16999.31
525.676	17107.56
526.043	17172.87
526.409	17227.56
526.776	17483.59
527.142	17604.04
527.508	17622.57
527.874	17850.59
528.241	17873.41
528.607	17951.83
528.973	18225.72
529.339	18216.46
529.705	18383.01
530.071	18549.1
530.437	18574.86
530.803	18706.39
531.169	18854.63
531.535	18762.43
531.901	18950.67
532.267	19069.54
532.632	19190.22
532.998	19214.4
533.364	19379.36
533.73	19438.34
534.095	19572.35
534.461	19556.99
534.826	19785.68
535.192	19809.18
535.557	19971.89
535.923	19952.46
536.288	20107.93
536.653	20169.63
537.019	20087.59
537.384	20324.42
537.749	20476.74
538.114	20436.74
538.479	20523.74
538.845	20677.63
539.21	20601.03
539.575	20784.07
539.94	20765.32
540.305	20989.04
540.67	20862.04
541.034	20969.6
541.399	21183.84
541.764	21227
542.129	21319.2
542.494	21234.68
542.858	21370.5
543.223	21424.06
543.587	21579.53
543.952	21469.25
544.316	21683.94
544.681	21652.07
545.045	21847.1
545.41	21928
545.774	21921.9
546.138	22026.3
546.503	22087.54
546.867	22198.95
547.231	22364.37
547.595	22300.87
547.959	22462.22
548.324	22444.37
548.688	22476.91
549.052	22721.65
549.416	22717.13
549.779	22790.12
550.143	22796.45
550.507	23004.35
550.871	23075.76
551.235	23010.45
551.599	23277.57
551.962	23297.68
552.326	23424
552.689	23520.5
553.053	23510.78
553.417	23514.85
553.78	23777.89
554.143	23761.39
554.507	23941.5
554.87	23984.89
555.234	24243.87
555.597	24181.04
555.96	24197.09
556.323	24314.37
556.686	24449.74
557.05	24529.51
557.413	24621.03
557.776	24739.22
558.139	24879.56
558.502	24884.08
558.865	24885.21
559.228	25088.82
559.59	25280.45
559.953	25300.11
560.316	25535.13
560.679	25576.94
561.041	25741.46
561.404	25801.34
561.767	25963.37
562.129	25853.54
562.492	26146.19
562.854	26146.64
563.217	26307.77
563.579	26365.39
563.941	26578.95
564.304	26710.7
564.666	26830.24
565.028	26916.57
565.39	26982.55
565.753	27210.8
566.115	27265.48
566.477	27375.99
566.839	27495.76
567.201	27643.55
567.563	27650.78
567.925	27781.85
568.287	27834.96
568.648	27930.55
569.01	28037.89
569.372	28215.74
569.734	28232.92
570.095	28386.13
570.457	28527.15
570.819	28485.79
571.18	28483.3
571.542	28742.73
571.903	28841.49
572.265	28924.2
572.626	28972.11
572.987	29089.84
573.349	29250.97
573.71	29267.92
574.071	29314.02
574.432	29429.95
574.794	29528.93
575.155	29589.49
575.516	29596.5
575.877	29791.29
576.238	29759.43
576.599	29807.11
576.96	29855.7
577.32	29824.51
577.681	30064.73
578.042	30151.28
578.403	30022.25
578.763	30034.68
579.124	30069.25
579.485	30288.91
579.845	30334.56
580.206	30268.79
580.566	30330.26
580.927	30328
581.287	30407.32
581.648	30358.28
582.008	30567.77
582.368	30436.25
582.728	30555.79
583.089	30532.74
583.449	30511.95
583.809	30588.79
584.169	30548.34
584.529	30605.28
584.889	30701.78
585.249	30584.04
585.609	30534.32
585.969	30678.05
586.329	30632.63
586.688	30754.66
587.048	30665.62
587.408	30570.03
587.768	30619.52
588.127	30638.5
588.487	30474.89
588.846	30944.03
589.206	30638.95
589.565	30745.84
589.925	30833.75
590.284	30615.23
590.643	30767.09
591.003	30904.71
591.362	30804.83
591.721	30778.39
592.08	30727.54
592.44	30862.23
592.799	30833.98
593.158	30810.48
593.517	30836.69
593.876	30871.26
594.235	30860.42
594.593	30830.14
594.952	30949
595.311	30823.36
595.67	30800.53
596.029	31136.79
596.387	31226.06
596.746	31144.48
597.104	31035.55
597.463	31048.44
597.822	31015.22
598.18	31104.48
598.538	31238.03
598.897	31270.58
599.255	30929.57
599.613	31393.06
599.972	31291.37
600.33	31406.17
600.688	31172.5
601.046	31359.84
601.404	31339.05
601.762	31295.66
602.12	31333.63
602.478	31363.45
602.836	31509.21
603.194	31375.88
603.552	31547.86
603.91	31253.63
604.268	31490.23
604.625	31487.07
604.983	31634.86
605.341	31525.94
605.698	31636.67
606.056	31590.34
606.413	31702.43
606.771	31708.53
607.128	31848.64
607.485	31779.04
607.843	31761.41
608.2	31938.36
608.557	32030.33
608.914	31857
609.272	32085.24
609.629	32036.88
609.986	32161.4
610.343	32117.11
610.7	32241.17
611.057	32110.55
611.414	32168.18
611.771	32341.06
612.127	32377.44
612.484	32283.2
612.841	32448.62
613.198	32258.57
613.554	32359.36
613.911	32608.17
614.267	32642.07
614.624	32518.45
614.98	32537.66
615.337	32737.88
615.693	32738.56
616.05	32668.28
616.406	32800.48
616.762	32642.07
617.118	32648.17
617.475	32598.22
617.831	32758.67
618.187	32682.74
618.543	32769.75
618.899	32982.4
619.255	32956.86
619.611	32877.31
619.967	32950.31
620.323	33060.59
620.678	32895.39
621.034	32935.62
621.39	32863.08
621.746	32890.87
622.101	33199.79
622.457	32960.48
622.812	32791.44
623.168	33065.33
623.523	33122.73
623.879	33144.88
624.234	32880.25
624.589	33019
624.945	33117.99
625.3	33052
625.655	33131.32
626.01	33137.87
626.365	33169.51
626.72	33089.29
627.075	33092.68
627.43	32985.79
627.785	32974.03
628.14	32996.41
628.495	33009.29
628.85	33012.68
629.205	32997.08
629.559	33090.19
629.914	32772.23
630.269	32965.22
630.623	32825.34
630.978	32854.94
631.332	32856.52
631.687	33003.86
632.041	32765.45
632.396	32933.58
632.75	32684.55
633.104	32754.83
633.459	32611.33
633.813	32541.05
634.167	32607.04
634.521	32530.2
634.875	32676.19
635.229	32613.14
635.583	32384.22
635.937	32585.34
636.291	32420.83
636.645	32422.41
636.999	32307.61
637.352	32316.42
637.706	32176.77
638.06	32360.49
638.413	32169.54
638.767	32135.19
639.121	32310.32
639.474	31967.05
639.828	32014.96
640.181	31984.91
640.534	32086.15
640.888	31903.55
641.241	31831.92
641.594	31888.64
641.947	31913.27
642.301	31945.13
642.654	31833.73
643.007	31751.69
643.36	31759.6
643.713	31684.58
644.066	31844.35
644.419	31591.25
644.771	31367.52
645.124	31227.19
645.477	31094.99
645.83	30832.17
646.182	30731.83
646.535	30602.12
646.888	30708.78
647.24	30414.55
647.593	30617.03
647.945	30504.04
648.298	30340.66
648.65	30423.37
649.002	30285.52
649.355	30295.69
649.707	30493.87
650.059	30511.05
650.411	30849.12
650.763	30869.91
651.115	31100.86
651.467	30933.41
651.819	30974.54
652.171	30864.03
652.523	30873.52
652.875	30856.8
653.227	30597.15
653.578	30940.87
653.93	30814.99
654.282	30843.69
654.633	30636.92
654.985	30719.63
655.337	30782.45
655.688	30766.18
656.039	30718.5
656.391	30622.68
656.742	30638.05
657.094	30566.64
657.445	30588.56
657.796	30556.47
658.147	30408.45
658.498	30404.61
658.849	30533.87
659.2	30600.54
659.551	30264.73
659.902	30463.82
660.253	30452.29
660.604	30426.08
660.955	30285.07
661.306	30415.91
661.656	30414.33
662.007	30367.32
662.358	30305.86
662.708	30239.64
663.059	30394.89
663.409	30070.61
663.76	30366.42
664.11	30201.9
664.461	30210.49
664.811	30229.25
665.161	30256.59
665.511	30131.4
665.862	30109.02
666.212	30179.53
666.562	30212.07
666.912	30115.35
667.262	30088.46
667.612	30060.21
667.962	30085.97
668.312	30043.94
668.662	30165.29
669.011	30076.71
669.361	30046.2
669.711	30033.55
670.06	30108.35
670.41	29951.51
670.76	29839.65
671.109	30075.35
671.459	29975.02
671.808	29801.69
672.157	30003.04
672.507	29810.05
672.856	29807.11
673.205	29744.74
673.554	29880.78
673.904	29720.56
674.253	29867.9
674.602	29729.37
674.951	29259.56
675.3	29188.82
675.649	29673.33
675.998	29536.16
676.346	29521.24
676.695	29742.71
677.044	29448.7
677.393	29498.65
677.741	29521.47
678.09	29473.79
678.438	29384.07
678.787	29502.94
679.135	29429.27
679.484	29340.68
679.832	29262.95
680.181	29171.2
680.529	29376.39
680.877	29071.09
681.225	29152.89
681.573	29297.07
681.922	29057.98
682.27	29049.17
682.618	29078.54
682.966	29022.27
683.314	29008.04
683.661	28962.84
684.009	28795.39
684.357	28721.72
684.705	28614.15
685.053	28750.87
685.4	28696.41
685.748	28511.55
686.095	28538.22
686.443	28328.73
686.79	28292.8
687.138	28530.76
687.485	28388.39
687.832	28303.87
688.18	28298.9
688.527	28136.87
688.874	28135.07
689.221	28013.49
689.568	28015.07
689.915	27879.7
690.262	27963.32
690.609	27908.86
690.956	27772.36
691.303	27711.35
691.65	27550.9
691.997	27639.26
692.344	27444.01
692.69	27452.15
693.037	27375.99
693.383	27183.45
693.73	27284.47
694.077	27221.19
694.423	27179.84
694.769	26981.2
695.116	26914.08
695.462	26952.27
695.808	26779.85
696.155	26854.65
696.501	26519.29
696.847	26630.92
697.193	26514.32
697.539	26509.12
697.885	26404.26
698.231	26271.39
698.577	26315
698.923	26171.73
699.269	26133.08
699.614	26023.03
699.96	25793.88
700.306	25894.22
700.651	25803.38
700.997	25810.61
701.342	25663.04
701.688	25623.94
702.033	25573.55
702.379	25619.65
702.724	25484.74
703.069	25468.92
703.415	25211.3
703.76	25189.61
704.105	25171.75
704.45	25174.24
704.795	25058.76
705.14	24972.21
705.485	24972.21
705.83	24810.41
706.175	24739.45
706.52	24776.51
706.865	24690.41
707.209	24605.44
707.554	24514.14
707.899	24616.06
708.243	24514.14
708.588	24464.88
708.932	24353.47
709.277	24387.59
709.621	24221.95
709.966	24065.34
710.31	24129.52
710.654	23972.91
710.998	24028.51
711.342	23988.96
711.687	23877.1
712.031	23891.79
712.375	23712.58
712.719	23786.71
713.063	23726.37
713.407	23769.08
713.75	23583.09
714.094	23632.36
714.438	23563.89
714.782	23524.57
715.125	23358.24
715.469	23461.74
715.812	23347.17
716.156	23185.36
716.499	23241.86
716.843	23266.72
717.186	23103.79
717.53	23164.35
717.873	23122.54
718.216	23147.85
718.559	22958.7
718.902	22739.27
719.246	22939.5
719.589	22833.06
719.932	22701.54
720.275	22813.85
720.617	22749.22
720.96	22694.08
721.303	22605.27
721.646	22741.08
721.989	22451.37
722.331	22635.1
722.674	22499.51
723.016	22451.82
723.359	22456.12
723.701	22440.75
724.044	22323.69
724.386	22249.8
724.729	22319.17
725.071	22163.7
725.413	22105.62
725.755	22189.91
726.097	22023.81
726.439	22003.93
726.782	21975
727.124	22062.23
727.465	22012.29
727.807	21980.88
728.149	21850.03
728.491	21822.46
728.833	21875.79
729.175	21804.61
729.516	21772.52
729.858	21766.19
730.199	21735.69
730.541	21710.6
730.882	21619.3
731.224	21703.37
731.565	21516.93
731.906	21483.04
732.248	21591.73
732.589	21421.34
732.93	21417.73
733.271	21420.89
733.612	21498.86
733.953	21354
734.294	21246.66
734.635	21190.84
734.976	21328.46
735.317	21185.87
735.658	21263.38
735.999	21156.04
736.339	21020.22
736.68	21087.57
737.021	21101.13
737.361	20912.66
737.702	21102.48
738.042	20929.15
738.383	20916.5
738.723	21013.44
739.063	20887.35
739.404	20777.97
739.744	20793.56
740.084	20776.61
740.424	20763.06
740.764	20595.6
741.104	20749.95
741.444	20591.99
741.784	20566.9
742.124	20556.51
742.464	20430.86
742.804	20561.03
743.143	20428.6
743.483	20465.21
743.823	20390.18
744.162	20411.2
744.502	20408.71
744.841	20258.44
745.181	20423.86
745.52	20232.9
745.86	20330.07
746.199	20256.63
746.538	20234.71
746.877	20181.83
747.216	20195.84
747.556	20177.53
747.895	20115.16
748.234	19966.47
748.573	20023.41
748.911	19882.63
749.25	19885.79
749.589	19746.81
749.928	19808.5
750.267	19843.08
750.605	19721.95
750.944	19704.33
751.283	19616.19
751.621	19672.01
751.96	19616.19
752.298	19552.24
752.636	19444.45
752.975	19393.37
753.313	19342.98
753.651	19384.33
753.989	19293.04
754.327	19306.6
754.666	19224.11
755.004	19197.9
755.342	19133.27
755.679	19200.61
756.017	19042.2
756.355	19181.63
756.693	19046.49
757.031	18983.89
757.368	18877.68
757.706	18792.49
758.044	18841.98
758.381	18766.27
758.719	18808.53
759.056	18680.85
759.394	18682.88
759.731	18528.99
760.068	18558.82
760.405	18523.34
760.743	18467.3
761.08	18474.98
761.417	18324.48
761.754	18296.68
762.091	18322.89
762.428	18223.01
762.765	18091.49
763.102	18163.12
763.438	17983.92
763.775	17958.38
764.112	17943.92
764.449	17957.48
764.785	17855.11
765.122	17827.31
765.458	17592.74
765.795	17561.78
766.131	17588
766.467	17474.1
766.804	17420.77
767.14	17377.83
767.476	17307.55
767.812	17273.66
768.148	17351.17
768.485	17192.08
768.821	17149.82
769.157	17094
769.492	17032.98
769.828	16998.18
770.164	16785.53
770.5	16881.58
770.836	16831.63
771.171	16666.44
771.507	16680.68
771.842	16595.03
772.178	16597.74
772.513	16435.26
772.849	16396.39
773.184	16325.88
773.519	16338.31
773.855	16255.6
774.19	16172.22
774.525	16087.25
774.86	16059.9
775.195	16106.46
775.53	15949.85
775.865	15842.96
776.2	15832.79
776.535	15721.61
776.87	15725.22
777.205	15589.86
777.539	15583.08
777.874	15646.58
778.209	15451.11
778.543	15470.99
778.878	15339.02
779.212	15434.38
779.547	15225.35
779.881	15299.47
780.215	15249.53
780.55	15273.03
780.884	15160.49
781.218	15033.49
781.552	15052.25
781.886	14958.01
782.22	14887.73
782.554	14854.06
782.888	14693.38
783.222	14598.47
783.556	14602.77
783.889	14592.6
784.223	14476.67
784.557	14433.28
784.89	14461.75
785.224	14492.26
785.557	14311.02
785.891	14293.85
786.224	14237.13
786.558	14172.72
786.891	14034.65
787.224	13969.11
787.557	13979.28
787.891	13963.69
788.224	13973.18
788.557	13904.25
788.89	13884.14
789.223	13838.72
789.556	13755.33
789.888	13692.51
790.221	13692.51
790.554	13559.86
790.887	13580.65
791.219	13549.46
791.552	13498.61
791.884	13466.3
792.217	13395.11
792.549	13386.07
792.882	13315.12
793.214	13226.08
793.546	13281.22
793.879	13131.39
794.211	13028.57
794.543	13133.65
794.875	13000.32
795.207	13051.85
795.539	12995.35
795.871	12962.81
796.203	12808.69
796.535	12759.65
796.867	12817.05
797.198	12721.91
797.53	12741.57
797.862	12646.66
798.193	12662.93
798.525	12644.4
798.856	12586.1
799.188	12484.18
799.519	12456.38
799.85	12376.61
800.182	12358.3
800.513	12403.73
800.844	12264.07
801.175	12324.86
801.506	12247.8
801.837	12182.49
802.168	12231.53
802.499	12191.98
802.83	12096.39
803.161	12067.92
803.491	12065.66
803.822	12024.75
804.153	11946.11
804.483	11906.57
804.814	11765.1
805.145	11880.8
805.475	11817.75
805.805	11684.2
806.136	11800.81
806.466	11802.39
806.796	11803.07
807.126	11660.47
807.457	11626.12
807.787	11554.71
808.117	11520.59
808.447	11499.8
808.777	11545.9
809.107	11392.91
809.436	11436.75
809.766	11377.99
810.096	11396.52
810.426	11326.24
810.755	11356.75
811.085	11269.52
811.414	11330.99
811.744	11199.69
812.073	11170.09
812.403	11151.56
812.732	11131.67
813.061	11130.09
813.39	11092.12
813.719	11026.59
814.049	11098.45
814.378	11005.12
814.707	10959.7
815.036	11021.39
815.365	10881.73
815.693	10794.5
816.022	10846.48
816.351	10833.83
816.68	10736.2
817.008	10699.14
817.337	10658.24
817.665	10696.88
817.994	10634.73
818.322	10665.47
818.651	10613.27
818.979	10615.53
819.307	10632.02
819.636	10554.28
819.964	10527.39
820.292	10602.87
820.62	10534.62
820.948	10497.11
821.276	10589.99
821.604	10510.22
821.932	10537.11
822.259	10523.78
822.587	10517.68
822.915	10450.56
823.243	10526.71
823.57	10490.11
823.898	10510.44
824.225	10372.59
824.553	10480.84
824.88	10387.96
825.207	10495.76
825.535	10460.73
825.862	10448.98
826.189	10496.21
826.516	10466.15
826.843	10426.15
827.17	10426.38
827.497	10402.2
827.824	10473.61
828.151	10437.68
828.478	10460.95
828.805	10486.04
829.131	10408.07
829.458	10404.01
829.785	10417.11
830.111	10386.83
830.438	10469.09
830.764	10424.57
831.09	10434.74
831.417	10387.51
831.743	10451.91
832.069	10411.92
832.395	10388.19
832.722	10437.45
833.048	10371.24
833.374	10361.75
833.7	10334.63
834.026	10345.25
834.351	10359.71
834.677	10359.26
835.003	10340.05
835.329	10345.02
835.654	10252.37
835.98	10252.6
836.306	10239.49
836.631	10212.15
836.956	10276.55
837.282	10346.83
837.607	10170.57
837.932	10177.57
838.258	10180.51
838.583	10112.49
838.908	10096.67
839.233	10098.48
839.558	10134.18
839.883	10099.16
840.208	10007.41
840.533	10030.23
840.858	9997.69
841.182	10024.81
841.507	9962.44
841.832	10046.95
842.156	9961.98
842.481	9924.92
842.805	9902.78
843.13	9887.41
843.454	9874.3
843.778	9851.03
844.103	9777.81
844.427	9813.74
844.751	9841.99
845.075	9725.38
845.399	9745.27
845.723	9632.5
846.047	9658.94
846.371	9615.33
846.695	9611.48
847.019	9488.32
847.343	9495.56
847.666	9501.2
847.99	9384.82
848.313	9449.91
848.637	9353.41
848.96	9355.67
849.284	9275.67
849.607	9272.96
849.931	9189.8
850.254	9216.47
850.577	9121.55
850.9	9051.73
851.223	9079.75
851.546	9012.63
851.869	8963.37
852.192	8999.52
852.515	8918.85
852.838	8909.36
853.161	8844.95
853.483	8823.48
853.806	8850.6
854.129	8783.26
854.451	8721.11
854.774	8671.85
855.096	8639.31
855.419	8623.49
855.741	8683.6
856.063	8552.3
856.385	8547.33
856.708	8544.39
857.03	8544.85
857.352	8519.99
857.674	8515.47
857.996	8434.79
858.318	8355.7
858.64	8437.73
858.961	8423.95
859.283	8346.21
859.605	8291.07
859.926	8396.38
860.248	8357.73
860.57	8289.03
860.891	8331.97
861.212	8191.63
861.534	8166.32
861.855	8188.92
862.176	8262.14
862.498	8251.52
862.819	8149.83
863.14	8083.62
863.461	8094.91
863.782	8087.91
864.103	8192.09
864.424	8061.02
864.745	8116.83
865.065	8014.01
865.386	8065.08
865.707	8009.72
866.027	7979.44
866.348	8012.43
866.668	8036.16
866.989	8019.21
867.309	7888.82
867.63	8001.36
867.95	7928.59
868.27	7859.89
868.59	7867.12
868.91	7883.85
869.23	7861.93
869.55	7825.54
869.87	7880.68
870.19	7821.25
870.51	7835.49
870.83	7833.45
871.15	7819.44
871.469	7758.43
871.789	7765.66
872.109	7767.47
872.428	7759.78
872.748	7769.27
873.067	7777.63
873.386	7731.08
873.706	7683.17
874.025	7688.82
874.344	7680.91
874.663	7718.2
874.982	7632.55
875.301	7680.24
875.62	7606.57
875.939	7566.79
876.258	7628.03
876.577	7562.72
876.896	7607.92
877.214	7542.84
877.533	7600.69
877.852	7529.51
878.17	7495.38
878.489	7529.05
878.807	7495.83
879.125	7456.96
879.444	7495.38
879.762	7501.26
880.08	7489.28
880.398	7381.71
880.716	7459
881.034	7390.75
881.352	7442.5
881.67	7380.36
881.988	7415.16
882.306	7407.02
882.624	7346.23
882.941	7279.57
883.259	7303.07
883.577	7217.88
883.894	7284.77
884.212	7299.91
884.529	7244.09
884.846	7261.94
885.164	7202.96
885.481	7191.44
885.798	7264.65
886.115	7199.8
886.432	7167.03
886.75	7116.18
887.067	7148.95
887.383	7068.5
887.7	7112.34
888.017	7103.08
888.334	7076.18
888.651	7042.06
888.967	7060.14
889.284	6946.02
889.6	6972.23
889.917	6923.65
890.233	6942.18
890.55	6853.59
890.866	6887.71
891.182	6951.67
891.498	6849.98
891.815	6827.6
892.131	6799.13
892.447	6822.63
892.763	6760.03
893.079	6777.21
893.395	6701.73
893.71	6757.55
894.026	6728.62
894.342	6715.29
894.657	6654.05
894.973	6653.6
895.289	6610.43
895.604	6648.17
895.92	6581.51
896.235	6533.6
896.55	6554.62
896.865	6566.59
897.181	6499.48
897.496	6535.63
897.811	6517.1
898.126	6452.25
898.441	6466.26
898.756	6419.25
899.071	6350.78
899.386	6364.34
899.7	6302.87
900.015	6320.95
900.33	6241.86
900.644	6238.24
900.959	6291.57
901.273	6222.2
901.588	6186.49
901.902	6190.56
902.216	6162.99
902.531	6153.5
902.845	6083.22
903.159	6100.62
903.473	6054.52
903.787	6052.26
904.101	6019.94
904.415	6035.99
904.729	6024.46
905.042	5978.81
905.356	6010
905.67	5974.29
905.984	5909.66
906.297	5914.63
906.611	5836.44
906.924	5883.67
907.237	5832.15
907.551	5838.93
907.864	5779.27
908.177	5824.69
908.491	5767.29
908.804	5741.98
909.117	5682.55
909.43	5720.97
909.743	5633.96
910.056	5615.66
910.368	5600.29
910.681	5596.9
910.994	5564.81
911.307	5528.43
911.619	5568.43
911.932	5552.38
912.244	5466.73
912.557	5477.81
912.869	5473.29
913.181	5413.18
913.494	5414.08
913.806	5395.78
914.118	5373.18
914.43	5271.49
914.742	5331.37
915.054	5319.85
915.366	5311.26
915.678	5297.7
915.99	5257.02
916.302	5222.22
916.613	5205.72
916.925	5173.64
917.236	5165.5
917.548	5135.67
917.859	5122.79
918.171	5093.64
918.482	5100.42
918.794	5063.58
919.105	5052.73
919.416	5028.78
919.727	5020.42
920.038	5020.19
920.349	4892.96
920.66	4909.01
920.971	4942.45
921.282	4909.01
921.593	4871.04
921.903	4817.03
922.214	4820.2
922.525	4823.59
922.835	4846.86
923.146	4733.87
923.456	4745.4
923.767	4681.22
924.077	4701.56
924.387	4671.95
924.697	4640.09
925.008	4616.81
925.318	4613.65
925.628	4646.19
925.938	4616.14
926.248	4548.34
926.558	4506.31
926.867	4538.62
927.177	4547.89
927.487	4513.99
927.796	4455.91
928.106	4457.95
928.416	4438.29
928.725	4428.57
929.034	4385.63
929.344	4440.55
929.653	4394.9
929.962	4365.07
930.271	4363.26
930.581	4311.51
930.89	4271.74
931.199	4269.03
931.508	4309.03
931.817	4277.16
932.125	4224.96
932.434	4261.34
932.743	4221.12
933.051	4165.53
933.36	4155.13
933.669	4134.79
933.977	4132.31
934.286	4084.85
934.594	4071.74
934.902	4073.1
935.21	4025.87
935.519	4040.33
935.827	4031.07
936.135	3985.42
936.443	3935.02
936.751	3944.06
937.059	3960.11
937.367	3944.51
937.674	3953.55
937.982	3910.62
938.29	3901.13
938.597	3947.9
938.905	3843.27
939.213	3833.78
939.52	3877.85
939.827	3782.26
940.135	3788.36
940.442	3791.07
940.749	3782.26
941.056	3749.72
941.363	3730.74
941.67	3746.78
941.977	3701.36
942.284	3700
942.591	3686.22
942.898	3687.8
943.205	3653.68
943.511	3662.49
943.818	3623.39
944.125	3596.73
944.431	3622.04
944.738	3573
945.044	3597.63
945.35	3567.58
945.657	3557.86
945.963	3511.31
946.269	3525.32
946.575	3499.55
946.881	3454.13
947.187	3469.73
947.493	3444.87
947.799	3481.7
948.105	3439.67
948.41	3386.79
948.716	3417.3
949.022	3393.79
949.327	3393.79
949.633	3320.58
949.938	3365.55
950.244	3347.47
950.549	3328.49
950.854	3297.98
951.16	3240.8
951.465	3279.22
951.77	3246
952.075	3257.98
952.38	3241.26
952.685	3223.4
952.99	3179.34
953.294	3185.89
953.599	3205.1
953.904	3152.45
954.209	3159.22
954.513	3195.83
954.818	3129.17
955.122	3115.16
955.426	3092.56
955.731	3108.38
956.035	3086.68
956.339	3074.71
956.643	3034.26
956.948	3071.77
957.252	3031.09
957.556	3057.76
957.86	2978.89
958.163	3000.13
958.467	2951.77
958.771	2992.9
959.075	2978.89
959.378	2934.15
959.682	2916.07
959.985	2925.33
960.289	2892.79
960.592	2886.46
960.896	2842.85
961.199	2896.41
961.502	2839.01
961.805	2830.42
962.108	2813.25
962.411	2827.48
962.714	2802.17
963.017	2771.21
963.32	2778.22
963.623	2744.77
963.926	2782.06
964.228	2725.34
964.531	2723.76
964.833	2741.38
965.136	2751.33
965.438	2742.51
965.741	2718.11
966.043	2676.07
966.345	2698.22
966.648	2650.09
966.95	2610.76
967.252	2642.85
967.554	2603.99
967.856	2616.41
968.158	2620.48
968.46	2595.85
968.761	2610.09
969.063	2598.56
969.365	2551.11
969.666	2560.37
969.968	2552.69
970.269	2525.12
970.571	2536.42
970.872	2513.37
971.174	2525.8
971.475	2481.28
971.776	2463.88
972.077	2462.97
972.378	2458.9
972.679	2448.51
972.98	2467.72
973.281	2470.66
973.582	2430.43
973.883	2392.92
974.183	2359.7
974.484	2364.9
974.785	2360.38
975.085	2403.99
975.386	2393.6
975.686	2335.97
975.986	2385.46
976.287	2318.12
976.587	2343.65
976.887	2306.59
977.187	2305.46
977.487	2305.91
977.787	2266.37
978.087	2272.47
978.387	2283.99
978.687	2256.65
978.987	2266.82
979.286	2229.98
979.586	2223.43
979.885	2227.72
980.185	2232.24
980.484	2197.22
980.784	2203.09
981.083	2191.11
981.382	2167.16
981.682	2158.12
981.981	2121.29
982.28	2133.72
982.579	2121.96
982.878	2136.43
983.177	2126.48
983.475	2111.34
983.774	2095.3
984.073	2119.93
984.372	2054.62
984.67	2078.58
984.969	2058.91
985.267	2062.53
985.566	2074.28
985.864	2060.27
986.162	2044
986.461	2020.5
986.759	2024.79
987.057	2002.19
987.355	2028.63
987.653	1988.63
987.951	1978.46
988.249	2031.34
988.547	1988.41
988.844	1958.35
989.142	1954.74
989.44	1961.29
989.737	1913.16
990.035	1907.96
990.332	1928.97
990.63	1905.25
990.927	1890.78
991.224	1899.14
991.521	1902.31
991.819	1884
992.116	1885.36
992.413	1859.37
992.71	1859.82
993.006	1836.32
993.303	1845.14
993.6	1850.56
993.897	1820.05
994.193	1805.59
994.49	1804.01
994.787	1796.1
995.083	1769.2
995.379	1769.2
995.676	1777.34
995.972	1756.32
996.268	1750.9
996.565	1735.31
996.861	1738.02
997.157	1752.48
997.453	1731.01
997.749	1685.37
998.044	1720.84
998.34	1684.01
998.636	1696.44
998.932	1673.16
999.227	1677.46
999.523	1667.51
999.818	1636.78
1000.114	1663.9
1000.409	1659.6
1000.704	1620.96
1001	1664.57
1001.295	1574.18
1001.59	1612.37
1001.885	1637.91
1002.18	1572.15
1002.475	1569.89
1002.77	1562.66
1003.065	1594.52
1003.359	1598.36
1003.654	1542.77
1003.949	1541.41
1004.243	1569.89
1004.538	1555.2
1004.832	1536.22
1005.127	1538.7
1005.421	1528.76
1005.715	1519.72
1006.009	1513.17
1006.304	1502.09
1006.598	1492.38
1006.892	1462.77
1007.186	1454.41
1007.48	1462.77
1007.773	1464.35
1008.067	1446.73
1008.361	1426.84
1008.655	1430.68
1008.948	1432.26
1009.242	1387.75
1009.535	1407.18
1009.829	1401.08
1010.122	1408.31
1010.415	1396.79
1010.708	1373.51
1011.001	1375.09
1011.295	1342.55
1011.588	1352.27
1011.881	1348.42
1012.173	1358.37
1012.466	1332.15
1012.759	1315.21
1013.052	1297.35
1013.344	1300.97
1013.637	1303.23
1013.93	1283.79
1014.222	1296.9
1014.514	1275.43
1014.807	1303.68
1015.099	1255.77
1015.391	1253.74
1015.683	1261.2
1015.976	1245.6
1016.268	1257.81
1016.56	1218.26
1016.851	1220.74
1017.143	1231.59
1017.435	1220.52
1017.727	1201.31
1018.018	1198.15
1018.31	1203.57
1018.602	1181.42
1018.893	1168.99
1019.185	1167.19
1019.476	1190.46
1019.767	1163.8
1020.058	1158.15
1020.35	1142.55
1020.641	1157.47
1020.932	1141.88
1021.223	1126.74
1021.514	1112.27
1021.804	1101.88
1022.095	1103.23
1022.386	1093.97
1022.677	1080.64
1022.967	1083.8
1023.258	1085.61
1023.548	1077.47
1023.839	1048.55
1024.129	1079.73
1024.419	1052.16
1024.709	1056.91
1025	1047.19
1025.29	1032.5
1025.58	1019.39
1025.87	1049
1026.16	1004.93
1026.449	1024.14
1026.739	1016.46
1027.029	1000.64
1027.319	1003.8
1027.608	978.49
1027.898	987.08
1028.187	983.24
1028.477	978.04
1028.766	966.06
1029.055	978.49
1029.344	965.84
1029.634	955.21
1029.923	920.64
1030.212	919.74
1030.501	936.01
1030.79	930.13
1031.078	938.49
1031.367	913.41
1031.656	924.93
1031.945	899.4
1032.233	907.08
1032.522	891.71
1032.81	858.95
1033.099	877.7
1033.387	868.44
1033.675	861.43
1033.963	860.08
1034.251	881.32
1034.54	848.1
1034.828	859.62
1035.116	855.78
1035.403	849
1035.691	851.94
1035.979	822.56
1036.267	837.93
1036.554	832.51
1036.842	811.49
1037.129	825.27
1037.417	815.11
1037.704	818.95
1037.992	801.09
1038.279	799.29
1038.566	803.13
1038.853	803.13
1039.14	803.13
