Data from breadboard_white_FLMS001491_00086.txt Node
Date: Wed Feb 08 10:48:24 GMT 2017
User: dcchb
Spectrometer: FLMS00149
Trigger mode: 0
Integration Time (sec): 2.000000E-2
Scans to average: 10
Electric dark correction enabled: true
Nonlinearity correction enabled: false
Boxcar width: 0
XAxis mode: Wavelengths
Number of Pixels in Spectrum: 2048
>>>>>Begin Spectral Data<<<<<
341.393	-15.58
341.776	-15.58
342.16	-15.58
342.543	-62.13
342.927	-56.03
343.31	-51.96
343.693	-68.46
344.077	-54.45
344.46	-58.06
344.843	-69.59
345.226	-37.27
345.61	-24.39
345.993	-9.03
346.376	-11.29
346.759	-7.22
347.142	22.16
347.525	27.81
347.908	65.1
348.291	85.21
348.674	80.69
349.057	110.75
349.44	125.21
349.823	128.6
350.206	157.3
350.588	213.34
350.971	244.08
351.354	226.67
351.737	262.83
352.119	269.39
352.502	270.52
352.884	259.67
353.267	297.63
353.65	320.91
354.032	331.98
354.414	311.42
354.797	328.82
355.179	345.32
355.562	319.1
355.944	341.93
356.326	337.18
356.709	339.21
357.091	351.19
357.473	362.04
357.855	368.14
358.238	357.07
358.62	361.59
359.002	370.63
359.384	366.33
359.766	382.15
360.148	352.77
360.53	370.63
360.912	355.26
361.294	332.66
361.676	343.73
362.057	362.72
362.439	373.79
362.821	343.73
363.203	361.36
363.584	360
363.966	371.98
364.348	347.12
364.729	371.53
365.111	347.35
365.493	352.32
365.874	353.45
366.256	338.08
366.637	329.05
367.019	355.26
367.4	355.94
367.781	353.68
368.163	345.09
368.544	350.51
368.925	337.41
369.306	346.45
369.688	354.58
370.069	345.09
370.45	348.71
370.831	366.56
371.212	347.58
371.593	374.24
371.974	354.58
372.355	337.41
372.736	361.81
373.117	332.89
373.498	355.94
373.879	372.21
374.26	356.16
374.641	352.77
375.021	357.74
375.402	367.91
375.783	382.15
376.163	394.35
376.544	378.08
376.925	367.46
377.305	379.21
377.686	386.44
378.066	397.29
378.447	364.75
378.827	385.09
379.208	373.11
379.588	393
379.968	410.62
380.349	413.34
380.729	396.61
381.109	404.75
381.489	394.58
381.87	394.58
382.25	424.41
382.63	413.34
383.01	406.33
383.39	400
383.77	409.04
384.15	426.22
384.53	428.93
384.91	437.74
385.29	432.77
385.67	427.35
386.049	435.03
386.429	449.72
386.809	438.42
387.189	446.56
387.568	454.01
387.948	472.09
388.328	466.22
388.707	452.88
389.087	472.77
389.466	479.1
389.846	484.75
390.225	477.06
390.605	494.69
390.984	514.58
391.363	482.26
391.743	476.39
392.122	510.06
392.501	503.96
392.881	514.8
393.26	522.71
393.639	524.07
394.018	500.57
394.397	546.44
394.776	552.54
395.155	548.02
395.534	552.09
395.913	578.3
396.292	557.06
396.671	570.62
397.05	621.24
397.429	599.55
397.808	623.05
398.186	597.74
398.565	608.13
398.944	629.38
399.323	631.86
399.701	646.1
400.08	636.61
400.458	629.6
400.837	671.63
401.215	672.54
401.594	668.47
401.972	698.98
402.351	713.89
402.729	708.92
403.107	715.48
403.486	759.32
403.864	731.97
404.242	737.62
404.62	758.41
404.999	794.57
405.377	775.13
405.755	809.48
406.133	826.21
406.511	839.77
406.889	850.16
407.267	886.32
407.645	865.75
408.023	897.17
408.401	910.72
408.779	922.48
409.156	946.2
409.534	952.08
409.912	965.41
410.29	1015.81
410.667	1014.45
411.045	1023.94
411.422	1049.7
411.8	1057.39
412.178	1109.14
412.555	1094.67
412.933	1114.11
413.31	1146.88
413.687	1166.54
414.065	1159.31
414.442	1187.78
414.819	1247.44
415.197	1234.33
415.574	1232.98
415.951	1244.05
416.328	1288.57
416.705	1265.52
417.082	1315.01
417.46	1348
417.837	1349.36
418.214	1344.16
418.591	1355.01
418.967	1405.17
419.344	1433.42
419.721	1429.13
420.098	1463.48
420.475	1445.63
420.852	1509.8
421.228	1514.78
421.605	1521.56
421.982	1540.31
422.358	1543.48
422.735	1583.93
423.111	1590.93
423.488	1610.37
423.864	1642
424.241	1661.67
424.617	1657.82
424.994	1677.26
425.37	1686.3
425.746	1727.2
426.123	1769.23
426.499	1751.15
426.875	1805.39
427.251	1830.7
427.627	1870.93
428.003	1865.73
428.379	1902.79
428.756	1940.75
429.132	1959.96
429.507	1973.07
429.883	2005.84
430.259	2020.07
430.635	2044.48
431.011	2089.9
431.387	2119.28
431.763	2173.52
432.138	2180.97
432.514	2220.75
432.89	2227.75
433.265	2281.99
433.641	2323.34
434.016	2368.54
434.392	2392.95
434.767	2404.24
435.143	2437.46
435.518	2479.5
435.894	2468.2
436.269	2522.66
436.644	2555.65
437.02	2586.84
437.395	2590
437.77	2648.76
438.145	2692.82
438.52	2691.47
438.895	2696.44
439.271	2721.75
439.646	2801.52
440.021	2775.31
440.395	2804.69
440.77	2825.93
441.145	2870.45
441.52	2896.89
441.895	2934.17
442.27	2936.21
442.645	2968.75
443.019	2966.72
443.394	3007.17
443.769	3027.96
444.143	3040.16
444.518	3094.85
444.892	3100.72
445.267	3091.68
445.641	3125.81
446.016	3148.41
446.39	3177.11
446.764	3218.23
447.139	3210.1
447.513	3287.61
447.887	3282.41
448.262	3291.9
448.636	3319.47
449.01	3331.9
449.384	3403.09
449.758	3425.46
450.132	3438.34
450.506	3443.77
450.88	3468.85
451.254	3450.77
451.628	3575.97
452.002	3583.2
452.376	3642.18
452.75	3696.64
453.123	3643.76
453.497	3721.05
453.871	3734.83
454.244	3838.33
454.618	3896.41
454.992	3924.2
455.365	3966.69
455.739	4077.42
456.112	4088.49
456.486	4163.07
456.859	4143.86
457.232	4272.67
457.606	4249.39
457.979	4250.52
458.352	4438.54
458.725	4422.5
459.099	4488.03
459.472	4580.91
459.845	4669.5
460.218	4693.22
460.591	4703.39
460.964	4713.56
461.337	4825.2
461.71	4897.29
462.083	4998.53
462.456	5001.24
462.829	5015.93
463.201	5139.77
463.574	5124.4
463.947	5237.62
464.32	5332.53
464.692	5329.37
465.065	5406.88
465.438	5508.8
465.81	5558.74
466.183	5610.71
466.555	5749.02
466.928	5817.71
467.3	5839.63
467.672	5890.93
468.045	6026.75
468.417	6028.33
468.789	6070.81
469.161	6217.48
469.534	6302.67
469.906	6427.87
470.278	6476.91
470.65	6583.57
471.022	6737.69
471.394	6827.18
471.766	6922.54
472.138	6934.3
472.51	7130.45
472.882	7254.74
473.253	7271.01
473.625	7479.59
473.997	7666.03
474.369	7644.11
474.74	7702.64
475.112	7880.03
475.484	8003.19
475.855	8083.87
476.227	8229.18
476.598	8434.37
476.97	8472.11
477.341	8700.8
477.713	8788.48
478.084	8989.61
478.455	9150.51
478.827	9273.22
479.198	9500.56
479.569	9553.21
479.94	9768.34
480.311	9912.97
480.682	10145.28
481.053	10311.61
481.424	10486.52
481.795	10606.06
482.166	10773.97
482.537	10909.78
482.908	11086.5
483.279	11224.35
483.65	11466.15
484.021	11693.04
484.391	11801.51
484.762	11963.09
485.133	12058
485.503	12272.01
485.874	12534.15
486.244	12682.17
486.615	12921.26
486.985	13009.16
487.356	13250.51
487.726	13403.96
488.097	13633.33
488.467	13677.17
488.837	14041.23
489.207	14128.46
489.578	14376.13
489.948	14501.55
490.318	14754.43
490.688	14714.43
491.058	15023.35
491.428	15218.37
491.798	15331.59
492.168	15713.5
492.538	15682.77
492.908	15952.36
493.278	16135.41
493.648	16200.72
494.017	16430.09
494.387	16627.37
494.757	16587.37
495.126	16989.85
495.496	16948.04
495.866	17154.37
496.235	17261.03
496.605	17328.37
496.974	17601.81
497.344	17711.86
497.713	17862.82
498.082	17988.92
498.452	18194.34
498.821	18280.44
499.19	18286.31
499.559	18616.7
499.928	18653.31
500.298	18884.49
500.667	18947.09
501.036	19075.9
501.405	19281.99
501.774	19288.55
502.143	19510.01
502.512	19522.44
502.88	19804.92
503.249	19760.17
503.618	19873.62
503.987	20005.14
504.356	20135.08
504.724	20332.36
505.093	20305.02
505.462	20576.42
505.83	20736.42
506.199	20925.34
506.567	21112
506.936	21165.11
507.304	21368.49
507.672	21455.04
508.041	21620.69
508.409	21833.79
508.777	21918.99
509.145	22236.27
509.514	22208.02
509.882	22308.81
510.25	22518.52
510.618	22679.19
510.986	22807.78
511.354	22954.21
511.722	23135.23
512.09	23506.29
512.458	23450.92
512.826	23617.92
513.193	23679.17
513.561	23829.22
513.929	24018.37
514.297	24277.57
514.664	24433.72
515.032	24597.11
515.4	24855.63
515.767	24932.24
516.135	25127.49
516.502	24844.78
516.869	25452.68
517.237	25535.61
517.604	25591.21
517.972	25942.61
518.339	25984.19
518.706	26222.83
519.073	26388.02
519.44	26525.42
519.808	26854.9
520.175	26956.37
520.542	27315
520.909	27328.56
521.276	27422.34
521.643	27690.59
522.009	27917.02
522.376	28114.98
522.743	28312.72
523.11	28628.64
523.477	28921.74
523.843	29028.86
524.21	29444.89
524.577	29533.7
524.943	29657.77
525.31	29902.05
525.676	30229.5
526.043	30396.05
526.409	30537.29
526.776	30852.31
527.142	30995.13
527.508	31255.92
527.874	31332.75
528.241	31677.6
528.607	31861.78
528.973	32066.06
529.339	32085.5
529.705	32339.05
530.071	32814.07
530.437	32680.06
530.803	33005.93
531.169	33238.69
531.535	33123.21
531.901	33458.34
532.267	33397.1
532.632	33730.2
532.998	33923.42
533.364	34148.04
533.73	34123.64
534.095	34495.6
534.461	34533.57
534.826	34886.78
535.192	34845.88
535.557	35290.84
535.923	35185.08
536.288	35415.13
536.653	35478.18
537.019	35459.19
537.384	35619.64
537.749	35891.5
538.114	35969.69
538.479	36014.66
538.845	36224.82
539.21	36213.07
539.575	36342.34
539.94	36566.74
540.305	36729.22
540.67	36768.76
541.034	36972.15
541.399	37090.34
541.764	37198.81
542.129	37395.64
542.494	37453.94
542.858	37731.23
543.223	37611.68
543.587	37964.44
543.952	37972.8
544.316	37959.47
544.681	38102.29
545.045	38329.18
545.41	38365.79
545.774	38546.12
546.138	38556.97
546.503	38799.45
546.867	38904.98
547.231	39162.6
547.595	39186.33
547.959	39376.38
548.324	39356.27
548.688	39511.07
549.052	39686.65
549.416	39668.58
549.779	39834.22
550.143	39899.98
550.507	40269.01
550.871	40329.8
551.235	40304.04
551.599	40598.04
551.962	40716.01
552.326	40893.63
552.689	41002.78
553.053	41023.34
553.417	41083.68
553.78	41629.2
554.143	41527.96
554.507	41917.78
554.87	41903.09
555.234	42346.47
555.597	41915.75
555.96	42219.92
556.323	42603.41
556.686	42636.41
557.05	42715.5
557.413	42868.49
557.776	43206.56
558.139	43333.56
558.502	43431.87
558.865	43529.04
559.228	43809.94
559.59	44060.32
559.953	44040.21
560.316	44387.32
560.679	44302.35
561.041	44675.45
561.404	44888.1
561.767	45061.88
562.129	45049
562.492	45511.36
562.854	45413.96
563.217	45523.79
563.579	45813.72
563.941	45964.46
564.304	46175.3
564.666	46380.94
565.028	46467.27
565.39	46614.61
565.753	46922.85
566.115	46956.29
566.477	47309.28
566.839	47256.85
567.201	47459.56
567.563	47547.01
567.925	47813.45
568.287	47838.08
568.648	47984.06
569.01	48235.36
569.372	48416.82
569.734	48323.04
570.095	48600.54
570.457	48813.19
570.819	48817.71
571.18	48917.37
571.542	49073.98
571.903	49121.89
572.265	49314.2
572.626	49246.18
572.987	49477.36
573.349	49556.23
573.71	49779.5
574.071	49764.58
574.432	49815.65
574.794	50091.8
575.155	50046.83
575.516	50016.78
575.877	50247.96
576.238	50265.59
576.599	50317.79
576.96	50379.48
577.32	50402.08
577.681	50550.55
578.042	50604.33
578.403	50567.72
578.763	50715.74
579.124	50729.08
579.485	50879.58
579.845	50889.52
580.206	50833.93
580.566	50920.71
580.927	50931.78
581.287	51132.91
581.648	50985.34
582.008	51123.42
582.368	51091.55
582.728	51187.37
583.089	51165.9
583.449	51068.95
583.809	51131.1
584.169	51084.77
584.529	51038.22
584.889	51284.09
585.249	51176.52
585.609	51062.63
585.969	51188.5
586.329	51091.33
586.688	51289.29
587.048	51323.86
587.408	51219.01
587.768	51236.41
588.127	51205
588.487	51203.64
588.846	51451.99
589.206	51124.32
589.565	51178.33
589.925	51306.69
590.284	51251.32
590.643	51322.05
591.003	51419.68
591.362	51581.48
591.721	51400.92
592.08	51516.63
592.44	51468.94
592.799	51557.75
593.158	51426.01
593.517	51557.53
593.876	51517.08
594.235	51451.99
594.593	51480.02
594.952	51629.17
595.311	51472.79
595.67	51436.4
596.029	51744.19
596.387	51808.82
596.746	51773.57
597.104	51583.52
597.463	51727.47
597.822	51814.02
598.18	51745.09
598.538	51585.55
598.897	51705.32
599.255	51646.34
599.613	52077.97
599.972	51832.55
600.33	51836.39
600.688	51826.9
601.046	51883.62
601.404	52094.46
601.762	51887.92
602.12	52044.07
602.478	52089.27
602.836	52130.62
603.194	51909.16
603.552	52081.13
603.91	52021.47
604.268	52127.23
604.625	52138.3
604.983	52238.87
605.341	52004.52
605.698	52149.83
606.056	52352.31
606.413	52176.72
606.771	52377.17
607.128	52421.01
607.485	52294.91
607.843	52309.83
608.2	52455.36
608.557	52587.33
608.914	52494
609.272	52635.01
609.629	52676.6
609.986	52722.7
610.343	52563.83
610.7	52881.34
611.057	52881.11
611.414	52790.04
611.771	52833.65
612.127	52822.81
612.484	52951.16
612.841	52926.98
613.198	52832.75
613.554	52890.15
613.911	53025.96
614.267	52999.3
614.624	53071.16
614.98	53034.55
615.337	53158.16
615.693	53095.57
616.05	53133.53
616.406	53267.31
616.762	53103.02
617.118	53112.52
617.475	53151.38
617.831	53303.92
618.187	53375.56
618.543	53393.86
618.899	53515.22
619.255	53465.5
619.611	53377.82
619.967	53439.06
620.323	53508.89
620.678	53344.37
621.034	53404.26
621.39	53425.5
621.746	53310.7
622.101	53683.8
622.457	53448.78
622.812	53504.14
623.168	53590.24
623.523	53502.79
623.879	53697.59
624.234	53457.37
624.589	53526.06
624.945	53559.96
625.3	53579.85
625.655	53517.48
626.01	53519.06
626.365	53509.79
626.72	53532.84
627.075	53533.07
627.43	53542.79
627.785	53432.06
628.14	53546.18
628.495	53537.59
628.85	53500.08
629.205	53363.81
629.559	53543.24
629.914	53260.76
630.269	53338.95
630.623	53311.61
630.978	53297.14
631.332	53385.96
631.687	53365.84
632.041	53300.31
632.396	53375.56
632.75	53117.49
633.104	53231.16
633.459	53069.81
633.813	53138.73
634.167	53104.15
634.521	53119.97
634.875	53189.58
635.229	53010.6
635.583	52841.11
635.937	52864.61
636.291	52873.43
636.645	52878.85
636.999	52731.96
637.352	52834.11
637.706	52617.61
638.06	52744.84
638.413	52700.78
638.767	52567.45
639.121	52655.8
639.474	52482.25
639.828	52442.03
640.181	52538.29
640.534	52503.27
640.888	52392.31
641.241	52263.72
641.594	52319.54
641.947	52469.59
642.301	52263.05
642.654	52326.55
643.007	52298.3
643.36	52219.66
643.713	52045.65
644.066	52329.71
644.419	52064.41
644.771	51878.2
645.124	51500.58
645.477	51539.9
645.83	51324.99
646.182	51166.13
646.535	51020.14
646.888	51036.86
647.24	50943.99
647.593	51149.18
647.945	51045.45
648.298	50858.56
648.65	50674.39
649.002	50647.04
649.355	50740.6
649.707	50700.6
650.059	50891.11
650.411	51174.04
650.763	51295.84
651.115	51550.75
651.467	51382.84
651.819	51488.15
652.171	51344.88
652.523	51268.04
652.875	51315.5
653.227	51169.97
653.578	51332.45
653.93	51172
654.282	51045.9
654.633	51048.39
654.985	51064.66
655.337	51081.38
655.688	51047.26
656.039	51178.78
656.391	50795.29
656.742	50930.88
657.094	50880.48
657.445	51044.55
657.796	50891.78
658.147	50809.98
658.498	50835.74
658.849	50915.51
659.2	50794.16
659.551	50802.52
659.902	50892.91
660.253	50744.89
660.604	50828.96
660.955	50574.05
661.306	50828.73
661.656	50642.07
662.007	50742.86
662.358	50606.37
662.708	50656.54
663.059	50621.28
663.409	50383.1
663.76	50716.65
664.11	50623.77
664.461	50655.18
664.811	50609.3
665.161	50549.87
665.511	50436.88
665.862	50508.06
666.212	50513.49
666.562	50572.47
666.912	50529.31
667.262	50589.19
667.612	50490.44
667.962	50427.16
668.312	50339.71
668.662	50486.14
669.011	50459.48
669.361	50396.2
669.711	50351.46
670.06	50332.25
670.41	50338.58
670.76	50209.77
671.109	50311.01
671.459	50233.27
671.808	50202.31
672.157	50225.59
672.507	50068.53
672.856	50037.79
673.205	50153.72
673.554	50153.72
673.904	50023.33
674.253	50183.1
674.602	50060.62
674.951	49602.55
675.3	49359.85
675.649	49872.15
675.998	49789.89
676.346	49888.65
676.695	49994.41
677.044	49685.49
677.393	49846.39
677.741	49829.89
678.09	49739.5
678.438	49657.69
678.787	49588.31
679.135	49728.88
679.484	49408.66
679.832	49499.28
680.181	49433.06
680.529	49503.35
680.877	49444.14
681.225	49452.05
681.573	49535.89
681.922	49296.35
682.27	49282.33
682.618	49219.06
682.966	49134.77
683.314	49166.18
683.661	49004.15
684.009	48783.82
684.357	48787.66
684.705	48683.93
685.053	48643.48
685.4	48717.38
685.748	48449.14
686.095	48374.11
686.443	48263.38
686.79	48222.25
687.138	48273.1
687.485	48187.22
687.832	48133.21
688.18	48108.81
688.527	47885.31
688.874	47965.76
689.221	47951.3
689.568	47719.44
689.915	47598.08
690.262	47484.87
690.609	47520.8
690.956	47337.53
691.303	47402.84
691.65	47157.42
691.997	47117.19
692.344	47003.3
692.69	46815.73
693.037	46857.31
693.383	46532.8
693.73	46793.81
694.077	46404.9
694.423	46510.43
694.769	46314.05
695.116	46394.5
695.462	46152.02
695.808	46112.02
696.155	46064.34
696.501	45827.74
696.847	45784.8
697.193	45378.71
697.539	45685.37
697.885	45176.23
698.231	45218.03
698.577	45190.01
698.923	45111.37
699.269	44973.29
699.614	44813.98
699.96	44628.9
700.306	44627.54
700.651	44512.74
700.997	44441.33
701.342	44368.34
701.688	44291.73
702.033	44013.09
702.379	43944.4
702.724	44001.12
703.069	43951.4
703.415	43570.85
703.76	43582.82
704.105	43583.73
704.45	43437.97
704.795	43218.76
705.14	43081.82
705.485	43172.44
705.83	42981.71
706.175	43080.92
706.52	42769.29
706.865	42748.04
707.209	42619.01
707.554	42424.44
707.899	42492.46
708.243	42363.42
708.588	42381.72
708.932	42077.78
709.277	42144.44
709.621	42115.74
709.966	41813.6
710.31	41761.18
710.654	41521.41
710.998	41566.6
711.342	41731.12
711.687	41394.41
712.031	41297.01
712.375	41212.26
712.719	41120.06
713.063	40966.39
713.407	41289.1
713.75	40911.48
714.094	40916.9
714.438	40665.61
714.782	40719.85
715.125	40477.59
715.469	40713.75
715.812	40433.08
716.156	40225.62
716.499	40289.8
716.843	40261.33
717.186	39986.08
717.53	40235.57
717.873	40113.31
718.216	39987.21
718.559	39780.44
718.902	39489.82
719.246	39706.09
719.589	39602.36
719.932	39472.42
720.275	39462.03
720.617	39455.02
720.96	39356.72
721.303	39286.44
721.646	39380
721.989	39111.08
722.331	39235.14
722.674	38973.45
723.016	38806.9
723.359	38860.69
723.701	38888.26
724.044	38581.15
724.386	38459.57
724.729	38593.35
725.071	38379.57
725.413	38559.23
725.755	38460.7
726.097	38276.52
726.439	37980.71
726.782	38142.29
727.124	38245.79
727.465	38001.5
727.807	38047.38
728.149	37787.5
728.491	37808.74
728.833	37859.13
729.175	37662.3
729.516	37469.99
729.858	37487.62
730.199	37626.82
730.541	37561.51
730.882	37340.73
731.224	37403.1
731.565	37274.29
731.906	37270.22
732.248	37313.16
732.589	37073.39
732.93	37018.48
733.271	36971.92
733.612	36974.41
733.953	37078.81
734.294	36879.27
734.635	36734.87
734.976	36723.57
735.317	36687.86
735.658	36574.87
735.999	36631.14
736.339	36442.22
736.68	36606.51
737.021	36361.77
737.361	36279.74
737.702	36460.3
738.042	36214.88
738.383	36169.91
738.723	36252.17
739.063	36053.53
739.404	36220.53
739.744	36056.47
740.084	35919.3
740.424	36005.4
740.764	35863.48
741.104	35864.38
741.444	35710.49
741.784	35655.57
742.124	35684.95
742.464	35639.75
742.804	35563.6
743.143	35289.93
743.483	35448.8
743.823	35229.6
744.162	35182.82
744.502	35269.6
744.841	35083.16
745.181	35204.29
745.52	34989.38
745.86	35076.61
746.199	34943.5
746.538	34839.78
746.877	34870.06
747.216	34817.18
747.556	34762.49
747.895	34708.71
748.234	34409.05
748.573	34427.81
748.911	34431.43
749.25	34408.6
749.589	34270.75
749.928	34231.66
750.267	34222.17
750.605	34197.53
750.944	34036.41
751.283	33755.96
751.621	33939.01
751.96	33719.58
752.298	33774.04
752.636	33669.41
752.975	33535.4
753.313	33439.81
753.651	33635.29
753.989	33310.78
754.327	33246.6
754.666	33126.6
755.004	33323.43
755.342	33188.75
755.679	32940.62
756.017	32782.2
756.355	32871.69
756.693	32806.84
757.031	32831.47
757.368	32579.5
757.706	32619.5
758.044	32340.41
758.381	32389.67
758.719	32286.4
759.056	32356.23
759.394	32072.84
759.731	32021.77
760.068	32025.16
760.405	31791.95
760.743	31724.15
761.08	31781.55
761.417	31582.46
761.754	31443.93
762.091	31452.52
762.428	31318.06
762.765	31061.8
763.102	31222.92
763.438	31100.44
763.775	30979.31
764.112	30867.9
764.449	30937.51
764.785	30561.7
765.122	30526.9
765.458	30388.59
765.795	30340.01
766.131	30252.78
766.467	30155.15
766.804	29990.64
767.14	29998.55
767.476	29853.92
767.812	29610.31
768.148	29768.5
768.485	29652.57
768.821	29372.58
769.157	29447.83
769.492	29374.61
769.828	29266.14
770.164	29018.69
770.5	28948.41
770.836	28889.88
771.171	28773.72
771.507	28719.03
771.842	28514.29
772.178	28477.46
772.513	28353.84
772.849	28340.29
773.184	28163.12
773.519	28127.86
773.855	27971.93
774.19	27837.47
774.525	27704.82
774.86	27793.41
775.195	27695.33
775.53	27460.08
775.865	27423.25
776.2	27220.54
776.535	27024.61
776.87	27056.93
777.205	26922.92
777.539	26806.77
777.874	26861.68
778.209	26691.06
778.543	26573.78
778.878	26489.94
779.212	26449.94
779.547	26269.83
779.881	26307.57
780.215	26082.94
780.55	26223.28
780.884	25976.73
781.218	25878.2
781.552	25800.69
781.886	25677.98
782.22	25565.9
782.554	25485.67
782.888	25245.68
783.222	25207.49
783.556	25106.92
783.889	25095.17
784.223	24837.1
784.557	24787.38
784.89	24778.12
785.224	24711.23
785.557	24512.82
785.891	24455.19
786.224	24413.16
786.558	24359.83
786.891	24138.36
787.224	24123.45
787.557	24194.63
787.891	24007.97
788.224	23910.35
788.557	23932.49
788.89	23961.87
789.223	23801.87
789.556	23582.22
789.888	23508.1
790.221	23400.3
790.554	23303.36
790.887	23236.92
791.219	23277.59
791.552	23103.36
791.884	23037.15
792.217	22827.66
792.549	22786.08
792.882	22799.64
793.214	22572.3
793.546	22740.43
793.879	22562.36
794.211	22352.87
794.543	22446.43
794.875	22418.63
795.207	22416.37
795.539	22271.74
795.871	22187.91
796.203	22026.55
796.535	21844.41
796.867	21912.21
797.198	21754.47
797.53	21796.28
797.862	21602.16
798.193	21699.33
798.525	21417.08
798.856	21530.97
799.188	21249.62
799.519	21182.96
799.85	21108.61
800.182	21167.59
800.513	21100.02
800.844	21024.09
801.175	20985.23
801.506	21013.02
801.837	20814.61
802.168	20672.01
802.499	20658.68
802.83	20523.54
803.161	20542.52
803.491	20526.71
803.822	20443.54
804.153	20291.91
804.483	20248.52
804.814	20246.94
805.145	20180.73
805.475	20144.12
805.805	20090.79
806.136	20096.43
806.466	20088.53
806.796	19984.57
807.126	19799.49
807.457	19809.89
807.787	19625.94
808.117	19559.73
808.447	19531.03
808.777	19584.81
809.107	19449.22
809.436	19449.45
809.766	19401.09
810.096	19316.12
810.426	19211.49
810.755	19293.07
811.085	19238.38
811.414	19283.35
811.744	18985.5
812.073	19053.52
812.403	19040.87
812.732	18926.07
813.061	18877.94
813.39	18733.76
813.719	18708.22
814.049	18892.17
814.378	18790.93
814.707	18587.32
815.036	18595.01
815.365	18476.59
815.693	18399.08
816.022	18398.17
816.351	18333.32
816.68	18232.98
817.008	18350.94
817.337	18094.68
817.665	18144.4
817.994	18190.72
818.322	18150.5
818.651	17967.45
818.979	17945.53
819.307	18058.75
819.636	17940.11
819.964	17752.09
820.292	17885.87
820.62	17774.24
820.948	17681.81
821.276	17824.4
821.604	17765.65
821.932	17857.85
822.259	17822.6
822.587	17747.12
822.915	17700.57
823.243	17851.52
823.57	17769.94
823.898	17732.2
824.225	17616.95
824.553	17679.55
824.88	17606.33
825.207	17794.57
825.535	17600.23
825.862	17677.97
826.189	17578.99
826.516	17669.15
826.843	17707.35
827.17	17677.29
827.497	17732.66
827.824	17661.02
828.151	17722.71
828.478	17666.44
828.805	17727.01
829.131	17589.38
829.458	17557.97
829.785	17582.38
830.111	17555.26
830.438	17610.4
830.764	17600.23
831.09	17606.33
831.417	17513.68
831.743	17585.09
832.069	17610.62
832.395	17513.23
832.722	17508.48
833.048	17491.31
833.374	17463.06
833.7	17452.44
834.026	17420.12
834.351	17481.81
834.677	17379.22
835.003	17434.81
835.329	17343.51
835.654	17419.9
835.98	17276.4
836.306	17313.46
836.631	17284.98
836.956	17364.53
837.282	17259.9
837.607	17214.48
837.932	17148.72
838.258	17129.51
838.583	17166.12
838.908	17004.99
839.233	17082.73
839.558	16966.35
839.883	16841.83
840.208	16943.3
840.533	16868.27
840.858	16833.02
841.182	16799.35
841.507	16796.18
841.832	16731.78
842.156	16627.6
842.481	16657.66
842.805	16592.57
843.13	16611.33
843.454	16492.46
843.778	16423.76
844.103	16406.81
844.427	16304.44
844.751	16400.03
845.075	16285.46
845.399	16224.45
845.723	16275.29
846.047	16196.65
846.371	16161.17
846.695	16062.42
847.019	15901.52
847.343	15879.6
847.666	15834.63
847.99	15808.19
848.313	15735.42
848.637	15700.17
848.96	15683.67
849.284	15529.1
849.607	15451.59
849.931	15439.61
850.254	15290.91
850.577	15179.95
850.9	15139.73
851.223	15132.05
851.546	15126.4
851.869	14996
852.192	15054.76
852.515	14829.45
852.838	14726.86
853.161	14829.23
853.483	14743.58
853.806	14773.41
854.129	14639.18
854.451	14614.32
854.774	14539.29
855.096	14457.26
855.419	14462.91
855.741	14408
856.063	14345.63
856.385	14329.81
856.708	14292.97
857.03	14202.58
857.352	14268.57
857.674	14156.48
857.996	14165.29
858.318	14010.72
858.64	13967.33
858.961	13986.09
859.283	13975.69
859.605	13821.12
859.926	13909.93
860.248	13878.07
860.57	13836.49
860.891	13841.46
861.212	13686.66
861.534	13720.33
861.855	13662.03
862.176	13680.78
862.498	13649.82
862.819	13619.32
863.14	13530.05
863.461	13493.22
863.782	13438.98
864.103	13462.94
864.424	13344.07
864.745	13427.01
865.065	13387.91
865.386	13213
865.707	13305.65
866.027	13316.5
866.348	13231.53
866.668	13187.24
866.989	13107.24
867.309	13083.96
867.63	13094.36
867.95	13115.38
868.27	13039.45
868.59	13033.34
868.91	12993.12
869.23	12960.58
869.55	12963.29
869.87	12986.11
870.19	12977.98
870.51	12949.05
870.83	12919
871.15	12786.8
871.469	12881.48
871.789	12856.85
872.109	12805.1
872.428	12667.7
872.748	12813.46
873.067	12737.76
873.386	12747.7
873.706	12783.86
874.025	12707.48
874.344	12654.82
874.663	12618.67
874.982	12528.05
875.301	12590.19
875.62	12464.32
875.939	12477.2
876.258	12541.38
876.577	12398.78
876.896	12360.14
877.214	12415.73
877.533	12473.58
877.852	12401.27
878.17	12408.73
878.489	12399.46
878.807	12351.55
879.125	12302.29
879.444	12292.57
879.762	12246.47
880.08	12248.73
880.398	12270.43
880.716	12270.65
881.034	12163.76
881.352	12192.46
881.67	12130.09
881.988	12197.21
882.306	12128.51
882.624	12050.09
882.941	12023.88
883.259	12015.97
883.577	11986.14
883.894	11967.61
884.212	11981.17
884.529	11890.55
884.846	11865.46
885.164	11876.54
885.481	11767.39
885.798	11822.98
886.115	11733.26
886.432	11768.07
886.75	11650.1
887.067	11715.64
887.383	11631.8
887.7	11660.95
888.017	11590.67
888.334	11615.3
888.651	11559.03
888.967	11479.49
889.284	11456.66
889.6	11473.61
889.917	11343.67
890.233	11374.63
890.55	11320.17
890.866	11310.23
891.182	11285.14
891.498	11282.2
891.815	11191.58
892.131	11129.89
892.447	11061.64
892.763	11101.19
893.079	11014.87
893.395	11124.92
893.71	11034.07
894.026	10947.07
894.342	10955.43
894.657	10872.04
894.973	10871.37
895.289	10837.02
895.604	10803.57
895.92	10748.66
896.235	10660.98
896.55	10666.85
896.865	10691.94
897.181	10625.5
897.496	10656.68
897.811	10590.47
898.126	10552.51
898.441	10566.97
898.756	10491.26
899.071	10389.12
899.386	10449
899.7	10288.56
900.015	10329.91
900.33	10208.56
900.644	10200.2
900.959	10244.26
901.273	10175.11
901.588	10083.59
901.902	10055.57
902.216	10102.8
902.531	9962.01
902.845	9945.29
903.159	9910.04
903.473	9935.35
903.787	9852.64
904.101	9810.6
904.415	9782.58
904.729	9755.46
905.042	9769.47
905.356	9643.38
905.67	9637.5
905.984	9641.12
906.297	9595.24
906.611	9473.44
906.924	9541.46
907.237	9452.42
907.551	9396.6
907.864	9369.03
908.177	9446.09
908.491	9399.09
908.804	9335.14
909.117	9295.59
909.43	9207.46
909.743	9158.64
910.056	9162.03
910.368	9125.65
910.681	9062.37
910.994	9021.25
911.307	8915.94
911.619	8890.63
911.932	8858.99
912.244	8815.15
912.557	8870.74
912.869	8824.19
913.181	8745.77
913.494	8746.9
913.806	8625.55
914.118	8662.39
914.43	8565.66
914.742	8564.53
915.054	8558.43
915.366	8528.38
915.678	8515.5
915.99	8420.58
916.302	8344.2
916.613	8362.05
916.925	8357.99
917.236	8367.7
917.548	8291.77
917.859	8248.61
918.171	8218.1
918.482	8173.36
918.794	8063.08
919.105	8064.89
919.416	8091.55
919.727	8060.82
920.038	8017.2
920.349	7903.99
920.66	7878.45
920.971	7853.59
921.282	7970.88
921.593	7846.14
921.903	7793.71
922.214	7704.9
922.525	7764.1
922.835	7670.77
923.146	7564.34
923.456	7636.2
923.767	7551.68
924.077	7519.82
924.387	7595.07
924.697	7504.45
925.008	7438.46
925.318	7399.14
925.628	7396.66
925.938	7333.15
926.248	7299.26
926.558	7284.34
926.867	7257
927.177	7191.24
927.487	7184.68
927.796	7085.03
928.106	7109.43
928.416	7040.51
928.725	7018.81
929.034	7017
929.344	7034.18
929.653	7010
929.962	6935.42
930.271	6888.42
930.581	6872.38
930.89	6821.76
931.199	6747.86
931.508	6787.41
931.817	6725.71
932.125	6752.15
932.434	6703.79
932.743	6625.83
933.051	6606.85
933.36	6604.81
933.669	6546.96
933.977	6571.59
934.286	6536.11
934.594	6509
934.902	6453.18
935.21	6421.09
935.519	6368.43
935.827	6350.36
936.135	6332.95
936.443	6301.54
936.751	6293.41
937.059	6264.93
937.367	6225.61
937.674	6213.41
937.982	6196.01
938.29	6196.46
938.597	6128.89
938.905	6037.6
939.213	6085.73
939.52	6066.3
939.827	6041.66
940.135	6077.14
940.442	5955.34
940.749	5970.03
941.056	5963.7
941.363	5874.21
941.67	5852.06
941.977	5833.76
942.284	5788.79
942.591	5834.21
942.898	5818.62
943.205	5824.95
943.511	5716.02
943.818	5679.64
944.125	5665.85
944.431	5626.98
944.738	5645.74
945.044	5633.99
945.35	5568.23
945.657	5511.51
945.963	5505.41
946.269	5521
946.575	5479.19
946.881	5431.28
947.187	5468.12
947.493	5364.62
947.799	5419.98
948.105	5397.16
948.41	5282.59
948.716	5342.02
949.022	5289.37
949.327	5303.6
949.633	5215.92
949.938	5214.34
950.244	5299.54
950.549	5196.49
950.854	5141.57
951.16	5187.67
951.465	5071.52
951.77	5072.2
952.075	5012.76
952.38	5041.24
952.685	5059.54
952.99	5003.95
953.294	4999.88
953.599	4945.87
953.904	4899.77
954.209	4949.26
954.513	4870.39
954.818	4855.03
955.122	4846.67
955.426	4824.52
955.731	4781.13
956.035	4749.04
956.339	4758.76
956.643	4721.25
956.948	4706.78
957.252	4720.79
957.556	4697.29
957.86	4665.88
958.163	4662.26
958.467	4622.04
958.771	4603.73
959.075	4596.05
959.378	4530.52
959.682	4546.56
959.985	4517.18
960.289	4486.9
960.592	4481.03
960.896	4439.22
961.199	4422.5
961.502	4442.38
961.805	4452.33
962.108	4381.59
962.411	4340.46
962.714	4323.52
963.017	4318.77
963.32	4316.06
963.623	4264.99
963.926	4301.82
964.228	4232.67
964.531	4226.57
964.833	4207.59
965.136	4139.79
965.438	4130.3
965.741	4151.09
966.043	4141.15
966.345	4082.84
966.648	4123.97
966.95	4072.9
967.252	4055.5
967.554	4066.12
967.856	4033.13
968.158	3983.86
968.46	3959.23
968.761	3986.58
969.063	3933.7
969.365	3922.62
969.666	3920.36
969.968	3890.53
970.269	3853.7
970.571	3874.49
970.872	3840.59
971.174	3851.66
971.475	3832.91
971.776	3812.12
972.077	3786.58
972.378	3760.82
972.679	3794.26
972.98	3745.45
973.281	3726.02
973.582	3719.24
973.883	3673.82
974.183	3617.55
974.484	3642.4
974.785	3591.11
975.085	3627.26
975.386	3596.76
975.686	3590.88
975.986	3582.29
976.287	3564.44
976.587	3543.65
976.887	3527.83
977.187	3515.63
977.487	3493.93
977.787	3504.33
978.087	3485.12
978.387	3455.74
978.687	3468.85
978.987	3432.92
979.286	3406.7
979.586	3407.38
979.885	3399.25
980.185	3352.24
980.484	3353.82
980.784	3319.7
981.083	3317.44
981.382	3347.27
981.682	3289.65
981.981	3297.55
982.28	3268.4
982.579	3251.68
982.878	3212.36
983.177	3196.09
983.475	3185.24
983.774	3142.98
984.073	3162.42
984.372	3119.48
984.67	3136.88
984.969	3151.34
985.267	3090.78
985.566	3084.9
985.864	3080.84
986.162	3069.31
986.461	3052.82
986.759	3044.68
987.057	2998.13
987.355	3018.24
987.653	2973.5
987.951	2947.51
988.249	2973.72
988.547	2958.13
988.844	2909.09
989.142	2925.59
989.44	2930.33
989.737	2884.46
990.035	2880.39
990.332	2864.8
990.63	2873.38
990.927	2849.43
991.224	2823.22
991.521	2834.52
991.819	2815.08
992.116	2782.31
992.413	2767.85
992.71	2776.21
993.006	2757.91
993.303	2728.98
993.6	2720.62
993.897	2715.65
994.193	2666.84
994.49	2665.25
994.787	2679.94
995.083	2653.5
995.379	2634.52
995.676	2594.97
995.972	2619.83
996.268	2639.72
996.565	2597.91
996.861	2564.01
997.157	2557.46
997.453	2556.56
997.749	2529.21
998.044	2521.98
998.34	2508.87
998.636	2490.12
998.932	2505.94
999.227	2484.02
999.523	2454.19
999.818	2438.82
1000.114	2405.37
1000.409	2380.74
1000.704	2373.96
1001	2392.04
1001.295	2385.49
1001.59	2350.01
1001.885	2391.36
1002.18	2385.04
1002.475	2320.18
1002.77	2309.78
1003.065	2305.72
1003.359	2314.3
1003.654	2308.65
1003.949	2255.55
1004.243	2265.27
1004.538	2249.22
1004.832	2247.86
1005.127	2237.02
1005.421	2206.74
1005.715	2202.89
1006.009	2194.08
1006.304	2176.91
1006.598	2130.13
1006.892	2167.41
1007.186	2148.88
1007.48	2113.63
1007.773	2079.28
1008.067	2092.16
1008.361	2067.08
1008.655	2073.63
1008.948	2019.4
1009.242	2077.02
1009.535	2020.98
1009.829	2010.81
1010.122	1973.07
1010.415	1990.92
1010.708	1983.92
1011.001	2007.87
1011.295	1994.54
1011.588	1907.53
1011.881	1916.35
1012.173	1901.21
1012.466	1900.98
1012.759	1914.99
1013.052	1882.45
1013.344	1895.56
1013.637	1897.82
1013.93	1882.68
1014.222	1830.93
1014.514	1836.58
1014.807	1806.07
1015.099	1794.54
1015.391	1804.71
1015.683	1812.85
1015.976	1799.06
1016.268	1778.05
1016.56	1743.25
1016.851	1744.38
1017.143	1734.43
1017.435	1748.67
1017.727	1702.12
1018.018	1689.91
1018.31	1693.75
1018.602	1685.17
1018.893	1680.65
1019.185	1663.7
1019.476	1630.93
1019.767	1625.73
1020.058	1606.75
1020.35	1597.94
1020.641	1590.03
1020.932	1583.93
1021.223	1578.05
1021.514	1576.7
1021.804	1557.26
1022.095	1553.42
1022.386	1543.48
1022.677	1512.74
1022.967	1511.39
1023.258	1482.91
1023.548	1498.96
1023.839	1477.94
1024.129	1458.28
1024.419	1460.09
1024.709	1449.24
1025	1454.67
1025.29	1464.16
1025.58	1428.45
1025.87	1427.32
1026.16	1427.1
1026.449	1432.74
1026.739	1391.16
1027.029	1378.96
1027.319	1382.35
1027.608	1342.8
1027.898	1343.48
1028.187	1340.09
1028.477	1341.67
1028.766	1309.58
1029.055	1305.97
1029.344	1296.7
1029.634	1303.48
1029.923	1262.58
1030.212	1286.31
1030.501	1283.37
1030.79	1261
1031.078	1257.61
1031.367	1285.86
1031.656	1226.2
1031.945	1222.13
1032.233	1226.42
1032.522	1201.34
1032.81	1185.29
1033.099	1216.71
1033.387	1195.24
1033.675	1155.01
1033.963	1181.45
1034.251	1143.71
1034.54	1170.38
1034.828	1134.22
1035.116	1149.81
1035.403	1162.7
1035.691	1146.42
1035.979	1112.98
1036.267	1122.7
1036.554	1140.32
1036.842	1103.94
1037.129	1092.64
1037.417	1093.54
1037.704	1083.6
1037.992	1069.82
1038.279	1054.22
1038.566	1030.27
1038.853	1030.27
1039.14	1030.27
