Data from breadboard_white_FLMS001491_00066.txt Node
Date: Wed Feb 08 10:48:06 GMT 2017
User: dcchb
Spectrometer: FLMS00149
Trigger mode: 0
Integration Time (sec): 2.000000E-2
Scans to average: 10
Electric dark correction enabled: true
Nonlinearity correction enabled: false
Boxcar width: 0
XAxis mode: Wavelengths
Number of Pixels in Spectrum: 2048
>>>>>Begin Spectral Data<<<<<
341.393	-8.02
341.776	-8.02
342.16	-8.02
342.543	-43.73
342.927	-57.06
343.31	-68.36
343.693	-63.16
344.077	-48.25
344.46	-57.51
344.843	-60.45
345.226	-69.04
345.61	-38.3
345.993	-9.6
346.376	-24.52
346.759	39.66
347.142	37.63
347.525	43.73
347.908	38.3
348.291	74.01
348.674	94.35
349.057	111.52
349.44	147.45
349.823	154.01
350.206	179.77
350.588	204.85
350.971	235.59
351.354	224.06
351.737	229.03
352.119	244.17
352.502	262.03
352.884	295.25
353.267	300.67
353.65	321.01
354.032	317.62
354.414	317.17
354.797	325.3
355.179	349.71
355.562	341.57
355.944	336.83
356.326	357.62
356.709	342.48
357.091	368.92
357.473	353.55
357.855	349.71
358.238	359.88
358.62	350.39
359.002	356.71
359.384	345.64
359.766	369.82
360.148	356.94
360.53	368.01
360.912	348.58
361.294	348.35
361.676	358.07
362.057	341.57
362.439	340.22
362.821	326.66
363.203	338.41
363.584	339.54
363.966	360.78
364.348	353.32
364.729	365.53
365.111	352.19
365.493	353.1
365.874	341.35
366.256	336.38
366.637	350.84
367.019	334.57
367.4	342.48
367.781	343.38
368.163	357.17
368.544	362.36
368.925	335.7
369.306	349.93
369.688	350.84
370.069	375.24
370.45	348.35
370.831	350.84
371.212	376.83
371.593	343.61
371.974	347.45
372.355	352.87
372.736	355.81
373.117	363.27
373.498	358.52
373.879	351.97
374.26	360.56
374.641	355.81
375.021	342.7
375.402	355.36
375.783	364.62
376.163	381.8
376.544	389.26
376.925	363.95
377.305	374.34
377.686	362.59
378.066	391.74
378.447	384.51
378.827	363.27
379.208	401.01
379.588	394.9
379.968	372.31
380.349	392.65
380.729	367.11
381.109	416.83
381.489	413.21
381.87	394
382.25	389.03
382.63	390.61
383.01	400.55
383.39	395.81
383.77	417.96
384.15	425.64
384.53	417.96
384.91	416.37
385.29	405.75
385.67	412.53
386.049	430.38
386.429	426.99
386.809	433.32
387.189	443.27
387.568	422.93
387.948	447.11
388.328	444.85
388.707	450.04
389.087	461.8
389.466	469.03
389.846	464.96
390.225	468.58
390.605	456.82
390.984	481
391.363	484.39
391.743	483.26
392.122	490.72
392.501	518.29
392.881	494.56
393.26	520.1
393.639	491.4
394.018	514
394.397	517.61
394.776	521.68
395.155	528.01
395.534	549.48
395.913	526.65
396.292	581.57
396.671	527.78
397.05	567.78
397.429	586.99
397.808	587.44
398.186	609.81
398.565	575.47
398.944	611.17
399.323	586.99
399.701	613.88
400.08	622.24
400.458	620.89
400.837	613.88
401.215	626.09
401.594	634.22
401.972	647.55
402.351	665.86
402.729	694.11
403.107	694.78
403.486	664.95
403.864	712.64
404.242	713.77
404.62	719.42
404.999	744.5
405.377	761.22
405.755	765.29
406.133	778.4
406.511	781.11
406.889	824.27
407.267	822.01
407.645	831.05
408.023	844.38
408.401	845.06
408.779	869.24
409.156	852.97
409.534	902.91
409.912	909.24
410.29	951.27
410.667	948.34
411.045	957.6
411.422	963.93
411.8	993.08
412.178	1046.87
412.555	1034.66
412.933	1068.79
413.31	1052.51
413.687	1102.91
414.065	1140.2
414.442	1111.5
414.819	1133.64
415.197	1187.65
415.574	1191.27
415.951	1198.5
416.328	1207.09
416.705	1230.82
417.082	1244.15
417.46	1274.2
417.837	1257.03
418.214	1275.79
418.591	1282.57
418.967	1319.63
419.344	1341.09
419.721	1350.59
420.098	1377.7
420.475	1369.79
420.852	1400.08
421.228	1416.35
421.605	1435.33
421.982	1443.69
422.358	1442.33
422.735	1480.07
423.111	1464.93
423.488	1525.04
423.864	1512.62
424.241	1560.98
424.617	1584.25
424.994	1590.35
425.37	1642.56
425.746	1608.43
426.123	1648.43
426.499	1667.41
426.875	1695.21
427.251	1719.16
427.627	1744.02
428.003	1778.37
428.379	1781.99
428.756	1836.67
429.132	1813.62
429.507	1867.86
429.883	1859.95
430.259	1892.27
430.635	1946.05
431.011	1952.6
431.387	1986.5
431.763	2021.75
432.138	2025.37
432.514	2066.27
432.89	2071.02
433.265	2143.79
433.641	2147.18
434.016	2142.66
434.392	2215.87
434.767	2260.39
435.143	2233.73
435.518	2298.13
435.894	2277.34
436.269	2347.62
436.644	2348.53
437.02	2389.2
437.395	2372.93
437.77	2471.46
438.145	2465.81
438.52	2485.47
438.895	2519.82
439.271	2546.49
439.646	2614.06
440.021	2599.14
440.395	2636.88
440.77	2622.19
441.145	2625.58
441.52	2685.24
441.895	2723.21
442.27	2711.68
442.645	2756.88
443.019	2764.11
443.394	2815.18
443.769	2783.32
444.143	2797.55
444.518	2833.03
444.892	2867.16
445.267	2852.24
445.641	2918.91
446.016	2927.95
446.39	2952.13
446.764	2967.72
447.139	2998.9
447.513	2990.54
447.887	3014.5
448.262	3018.11
448.636	3051.33
449.01	3124.1
449.384	3136.08
449.758	3139.47
450.132	3230.99
450.506	3181.72
450.88	3234.6
451.254	3254.94
451.628	3289.07
452.002	3362.96
452.376	3361.38
452.75	3397.76
453.123	3446.58
453.497	3478.89
453.871	3507.37
454.244	3602.96
454.618	3570.64
454.992	3650.19
455.365	3647.93
455.739	3769.96
456.112	3778.77
456.486	3814.93
456.859	3806.79
457.232	3916.17
457.606	3918.65
457.979	3980.12
458.352	4085.66
458.725	4120.68
459.099	4127.69
459.472	4171.75
459.845	4271.41
460.218	4315.93
460.591	4316.61
460.964	4344.63
461.337	4511.63
461.71	4527.45
462.083	4576.04
462.456	4564.06
462.829	4634.57
463.201	4710.95
463.574	4747.33
463.947	4770.16
464.32	4893.77
464.692	4939.42
465.065	4943.49
465.438	5079.75
465.81	5115.68
466.183	5152.75
466.555	5278.62
466.928	5319.75
467.3	5335.79
467.672	5407.2
468.045	5570.81
468.417	5520.65
468.789	5600.19
469.161	5648.33
469.534	5787.08
469.906	5884.48
470.278	5934.87
470.65	6003.12
471.022	6133.29
471.394	6302.55
471.766	6314.3
472.138	6352.94
472.51	6472.03
472.882	6583.44
473.253	6686.26
473.625	6784.34
473.997	6929.65
474.369	6945.92
474.74	7025.01
475.112	7147.72
475.484	7274.5
475.855	7400.82
476.227	7568.05
476.598	7763.07
476.97	7741.83
477.341	7960.81
477.713	8073.35
478.084	8166.23
478.455	8417.52
478.827	8434.69
479.198	8652.31
479.569	8699.77
479.94	8968.69
480.311	9039.88
480.682	9241.9
481.053	9391.73
481.424	9531.84
481.795	9678.05
482.166	9829.91
482.537	9930.47
482.908	10070.13
483.279	10294.76
483.65	10415.21
484.021	10578.59
484.391	10747.4
484.762	10861.75
485.133	10939.26
485.503	11162.76
485.874	11342.41
486.244	11495.4
486.615	11790.76
486.985	11835.06
487.356	12068.27
487.726	12148.27
488.097	12417.19
488.467	12522.04
488.837	12724.07
489.207	12812.88
489.578	13070.73
489.948	13214.68
490.318	13333.32
490.688	13436.14
491.058	13712.07
491.428	13805.17
491.798	13952.51
492.168	14206.75
492.538	14211.49
492.908	14434.99
493.278	14660.07
493.648	14727.86
494.017	14852.38
494.387	15009.21
494.757	15198.58
495.126	15385.47
495.496	15392.02
495.866	15526.48
496.235	15682.86
496.605	15855.06
496.974	15959.47
497.344	16095.73
497.713	16189.07
498.082	16303.19
498.452	16508.83
498.821	16594.25
499.19	16623.63
499.559	16895.49
499.928	17020
500.298	16968.03
500.667	17279.21
501.036	17324.63
501.405	17435.13
501.774	17459.31
502.143	17599.42
502.512	17743.6
502.88	17891.39
503.249	17900.43
503.618	18111.28
503.987	18137.26
504.356	18416.8
504.724	18464.49
505.093	18514.43
505.462	18615.89
505.83	18789.22
506.199	18923.23
506.567	19212.72
506.936	19157.8
507.304	19392.15
507.672	19570.9
508.041	19662.42
508.409	19820.16
508.777	19882.53
509.145	20050.21
509.514	20012.92
509.882	20333.82
510.25	20407.71
510.618	20506.47
510.986	20570.42
511.354	20833.92
511.722	20953.46
512.09	21193.68
512.458	21231.42
512.826	21317.74
513.193	21616.49
513.561	21666.66
513.929	21906.66
514.297	21954.56
514.664	22246.53
515.032	22341.9
515.4	22555.68
515.767	22697.6
516.135	22767.65
516.502	22624.6
516.869	23120.64
517.237	23224.81
517.604	23152.27
517.972	23409.44
518.339	23632.03
518.706	23735.99
519.073	23881.74
519.44	24091.68
519.808	24391.79
520.175	24367.38
520.542	24730.08
520.909	24899.35
521.276	24825.9
521.643	25146.12
522.009	25243.74
522.376	25452.55
522.743	25741.36
523.11	25966.89
523.477	26243.49
523.843	26365.52
524.21	26613.65
524.577	26800.54
524.943	26883.02
525.31	27081.66
525.676	27433.74
526.043	27496.79
526.409	27759.84
526.776	27927.74
527.142	28066.72
527.508	28114.18
527.874	28426.03
528.241	28595.75
528.607	28654.05
528.973	28963.87
529.339	29040.93
529.705	29325.22
530.071	29543.74
530.437	29702.16
530.803	29772.44
531.169	30122.71
531.535	30091.98
531.901	30200.45
532.267	30313.89
532.632	30634.56
532.998	30691.28
533.364	30976.7
533.73	30954.78
534.095	31265.73
534.461	31303.02
534.826	31681.99
535.192	31706.85
535.557	31876.79
535.923	31922.21
536.288	31958.82
536.653	32157.23
537.019	32115.88
537.384	32370.79
537.749	32389.32
538.114	32567.84
538.479	32712.02
538.845	32764.68
539.21	32882.86
539.575	32996.08
539.94	33101.62
540.305	33289.63
540.67	33339.58
541.034	33429.29
541.399	33634.71
541.764	33641.49
542.129	33790.41
542.494	33921.48
542.858	34162.83
543.223	34084.19
543.587	34343.39
543.952	34267.01
544.316	34588.81
544.681	34540
545.045	34838.29
545.41	34932.3
545.774	34996.48
546.138	34932.53
546.503	35174.78
546.867	35092.3
547.231	35398.5
547.595	35539.29
547.959	35703.36
548.324	35781.32
548.688	36018.15
549.052	35969.34
549.416	36103.34
549.779	36068.77
550.143	36387.4
550.507	36476.67
550.871	36605.48
551.235	36538.36
551.599	36882.99
551.962	36989.2
552.326	37042.53
552.689	37417.89
553.053	37213.6
553.417	37374.5
553.78	37786.24
554.143	37579.46
554.507	37825.79
554.87	38095.83
555.234	38338.54
555.597	38133.57
555.96	38414.92
556.323	38543.73
556.686	38520.91
557.05	38866.66
557.413	39049.26
557.776	39205.86
558.139	39203.6
558.502	39341.9
558.865	39578.51
559.228	39755.45
559.59	39905.05
559.953	40051.04
560.316	40436.79
560.679	40432.27
561.041	40649.21
561.404	40804.24
561.767	41120.39
562.129	40972.37
562.492	41456.42
562.854	41347.27
563.217	41388.63
563.579	41691.22
563.941	41913.59
564.304	41976.86
564.666	42295.5
565.028	42184.99
565.39	42463.86
565.753	42687.58
566.115	42863.84
566.477	43137.28
566.839	43177.51
567.201	43399.2
567.563	43530.27
567.925	43775.01
568.287	43819.75
568.648	43861.33
569.01	43935
569.372	44414.31
569.734	44249.57
570.095	44432.39
570.457	44815.66
570.819	44711.71
571.18	44716.68
571.542	45043.22
571.903	45148.76
572.265	45189.66
572.626	45457
572.987	45486.15
573.349	45642.53
573.71	45680.04
574.071	45794.16
574.432	45942.86
574.794	46207.71
575.155	46146.02
575.516	46175.4
575.877	46258.33
576.238	46270.31
576.599	46444.77
576.96	46438.21
577.32	46520.7
577.681	46684.08
578.042	46814.93
578.403	46901.48
578.763	46753.91
579.124	46848.15
579.485	47073.9
579.845	47189.83
580.206	47030.51
580.566	47069.38
580.927	47167.91
581.287	47368.36
581.648	47171.08
582.008	47311.19
582.368	47233.9
582.728	47332.43
583.089	47339.66
583.449	47209.04
583.809	47326.78
584.169	47485.87
584.529	47348.92
584.889	47678.41
585.249	47385.99
585.609	47322.48
585.969	47508.24
586.329	47352.77
586.688	47414.23
587.048	47470.28
587.408	47457.62
587.768	47352.31
588.127	47388.92
588.487	47475.47
588.846	47670.5
589.206	47372.2
589.565	47392.31
589.925	47661.23
590.284	47498.3
590.643	47506.66
591.003	47603.83
591.362	47689.25
591.721	47587.79
592.08	47650.16
592.44	47785.75
592.799	47676.6
593.158	47693.32
593.517	47668.24
593.876	47694.9
594.235	47735.58
594.593	47784.62
594.952	47655.81
595.311	47576.26
595.67	47758.86
596.029	47827.56
596.387	48017.16
596.746	47905.29
597.104	47781.91
597.463	47735.81
597.822	47956.59
598.18	47809.48
598.538	47929.25
598.897	48129.47
599.255	47717.05
599.613	48374.21
599.972	48032.52
600.33	48002.69
600.688	47904.62
601.046	48023.94
601.404	48326.98
601.762	48077.27
602.12	48370.14
602.478	48404.94
602.836	48400.87
603.194	48164.04
603.552	48267.32
603.91	48237.94
604.268	48389.12
604.625	48281.33
604.983	48552.06
605.341	48309.13
605.698	48469.12
606.056	48551.15
606.413	48434.09
606.771	48685.61
607.128	48637.25
607.485	48518.84
607.843	48638.61
608.2	48715.67
608.557	48905.49
608.914	48808.77
609.272	48892.16
609.629	48990.92
609.986	49008.09
610.343	48853.74
610.7	49225.94
611.057	49042.89
611.414	49070.69
611.771	49229.33
612.127	49220.51
612.484	49169.44
612.841	49339.38
613.198	49220.06
613.554	49310.68
613.911	49560.39
614.267	49539.38
614.624	49468.19
614.98	49416.89
615.337	49731.91
615.693	49566.72
616.05	49557
616.406	49777.11
616.762	49558.36
617.118	49499.15
617.475	49717.22
617.831	49739.37
618.187	49808.97
618.543	49811.68
618.899	49927.84
619.255	49937.33
619.611	49759.48
619.967	49977.1
620.323	50023.43
620.678	49917.67
621.034	49911.57
621.39	49941.62
621.746	49689.65
622.101	50118.8
622.457	49944.79
622.812	50037.44
623.168	50095.97
623.523	50049.42
623.879	50220.71
624.234	50001.06
624.589	50055.97
624.945	50078.34
625.3	50134.16
625.655	50002.19
626.01	50026.59
626.365	50098.68
626.72	49999.25
627.075	49993.83
627.43	49944.79
627.785	49761.52
628.14	49859.37
628.495	49938.23
628.85	49955.86
629.205	49834.73
629.559	50041.96
629.914	49752.25
630.269	49924.68
630.623	49613.5
630.978	49686.26
631.332	49832.25
631.687	49774.85
632.041	49656.21
632.396	49824.11
632.75	49547.74
633.104	49603.55
633.459	49489.43
633.813	49326.5
634.167	49507.29
634.521	49514.07
634.875	49591.35
635.229	49399.27
635.583	49145.94
635.937	49197.69
636.291	49246.05
636.645	49202.44
636.999	49067.07
637.352	49138.93
637.706	48802.22
638.06	49080.4
638.413	48882.9
638.767	48881.99
639.121	48932.84
639.474	48613.52
639.828	48743.92
640.181	48800.19
640.534	48699.62
640.888	48562.68
641.241	48459.18
641.594	48599.74
641.947	48555.67
642.301	48413.53
642.654	48549.34
643.007	48416.92
643.36	48310.03
643.713	48280.43
644.066	48406.07
644.419	48275.45
644.771	48035.01
645.124	47718.63
645.477	47575.59
645.83	47212.66
646.182	47104.64
646.535	46898.54
646.888	47077.07
647.24	46736.06
647.593	47026
647.945	46834.36
648.298	46766.11
648.65	46807.02
649.002	46542.39
649.355	46599.11
649.707	46596.63
650.059	46788.04
650.411	47099.67
650.763	47285.2
651.115	47665.3
651.467	47517.96
651.819	47591.18
652.171	47336.95
652.523	47397.28
652.875	47222.83
653.227	47100.57
653.578	47373.56
653.93	47227.12
654.282	47053.34
654.633	46895.15
654.985	47025.54
655.337	47058.31
655.688	46924.53
656.039	47170.62
656.391	46778.32
656.742	46784.87
657.094	46841.14
657.445	46792.78
657.796	46871.87
658.147	46776.06
658.498	46759.79
658.849	46786.68
659.2	46695.16
659.551	46581.04
659.902	46734.48
660.253	46628.04
660.604	46685.89
660.955	46463.52
661.306	46708.72
661.656	46547.36
662.007	46448.38
662.358	46508.49
662.708	46454.94
663.059	46452.68
663.409	46226.24
663.76	46599.11
664.11	46530.64
664.461	46373.58
664.811	46479.79
665.161	46390.76
665.511	46273.47
665.862	46315.28
666.212	46397.54
666.562	46325.9
666.912	46176.98
667.262	46059.24
667.612	46276.18
667.962	46160.48
668.312	46096.98
668.662	46300.14
669.011	46180.82
669.361	46132.01
669.711	46122.06
670.06	46037.77
670.41	46117.09
670.76	45906.93
671.109	46174.49
671.459	46070.31
671.808	45884.78
672.157	45954.61
672.507	45674.84
672.856	45748.74
673.205	45833.26
673.554	45872.81
673.904	45655.86
674.253	45885.46
674.602	45639.59
674.951	45124.58
675.3	44980.63
675.649	45654.73
675.998	45708.06
676.346	45583.55
676.695	45719.14
677.044	45312.59
677.393	45461.97
677.741	45541.29
678.09	45444.34
678.438	45292.93
678.787	45357.79
679.135	45294.97
679.484	45049.32
679.832	45272.37
680.181	44985.14
680.529	44984.24
680.877	45019.72
681.225	44975.65
681.573	45057.69
681.922	44935.2
682.27	44685.49
682.618	44749.44
682.966	44599.17
683.314	44723.68
683.661	44513.29
684.009	44411.6
684.357	44416.35
684.705	44189.23
685.053	44327.54
685.4	44302.9
685.748	43892.97
686.095	44022.01
686.443	43893.2
686.79	43703.6
687.138	43828.57
687.485	43690.26
687.832	43613.2
688.18	43591.74
688.527	43478.29
688.874	43325.98
689.221	43187.45
689.568	43183.61
689.915	43110.84
690.262	43070.17
690.609	42903.17
690.956	42794.69
691.303	42628.82
691.65	42660.69
691.997	42559.45
692.344	42409.39
692.69	42328.49
693.037	42414.82
693.383	42065.67
693.73	42219.12
694.077	41921.04
694.423	41961.04
694.769	41775.74
695.116	41655.06
695.462	41655.51
695.808	41308.86
696.155	41519.47
696.501	41306.82
696.847	41295.98
697.193	41092.82
697.539	41109.09
697.885	40805.14
698.231	40809.66
698.577	40758.14
698.923	40664.13
699.269	40407.41
699.614	40275.89
699.96	40155.67
700.306	40234.54
700.651	40000.42
700.997	39718.16
701.342	39882
701.688	39843.81
702.033	39630.03
702.379	39564.27
702.724	39489.92
703.069	39493.31
703.415	39031.86
703.76	39239.76
704.105	39063.72
704.45	38960.67
704.795	38695.14
705.14	38668.7
705.485	38640.9
705.83	38520
706.175	38683.62
706.52	38506.67
706.865	38331.31
707.209	38226.9
707.554	38193.46
707.899	38261.03
708.243	37878.21
708.588	37895.16
708.932	37676.86
709.277	37708.27
709.621	37637.54
709.966	37441.84
710.31	37449.98
710.654	37174.05
710.998	37195.07
711.342	37245.01
711.687	37066.93
712.031	36845.02
712.375	36792.82
712.719	36846.6
713.063	36790.78
713.407	36809.31
713.75	36622.88
714.094	36502.2
714.438	36390.34
714.782	36488.42
715.125	36231.02
715.469	36327.52
715.812	36102.44
716.156	36007.75
716.499	35966.4
716.843	36003.23
717.186	35772.28
717.53	35958.94
717.873	35875.1
718.216	35771.6
718.559	35676.92
718.902	35458.84
719.246	35620.42
719.589	35358.05
719.932	35220.66
720.275	35211.16
720.617	35114.67
720.96	35170.49
721.303	35014.33
721.646	35095.91
721.989	34922.58
722.331	34887.11
722.674	34885.52
723.016	34861.57
723.359	34733.66
723.701	34767.11
724.044	34351.3
724.386	34386.33
724.729	34579.09
725.071	34361.92
725.413	34309.95
725.755	34250.74
726.097	34219.78
726.439	33951.31
726.782	34008.03
727.124	34146.79
727.465	33912.44
727.807	33841.71
728.149	33769.39
728.491	33757.42
728.833	33801.03
729.175	33589.96
729.516	33506.8
729.858	33467.48
730.199	33544.32
730.541	33488.5
730.882	33398.33
731.224	33515.62
731.565	33251.22
731.906	33301.16
732.248	33169.41
732.589	32986.14
732.93	33049.64
733.271	32998.79
733.612	32958.57
733.953	33069.75
734.294	32863.43
734.635	32701.4
734.976	32871.11
735.317	32633.83
735.658	32563.78
735.999	32547.96
736.339	32476.1
736.68	32692.59
737.021	32411.24
737.361	32218.02
737.702	32368.98
738.042	32364.69
738.383	32241.07
738.723	32325.82
739.063	32022.77
739.404	32224.35
739.744	31974.41
740.084	31907.3
740.424	31959.27
740.764	31898.71
741.104	32030.46
741.444	31732.39
741.784	31576.46
742.124	31837.02
742.464	31680.86
742.804	31656.68
743.143	31504.6
743.483	31644.03
743.823	31346.63
744.162	31363.36
744.502	31321.1
744.841	31347.99
745.181	31288.78
745.52	31145.06
745.86	31034.78
746.199	31037.71
746.538	31006.53
746.877	30959.3
747.216	30928.34
747.556	30884.95
747.895	30869.58
748.234	30738.97
748.573	30787.33
748.911	30657.39
749.25	30542.59
749.589	30465.75
749.928	30463.04
750.267	30571.29
750.605	30339.88
750.944	30265.31
751.283	30044.07
751.621	30230.05
751.96	30057.4
752.298	29952.32
752.636	29973.11
752.975	29987.8
753.313	29809.5
753.651	29832.77
753.989	29752.78
754.327	29612.44
754.666	29480.92
755.004	29574.02
755.342	29599.11
755.679	29334.48
756.017	29077.77
756.355	29367.7
756.693	29176.52
757.031	29291.32
757.368	29086.35
757.706	28957.32
758.044	28946.92
758.381	28908.05
758.719	28744.44
759.056	28742.41
759.394	28628.51
759.731	28458.12
760.068	28441.17
760.405	28236.21
760.743	28275.08
761.08	28334.06
761.417	28049.09
761.754	27966.38
762.091	28007.29
762.428	27880.74
762.765	27709.44
763.102	27696.11
763.438	27539.28
763.775	27583.57
764.112	27502.44
764.449	27409.34
764.785	27167.99
765.122	27137.48
765.458	27049.8
765.795	26978.61
766.131	27003.24
766.467	26885.51
766.804	26779.75
767.14	26568.23
767.476	26538.4
767.812	26284.17
768.148	26421.11
768.485	26115.58
768.821	25977.28
769.157	26063.61
769.492	26005.76
769.828	25933.67
770.164	25695.03
770.5	25634.47
770.836	25567.12
771.171	25561.7
771.507	25454.58
771.842	25230.86
772.178	25349.73
772.513	25210.98
772.849	25139.11
773.184	24915.62
773.519	24988.83
773.855	24982.28
774.19	24773.25
774.525	24657.32
774.86	24631.78
775.195	24626.58
775.53	24551.11
775.865	24326.03
776.2	24136.43
776.535	24080.84
776.87	24078.58
777.205	23991.57
777.539	23913.83
777.874	23884
778.209	23647.85
778.543	23662.77
778.878	23467.52
779.212	23489.66
779.547	23324.7
779.881	23340.06
780.215	23137.58
780.55	23127.41
780.884	23016.23
781.218	22882.22
781.552	22886.29
781.886	22751.38
782.22	22606.75
782.554	22579.18
782.888	22364.27
783.222	22287.21
783.556	22236.59
783.889	22164.73
784.223	22135.8
784.557	21964.96
784.89	21993.88
785.224	21833.44
785.557	21784.17
785.891	21814.91
786.224	21600.67
786.558	21567.46
786.891	21392.54
787.224	21369.04
787.557	21356.84
787.891	21346.22
788.224	21266.22
788.557	21137.18
788.89	21186.22
789.223	21138.99
789.556	20976.06
789.888	20782.17
790.221	20840.92
790.554	20642.73
790.887	20659
791.219	20549.86
791.552	20435.28
791.884	20400.48
792.217	20340.37
792.549	20203.88
792.882	20025.35
793.214	20032.13
793.546	20018.12
793.879	19981.73
794.211	19926.14
794.543	19914.39
794.875	19820.16
795.207	19867.84
795.539	19738.58
795.871	19707.17
796.203	19480.73
796.535	19468.3
796.867	19439.38
797.198	19300.85
797.53	19291.58
797.862	19291.58
798.193	19272.15
798.525	19123.68
798.856	19071.25
799.188	18927.52
799.519	18850.46
799.85	18671.26
800.182	18731.82
800.513	18684.82
800.844	18614.31
801.175	18657.48
801.506	18592.84
801.837	18453.64
802.168	18435.11
802.499	18406.86
802.83	18202.57
803.161	18182.23
803.491	18149.47
803.822	18246.86
804.153	18160.77
804.483	18044.38
804.814	17913.31
805.145	17872.64
805.475	17832.19
805.805	17854.78
806.136	17931.17
806.466	17872.41
806.796	17766.65
807.126	17579.31
807.457	17494.79
807.787	17565.07
808.117	17429.71
808.447	17449.37
808.777	17384.74
809.107	17353.1
809.436	17220.9
809.766	17137.97
810.096	17039.44
810.426	17047.12
810.755	17095.03
811.085	17154.01
811.414	17078.76
811.744	16861.82
812.073	16862.95
812.403	16823.4
812.732	16783.63
813.061	16679.22
813.39	16676.51
813.719	16592.67
814.049	16628.38
814.378	16655.27
814.707	16530.98
815.036	16487.36
815.365	16361.26
815.693	16249.86
816.022	16269.52
816.351	16252.57
816.68	16116.53
817.008	16155.17
817.337	16080.59
817.665	16001.73
817.994	16086.02
818.322	16022.97
818.651	15865.01
818.979	15870.88
819.307	15891.67
819.636	15855.06
819.964	15776.87
820.292	15826.36
820.62	15707.27
820.948	15781.17
821.276	15702.07
821.604	15711.79
821.932	15750.89
822.259	15728.51
822.587	15770.32
822.915	15732.13
823.243	15782.75
823.57	15703.43
823.898	15630.44
824.225	15563.09
824.553	15597.22
824.88	15592.92
825.207	15679.25
825.535	15551.12
825.862	15665.46
826.189	15662.98
826.516	15690.32
826.843	15631.79
827.17	15578.91
827.497	15606.26
827.824	15641.28
828.151	15676.31
828.478	15645.35
828.805	15653.49
829.131	15516.99
829.458	15564.22
829.785	15563.77
830.111	15481.97
830.438	15555.86
830.764	15536.43
831.09	15545.01
831.417	15461.85
831.743	15593.38
832.069	15541.4
832.395	15442.87
832.722	15475.86
833.048	15476.09
833.374	15425.24
833.7	15285.59
834.026	15378.92
834.351	15416.66
834.677	15422.98
835.003	15469.54
835.329	15378.47
835.654	15354.06
835.98	15256.66
836.306	15294.85
836.631	15245.59
836.956	15292.14
837.282	15277.68
837.607	15146.61
837.932	15142.99
838.258	15184.57
838.583	15129.21
838.908	15040.17
839.233	15121.98
839.558	15104.8
839.883	14946.61
840.208	15044.92
840.533	14940.29
840.858	14912.72
841.182	14912.72
841.507	14906.39
841.832	14772.61
842.156	14764.24
842.481	14820.74
842.805	14671.14
843.13	14744.13
843.454	14667.75
843.778	14610.35
844.103	14480.41
844.427	14501.88
844.751	14538.04
845.075	14448.09
845.399	14364.03
845.723	14340.3
846.047	14290.13
846.371	14224.6
846.695	14247.42
847.019	14105.5
847.343	14122.91
847.666	14007.88
847.99	13949.58
848.313	13988.22
848.637	13952.29
848.96	13876.36
849.284	13783.48
849.607	13741.45
849.931	13619.42
850.254	13600.43
850.577	13529.93
850.9	13397.5
851.223	13449.02
851.546	13335.81
851.869	13262.14
852.192	13302.59
852.515	13174
852.838	13139.43
853.161	13086.1
853.483	13040.45
853.806	12980.34
854.129	12983.5
854.451	12924.52
854.774	12812.88
855.096	12847.23
855.419	12790.29
855.741	12740.12
856.063	12712.55
856.385	12713.9
856.708	12613.34
857.03	12630.06
857.352	12592.32
857.674	12517.3
857.996	12455.38
858.318	12342.84
858.64	12399.11
858.961	12350.75
859.283	12340.58
859.605	12330.64
859.926	12304.65
860.248	12261.49
860.57	12108.04
860.891	12226.68
861.212	12175.16
861.534	12204.31
861.855	12125.67
862.176	12078.67
862.498	12076.18
862.819	12039.12
863.14	11961.83
863.461	11910.31
863.782	11900.59
864.103	11939.01
864.424	11830.31
864.745	11887.48
865.065	11762.74
865.386	11740.37
865.707	11729.75
866.027	11783.08
866.348	11715.06
866.668	11783.08
866.989	11685.23
867.309	11608.4
867.63	11621.28
867.95	11603.2
868.27	11478.23
868.59	11561.84
868.91	11517.32
869.23	11428.74
869.55	11395.75
869.87	11451.79
870.19	11465.8
870.51	11400.04
870.83	11423.77
871.15	11285.47
871.469	11302.41
871.789	11381.06
872.109	11343.09
872.428	11211.57
872.748	11303.32
873.067	11276.65
873.386	11206.15
873.706	11268.97
874.025	11109.2
874.344	11146.94
874.663	11194.39
874.982	11199.59
875.301	11110.33
875.62	11069.43
875.939	11023.55
876.258	11012.03
876.577	11018.35
876.896	11034.85
877.214	10997.79
877.533	11009.77
877.852	10967.06
878.17	10948.98
878.489	11018.58
878.807	10940.62
879.125	10917.11
879.444	10932.71
879.762	10854.97
880.08	10827.85
880.398	10826.95
880.716	10784.01
881.034	10727.29
881.352	10798.47
881.67	10770
881.988	10679.15
882.306	10657.91
882.624	10634.64
882.941	10631.02
883.259	10586.73
883.577	10577.91
883.894	10540.4
884.212	10565.94
884.529	10496.56
884.846	10535.88
885.164	10520.06
885.481	10488.2
885.798	10506.28
886.115	10391.48
886.432	10385.38
886.75	10284.36
887.067	10437.13
887.383	10262.89
887.7	10332.04
888.017	10277.58
888.334	10288.2
888.651	10197.81
888.967	10270.35
889.284	10117.81
889.6	10172.73
889.917	10062.45
890.233	10079.17
890.55	10028.55
890.866	10029.91
891.182	9942
891.498	9972.73
891.815	10011.15
892.131	9903.81
892.447	9880.76
892.763	9881.66
893.079	9824.26
893.395	9780.42
893.71	9812.28
894.026	9766.64
894.342	9748.56
894.657	9636.7
894.973	9656.36
895.289	9624.72
895.604	9695.23
895.92	9553.31
896.235	9443.03
896.55	9484.84
896.865	9413.65
897.181	9438.73
897.496	9382.92
897.811	9330.94
898.126	9288.23
898.441	9273.32
898.756	9287.78
899.071	9188.8
899.386	9200.55
899.7	9143.6
900.015	9033.55
900.33	9015.02
900.644	9021.12
900.959	9077.61
901.273	8974.11
901.588	8933.44
901.902	8938.64
902.216	8967.56
902.531	8902.25
902.845	8866.77
903.159	8740.67
903.473	8710.62
903.787	8667.91
904.101	8753.56
904.415	8708.81
904.729	8626.78
905.042	8575.71
905.356	8545.65
905.67	8496.39
905.984	8499.32
906.297	8481.7
906.611	8455.48
906.924	8389.27
907.237	8397.86
907.551	8376.39
907.864	8342.72
908.177	8258.2
908.491	8300.46
908.804	8166.9
909.117	8166.9
909.43	8120.13
909.743	8077.19
910.056	8064.99
910.368	7976.85
910.681	8050.97
910.994	7969.85
911.307	7981.37
911.619	7897.31
911.932	7835.61
912.244	7806.01
912.557	7823.86
912.869	7743.19
913.181	7693.24
913.494	7687.82
913.806	7688.72
914.118	7631.32
914.43	7624.32
914.742	7610.76
915.054	7520.82
915.366	7489.63
915.678	7466.58
915.99	7473.81
916.302	7386.13
916.613	7376.87
916.925	7405.79
917.236	7378.45
917.548	7275.85
917.859	7324.44
918.171	7251
918.482	7207.61
918.794	7163.31
919.105	7128.97
919.416	7131.9
919.727	7134.61
920.038	7090.32
920.349	7062.07
920.66	7012.13
920.971	6956.77
921.282	6942.98
921.593	6879.25
921.903	6826.83
922.214	6849.2
922.525	6845.58
922.835	6826.6
923.146	6776.88
923.456	6733.72
923.767	6721.52
924.077	6719.94
924.387	6637.45
924.697	6604.23
925.008	6581.63
925.318	6607.4
925.628	6535.76
925.938	6536.89
926.248	6484.24
926.558	6488.3
926.867	6434.52
927.177	6365.82
927.487	6369.21
927.796	6336.44
928.106	6363.11
928.416	6289.21
928.725	6251.93
929.034	6231.59
929.344	6259.61
929.653	6180.06
929.962	6173.51
930.271	6126.73
930.581	6092.38
930.89	6084.02
931.199	6032.04
931.508	5997.02
931.817	5998.15
932.125	5959.5
932.434	5896.23
932.743	5887.87
933.051	5891.71
933.36	5867.98
933.669	5828.89
933.977	5798.83
934.286	5813.07
934.594	5760.87
934.902	5712.96
935.21	5683.58
935.519	5707.08
935.827	5654.2
936.135	5642.22
936.443	5642.45
936.751	5572.62
937.059	5580.98
937.367	5547.09
937.674	5562.9
937.982	5483.13
938.29	5455.34
938.597	5461.66
938.905	5429.8
939.213	5395.68
939.52	5392.51
939.827	5358.62
940.135	5342.12
940.442	5303.7
940.749	5258.96
941.056	5291.95
941.363	5189.81
941.67	5187.77
941.977	5192.52
942.284	5230.26
942.591	5134.44
942.898	5146.87
943.205	5121.33
943.511	5095.8
943.818	5073.65
944.125	5014.67
944.431	5007.66
944.738	5005.86
945.044	4941.45
945.35	4941.45
945.657	4936.93
945.963	4922.02
946.269	4873.66
946.575	4881.57
946.881	4836.37
947.187	4816.94
947.493	4788.46
947.799	4790.5
948.105	4765.19
948.41	4698.07
948.716	4711.4
949.022	4709.82
949.327	4682.93
949.633	4668.01
949.938	4642.25
950.244	4635.25
950.549	4640.44
950.854	4591.63
951.16	4552.31
951.465	4590.27
951.77	4561.35
952.075	4514.57
952.38	4497.4
952.685	4466.44
952.99	4453.78
953.294	4434.57
953.599	4418.75
953.904	4415.59
954.209	4415.36
954.513	4326.1
954.818	4358.64
955.122	4317.29
955.426	4288.36
955.731	4238.42
956.035	4258.76
956.339	4267.12
956.643	4227.12
956.948	4171.98
957.252	4160.46
957.556	4175.37
957.86	4127.69
958.163	4092.66
958.467	4121.13
958.771	4081.14
959.075	4026.9
959.378	4042.94
959.682	4014.7
959.985	4025.77
960.289	3976.73
960.592	3992.1
960.896	3986.67
961.199	3935.38
961.502	3899.67
961.805	3860.35
962.108	3888.6
962.411	3886.56
962.714	3875.04
963.017	3833.68
963.32	3835.49
963.623	3816.06
963.926	3776.28
964.228	3748.49
964.531	3769.05
964.833	3776.74
965.136	3729.73
965.438	3716.63
965.741	3682.5
966.043	3684.54
966.345	3675.04
966.648	3633.24
966.95	3639.57
967.252	3604.09
967.554	3625.1
967.856	3576.74
968.158	3532.9
968.46	3560.92
968.761	3565.44
969.063	3503.3
969.365	3511.66
969.666	3473.24
969.968	3463.52
970.269	3448.38
970.571	3438.21
970.872	3425.33
971.174	3374.94
971.475	3385.79
971.776	3397.31
972.077	3337.88
972.378	3357.09
972.679	3313.92
972.98	3331.55
973.281	3274.15
973.582	3319.12
973.883	3299.91
974.183	3249.75
974.484	3282.74
974.785	3249.97
975.085	3234.38
975.386	3240.25
975.686	3249.07
975.986	3217.2
976.287	3189.18
976.587	3128.17
976.887	3156.19
977.187	3160.03
977.487	3106.7
977.787	3097.66
978.087	3085.68
978.387	3071.67
978.687	3085.23
978.987	3055.63
979.286	3028.96
979.586	3034.61
979.885	3023.54
980.185	2971.56
980.484	2932.92
980.784	2955.52
981.083	2986.02
981.382	2899.25
981.682	2914.39
981.981	2922.07
982.28	2896.31
982.579	2889.98
982.878	2918
983.177	2873.03
983.475	2857.89
983.774	2825.58
984.073	2820.6
984.372	2788.06
984.67	2811.11
984.969	2770.89
985.267	2777.22
985.566	2786.71
985.864	2770.44
986.162	2700.61
986.461	2727.72
986.759	2710.1
987.057	2669.87
987.355	2656.09
987.653	2632.81
987.951	2675.97
988.249	2668.52
988.547	2633.94
988.844	2675.97
989.142	2634.62
989.44	2598.91
989.737	2572.93
990.035	2565.02
990.332	2541.74
990.63	2555.53
990.927	2525.02
991.224	2555.98
991.521	2518.46
991.819	2517.11
992.116	2537
992.413	2465.58
992.71	2450.9
993.006	2440.95
993.303	2478.47
993.6	2467.84
993.897	2398.02
994.193	2462.87
994.49	2405.7
994.787	2397.56
995.083	2372.71
995.379	2403.21
995.676	2330.9
995.972	2386.72
996.268	2347.62
996.565	2310.56
996.861	2289.54
997.157	2312.59
997.453	2302.2
997.749	2261.52
998.044	2254.52
998.34	2252.94
998.636	2236.44
998.932	2261.3
999.227	2183.33
999.523	2227.17
999.818	2195.99
1000.114	2186.5
1000.409	2159.6
1000.704	2140.4
1001	2159.83
1001.295	2113.96
1001.59	2103.33
1001.885	2099.72
1002.18	2107.85
1002.475	2075.99
1002.77	2117.57
1003.065	2058.82
1003.359	2047.52
1003.654	2060.85
1003.949	2024.69
1004.243	2029.89
1004.538	2009.33
1004.832	2005.03
1005.127	2011.59
1005.421	1993.73
1005.715	1961.64
1006.009	1968.65
1006.304	1952.83
1006.598	1942.21
1006.892	1937.01
1007.186	1917.8
1007.48	1927.29
1007.773	1878.93
1008.067	1894.3
1008.361	1856.79
1008.655	1864.24
1008.948	1867.86
1009.242	1887.3
1009.535	1823.57
1009.829	1819.27
1010.122	1817.69
1010.415	1809.56
1010.708	1806.62
1011.001	1759.16
1011.295	1777.92
1011.588	1782.89
1011.881	1727.3
1012.173	1733.85
1012.466	1714.87
1012.759	1713.29
1013.052	1699.5
1013.344	1733.4
1013.637	1670.35
1013.93	1702.67
1014.222	1673.97
1014.514	1664.7
1014.807	1635.78
1015.099	1643.69
1015.391	1641.43
1015.683	1606.17
1015.976	1603.69
1016.268	1613.86
1016.56	1613.18
1016.851	1580.18
1017.143	1582.9
1017.435	1560.52
1017.727	1558.49
1018.018	1530.24
1018.31	1531.6
1018.602	1482.79
1018.893	1503.12
1019.185	1507.42
1019.476	1503.8
1019.767	1474.88
1020.058	1463.58
1020.35	1450.47
1020.641	1459.28
1020.932	1427.19
1021.223	1426.06
1021.514	1389.91
1021.804	1406.4
1022.095	1382.9
1022.386	1393.75
1022.677	1388.55
1022.967	1364.37
1023.258	1347.42
1023.548	1365.27
1023.839	1345.84
1024.129	1359.17
1024.419	1363.02
1024.709	1329.8
1025	1303.81
1025.29	1313.07
1025.58	1298.84
1025.87	1288.44
1026.16	1267.2
1026.449	1273.3
1026.739	1268.78
1027.029	1251.38
1027.319	1251.83
1027.608	1238.5
1027.898	1225.17
1028.187	1212.74
1028.477	1240.53
1028.766	1198.5
1029.055	1214.32
1029.344	1205.51
1029.634	1182.68
1029.923	1188.56
1030.212	1185.17
1030.501	1167.09
1030.79	1127.31
1031.078	1151.04
1031.367	1125.28
1031.656	1141.55
1031.945	1113.08
1032.233	1132.29
1032.522	1085.06
1032.81	1116.69
1033.099	1102.68
1033.387	1082.12
1033.675	1065.17
1033.963	1085.73
1034.251	1063.14
1034.54	1050.71
1034.828	1027.2
1035.116	1055
1035.403	1075.56
1035.691	1019.07
1035.979	1014.78
1036.267	1023.36
1036.554	1018.84
1036.842	1008.67
1037.129	1011.39
1037.417	996.47
1037.704	1002.8
1037.992	971.61
1038.279	954.66
1038.566	992.4
1038.853	992.4
1039.14	992.4
