Data from breadboard_black_back_FLMS001491_00089.txt Node
Date: Wed Feb 08 10:51:03 GMT 2017
User: dcchb
Spectrometer: FLMS00149
Trigger mode: 0
Integration Time (sec): 2.000000E-2
Scans to average: 10
Electric dark correction enabled: true
Nonlinearity correction enabled: false
Boxcar width: 0
XAxis mode: Wavelengths
Number of Pixels in Spectrum: 2048
>>>>>Begin Spectral Data<<<<<
341.393	-0.97
341.776	-0.97
342.16	-0.97
342.543	-81.88
342.927	-58.37
343.31	-72.61
343.693	-57.92
344.077	-68.32
344.46	-70.35
344.843	-66.96
345.226	-22.89
345.61	-10.01
345.993	1.29
346.376	-9.11
346.759	14.84
347.142	23.88
347.525	37.22
347.908	77.89
348.291	42.41
348.674	84.45
349.057	96.2
349.44	106.37
349.823	141.39
350.206	163.31
350.588	177.78
350.971	232.01
351.354	245.57
351.737	232.24
352.119	260.04
352.502	276.76
352.884	263.65
353.267	297.55
353.65	291.45
354.032	303.65
354.414	319.24
354.797	318.11
355.179	345.46
355.562	325.12
355.944	325.34
356.326	338.9
356.709	340.94
357.091	336.64
357.473	335.29
357.855	351.56
358.238	347.26
358.62	347.49
359.002	363.99
359.384	350.65
359.766	363.54
360.148	344.33
360.53	335.97
360.912	353.14
361.294	333.48
361.676	356.76
362.057	322.63
362.439	339.81
362.821	354.95
363.203	345.91
363.584	343.42
363.966	345.91
364.348	345.01
364.729	332.12
365.111	330.99
365.493	325.12
365.874	332.35
366.256	334.84
366.637	344.33
367.019	338.68
367.4	340.26
367.781	322.63
368.163	339.81
368.544	353.37
368.925	321.28
369.306	378
369.688	351.78
370.069	326.47
370.45	354.27
370.831	341.84
371.212	349.52
371.593	345.68
371.974	341.84
372.355	323.31
372.736	360.82
373.117	345.01
373.498	341.39
373.879	369.86
374.26	346.59
374.641	346.13
375.021	347.04
375.402	338.68
375.783	368.96
376.163	352.24
376.544	392.24
376.925	377.55
377.305	382.97
377.686	361.95
378.066	392.24
378.447	368.28
378.827	381.39
379.208	399.69
379.588	377.55
379.968	384.33
380.349	384.78
380.729	402.86
381.109	368.28
381.489	397.43
381.87	411.44
382.25	403.76
382.63	396.76
383.01	416.19
383.39	399.01
383.77	422.52
384.15	408.51
384.53	418.9
384.91	421.61
385.29	425.45
385.67	428.17
386.049	431.78
386.429	438.34
386.809	454.61
387.189	436.3
387.568	435.17
387.948	439.24
388.328	438.79
388.707	444.44
389.087	453.48
389.466	440.14
389.846	445.79
390.225	477.88
390.605	486.24
390.984	465
391.363	493.02
391.743	479.46
392.122	493.7
392.501	489.18
392.881	482.85
393.26	502.74
393.639	487.15
394.018	507.49
394.397	496.64
394.776	512.91
395.155	497.54
395.534	533.02
395.913	517.66
396.292	510.88
396.671	537.32
397.05	544.1
397.429	538.22
397.808	539.8
398.186	545.68
398.565	512.68
398.944	533.47
399.323	557.65
399.701	584.77
400.08	561.04
400.458	573.47
400.837	589.74
401.215	588.39
401.594	564.21
401.972	572.57
402.351	575.28
402.729	597.88
403.107	587.71
403.486	620.7
403.864	605.56
404.242	611.89
404.62	626.81
404.999	622.29
405.377	664.32
405.755	638.56
406.133	657.99
406.511	656.64
406.889	644.88
407.267	664.09
407.645	665.67
408.023	712.68
408.401	688.05
408.779	705.67
409.156	710.19
409.534	717.2
409.912	714.49
410.29	748.16
410.667	723.75
411.045	748.38
411.422	739.8
411.8	741.15
412.178	762.62
412.555	787.25
412.933	779.57
413.31	797.42
413.687	825.44
414.065	826.35
414.442	816.86
414.819	845.33
415.197	842.62
415.574	854.6
415.951	834.94
416.328	864.77
416.705	867.03
417.082	912.45
417.46	896.63
417.837	905.22
418.214	895.73
418.591	879.68
418.967	892.11
419.344	919.91
419.721	927.36
420.098	937.31
420.475	938.66
420.852	925.78
421.228	970.07
421.605	955.61
421.982	996.06
422.358	998.77
422.735	993.12
423.111	999.45
423.488	1053.24
423.864	1023.63
424.241	1043.74
424.617	1065.89
424.994	1071.99
425.37	1024.99
425.746	1100.47
426.123	1086
426.499	1098.88
426.875	1114.02
427.251	1143.18
427.627	1163.29
428.003	1166.45
428.379	1165.32
428.756	1189.95
429.132	1212.55
429.507	1222.04
429.883	1238.77
430.259	1256.85
430.635	1279.44
431.011	1267.01
431.387	1296.17
431.763	1303.85
432.138	1308.37
432.514	1343.4
432.89	1332.1
433.265	1370.97
433.641	1393.79
434.016	1401.47
434.392	1453.68
434.767	1441.7
435.143	1462.72
435.518	1477.86
435.894	1452.55
436.269	1494.81
436.644	1499.78
437.02	1519.21
437.395	1532.77
437.77	1580.45
438.145	1571.19
438.52	1599.66
438.895	1611.86
439.271	1588.59
439.646	1627.23
440.021	1641.24
440.395	1672.65
440.77	1650.96
441.145	1662.71
441.52	1700.68
441.895	1708.81
442.27	1743.61
442.645	1747.91
443.019	1764.63
443.394	1780.67
443.769	1804.63
444.143	1765.08
444.518	1787.23
444.892	1752.65
445.267	1825.42
445.641	1823.38
446.016	1886.43
446.39	1852.76
446.764	1842.37
447.139	1868.81
447.513	1906.77
447.887	1926.43
448.262	1866.77
448.636	1905.64
449.01	1922.59
449.384	1939.77
449.758	1962.14
450.132	2000.55
450.506	2011.85
450.88	2031.51
451.254	2049.59
451.628	2080.1
452.002	2098.86
452.376	2112.19
452.75	2133.66
453.123	2125.75
453.497	2154.9
453.871	2198.52
454.244	2234.22
454.618	2244.84
454.992	2267.21
455.365	2274.45
455.739	2353.31
456.112	2358.51
456.486	2379.98
456.859	2393.99
457.232	2471.28
457.606	2451.39
457.979	2524.83
458.352	2543.59
458.725	2539.52
459.099	2577.94
459.472	2593.31
459.845	2611.16
460.218	2675.34
460.591	2706.75
460.964	2689.12
461.337	2770.48
461.71	2851.83
462.083	2829.23
462.456	2894.09
462.829	2834.43
463.201	2927.99
463.574	2956.46
463.947	2975.44
464.32	3043.69
464.692	3055.67
465.065	3109.68
465.438	3115.78
465.81	3186.06
466.183	3204.36
466.555	3313.97
466.928	3285.94
467.3	3298.37
467.672	3367.3
468.045	3457.47
468.417	3419.05
468.789	3484.36
469.161	3508.99
469.534	3613.85
469.906	3670.57
470.278	3676.44
470.65	3738.59
471.022	3802.32
471.394	3889.09
471.766	3909.66
472.138	3949.43
472.51	4013.16
472.882	4093.83
473.253	4114.85
473.625	4200.5
473.997	4265.13
474.369	4294.05
474.74	4325.24
475.112	4452.92
475.484	4518
475.855	4545.57
476.227	4622.18
476.598	4740.82
476.97	4780.14
477.341	4891.78
477.713	4960.48
478.084	4974.94
478.455	5142.39
478.827	5191.88
479.198	5331.77
479.569	5386
479.94	5493.57
480.311	5552.33
480.682	5637.75
481.053	5757.97
481.424	5820.57
481.795	5905.31
482.166	6028.47
482.537	6098.3
482.908	6199.31
483.279	6253.78
483.65	6411.51
484.021	6530.38
484.391	6585.97
484.762	6679.75
485.133	6748
485.503	6789.36
485.874	6899.86
486.244	7021.89
486.615	7138.72
486.985	7274.54
487.356	7371.94
487.726	7430.02
488.097	7643.12
488.467	7646.96
488.837	7829.55
489.207	7862.1
489.578	7983.45
489.948	8068.64
490.318	8153.84
490.688	8240.62
491.058	8335.98
491.428	8487.84
491.798	8532.36
492.168	8775.29
492.538	8712.24
492.908	8834.95
493.278	8989.52
493.648	9011.44
494.017	9147.03
494.387	9176.86
494.757	9240.14
495.126	9401.94
495.496	9370.53
495.866	9539.11
496.235	9537.31
496.605	9660.24
496.974	9712.44
497.344	9892.1
497.713	9843.29
498.082	9973.23
498.452	10034.02
498.821	10158.08
499.19	10202.6
499.559	10273.33
499.928	10356.27
500.298	10431.07
500.667	10607.11
501.036	10504.51
501.405	10638.52
501.774	10634.45
502.143	10831.28
502.512	10843.49
502.88	10943.14
503.249	10930.04
503.618	11040.09
503.987	11111.05
504.356	11220.88
504.724	11310.59
505.093	11384.94
505.462	11349.91
505.83	11498.16
506.199	11559.17
506.567	11681.2
506.936	11753.29
507.304	11835.1
507.672	11959.39
508.041	11941.31
508.409	12168.65
508.777	12208.42
509.145	12338.81
509.514	12364.58
509.882	12473.27
510.25	12393.05
510.618	12598.92
510.986	12631.69
511.354	12756.66
511.722	12864.9
512.09	13027.38
512.458	13031
512.826	13090.66
513.193	13197.55
513.561	13281.84
513.929	13402.29
514.297	13496.52
514.664	13616.52
515.032	13575.17
515.4	13722.51
515.767	13898.32
516.135	13851.99
516.502	13956.85
516.869	14144.42
517.237	14308.71
517.604	14183.96
517.972	14371.75
518.339	14493.33
518.706	14554.12
519.073	14622.82
519.44	14784.63
519.808	14875.47
520.175	14999.31
520.542	15143.26
520.909	15282.24
521.276	15242.01
521.643	15382.35
522.009	15566.98
522.376	15675.9
522.743	15651.95
523.11	15919.96
523.477	16094.65
523.843	16237.69
524.21	16352.04
524.577	16449.67
524.943	16615.99
525.31	16652.6
525.676	16783.67
526.043	16982.31
526.409	17057.56
526.776	17178.01
527.142	17238.8
527.508	17355.41
527.874	17556.76
528.241	17618.22
528.607	17681.72
528.973	17891.21
529.339	17872.23
529.705	18026.35
530.071	18133.92
530.437	18294.82
530.803	18431.99
531.169	18491.87
531.535	18586.11
531.901	18559.22
532.267	18719.66
532.632	18795.82
532.998	18835.37
533.364	19088.47
533.73	19119.2
534.095	19307.44
534.461	19327.56
534.826	19364.39
535.192	19438.97
535.557	19665.63
535.923	19545.86
536.288	19695.68
536.653	19906.52
537.019	19843.25
537.384	19880.31
537.749	20083.92
538.114	20136.58
538.479	20157.37
538.845	20360.98
539.21	20217.93
539.575	20308.55
539.94	20429.22
540.305	20623.79
540.67	20534.76
541.034	20620.18
541.399	20738.59
541.764	20794.86
542.129	20974.75
542.494	20940.17
542.858	21144.68
543.223	21111.46
543.587	21338.8
543.952	21259.03
544.316	21353.27
544.681	21378.12
545.045	21477.1
545.41	21605.24
545.774	21535.63
546.138	21634.39
546.503	21783.99
546.867	21770.43
547.231	22003.19
547.595	21925.23
547.959	22161.38
548.324	22033.02
548.688	22056.3
549.052	22246.58
549.416	22296.97
549.779	22284.54
550.143	22460.81
550.507	22601.59
550.871	22666.68
551.235	22674.59
551.599	22754.81
551.962	22909.84
552.326	22974.92
552.689	23183.27
553.053	23127
553.417	23169.49
553.78	23394.57
554.143	23409.71
554.507	23560.44
554.87	23576.26
555.234	23808.79
555.597	23639.53
555.96	23701.23
556.323	23931.73
556.686	23890.6
557.05	24249.24
557.413	24210.59
557.776	24333.07
558.139	24356.13
558.502	24527.42
558.865	24556.12
559.228	24846.06
559.59	24923.79
559.953	24878.15
560.316	25209.66
560.679	25181.41
561.041	25297.8
561.404	25349.32
561.767	25523.33
562.129	25514.74
562.492	25861.17
562.854	25788.4
563.217	25912.24
563.579	25930.32
563.941	26224.32
564.304	26310.88
564.666	26488.27
565.028	26372.57
565.39	26518.33
565.753	26770.07
566.115	26814.14
566.477	26988.82
566.839	27045.09
567.201	27115.37
567.563	27241.02
567.925	27317.18
568.287	27316.27
568.648	27654.57
569.01	27684.63
569.372	27767.11
569.734	27732.08
570.095	27930.27
570.457	28090.49
570.819	28017.72
571.18	28217.49
571.542	28205.06
571.903	28236.02
572.265	28477.6
572.626	28458.39
572.987	28600.08
573.349	28619.52
573.71	28761.21
574.071	28922.33
574.432	28913.75
574.794	29215.43
575.155	29069.9
575.516	29055.21
575.877	29320.06
576.238	29336.11
576.599	29446.16
576.96	29273.06
577.32	29434.18
577.681	29506.05
578.042	29700.84
578.403	29610
578.763	29666.27
579.124	29711.24
579.485	29804.34
579.845	29822.2
580.206	29808.86
580.566	29826.49
580.927	29840.5
581.287	30079.36
581.648	29838.01
582.008	30009.31
582.368	29970.89
582.728	30083.43
583.089	29980.61
583.449	30002.98
583.809	30024.9
584.169	30087.95
584.529	29972.25
584.889	30179.7
585.249	30156.65
585.609	30128.4
585.969	30270.77
586.329	30128.18
586.688	30189.42
587.048	30218.12
587.408	30143.09
587.768	30244.78
588.127	30238.91
588.487	30198.68
588.846	30290.21
589.206	30094.51
589.565	30234.61
589.925	30321.39
590.284	30240.72
590.643	30293.14
591.003	30363.42
591.362	30474.38
591.721	30427.15
592.08	30489.52
592.44	30401.16
592.799	30340.37
593.158	30317.1
593.517	30355.74
593.876	30422.63
594.235	30498.79
594.593	30455.85
594.952	30504.44
595.311	30399.36
595.67	30520.26
596.029	30605.9
596.387	30788.5
596.746	30711.89
597.104	30574.49
597.463	30536.08
597.822	30601.38
598.18	30590.31
598.538	30620.14
598.897	30767.26
599.255	30563.87
599.613	30980.36
599.972	30723.42
600.33	30814.71
600.688	30752.79
601.046	30805.45
601.404	31007.93
601.762	30881.15
602.12	31089.96
602.478	31035.5
602.836	31023.52
603.194	31047.02
603.552	30990.75
603.91	30831.66
604.268	31033.46
604.625	31108.04
604.983	31120.47
605.341	31038.66
605.698	31227.58
606.056	31204.76
606.413	31187.58
606.771	31315.94
607.128	31440.91
607.485	31192.1
607.843	31300.58
608.2	31528.37
608.557	31534.92
608.914	31534.92
609.272	31602.71
609.629	31528.82
609.986	31701.24
610.343	31621.47
610.7	31776.04
611.057	31660.79
611.414	31767.46
611.771	31725.2
612.127	31904.85
612.484	32009.03
612.841	31903.5
613.198	31861.69
613.554	31985.08
613.911	32139.65
614.267	32094
614.624	32034.34
614.98	32104.85
615.337	32165.19
615.693	32218.07
616.05	32199.31
616.406	32319.98
616.762	32197.95
617.118	32182.59
617.475	32207.9
617.831	32362.24
618.187	32354.33
618.543	32328.34
618.899	32489.02
619.255	32468.91
619.611	32432.07
619.967	32490.6
620.323	32695.57
620.678	32348.91
621.034	32355.24
621.39	32485.63
621.746	32423.03
622.101	32725.17
622.457	32365.41
622.812	32657.38
623.168	32641.33
623.523	32611.5
623.879	32717.94
624.234	32475.01
624.589	32631.84
624.945	32564.27
625.3	32696.24
625.655	32754.77
626.01	32630.26
626.365	32658.51
626.72	32456.48
627.075	32565.85
627.43	32630.48
627.785	32650.37
628.14	32599.75
628.495	32647.43
628.85	32505.29
629.205	32490.83
629.559	32612.63
629.914	32338.06
630.269	32490.15
630.623	32384.16
630.978	32379.64
631.332	32390.94
631.687	32509.58
632.041	32246.09
632.396	32386.65
632.75	32270.04
633.104	32317.27
633.459	32130.38
633.813	32191.4
634.167	32105.3
634.521	32116.37
634.875	32125.64
635.229	32105.98
635.583	31949.6
635.937	31848.36
636.291	31886.1
636.645	31823.5
636.999	31766.55
637.352	31824.4
637.706	31550.06
638.06	31813.33
638.413	31769.04
638.767	31687.91
639.121	31750.51
639.474	31515.48
639.828	31495.15
640.181	31580.12
640.534	31436.16
640.888	31517.29
641.241	31205.21
641.594	31300.58
641.947	31501.7
642.301	31339.9
642.654	31326.56
643.007	31491.08
643.36	31331.31
643.713	31198.21
644.066	31222.61
644.419	31125.21
644.771	30904.65
645.124	30613.81
645.477	30592.35
645.83	30492.69
646.182	30319.13
646.535	30128.63
646.888	30213.15
647.24	30034.17
647.593	30182.64
647.945	29969.54
648.298	29937.22
648.65	29923.89
649.002	29715.76
649.355	30018.8
649.707	29804.8
650.059	29965.47
650.411	30407.72
650.763	30293.82
651.115	30729.29
651.467	30476.64
651.819	30463.08
652.171	30392.12
652.523	30526.58
652.875	30421.5
653.227	30269.64
653.578	30444.33
653.93	30338.34
654.282	30306.25
654.633	30139.7
654.985	30277.55
655.337	30256.76
655.688	30200.04
656.039	30334.95
656.391	30119.36
656.742	29973.83
657.094	30049.76
657.445	30132.02
657.796	30014.06
658.147	30041.17
658.498	29941.51
658.849	30061.29
659.2	29894.74
659.551	29915.53
659.902	30133.15
660.253	30048.86
660.604	29962.31
660.955	29839.37
661.306	29949.2
661.656	29939.26
662.007	29880.05
662.358	29814.06
662.708	29912.36
663.059	29780.84
663.409	29692.71
663.76	29847.51
664.11	29700.17
664.461	29864
664.811	29727.74
665.161	29806.83
665.511	29681.18
665.862	29691.13
666.212	29706.72
666.562	29688.64
666.912	29683.89
667.262	29710.79
667.612	29613.84
667.962	29660.39
668.312	29619.94
668.662	29603.44
669.011	29571.13
669.361	29607.96
669.711	29504.92
670.06	29682.99
670.41	29428.76
670.76	29487.06
671.109	29568.42
671.459	29451.81
671.808	29354.64
672.157	29452.04
672.507	29428.53
672.856	29353.96
673.205	29403.9
673.554	29423.11
673.904	29263.34
674.253	29412.04
674.602	29275.32
674.951	28919.17
675.3	28715.11
675.649	29240.97
675.998	29216.11
676.346	29184.92
676.695	29225.83
677.044	29068.09
677.393	29129.33
677.741	29205.49
678.09	28985.83
678.438	29107.86
678.787	29053.18
679.135	29003.23
679.484	28828.78
679.832	28859.74
680.181	28883.24
680.529	28890.92
680.877	28756.69
681.225	28710.36
681.573	28898.6
681.922	28639.4
682.27	28541.33
682.618	28629.69
682.966	28522.34
683.314	28512.85
683.661	28519.63
684.009	28388.34
684.357	28292.07
684.705	28284.38
685.053	28300.43
685.4	28183.82
685.748	28160.77
686.095	28068.34
686.443	27802.36
686.79	27913.77
687.138	27900.21
687.485	27890.95
687.832	27842.81
688.18	27850.5
688.527	27737.28
688.874	27726.21
689.221	27662.7
689.568	27657.06
689.915	27555.59
690.262	27447.12
690.609	27383.39
690.956	27363.5
691.303	27311.3
691.65	27170.74
691.997	27262.04
692.344	26994.02
692.69	27094.36
693.037	26905.89
693.383	26700.7
693.73	26859.79
694.077	26708.61
694.423	26677.65
694.769	26558.1
695.116	26506.58
695.462	26512.45
695.808	26370.54
696.155	26444.21
696.501	26210.99
696.847	26290.76
697.193	26020.04
697.539	26133.03
697.885	25855.29
698.231	25789.53
698.577	25805.58
698.923	25856.88
699.269	25716.77
699.614	25526.49
699.96	25519.03
700.306	25542.53
700.651	25431.35
700.997	25307.06
701.342	25349.09
701.688	25202.43
702.033	25140.74
702.379	25208.76
702.724	25041.76
703.069	25113.85
703.415	24799.96
703.76	24919.73
704.105	24916.11
704.45	24758.15
704.795	24641.99
705.14	24628.89
705.485	24496.91
705.83	24490.36
706.175	24495.56
706.52	24439.06
706.865	24344.37
707.209	24329.69
707.554	24270.03
707.899	24292.62
708.243	24080.2
708.588	24118.39
708.932	23911.84
709.277	23938.28
709.621	24011.73
709.966	23873.65
710.31	23914.78
710.654	23667.56
710.998	23637.73
711.342	23636.6
711.687	23637.73
712.031	23568.12
712.375	23357.96
712.719	23519.31
713.063	23400.67
713.407	23510.72
713.75	23368.58
714.094	23261.92
714.438	23096.05
714.782	23250.62
715.125	23169.26
715.469	23140.11
715.812	22997.06
716.156	22800.23
716.499	22890.17
716.843	22869.61
717.186	22768.37
717.53	22891.98
717.873	22815.83
718.216	22786.67
718.559	22738.09
718.902	22510.98
719.246	22627.81
719.589	22569.05
719.932	22360.02
720.275	22409.06
720.617	22416.97
720.96	22284.32
721.303	22317.08
721.646	22339
721.989	22138.1
722.331	22181.72
722.674	22197.99
723.016	22156.18
723.359	22114.38
723.701	22159.8
724.044	21903.31
724.386	21899.24
724.729	21997.54
725.071	21936.3
725.413	21871.67
725.755	21887.72
726.097	21675.29
726.439	21703.77
726.782	21766.14
727.124	21738.34
727.465	21667.83
727.807	21464
728.149	21570.89
728.491	21568.18
728.833	21535.18
729.175	21431.23
729.516	21449.31
729.858	21339.48
730.199	21412.02
730.541	21395.3
730.882	21352.36
731.224	21327.28
731.565	21108.07
731.906	21141.29
732.248	21165.25
732.589	21072.6
732.93	21047.29
733.271	21041.86
733.612	21040.73
733.953	21099.49
734.294	20974.97
734.635	20930.9
734.976	20915.09
735.317	20817.91
735.658	20839.16
735.999	20849.55
736.339	20704.47
736.68	20804.13
737.021	20658.14
737.361	20574.53
737.702	20682.78
738.042	20564.81
738.383	20573.4
738.723	20593.29
739.063	20425.61
739.404	20583.57
739.744	20547.19
740.084	20490.69
740.424	20454.31
740.764	20327.76
741.104	20393.52
741.444	20183.81
741.784	20221.09
742.124	20214.31
742.464	20231.49
742.804	20292.73
743.143	20226.06
743.483	20137.03
743.823	20080.08
744.162	20119.17
744.502	20037.37
744.841	19915.79
745.181	20059.97
745.52	19913.53
745.86	19951.04
746.199	19869.46
746.538	19892.97
746.877	19958.27
747.216	19865.4
747.556	19714.44
747.895	19706.3
748.234	19716.93
748.573	19636.25
748.911	19628.34
749.25	19631.28
749.589	19448.01
749.928	19495.46
750.267	19504.95
750.605	19413.43
750.944	19489.81
751.283	19389.25
751.621	19386.09
751.96	19280.33
752.298	19254.56
752.636	19301.79
752.975	19025.19
753.313	19057.28
753.651	19123.49
753.989	18929.6
754.327	18934.8
754.666	18923.05
755.004	18884.63
755.342	18916.95
755.679	18841.92
756.017	18767.57
756.355	18813.45
756.693	18700.45
757.031	18719.44
757.368	18566.9
757.706	18626.78
758.044	18525.54
758.381	18521.93
758.719	18446.22
759.056	18456.39
759.394	18338.88
759.731	18206.23
760.068	18237.19
760.405	18186.12
760.743	18137.76
761.08	18183.86
761.417	18023.41
761.754	18062.05
762.091	18006.69
762.428	17909.51
762.765	17718.79
763.102	17821.38
763.438	17705.45
763.775	17687.83
764.112	17589.75
764.449	17663.65
764.785	17545.68
765.122	17444.22
765.458	17391.79
765.795	17379.36
766.131	17295.75
766.467	17145.92
766.804	17118.8
767.14	17168.97
767.476	17078.58
767.812	17062.31
768.148	16973.49
768.485	16899.6
768.821	16886.49
769.157	16821.18
769.492	16703.9
769.828	16668.64
770.164	16585.26
770.5	16620.74
770.836	16522.88
771.171	16455.54
771.507	16467.74
771.842	16254.87
772.178	16290.57
772.513	16163.8
772.849	16203.35
773.184	16114.08
773.519	16096.23
773.855	16079.73
774.19	15961.09
774.525	15835.45
774.86	15845.61
775.195	15900.3
775.53	15730.14
775.865	15702.79
776.2	15629.57
776.535	15457.38
776.87	15502.12
777.205	15435.23
777.539	15332.18
777.874	15384.61
778.209	15137.61
778.543	15256.25
778.878	15157.5
779.212	15083.6
779.547	14988.69
779.881	15107.78
780.215	14926.32
780.55	14945.07
780.884	14893.55
781.218	14812.65
781.552	14756.6
781.886	14716.15
782.22	14581.01
782.554	14525.65
782.888	14411.98
783.222	14416.95
783.556	14341.93
783.889	14301.02
784.223	14164.75
784.557	14244.75
784.89	14254.7
785.224	14125.43
785.557	14184.42
785.891	14001.14
786.224	14037.07
786.558	14051.99
786.891	13939.68
787.224	13864.65
787.557	13807.25
787.891	13747.36
788.224	13743.52
788.557	13694.94
788.89	13632.79
789.223	13646.12
789.556	13558.89
789.888	13442.97
790.221	13460.59
790.554	13332.23
790.887	13405.23
791.219	13349.63
791.552	13274.83
791.884	13225.57
792.217	13199.58
792.549	13139.24
792.882	13120.94
793.214	12981.06
793.546	12993.03
793.879	12970.21
794.211	12916.88
794.543	12948.74
794.875	12864.22
795.207	12885.01
795.539	12801.63
795.871	12754.85
796.203	12669.88
796.535	12504.46
796.867	12493.84
797.198	12546.27
797.53	12491.8
797.862	12411.81
798.193	12457.91
798.525	12382.88
798.856	12365.03
799.188	12259.49
799.519	12248.42
799.85	12178.37
800.182	12217.91
800.513	12113.96
800.844	12026.73
801.175	12179.5
801.506	12062.21
801.837	12042.78
802.168	12034.87
802.499	11913.29
802.83	11912.38
803.161	11806.4
803.491	11866.51
803.822	11778.6
804.153	11716.68
804.483	11614.99
804.814	11697.02
805.145	11605.95
805.475	11615.9
805.805	11624.71
806.136	11573.41
806.466	11551.94
806.796	11466.75
807.126	11453.41
807.457	11422.68
807.787	11449.12
808.117	11347.88
808.447	11318.73
808.777	11339.29
809.107	11260.2
809.436	11265.4
809.766	11226.75
810.096	11163.93
810.426	11112.41
810.755	11171.61
811.085	11056.14
811.414	11086.19
811.744	11032.86
812.073	10976.82
812.403	10981.11
812.732	10933.2
813.061	10994.67
813.39	10869.47
813.719	10878.29
814.049	10889.13
814.378	10842.13
814.707	10828.8
815.036	10840.55
815.365	10732.75
815.693	10605.53
816.022	10675.58
816.351	10610.05
816.68	10543.15
817.008	10606.88
817.337	10435.14
817.665	10501.35
817.994	10511.07
818.322	10410.05
818.651	10404.85
818.979	10449.15
819.307	10381.13
819.636	10402.37
819.964	10292.09
820.292	10347.23
820.62	10354.23
820.948	10252.77
821.276	10346.32
821.604	10345.42
821.932	10358.08
822.259	10366.21
822.587	10268.81
822.915	10224.07
823.243	10285.99
823.57	10238.3
823.898	10336.61
824.225	10279.66
824.553	10327.12
824.88	10294.8
825.207	10304.07
825.535	10243.73
825.862	10348.13
826.189	10289.15
826.516	10253.45
826.843	10337.28
827.17	10303.39
827.497	10295.48
827.824	10410.05
828.151	10250.28
828.478	10283.73
828.805	10349.94
829.131	10238.08
829.458	10250.28
829.785	10205.76
830.111	10248.25
830.438	10312.43
830.764	10266.78
831.09	10233.11
831.417	10121.02
831.743	10259.09
832.069	10231.98
832.395	10149.04
832.722	10219.77
833.048	10168.48
833.374	10193.79
833.7	10154.69
834.026	10195.14
834.351	10145.65
834.677	10102.04
835.003	10200.57
835.329	10212.54
835.654	10141.36
835.98	10064.07
836.306	10029.27
836.631	10047.35
836.956	10085.77
837.282	10140.23
837.607	10042.15
837.932	10008.03
838.258	9957.18
838.583	9970.74
838.908	9943.4
839.233	9966.22
839.558	9928.48
839.883	9887.8
840.208	9874.92
840.533	9876.05
840.858	9858.43
841.182	9804.64
841.507	9855.04
841.832	9745.66
842.156	9761.71
842.481	9831.31
842.805	9679.9
843.13	9803.74
843.454	9660.24
843.778	9702.5
844.103	9635.61
844.427	9586.12
844.751	9563.97
845.075	9651.88
845.399	9569.62
845.723	9482.39
846.047	9472
846.371	9463.41
846.695	9447.36
847.019	9324.66
847.343	9372.11
847.666	9279.01
847.99	9267.26
848.313	9290.98
848.637	9185.22
848.96	9152.23
849.284	9118.11
849.607	9110.2
849.931	9050.54
850.254	8993.82
850.577	8947.04
850.9	8891.67
851.223	8937.32
851.546	8816.19
851.869	8861.62
852.192	8841.96
852.515	8803.77
852.838	8741.39
853.161	8753.82
853.483	8637.22
853.806	8606.71
854.129	8620.49
854.451	8618.23
854.774	8576.43
855.096	8585.69
855.419	8500.95
855.741	8479.71
856.063	8440.84
856.385	8388.41
856.708	8403.55
857.03	8413.95
857.352	8355.19
857.674	8305.47
857.996	8325.59
858.318	8303.21
858.64	8196.78
858.961	8232.48
859.283	8211.46
859.605	8200.39
859.926	8270.67
860.248	8180.73
860.57	8142.99
860.891	8178.02
861.212	8077.23
861.534	8052.82
861.855	8107.06
862.176	8060.96
862.498	8031.36
862.819	8037.46
863.14	8025.48
863.461	7989.55
863.782	7945.94
864.103	7976.67
864.424	7954.52
864.745	7971.02
865.065	7928.31
865.386	7940.74
865.707	7839.72
866.027	7957.91
866.348	7896.44
866.668	7854.41
866.989	7801.31
867.309	7780.29
867.63	7814.19
867.95	7795.66
868.27	7764.47
868.59	7801.31
868.91	7726.96
869.23	7735.55
869.55	7738.93
869.87	7727.86
870.19	7735.32
870.51	7686.05
870.83	7686.05
871.15	7621.65
871.469	7671.14
871.789	7707.3
872.109	7677.24
872.428	7599.73
872.748	7651.25
873.067	7603.35
873.386	7557.02
873.706	7587.53
874.025	7539.62
874.344	7489.68
874.663	7564.7
874.982	7539.17
875.301	7535.78
875.62	7481.31
875.939	7432.73
876.258	7477.47
876.577	7373.52
876.896	7476.12
877.214	7320.41
877.533	7351.37
877.852	7394.09
878.17	7411.26
878.489	7429.56
878.807	7415.1
879.125	7345.5
879.444	7324.71
879.762	7348.21
880.08	7352.05
880.398	7284.71
880.716	7309.34
881.034	7309.34
881.352	7266.4
881.67	7234.09
881.988	7294.43
882.306	7228.44
882.624	7176.24
882.941	7110.25
883.259	7154.77
883.577	7173.98
883.894	7167.42
884.212	7145.05
884.529	7112.28
884.846	7088.56
885.164	7078.84
885.481	7065.28
885.798	7121.55
886.115	7063.25
886.432	6993.42
886.75	6997.03
887.067	7068.22
887.383	6974.21
887.7	6999.75
888.017	6923.14
888.334	6941.22
888.651	6872.52
888.967	6871.84
889.284	6885.85
889.6	6837.94
889.917	6824.16
890.233	6831.61
890.55	6809.92
890.866	6748.23
891.182	6764.95
891.498	6690.37
891.815	6677.27
892.131	6679.08
892.447	6713.2
892.763	6637.27
893.079	6644.73
893.395	6603.37
893.71	6611.73
894.026	6623.71
894.342	6630.26
894.657	6527.44
894.973	6565.41
895.289	6547.33
895.604	6525.86
895.92	6456.26
896.235	6417.84
896.55	6452.64
896.865	6431.4
897.181	6455.13
897.496	6385.52
897.811	6356.15
898.126	6345.07
898.441	6316.15
898.756	6303.72
899.071	6236.38
899.386	6248.35
899.7	6253.78
900.015	6189.82
900.33	6174
900.644	6178.3
900.959	6171.52
901.273	6098.75
901.588	6099.66
901.902	6107.11
902.216	6132.2
902.531	5999.32
902.845	6045.87
903.159	6002.94
903.473	5944.41
903.787	5905.08
904.101	5953.67
904.415	5901.7
904.729	5857.85
905.042	5859.21
905.356	5882.26
905.67	5865.76
905.984	5827.57
906.297	5815.14
906.611	5772.88
906.924	5770.85
907.237	5723.62
907.551	5716.62
907.864	5733.56
908.177	5653.57
908.491	5653.34
908.804	5601.14
909.117	5598.65
909.43	5563.85
909.743	5536.51
910.056	5561.59
910.368	5500.8
910.681	5476.85
910.994	5469.39
911.307	5479.11
911.619	5419.45
911.932	5456.74
912.244	5324.31
912.557	5381.48
912.869	5365.44
913.181	5306.46
913.494	5298.77
913.806	5262.62
914.118	5268.49
914.43	5249.06
914.742	5216.97
915.054	5209.06
915.366	5149.85
915.678	5177.87
915.99	5164.09
916.302	5107.37
916.613	5093.35
916.925	5080.25
917.236	5070.53
917.548	5044.09
917.859	5011.1
918.171	5005.67
918.482	5000.25
918.794	4951.89
919.105	4976.52
919.416	4928.39
919.727	4894.49
920.038	4927.71
920.349	4848.84
920.66	4879.35
920.971	4818.11
921.282	4772.01
921.593	4764.32
921.903	4796.64
922.214	4728.39
922.525	4760.48
922.835	4729.75
923.146	4680.71
923.456	4666.25
923.767	4646.59
924.077	4684.55
924.387	4606.14
924.697	4613.82
925.008	4547.61
925.318	4544.67
925.628	4566.36
925.938	4561.17
926.248	4491.34
926.558	4503.09
926.867	4465.57
927.177	4428.51
927.487	4435.97
927.796	4408.4
928.106	4429.42
928.416	4355.07
928.725	4361.4
929.034	4285.92
929.344	4353.26
929.653	4328.63
929.962	4274.17
930.271	4285.47
930.581	4240.5
930.89	4227.16
931.199	4193.04
931.508	4215.86
931.817	4176.32
932.125	4160.5
932.434	4159.14
932.743	4141.52
933.051	4103.55
933.36	4079.14
933.669	4046.83
933.977	4055.19
934.286	4049.54
934.594	4058.13
934.902	4039.82
935.21	4000.05
935.519	4003.21
935.827	3966.83
936.135	3945.36
936.443	3915.31
936.751	3902.88
937.059	3935.87
937.367	3900.62
937.674	3864.46
937.982	3881.86
938.29	3825.82
938.597	3862.88
938.905	3812.03
939.213	3784.24
939.52	3783.11
939.827	3780.39
940.135	3775.42
940.442	3684.35
940.749	3694.97
941.056	3718.7
941.363	3663.79
941.67	3673.28
941.977	3644.58
942.284	3600.74
942.591	3636.9
942.898	3638.03
943.205	3605.26
943.511	3583.11
943.818	3577.01
944.125	3558.71
944.431	3469.44
944.738	3533.4
945.044	3533.4
945.35	3500.85
945.657	3473.74
945.963	3480.74
946.269	3443.91
946.575	3454.98
946.881	3446.17
947.187	3425.38
947.493	3433.74
947.799	3374.3
948.105	3388.77
948.41	3348.77
948.716	3335.66
949.022	3334.98
949.327	3313.29
949.633	3317.81
949.938	3303.12
950.244	3280.52
950.549	3261.99
950.854	3233.52
951.16	3225.61
951.465	3196.23
951.77	3219.51
952.075	3224.25
952.38	3210.01
952.685	3155.55
952.99	3147.19
953.294	3154.2
953.599	3123.01
953.904	3079.4
954.209	3094.76
954.513	3085.27
954.818	3100.64
955.122	3046.4
955.426	3048.89
955.731	3024.26
956.035	3052.05
956.339	3030.36
956.643	3004.6
956.948	2986.52
957.252	2920.98
957.556	2962.79
957.86	2960.76
958.163	2951.72
958.467	2937.93
958.771	2886.41
959.075	2919.17
959.378	2908.78
959.682	2896.58
959.985	2883.47
960.289	2878.72
960.592	2838.5
960.896	2825.17
961.199	2826.07
961.502	2768.9
961.805	2793.3
962.108	2787.65
962.411	2740.42
962.714	2742.46
963.017	2729.12
963.32	2770.48
963.623	2716.92
963.926	2746.3
964.228	2692.74
964.531	2694.77
964.833	2694.77
965.136	2639.63
965.438	2691.84
965.741	2673.08
966.043	2664.27
966.345	2631.72
966.648	2647.77
966.95	2621.78
967.252	2618.62
967.554	2576.36
967.856	2573.87
968.158	2567.32
968.46	2563.03
968.761	2530.26
969.063	2503.59
969.365	2509.69
969.666	2519.19
969.968	2507.43
970.269	2446.42
970.571	2468.79
970.872	2480.99
971.174	2461.11
971.475	2447.55
971.776	2446.87
972.077	2408
972.378	2433.54
972.679	2418.85
972.98	2382.92
973.281	2400.54
973.582	2381.11
973.883	2350.38
974.183	2364.39
974.484	2362.58
974.785	2345.18
975.085	2329.81
975.386	2360.55
975.686	2290.26
975.986	2297.95
976.287	2320.32
976.587	2270.15
976.887	2292.52
977.187	2262.47
977.487	2278.74
977.787	2264.28
978.087	2230.15
978.387	2222.24
978.687	2252.07
978.987	2204.84
979.286	2211.17
979.586	2198.74
979.885	2179.08
980.185	2195.58
980.484	2194.9
980.784	2175.01
981.083	2128.01
981.382	2146.77
981.682	2150.83
981.981	2107.44
982.28	2119.65
982.579	2118.29
982.878	2090.95
983.177	2072.64
983.475	2072.42
983.774	2098.18
984.073	2076.94
984.372	2049.59
984.67	2047.33
984.969	2036.71
985.267	2028.58
985.566	1993.32
985.864	1975.47
986.162	2001.46
986.461	1982.93
986.759	1975.02
987.057	1983.61
987.355	1958.52
987.653	1965.08
987.951	1939.31
988.249	1930.73
988.547	1929.82
988.844	1925.53
989.142	1938.64
989.44	1919.43
989.737	1921.91
990.035	1930.73
990.332	1878.07
990.63	1889.6
990.927	1868.35
991.224	1873.33
991.521	1879.88
991.819	1812.31
992.116	1832.2
992.413	1814.57
992.71	1825.19
993.006	1790.84
993.303	1814.8
993.6	1825.42
993.897	1803.95
994.193	1822.93
994.49	1794.91
994.787	1735.48
995.083	1782.26
995.379	1783.39
995.676	1781.58
995.972	1751.52
996.268	1732.54
996.565	1719.66
996.861	1751.3
997.157	1676.27
997.453	1679.66
997.749	1697.51
998.044	1670.39
998.34	1683.27
998.636	1657.96
998.932	1652.32
999.227	1625.2
999.523	1616.61
999.818	1633.78
1000.114	1616.16
1000.409	1591.07
1000.704	1619.1
1001	1583.16
1001.295	1615.25
1001.59	1603.28
1001.885	1563.28
1002.18	1577.52
1002.475	1593.79
1002.77	1559.66
1003.065	1555.82
1003.359	1510.4
1003.654	1541.58
1003.949	1534.35
1004.243	1521.92
1004.538	1488.93
1004.832	1522.38
1005.127	1499.1
1005.421	1488.03
1005.715	1508.59
1006.009	1506.33
1006.304	1472.66
1006.598	1444.64
1006.892	1455.71
1007.186	1426.78
1007.48	1433.34
1007.773	1441.7
1008.067	1424.75
1008.361	1432.89
1008.655	1422.72
1008.948	1400.34
1009.242	1370.51
1009.535	1384.53
1009.829	1378.88
1010.122	1371.87
1010.415	1349.05
1010.708	1335.94
1011.001	1353.11
1011.295	1302.49
1011.588	1330.97
1011.881	1309.95
1012.173	1321.48
1012.466	1332.1
1012.759	1320.8
1013.052	1284.87
1013.344	1278.77
1013.637	1297.97
1013.93	1267.47
1014.222	1269.27
1014.514	1255.49
1014.807	1274.7
1015.099	1252.1
1015.391	1282.83
1015.683	1238.99
1015.976	1242.38
1016.268	1216.17
1016.56	1224.98
1016.851	1196.28
1017.143	1202.38
1017.435	1198.54
1017.727	1191.08
1018.018	1178.43
1018.31	1198.09
1018.602	1186.11
1018.893	1184.98
1019.185	1156.28
1019.476	1151.76
1019.767	1159.45
1020.058	1124.42
1020.35	1148.83
1020.641	1115.15
1020.932	1103.86
1021.223	1109.73
1021.514	1121.48
1021.804	1090.07
1022.095	1093.46
1022.386	1073.8
1022.677	1067.47
1022.967	1076.74
1023.258	1073.12
1023.548	1071.54
1023.839	1040.35
1024.129	1045.33
1024.419	1033.8
1024.709	1045.55
1025	1013.01
1025.29	1015.95
1025.58	996.51
1025.87	1009.39
1026.16	987.47
1026.449	989.73
1026.739	1004.65
1027.029	997.19
1027.319	955.84
1027.608	991.09
1027.898	946.57
1028.187	961.26
1028.477	960.58
1028.766	953.12
1029.055	939.34
1029.344	928.94
1029.634	922.84
1029.923	915.39
1030.212	920.13
1030.501	905.67
1030.79	918.32
1031.078	909.28
1031.367	926.46
1031.656	887.14
1031.945	856.4
1032.233	899.11
1032.522	875.16
1032.81	882.84
1033.099	874.93
1033.387	870.41
1033.675	876.52
1033.963	867.03
1034.251	843.97
1034.54	857.08
1034.828	837.87
1035.116	833.81
1035.403	831.55
1035.691	810.08
1035.979	814.15
1036.267	810.98
1036.554	827.03
1036.842	831.77
1037.129	799.91
1037.417	800.13
1037.704	787.48
1037.992	805.56
1038.279	771.66
1038.566	763.3
1038.853	763.3
1039.14	763.3
