Data from breadboard_white_FLMS001491_00055.txt Node
Date: Wed Feb 08 10:47:56 GMT 2017
User: dcchb
Spectrometer: FLMS00149
Trigger mode: 0
Integration Time (sec): 2.000000E-2
Scans to average: 10
Electric dark correction enabled: true
Nonlinearity correction enabled: false
Boxcar width: 0
XAxis mode: Wavelengths
Number of Pixels in Spectrum: 2048
>>>>>Begin Spectral Data<<<<<
341.393	-23.13
341.776	-23.13
342.16	-23.13
342.543	-49.57
342.927	-65.85
343.31	-84.15
343.693	-67.88
344.077	-66.52
344.46	-50.25
344.843	-40.99
345.226	-40.31
345.61	-10.93
345.993	-19.75
346.376	-2.8
346.759	-5.28
347.142	22.06
347.525	41.5
347.908	42.85
348.291	81.95
348.674	80.82
349.057	119.69
349.44	134.15
349.823	158.78
350.206	185
350.588	230.87
350.971	231.55
351.354	234.03
351.737	245.11
352.119	253.69
352.502	296.18
352.884	293.24
353.267	293.92
353.65	322.62
354.032	324.43
354.414	330.3
354.797	337.08
355.179	349.51
355.562	350.87
355.944	340.7
356.326	345.44
356.709	370.75
357.091	360.13
357.473	376.4
357.855	376.63
358.238	355.84
358.62	363.07
359.002	364.65
359.384	356.52
359.766	354.93
360.148	386.12
360.53	360.13
360.912	370.3
361.294	358.1
361.676	366.01
362.057	368.49
362.439	361.94
362.821	348.15
363.203	369.62
363.584	361.71
363.966	362.17
364.348	349.74
364.729	361.94
365.111	352.45
365.493	348.83
365.874	353.13
366.256	352.45
366.637	357.65
367.019	359.91
367.4	340.47
367.781	374.82
368.163	342.96
368.544	346.8
368.925	342.05
369.306	345.22
369.688	353.35
370.069	353.8
370.45	356.97
370.831	363.97
371.212	354.03
371.593	357.65
371.974	377.08
372.355	376.85
372.736	361.04
373.117	357.65
373.498	354.03
373.879	369.17
374.26	352.22
374.641	358.78
375.021	364.88
375.402	380.02
375.783	363.97
376.163	429.28
376.544	392
376.925	401.71
377.305	377.53
377.686	406.68
378.066	397.87
378.447	394.93
378.827	414.82
379.208	385.22
379.588	414.14
379.968	412.79
380.349	414.82
380.729	413.24
381.109	420.02
381.489	431.99
381.87	413.69
382.25	430.19
382.63	432.45
383.01	430.86
383.39	405.1
383.77	440.81
384.15	467.02
384.53	443.07
384.91	439
385.29	421.37
385.67	474.25
386.049	461.6
386.429	442.62
386.809	500.02
387.189	476.29
387.568	477.19
387.948	465.21
388.328	480.58
388.707	490.07
389.087	502.95
389.466	505.21
389.846	509.28
390.225	507.92
390.605	515.38
390.984	498.89
391.363	506.57
391.743	538.43
392.122	545.66
392.501	552.67
392.881	566.23
393.26	553.57
393.639	555.38
394.018	544.99
394.397	593.35
394.776	597.41
395.155	593.35
395.534	580.92
395.913	613.91
396.292	633.57
396.671	636.06
397.05	621.59
397.429	636.51
397.808	634.7
398.186	664.98
398.565	645.32
398.944	644.19
399.323	658.43
399.701	694.13
400.08	685.09
400.458	689.84
400.837	733.46
401.215	737.75
401.594	726.9
401.972	753.34
402.351	746.11
402.729	760.57
403.107	782.72
403.486	793.11
403.864	799.22
404.242	812.78
404.62	805.77
404.999	838.76
405.377	843.28
405.755	870.17
406.133	903.85
406.511	910.17
406.889	933.45
407.267	936.84
407.645	953.34
408.023	989.27
408.401	990.85
408.779	1022.94
409.156	1021.36
409.534	1051.41
409.912	1073.33
410.29	1114.91
410.667	1127.8
411.045	1127.34
411.422	1152.43
411.8	1174.12
412.178	1201.92
412.555	1229.49
412.933	1231.97
413.31	1263.84
413.687	1290.5
414.065	1286.44
414.442	1335.47
414.819	1344.96
415.197	1374.34
415.574	1394.68
415.951	1422.02
416.328	1447.33
416.705	1450.05
417.082	1447.11
417.46	1493.21
417.837	1493.21
418.214	1517.84
418.591	1551.96
418.967	1578.18
419.344	1619.99
419.721	1606.65
420.098	1630.83
420.475	1668.57
420.852	1666.09
421.228	1705.18
421.605	1694.33
421.982	1744.95
422.358	1732.07
422.735	1804.84
423.111	1791.28
423.488	1858.62
423.864	1851.62
424.241	1871.73
424.617	1910.6
424.994	1936.36
425.37	1927.77
425.746	1953.08
426.123	1961.67
426.499	1965.29
426.875	2021.56
427.251	2058.17
427.627	2110.59
428.003	2137.71
428.379	2164.15
428.756	2205.28
429.132	2205.28
429.507	2243.25
429.883	2273.3
430.259	2317.82
430.635	2344.03
431.011	2349.01
431.387	2424.03
431.763	2471.71
432.138	2479.62
432.514	2510.58
432.89	2532.28
433.265	2570.02
433.641	2657.92
434.016	2658.38
434.392	2707.19
434.767	2759.16
435.143	2755.32
435.518	2797.36
435.894	2832.16
436.269	2873.51
436.644	2883.68
437.02	2920.74
437.395	2946.5
437.77	3025.37
438.145	3049.55
438.52	3087.74
438.895	3120.74
439.271	3114.64
439.646	3207.97
440.021	3202.77
440.395	3228.3
440.77	3245.25
441.145	3279.83
441.52	3323.22
441.895	3356.66
442.27	3378.36
442.645	3401.63
443.019	3416.77
443.394	3446.38
443.769	3483.89
444.143	3458.13
444.518	3539.03
444.892	3518.92
445.267	3552.82
445.641	3590.56
446.016	3619.03
446.39	3636.43
446.764	3675.98
447.139	3667.16
447.513	3746.26
447.887	3721.4
448.262	3759.14
448.636	3785.35
449.01	3838.23
449.384	3868.51
449.758	3925.24
450.132	3966.14
450.506	3997.55
450.88	4035.29
451.254	4002.97
451.628	4066.47
452.002	4127.72
452.376	4166.36
452.75	4217.66
453.123	4238.67
453.497	4372.46
453.871	4356.86
454.244	4452.91
454.618	4502.4
454.992	4537.2
455.365	4541.94
455.739	4678.66
456.112	4706.91
456.486	4803.63
456.859	4834.36
457.232	4905.77
457.606	4908.26
457.979	4978.54
458.352	5063.74
458.725	5091.53
459.099	5147.12
459.472	5257.4
459.845	5371.3
460.218	5422.82
460.591	5421.47
460.964	5482.93
461.337	5625.76
461.71	5681.57
462.083	5766.09
462.456	5773.32
462.829	5801.12
463.201	5894.45
463.574	5954.11
463.947	6035.01
464.32	6202.46
464.692	6207.66
465.065	6291.95
465.438	6361.33
465.81	6501.67
466.183	6561.55
466.555	6730.81
466.928	6755.67
467.3	6768.1
467.672	6893.52
468.045	7083.12
468.417	7074.08
468.789	7125.6
469.161	7239.5
469.534	7343.45
469.906	7512.26
470.278	7541.64
470.65	7672.26
471.022	7886.49
471.394	8007.39
471.766	7990.21
472.138	8126.03
472.51	8282.86
472.882	8431.33
473.253	8555.4
473.625	8712.68
473.997	8823.86
474.369	8957.19
474.74	9034.93
475.112	9288.26
475.484	9393.11
475.855	9488.93
476.227	9634.69
476.598	9898.86
476.97	9957.85
477.341	10249.14
477.713	10339.53
478.084	10445.52
478.455	10711.27
478.827	10838.27
479.198	11098.38
479.569	11154.65
479.94	11464.25
480.311	11623.11
480.682	11868.3
481.053	12141.06
481.424	12317.78
481.795	12386.93
482.166	12555.29
482.537	12741.73
482.908	13114.6
483.279	13247.7
483.65	13395.95
484.021	13731.31
484.391	13846.56
484.762	14028.47
485.133	14182.37
485.503	14312.53
485.874	14676.59
486.244	14701.45
486.615	15042.91
486.985	15237.25
487.356	15620.07
487.726	15664.14
488.097	15986.39
488.467	16144.58
488.837	16517.9
489.207	16651.45
489.578	16846.48
489.948	16916.31
490.318	17233.59
490.688	17351.78
491.058	17664.08
491.428	17923.06
491.798	18078.31
492.168	18455.25
492.538	18469.49
492.908	18709.71
493.278	19062.92
493.648	18993.31
494.017	19350.37
494.387	19468.56
494.757	19644.14
495.126	19885.72
495.496	19901.99
495.866	20174.07
496.235	20207.52
496.605	20545.14
496.974	20695.42
497.344	20832.59
497.713	20889.31
498.082	21162.07
498.452	21442.52
498.821	21462.4
499.19	21586.01
499.559	21792.11
499.928	22037.08
500.298	21972.44
500.667	22304.87
501.036	22227.13
501.405	22603.39
501.774	22587.34
502.143	22956.37
502.512	22973.1
502.88	23258.96
503.249	23350.94
503.618	23385.52
503.987	23698.05
504.356	23628.22
504.724	23887.65
505.093	24008.55
505.462	24205.83
505.83	24271.14
506.199	24526.05
506.567	24890.33
506.936	24847.62
507.304	25127.84
507.672	25287.61
508.041	25354.05
508.409	25586.59
508.777	25843.08
509.145	26016.63
509.514	26080.59
509.882	26231.99
510.25	26380.01
510.618	26660.46
510.986	26717.86
511.354	27048.24
511.722	27159.2
512.09	27494.56
512.458	27376.6
512.826	27761.45
513.193	27904.72
513.561	28040.76
513.929	28243.01
514.297	28648.2
514.664	28790.34
515.032	28906.5
515.4	29207.96
515.767	29371.8
516.135	29627.84
516.502	29365.02
516.869	29949.41
517.237	29993.7
517.604	30126.58
517.972	30388.04
518.339	30610.18
518.706	30794.13
519.073	31040.91
519.44	31227.34
519.808	31520.67
520.175	31676.6
520.542	32052.18
520.909	32142.12
521.276	32247.88
521.643	32606.29
522.009	32733.74
522.376	33167.4
522.743	33259.38
523.11	33524.01
523.477	33874.5
523.843	34105.91
524.21	34489.4
524.577	34779.79
524.943	34885.78
525.31	35067.24
525.676	35484.18
526.043	35645.31
526.409	35722.82
526.776	36206.87
527.142	36312.41
527.508	36499.97
527.874	36833.07
528.241	37087.08
528.607	37155.55
528.973	37544.24
529.339	37611.13
529.705	38019.71
530.071	38293.6
530.437	38364.78
530.803	38585.57
531.169	38838.44
531.535	38841.15
531.901	38995.5
532.267	39177.64
532.632	39501.7
532.998	39557.07
533.364	39934.01
533.73	40180.78
534.095	40370.61
534.461	40510.26
534.826	40701.22
535.192	40790.26
535.557	41128.55
535.923	41082.45
536.288	41349.34
536.653	41490.12
537.019	41356.34
537.384	41673.17
537.749	41873.62
538.114	42038.58
538.479	42022.99
538.845	42308.86
539.21	42406.26
539.575	42515.41
539.94	42675.86
540.305	42982.51
540.67	42890.76
541.034	43068.84
541.399	43369.85
541.764	43307.48
542.129	43497.98
542.494	43585.66
542.858	43803.28
543.223	43696.17
543.587	44236.04
543.952	44145.42
544.316	44367.11
544.681	44380.22
545.045	44631.06
545.41	44686.42
545.774	44836.93
546.138	45000.54
546.503	45070.82
546.867	45156.24
547.231	45398.27
547.595	45620.64
547.959	45519.17
548.324	45698.15
548.688	45910.8
549.052	45936.11
549.416	46014.07
549.779	46100.4
550.143	46261.98
550.507	46676.43
550.871	46624.68
551.235	46712.59
551.599	46964.1
551.962	47105.57
552.326	47149.64
552.689	47351.89
553.053	47268.95
553.417	47493.58
553.78	47961.37
554.143	47785.55
554.507	47976.73
554.87	48137.63
555.234	48528.36
555.597	48347.34
555.96	48564.51
556.323	48746.43
556.686	48839.31
557.05	49151.84
557.413	49258.73
557.776	49408.56
558.139	49469.35
558.502	49704.15
558.865	49722.45
559.228	49954.76
559.59	50057.58
559.953	50109.33
560.316	50504.35
560.679	50489.89
561.041	50696.66
561.404	50912.47
561.767	51084.9
562.129	50976.2
562.492	51340.49
562.854	51346.81
563.217	51482.63
563.579	51551.55
563.941	51809.4
564.304	51926.91
564.666	52169.16
565.028	52160.13
565.39	52324.64
565.753	52500.46
566.115	52458.42
566.477	52746.78
566.839	52826.77
567.201	52987.9
567.563	53044.4
567.925	53195.35
568.287	53261.34
568.648	53281.45
569.01	53436.02
569.372	53676.7
569.734	53531.84
570.095	53854.09
570.457	53921.21
570.819	53958.04
571.18	54034.88
571.542	54201.43
571.903	54327.3
572.265	54337.02
572.626	54419.95
572.987	54432.83
573.349	54507.41
573.71	54603.68
574.071	54721.19
574.432	54744.24
574.794	55077.34
575.155	55011.12
575.516	54932.93
575.877	55097
576.238	55122.08
576.599	55227.16
576.96	55200.5
577.32	55306.94
577.681	55367.95
578.042	55478.23
578.403	55497.21
578.763	55423.09
579.124	55467.84
579.485	55633.71
579.845	55713.7
580.206	55585.57
580.566	55580.15
580.927	55666.93
581.287	55744.44
581.648	55643.88
582.008	55842.06
582.368	55729.98
582.728	55884.55
583.089	55716.19
583.449	55747.38
583.809	55819.24
584.169	55808.39
584.529	55797.77
584.889	55996.63
585.249	55834.38
585.609	55739.24
585.969	55963.87
586.329	55847.03
586.688	55912.57
587.048	55946.01
587.408	55917.54
587.768	55864.66
588.127	55873.02
588.487	55864.89
588.846	56019.46
589.206	55796.64
589.565	55883.19
589.925	56002.74
590.284	55880.93
590.643	55922.29
591.003	56013.58
591.362	56130.64
591.721	55999.12
592.08	56046.35
592.44	56077.31
592.799	56061.94
593.158	56040.25
593.517	56005.9
593.876	56117.08
594.235	55990.31
594.593	56126.12
594.952	56138.78
595.311	55996.63
595.67	56121.38
596.029	56209.28
596.387	56274.37
596.746	56318.21
597.104	56167.93
597.463	56167.7
597.822	56325.67
598.18	56174.03
598.538	56186.23
598.897	56364.53
599.255	56056.52
599.613	56553.46
599.972	56360.69
600.33	56372.67
600.688	56283.63
601.046	56425.78
601.404	56492.44
601.762	56433.23
602.12	56494.93
602.478	56584.64
602.836	56652.44
603.194	56472.55
603.552	56540.58
603.91	56421.03
604.268	56552.78
604.625	56466.91
604.983	56590.29
605.341	56551.2
605.698	56620.57
606.056	56705.09
606.413	56638.43
606.771	56730.18
607.128	56825.09
607.485	56696.96
607.843	56767.01
608.2	56873.22
608.557	56978.76
608.914	56816.95
609.272	56895.59
609.629	56961.58
609.986	57056.04
610.343	56994.12
610.7	57148.24
611.057	57120
611.414	57111.41
611.771	57100.33
612.127	57229.37
612.484	57177.62
612.841	57289.03
613.198	57206.32
613.554	57225.98
613.911	57405.41
614.267	57334.9
614.624	57296.26
614.98	57299.43
615.337	57441.79
615.693	57373.55
616.05	57409.25
616.406	57581.9
616.762	57469.82
617.118	57441.79
617.475	57475.01
617.831	57545.52
618.187	57654.9
618.543	57620.1
618.899	57765.85
619.255	57697.16
619.611	57645.86
619.967	57739.41
620.323	57794.78
620.678	57664.16
621.034	57612.41
621.39	57555.46
621.746	57577.38
622.101	57931.73
622.457	57622.58
622.812	57766.76
623.168	57769.92
623.523	57760.2
623.879	57827.55
624.234	57630.94
624.589	57775.12
624.945	57751.17
625.3	57728.34
625.655	57756.36
626.01	57720.21
626.365	57783.71
626.72	57710.26
627.075	57703.03
627.43	57776.02
627.785	57679.98
628.14	57638.17
628.495	57735.12
628.85	57726.31
629.205	57622.58
629.559	57717.72
629.914	57621.23
630.269	57598.17
630.623	57542.81
630.978	57512.98
631.332	57651.96
631.687	57604.95
632.041	57514.11
632.396	57570.83
632.75	57426.2
633.104	57458.52
633.459	57404.73
633.813	57332.87
634.167	57334.68
634.521	57294.68
634.875	57342.59
635.229	57311.4
635.583	57111.18
635.937	57215.36
636.291	57211.74
636.645	57104.63
636.999	57073.89
637.352	57192.31
637.706	57011.52
638.06	57155.02
638.413	56981.02
638.767	56953.67
639.121	57032.54
639.474	56836.16
639.828	56900.34
640.181	56931.98
640.534	56859.66
640.888	56747.35
641.241	56687.01
641.594	56718.65
641.947	56808.82
642.301	56655.83
642.654	56702.83
643.007	56631.87
643.36	56610.86
643.713	56569.95
644.066	56658.09
644.419	56536.51
644.771	56440.92
645.124	56109.17
645.477	56115.05
645.83	55860.82
646.182	55668.73
646.535	55616.08
646.888	55693.82
647.24	55417.44
647.593	55605.68
647.945	55592.35
648.298	55438.91
648.65	55404.79
649.002	55323.21
649.355	55481.39
649.707	55400.49
650.059	55525.69
650.411	55779.69
650.763	55854.04
651.115	56105.33
651.467	55986.69
651.819	55996.18
652.171	55834.61
652.523	55821.5
652.875	55839.12
653.227	55739.69
653.578	55951.21
653.93	55865.34
654.282	55685.68
654.633	55609.07
654.985	55691.56
655.337	55685.23
655.688	55685.91
656.039	55850.42
656.391	55537.21
656.742	55556.19
657.094	55618.79
657.445	55597.78
657.796	55640.03
658.147	55441.62
658.498	55483.88
658.849	55599.58
659.2	55475.07
659.551	55434.16
659.902	55555.97
660.253	55450.43
660.604	55567.49
660.955	55262.19
661.306	55472.35
661.656	55338.12
662.007	55406.59
662.358	55348.97
662.708	55297.22
663.059	55340.38
663.409	55203.44
663.76	55393.49
664.11	55308.52
664.461	55321.85
664.811	55244.79
665.161	55262.19
665.511	55192.36
665.862	55251.8
666.212	55273.49
666.562	55169.76
666.912	55150.56
667.262	55182.19
667.612	55157.11
667.962	55167.05
668.312	55108.97
668.662	55231.01
669.011	55133.15
669.361	55128.64
669.711	55168.86
670.06	55030.78
670.41	54986.72
670.76	54961.86
671.109	55086.83
671.459	55022.2
671.808	54873.73
672.157	55015.87
672.507	54857.68
672.856	54822.2
673.205	54849.32
673.554	54947.4
673.904	54744.24
674.253	54956.66
674.602	54868.53
674.951	54467.64
675.3	54311.71
675.649	54771.58
675.998	54740.17
676.346	54725.48
676.695	54746.05
677.044	54523
677.393	54572.72
677.741	54729.55
678.09	54479.84
678.438	54540.4
678.787	54564.36
679.135	54491.82
679.484	54337.02
679.832	54460.4
680.181	54284.14
680.529	54341.09
680.877	54156.01
681.225	54242.33
681.573	54335.89
681.922	54112.62
682.27	54178.6
682.618	54046.86
682.966	53939.29
683.314	54060.64
683.661	53994.88
684.009	53778.61
684.357	53767.32
684.705	53752.85
685.053	53748.56
685.4	53659.3
685.748	53558.51
686.095	53571.16
686.443	53408.91
686.79	53393.54
687.138	53440.32
687.485	53427.21
687.832	53284.16
688.18	53313.32
688.527	53125.07
688.874	53015.7
689.221	52965.98
689.568	52853.21
689.915	52871.75
690.262	52830.39
690.609	52782.48
690.956	52700.9
691.303	52621.81
691.65	52407.35
691.997	52337.97
692.344	52173.68
692.69	52258.2
693.037	52232.21
693.383	51967.81
693.73	52099.11
694.077	51829.96
694.423	51879.68
694.769	51688.73
695.116	51650.76
695.462	51631.55
695.808	51401.5
696.155	51585.68
696.501	51216.2
696.847	51201.51
697.193	50990.44
697.539	51171.68
697.885	50897.56
698.231	50796.55
698.577	50776.43
698.923	50798.81
699.269	50590.22
699.614	50424.8
699.96	50244.7
700.306	50333.06
700.651	50223.23
700.997	50061.65
701.342	50035.66
701.688	50047.41
702.033	49887.42
702.379	49835.89
702.724	49795.89
703.069	49807.42
703.415	49315.45
703.76	49513.19
704.105	49378.05
704.45	49255.34
704.795	49103.71
705.14	48916.82
705.485	48878.4
705.83	48873.21
706.175	48771.29
706.52	48623.95
706.865	48610.39
707.209	48465.53
707.554	48211.53
707.899	48357.06
708.243	48078.2
708.588	48155.94
708.932	47887.02
709.277	47856.28
709.621	47944.64
709.966	47513.69
710.31	47583.07
710.654	47253.81
710.998	47417.2
711.342	47403.64
711.687	47172.91
712.031	47110.09
712.375	46866.48
712.719	47023.09
713.063	47031.9
713.407	46880.49
713.75	46730.89
714.094	46695.64
714.438	46502.87
714.782	46543.55
715.125	46482.53
715.469	46452.25
715.812	46223.78
716.156	46141.07
716.499	46146.95
716.843	46155.54
717.186	45815.43
717.53	45978.82
717.873	45913.51
718.216	45843
718.559	45646.4
718.902	45481.21
719.246	45626.74
719.589	45292.51
719.932	45139.29
720.275	45275.79
720.617	45078.96
720.96	45015.23
721.303	45021.78
721.646	45060.88
721.989	44844.61
722.331	44919.19
722.674	44729.81
723.016	44732.3
723.359	44575.24
723.701	44524.62
724.044	44294.12
724.386	44224.74
724.729	44402.14
725.071	44240.11
725.413	44098.42
725.755	44066.55
726.097	43996.27
726.439	43717.41
726.782	43824.07
727.124	44066.55
727.465	43753.12
727.807	43574.14
728.149	43583.18
728.491	43474.25
728.833	43497.53
729.175	43255.28
729.516	43180.02
729.858	43217.31
730.199	43223.86
730.541	43134.37
730.882	43055.96
731.224	43192.45
731.565	42854.16
731.906	42825.68
732.248	42910.88
732.589	42771.9
732.93	42615.97
733.271	42549.08
733.612	42473.6
733.953	42540.27
734.294	42258.92
734.635	42215.08
734.976	42418.23
735.317	42205.81
735.658	42145.02
735.999	42138.92
736.339	42009.43
736.68	42032.93
737.021	41800.85
737.361	41728.54
737.702	41975.08
738.042	41792.26
738.383	41677.46
738.723	41844.46
739.063	41545.94
739.404	41514.08
739.744	41503.91
740.084	41229.11
740.424	41343.01
740.764	41141.21
741.104	41291.03
741.444	41081.55
741.784	40961.1
742.124	40985.5
742.464	40904.6
742.804	40951.83
743.143	40642.01
743.483	40703.48
743.823	40390.04
744.162	40343.26
744.502	40656.02
744.841	40423.94
745.181	40543.48
745.52	40198.18
745.86	40421
746.199	40211.29
746.538	40316.14
746.877	40180.78
747.216	40229.59
747.556	39966.32
747.895	40061.91
748.234	39751.86
748.573	39662.6
748.911	39642.04
749.25	39655.6
749.589	39317.75
749.928	39554.81
750.267	39397.98
750.605	39184.87
750.944	39147.36
751.283	39030.75
751.621	39146.91
751.96	38886.12
752.298	38880.7
752.636	38866.24
752.975	38576.08
753.313	38365.69
753.651	38604.55
753.989	38342.86
754.327	38333.6
754.666	38041.17
755.004	38336.08
755.342	38232.13
755.679	38175.63
756.017	37791.01
756.355	37983.1
756.693	37763.44
757.031	37811.35
757.368	37603.45
757.706	37559.15
758.044	37264.92
758.381	37449.1
758.719	37246.62
759.056	37267.64
759.394	37007.3
759.731	36817.03
760.068	36769.57
760.405	36728.44
760.743	36552.4
761.08	36698.61
761.417	36473.98
761.754	36297.72
762.091	36206.19
762.428	36144.5
762.765	35948.12
763.102	35991.96
763.438	35844.4
763.775	35647.34
764.112	35623.39
764.449	35644.63
764.785	35350.4
765.122	35078.31
765.458	35121.25
765.795	34952.44
766.131	34904.08
766.467	34872.67
766.804	34736.4
767.14	34507.71
767.476	34528.27
767.812	34333.48
768.148	34405.11
768.485	34097.55
768.821	33963.32
769.157	33870.44
769.492	33741.63
769.828	33653.72
770.164	33524.23
770.5	33288.08
770.836	33431.8
771.171	33205.6
771.507	33096.22
771.842	32794.53
772.178	32849.22
772.513	32766.51
772.849	32677.47
773.184	32560.64
773.519	32403.36
773.855	32371.04
774.19	32079.07
774.525	32079.52
774.86	31964.27
775.195	31909.36
775.53	31729.7
775.865	31623.94
776.2	31392.54
776.535	31315.25
776.87	31184.86
777.205	31091.98
777.539	30984.41
777.874	31067.35
778.209	30777.41
778.543	30749.39
778.878	30434.14
779.212	30493.12
779.547	30414.26
779.881	30340.59
780.215	30179.91
780.55	30239.35
780.884	29993.48
781.218	29915.96
781.552	29865.12
781.886	29813.14
782.22	29540.38
782.554	29537.9
782.888	29150.34
783.222	29099.72
783.556	28941.3
783.889	28955.99
784.223	28780.4
784.557	28750.35
784.89	28821.76
785.224	28509.45
785.557	28380.19
785.891	28389.68
786.224	28291.6
786.558	28228.78
786.891	27961.89
787.224	27784.04
787.557	27675.57
787.891	27675.12
788.224	27718.96
788.557	27558.96
788.89	27473.09
789.223	27460.89
789.556	27220.44
789.888	27169.82
790.221	27035.81
790.554	26805.54
790.887	26805.54
791.219	26838.53
791.552	26744.3
791.884	26544.08
792.217	26579.1
792.549	26308.15
792.882	26174.59
793.214	26042.62
793.546	26239.23
793.879	25989.29
794.211	25875.17
794.543	25932.79
794.875	25722.18
795.207	25738.67
795.539	25606.93
795.871	25655.29
796.203	25361.06
796.535	25225.01
796.867	25263.43
797.198	25123.32
797.53	25117.22
797.862	24943.89
798.193	24928.98
798.525	24729.43
798.856	24846.95
799.188	24609.66
799.519	24537.58
799.85	24374.87
800.182	24417.13
800.513	24259.62
800.844	24127.42
801.175	24198.6
801.506	24250.35
801.837	24024.59
802.168	23941.88
802.499	23977.14
802.83	23738.05
803.161	23667.54
803.491	23627.09
803.822	23642.23
804.153	23607.43
804.483	23428.9
804.814	23238.85
805.145	23266.65
805.475	23292.41
805.805	23272.98
806.136	23199.08
806.466	23124.96
806.796	23074.34
807.126	22822.14
807.457	22816.04
807.787	22719.32
808.117	22687
808.447	22649.94
808.777	22583.05
809.107	22540.11
809.436	22458.08
809.766	22326.33
810.096	22307.58
810.426	22281.36
810.755	22315.03
811.085	22227.58
811.414	22108.71
811.744	21919.56
812.073	21959.79
812.403	22014.7
812.732	21811.77
813.061	21775.39
813.39	21720.7
813.719	21671.44
814.049	21655.17
814.378	21458.33
814.707	21531.33
815.036	21377.21
815.365	21356.64
815.693	21167.49
816.022	21176.99
816.351	21152.81
816.68	21002.53
817.008	21098.12
817.337	20858.8
817.665	20880.27
817.994	20877.11
818.322	20905.58
818.651	20817.9
818.979	20679.6
819.307	20785.13
819.636	20636.66
819.964	20538.81
820.292	20577
820.62	20532.93
820.948	20519.38
821.276	20621.29
821.604	20554.63
821.932	20559.37
822.259	20562.99
822.587	20516.44
822.915	20558.02
823.243	20513.27
823.57	20410.68
823.898	20381.3
824.225	20294.3
824.553	20370.23
824.88	20420.4
825.207	20497.46
825.535	20387.85
825.862	20320.74
826.189	20298.59
826.516	20430.34
826.843	20394.41
827.17	20419.04
827.497	20404.12
827.824	20336.33
828.151	20453.16
828.478	20323.45
828.805	20426.04
829.131	20260.4
829.458	20327.97
829.785	20267.18
830.111	20247.97
830.438	20338.82
830.764	20327.97
831.09	20321.64
831.417	20201.19
831.743	20284.35
832.069	20327.29
832.395	20255.43
832.722	20214.52
833.048	20144.24
833.374	20160.74
833.7	20079.84
834.026	20059.95
834.351	20108.54
834.677	20038.26
835.003	20032.61
835.329	20013.17
835.654	19950.35
835.98	19846.85
836.306	19921.43
836.631	19751.26
836.956	19981.99
837.282	19920.07
837.607	19752.16
837.932	19748.77
838.258	19706.06
838.583	19785.38
838.908	19625.84
839.233	19619.51
839.558	19535.67
839.883	19508.33
840.208	19461.55
840.533	19471.27
840.858	19485.96
841.182	19504.26
841.507	19422
841.832	19327.32
842.156	19318.05
842.481	19211.16
842.805	19217.26
843.13	19186.3
843.454	19111.28
843.778	18999.87
844.103	19008.23
844.427	18946.76
844.751	18932.3
845.075	18876.26
845.399	18759.87
845.723	18713.77
846.047	18690.05
846.371	18660.89
846.695	18562.82
847.019	18299.55
847.343	18303.39
847.666	18274.01
847.99	18159.21
848.313	18179.55
848.637	18107.46
848.96	18025.2
849.284	17947.01
849.607	17899.33
849.931	17782.72
850.254	17635.84
850.577	17599
850.9	17413.69
851.223	17481.04
851.546	17394.71
851.869	17290.99
852.192	17359.91
852.515	17174.83
852.838	17126.47
853.161	17126.7
853.483	17001.5
853.806	16847.83
854.129	16882.64
854.451	16800.38
854.774	16790.43
855.096	16818.68
855.419	16677.89
855.741	16578.69
856.063	16503.66
856.385	16502.31
856.708	16415.53
857.03	16309.77
857.352	16361.74
857.674	16294.85
857.996	16166.95
858.318	16092.37
858.64	16095.31
858.961	16140.28
859.283	16046.05
859.605	15981.64
859.926	16084.01
860.248	15932.6
860.57	15928.76
860.891	15852.38
861.212	15788.43
861.534	15790.69
861.855	15673.63
862.176	15682.89
862.498	15646.96
862.819	15657.58
863.14	15561.09
863.461	15531.03
863.782	15366.29
864.103	15623.91
864.424	15405.16
864.745	15402.9
865.065	15296.24
865.386	15268.21
865.707	15254.43
866.027	15347.31
866.348	15118.84
866.668	15329
866.989	15226.41
867.309	15086.07
867.63	15146.64
867.95	15138.27
868.27	15049.46
868.59	15060.54
868.91	14966.53
869.23	14952.06
869.55	14963.14
869.87	14995
870.19	14961.1
870.51	14908.68
870.83	14973.31
871.15	14875.46
871.469	14876.59
871.789	14901.67
872.109	14776.02
872.428	14697.38
872.748	14640.66
873.067	14705.97
873.386	14591.4
873.706	14699.64
874.025	14543.04
874.344	14486.09
874.663	14580.55
874.982	14496.71
875.301	14518.4
875.62	14426.88
875.939	14396.82
876.258	14490.61
876.577	14364.96
876.896	14300.56
877.214	14329.03
877.533	14354.11
877.852	14308.24
878.17	14246.55
878.489	14270.27
878.807	14251.07
879.125	14159.09
879.444	14243.83
879.762	14074.8
880.08	14112.99
880.398	14028.25
880.716	14096.49
881.034	13973.11
881.352	14037.96
881.67	13960.9
881.988	13974.92
882.306	14021.92
882.624	13905.54
882.941	13882.04
883.259	13778.76
883.577	13787.12
883.894	13768.59
884.212	13749.84
884.529	13760.01
884.846	13658.77
885.164	13654.92
885.481	13629.61
885.798	13669.39
886.115	13434.36
886.432	13617.41
886.75	13460.8
887.067	13543.51
887.383	13426.45
887.7	13522.27
888.017	13384.65
888.334	13355.27
888.651	13294.48
888.967	13313.92
889.284	13285.22
889.6	13185.33
889.917	13073.24
890.233	13174.71
890.55	13095.62
890.866	13089.74
891.182	13040.02
891.498	12923.42
891.815	12869.63
892.131	12843.42
892.447	12870.31
892.763	12796.64
893.079	12765.23
893.395	12788.73
893.71	12684.1
894.026	12632.13
894.342	12632.58
894.657	12488.63
894.973	12495.18
895.289	12565.69
895.604	12489.08
895.92	12437.33
896.235	12341.29
896.55	12317.11
896.865	12295.86
897.181	12231.68
897.496	12229.42
897.811	12186.49
898.126	12079.15
898.441	12038.92
898.756	11963.44
899.071	11877.12
899.386	11944.69
899.7	11898.59
900.015	11800.28
900.33	11730.45
900.644	11733.84
900.959	11754.86
901.273	11640.51
901.588	11672.15
901.902	11513.28
902.216	11507.41
902.531	11520.97
902.845	11464.92
903.159	11324.59
903.473	11344.02
903.787	11316.23
904.101	11290.24
904.415	11271.03
904.729	11228.09
905.042	11100.41
905.356	11143.8
905.67	11093.63
905.984	11121.43
906.297	10996.46
906.611	10929.57
906.924	10941.55
907.237	10876.47
907.551	10765.06
907.864	10726.64
908.177	10723.25
908.491	10709.46
908.804	10663.36
909.117	10619.52
909.43	10596.92
909.743	10504.95
910.056	10459.98
910.368	10358.29
910.681	10397.38
910.994	10296.14
911.307	10273.32
911.619	10242.36
911.932	10236.03
912.244	10138.18
912.557	10128.24
912.869	9997.17
913.181	10014.12
913.494	10047.11
913.806	9949.48
914.118	9920.78
914.43	9836.94
914.742	9820.9
915.054	9775.03
915.366	9689.15
915.678	9701.81
915.99	9627.91
916.302	9545.43
916.613	9549.27
916.925	9559.44
917.236	9580.23
917.548	9447.35
917.859	9434.47
918.171	9379.56
918.482	9332.55
918.794	9245.77
919.105	9300.91
919.416	9216.62
919.727	9243.74
920.038	9202.61
920.349	9119.45
920.66	9051.2
920.971	9015.05
921.282	8957.42
921.593	8895.73
921.903	8839.68
922.214	8828.16
922.525	8842.39
922.835	8799.46
923.146	8705.68
923.456	8734.83
923.767	8649.86
924.077	8684.88
924.387	8616.41
924.697	8601.95
925.008	8523.08
925.318	8476.53
925.628	8465
925.938	8393.82
926.248	8374.16
926.558	8333.93
926.867	8295.06
927.177	8261.39
927.487	8248.74
927.796	8143.88
928.106	8180.72
928.416	8116.31
928.725	8075.64
929.034	8067.5
929.344	8076.99
929.653	8023.21
929.962	7949.99
930.271	7975.3
930.581	7860.5
930.89	7822.53
931.199	7812.14
931.508	7812.59
931.817	7800.39
932.125	7722.88
932.434	7705.48
932.743	7648.08
933.051	7647.85
933.36	7610.56
933.669	7542.99
933.977	7551.58
934.286	7543.45
934.594	7439.49
934.902	7400.17
935.21	7357.46
935.519	7347.52
935.827	7368.08
936.135	7321.3
936.443	7245.37
936.751	7162.21
937.059	7185.72
937.367	7132.38
937.674	7147.3
937.982	7092.61
938.29	7112.5
938.597	7119.73
938.905	6989.34
939.213	6947.08
939.52	6937.59
939.827	6918.6
940.135	6926.74
940.442	6826.18
940.749	6848.55
941.056	6808.1
941.363	6762.22
941.67	6770.36
941.977	6663.92
942.284	6631.83
942.591	6681.32
942.898	6643.36
943.205	6562.91
943.511	6580.31
943.818	6552.06
944.125	6466.64
944.431	6532.62
944.738	6451.72
945.044	6432.29
945.35	6376.7
945.657	6396.81
945.963	6312.52
946.269	6269.58
946.575	6254.89
946.881	6191.84
947.187	6229.13
947.493	6226.19
947.799	6148.23
948.105	6091.73
948.41	6097.38
948.716	6082.02
949.022	6005.41
949.327	6089.25
949.633	5990.94
949.938	5948.46
950.244	5905.52
950.549	5911.62
950.854	5893.09
951.16	5880.21
951.465	5832.98
951.77	5806.32
952.075	5758.41
952.38	5790.27
952.685	5782.81
952.99	5633.21
953.294	5671.63
953.599	5682.93
953.904	5637.06
954.209	5554.8
954.513	5569.26
954.818	5550.5
955.122	5517.06
955.426	5450.39
955.731	5474.57
956.035	5437.96
956.339	5406.55
956.643	5400.9
956.948	5324.75
957.252	5361.36
957.556	5363.16
957.86	5238.2
958.163	5325.42
958.467	5246.33
958.771	5289.49
959.075	5227.12
959.378	5179.89
959.682	5172.66
959.985	5194.13
960.289	5147.8
960.592	5090.63
960.896	5082.95
961.199	5089.72
961.502	5045.43
961.805	5046.79
962.108	4961.59
962.411	4945.32
962.714	4937.64
963.017	4911.42
963.32	4956.17
963.623	4869.17
963.926	4938.09
964.228	4836.62
964.531	4819
964.833	4852.89
965.136	4766.57
965.438	4763.41
965.741	4729.06
966.043	4682.28
966.345	4664.88
966.648	4677.76
966.95	4703.07
967.252	4623.3
967.554	4578.33
967.856	4587.14
968.158	4561.6
968.46	4544.43
968.761	4532.9
969.063	4544.2
969.365	4481.83
969.666	4499.23
969.968	4413.36
970.269	4428.5
970.571	4423.75
970.872	4340.37
971.174	4368.61
971.475	4335.85
971.776	4285.45
972.077	4333.36
972.378	4301.27
972.679	4274.83
972.98	4278.22
973.281	4212.01
973.582	4270.54
973.883	4210.88
974.183	4166.13
974.484	4149.64
974.785	4113.93
975.085	4120.94
975.386	4141.73
975.686	4094.04
975.986	4061.05
976.287	4047.04
976.587	4028.06
976.887	4027.83
977.187	4002.97
977.487	3962.97
977.787	3954.84
978.087	3939.92
978.387	3933.6
978.687	3897.21
978.987	3878.46
979.286	3864.45
979.586	3840.27
979.885	3802.53
980.185	3783.54
980.484	3806.82
980.784	3784
981.083	3741.51
981.382	3733.38
981.682	3725.02
981.981	3731.12
982.28	3741.74
982.579	3685.47
982.878	3675.52
983.177	3630.1
983.475	3642.08
983.774	3591.91
984.073	3587.62
984.372	3602.31
984.67	3580.16
984.969	3535.19
985.267	3536.77
985.566	3491.8
985.864	3490.44
986.162	3475.53
986.461	3464.68
986.759	3423.55
987.057	3392.37
987.355	3404.57
987.653	3419.94
987.951	3407.96
988.249	3381.3
988.547	3320.51
988.844	3347.4
989.142	3332.93
989.44	3259.04
989.737	3300.17
990.035	3281.64
990.332	3270.34
990.63	3292.03
990.927	3230.11
991.224	3204.35
991.521	3189.44
991.819	3193.96
992.116	3163.45
992.413	3169.1
992.71	3133.62
993.006	3123.45
993.303	3102.21
993.6	3118.93
993.897	3075.99
994.193	3070.57
994.49	3065.37
994.787	3021.53
995.083	3017.69
995.379	2991.93
995.676	3016.79
995.972	3005.49
996.268	2941.53
996.565	2952.38
996.861	2906.96
997.157	2919.16
997.453	2904.7
997.749	2907.41
998.044	2834.64
998.34	2857.24
998.636	2823.57
998.932	2863.12
999.227	2835.32
999.523	2768.43
999.818	2768.66
1000.114	2763.01
1000.409	2757.81
1000.704	2698.6
1001	2693.86
1001.295	2693.4
1001.59	2686.4
1001.885	2667.64
1002.18	2674.87
1002.475	2629.45
1002.77	2636.91
1003.065	2595.78
1003.359	2550.81
1003.654	2568.21
1003.949	2543.8
1004.243	2538.61
1004.538	2486.63
1004.832	2517.36
1005.127	2500.41
1005.421	2518.72
1005.715	2443.47
1006.009	2459.06
1006.304	2450.02
1006.598	2444.14
1006.892	2424.03
1007.186	2375.9
1007.48	2363.69
1007.773	2368.89
1008.067	2348.33
1008.361	2346.52
1008.655	2298.16
1008.948	2296.35
1009.242	2326.63
1009.535	2268.78
1009.829	2249.35
1010.122	2278.73
1010.415	2248.9
1010.708	2257.93
1011.001	2245.96
1011.295	2192.63
1011.588	2183.59
1011.881	2180.65
1012.173	2188.11
1012.466	2157.37
1012.759	2157.6
1013.052	2139.29
1013.344	2127.09
1013.637	2089.35
1013.93	2066.3
1014.222	2048.22
1014.514	2073.08
1014.807	2009.35
1015.099	2023.59
1015.391	1981.78
1015.683	1993.54
1015.976	1963.71
1016.268	1966.42
1016.56	1965.06
1016.851	1985.85
1017.143	1952.41
1017.435	1956.25
1017.727	1925.97
1018.018	1900.2
1018.31	1906.98
1018.602	1892.29
1018.893	1874.67
1019.185	1833.54
1019.476	1829.47
1019.767	1862.47
1020.058	1843.03
1020.35	1814.33
1020.641	1802.13
1020.932	1769.81
1021.223	1774.33
1021.514	1765.97
1021.804	1762.13
1022.095	1745.41
1022.386	1716.25
1022.677	1681.23
1022.967	1716.48
1023.258	1694.79
1023.548	1697.95
1023.839	1659.31
1024.129	1631.28
1024.419	1648.46
1024.709	1605.75
1025	1611.4
1025.29	1580.66
1025.58	1624.96
1025.87	1601.23
1026.16	1607.56
1026.449	1547.9
1026.739	1562.13
1027.029	1551.29
1027.319	1554.68
1027.608	1525.98
1027.898	1492.31
1028.187	1477.84
1028.477	1484.62
1028.766	1490.95
1029.055	1462.48
1029.344	1449.82
1029.634	1450.05
1029.923	1459.31
1030.212	1422.48
1030.501	1413.89
1030.79	1409.82
1031.078	1388.13
1031.367	1415.02
1031.656	1363.95
1031.945	1363.72
1032.233	1368.24
1032.522	1352.42
1032.81	1302.25
1033.099	1321.24
1033.387	1327.11
1033.675	1308.36
1033.963	1310.16
1034.251	1298.19
1034.54	1301.12
1034.828	1290.05
1035.116	1277.17
1035.403	1283.05
1035.691	1267.68
1035.979	1222.71
1036.267	1242.82
1036.554	1223.61
1036.842	1236.04
1037.129	1198.3
1037.417	1217.51
1037.704	1184.29
1037.992	1182.03
1038.279	1192.65
1038.566	1178.42
1038.853	1178.42
1039.14	1178.42
