Data from breadboard_black_back_FLMS001491_00036.txt Node
Date: Wed Feb 08 10:50:18 GMT 2017
User: dcchb
Spectrometer: FLMS00149
Trigger mode: 0
Integration Time (sec): 2.000000E-2
Scans to average: 10
Electric dark correction enabled: true
Nonlinearity correction enabled: false
Boxcar width: 0
XAxis mode: Wavelengths
Number of Pixels in Spectrum: 2048
>>>>>Begin Spectral Data<<<<<
341.393	-21.24
341.776	-21.24
342.16	-21.24
342.543	-51.3
342.927	-74.12
343.31	-55.37
343.693	-64.41
344.077	-64.86
344.46	-38.42
344.843	-48.36
345.226	-39.1
345.61	-33.45
345.993	-9.72
346.376	-20.79
346.759	12.88
347.142	32.54
347.525	30.28
347.908	54.24
348.291	59.89
348.674	76.16
349.057	108.47
349.44	128.81
349.823	147.34
350.206	153.67
350.588	187.57
350.971	198.86
351.354	202.71
351.737	243.61
352.119	244.74
352.502	283.83
352.884	274.8
353.267	278.41
353.65	296.26
354.032	308.47
354.414	310.05
354.797	314.57
355.179	326.32
355.562	336.26
355.944	355.47
356.326	342.14
356.709	336.71
357.091	328.58
357.473	338.3
357.855	335.81
358.238	339.88
358.62	354.11
359.002	349.14
359.384	326.09
359.766	342.14
360.148	358.18
360.53	345.3
360.912	356.6
361.294	371.29
361.676	339.88
362.057	334.45
362.439	357.05
362.821	308.47
363.203	327.68
363.584	333.55
363.966	336.04
364.348	353.89
364.729	344.62
365.111	324.29
365.493	351.63
365.874	326.32
366.256	328.35
366.637	354.11
367.019	341.01
367.4	341.23
367.781	334.91
368.163	336.71
368.544	314.79
368.925	341.23
369.306	327.9
369.688	331.97
370.069	320.22
370.45	337.84
370.831	347.11
371.212	351.63
371.593	356.83
371.974	342.36
372.355	333.32
372.736	349.14
373.117	334
373.498	366.32
373.879	333.32
374.26	350.73
374.641	326.55
375.021	357.5
375.402	364.74
375.783	348.47
376.163	389.14
376.544	380.55
376.925	375.13
377.305	370.39
377.686	372.42
378.066	371.74
378.447	370.16
378.827	367.67
379.208	379.65
379.588	376.04
379.968	397.05
380.349	395.02
380.729	397.28
381.109	412.42
381.489	408.12
381.87	400.67
382.25	389.37
382.63	408.35
383.01	397.5
383.39	420.33
383.77	397.05
384.15	401.8
384.53	421.91
384.91	427.33
385.29	440.89
385.67	422.59
386.049	431.85
386.429	453.77
386.809	431.63
387.189	418.52
387.568	443.38
387.948	437.73
388.328	453.1
388.707	439.08
389.087	444.06
389.466	452.19
389.846	473.89
390.225	451.97
390.605	467.11
390.984	485.41
391.363	476.6
391.743	467.33
392.122	478.41
392.501	505.3
392.881	506.2
393.26	476.6
393.639	500.78
394.018	505.3
394.397	503.26
394.776	515.24
395.155	514.56
395.534	506.65
395.913	510.5
396.292	512.08
396.671	528.35
397.05	531.51
397.429	554.79
397.808	548.91
398.186	549.82
398.565	564.96
398.944	571.96
399.323	562.25
399.701	561.34
400.08	561.79
400.458	587.56
400.837	587.56
401.215	566.99
401.594	576.93
401.972	565.18
402.351	559.76
402.729	602.7
403.107	610.38
403.486	609.7
403.864	602.47
404.242	629.14
404.62	608.8
404.999	637.95
405.377	635.01
405.755	649.93
406.133	644.05
406.511	649.93
406.889	667.55
407.267	666.88
407.645	676.59
408.023	681.34
408.401	686.54
408.779	710.72
409.156	709.36
409.534	725.86
409.912	750.71
410.29	736.25
410.667	749.13
411.045	748.23
411.422	763.14
411.8	754.33
412.178	804.05
412.555	773.31
412.933	788.91
413.31	795.46
413.687	795.23
414.065	806.98
414.442	813.54
414.819	823.71
415.197	845.85
415.574	839.75
415.951	846.31
416.328	870.94
416.705	893.54
417.082	890.82
417.46	909.58
417.837	914.55
418.214	897.6
418.591	895.34
418.967	905.29
419.344	925.17
419.721	927.43
420.098	935.57
420.475	952.74
420.852	946.87
421.228	992.52
421.605	954.78
421.982	981.22
422.358	1004.04
422.735	974.21
423.111	1006.3
423.488	1022.57
423.864	1035.23
424.241	1064.15
424.617	1062.57
424.994	1071.38
425.37	1086.53
425.746	1092.4
426.123	1073.87
426.499	1064.15
426.875	1137.6
427.251	1127.2
427.627	1146.86
428.003	1169.91
428.379	1171.72
428.756	1183.02
429.132	1217.82
429.507	1227.31
429.883	1233.41
430.259	1241.78
430.635	1289.91
431.011	1261.66
431.387	1299.85
431.763	1301.43
432.138	1300.98
432.514	1346.18
432.89	1368.1
433.265	1380.53
433.641	1411.04
434.016	1433.86
434.392	1413.3
434.767	1447.65
435.143	1419.4
435.518	1468.21
435.894	1494.42
436.269	1511.37
436.644	1515.89
437.02	1530.13
437.395	1551.37
437.77	1570.35
438.145	1575.55
438.52	1605.61
438.895	1603.12
439.271	1607.64
439.646	1648.32
440.021	1652.84
440.395	1696.45
440.77	1651.03
441.145	1670.01
441.52	1686.51
441.895	1688.09
442.27	1743.68
442.645	1722.44
443.019	1756.11
443.394	1777.81
443.769	1797.01
444.143	1760.41
444.518	1823.23
444.892	1787.52
445.267	1783.68
445.641	1836.79
446.016	1848.54
446.39	1858.48
446.764	1854.19
447.139	1841.31
447.513	1904.36
447.887	1901.42
448.262	1878.14
448.636	1942.1
449.01	1970.34
449.384	1966.28
449.758	2015.09
450.132	2033.17
450.506	2020.06
450.88	2003.11
451.254	2026.61
451.628	2047.4
452.002	2097.35
452.376	2105.71
452.75	2156.33
453.123	2152.94
453.497	2200.17
453.871	2196.33
454.244	2208.98
454.618	2211.47
454.992	2278.81
455.365	2279.49
455.739	2336.66
456.112	2354.29
456.486	2383.21
456.859	2413.95
457.232	2451.46
457.606	2467.96
457.979	2486.71
458.352	2561.51
458.725	2566.94
459.099	2595.64
459.472	2658.91
459.845	2632.7
460.218	2713.15
460.591	2717.44
460.964	2749.98
461.337	2748.18
461.71	2825.91
462.083	2859.59
462.456	2846.25
462.829	2903.65
463.201	2939.58
463.574	2961.05
463.947	2966.93
464.32	3088.05
464.692	3062.52
465.065	3100.71
465.438	3150.43
465.81	3206.24
466.183	3245.34
466.555	3305.68
466.928	3332.57
467.3	3319.01
467.672	3345
468.045	3449.4
468.417	3488.04
468.789	3495.05
469.161	3559.23
469.534	3617.08
469.906	3679.68
470.278	3700.24
470.65	3738.43
471.022	3815.27
471.394	3892.1
471.766	3903.85
472.138	3943.63
472.51	4016.62
472.882	4077.18
473.253	4152.43
473.625	4186.78
473.997	4275.37
474.369	4374.35
474.74	4396.27
475.112	4444.63
475.484	4557.39
475.855	4612.53
476.227	4688.69
476.598	4753.55
476.97	4833.09
477.341	4888.69
477.713	5005.97
478.084	5007.78
478.455	5168
478.827	5193.54
479.198	5317.6
479.569	5341.33
479.94	5513.75
480.311	5563.47
480.682	5682.11
481.053	5817.25
481.424	5858.15
481.795	5947.87
482.166	6015.66
482.537	6120.74
482.908	6271.47
483.279	6322.55
483.65	6400.51
484.021	6580.62
484.391	6632.82
484.762	6678.92
485.133	6745.36
485.503	6871.23
485.874	7029.87
486.244	7049.31
486.615	7147.61
486.985	7256.98
487.356	7400.94
487.726	7470.54
488.097	7628.27
488.467	7619.91
488.837	7843.18
489.207	7916.18
489.578	7998.21
489.948	8119.33
490.318	8193.91
490.688	8269.39
491.058	8338.09
491.428	8507.12
491.798	8580.79
492.168	8819.88
492.538	8744.18
492.908	8894
493.278	8997.73
493.648	9014.45
494.017	9148.69
494.387	9279.76
494.757	9327.66
495.126	9385.06
495.496	9444.05
495.866	9583.02
496.235	9656.24
496.605	9711.38
496.974	9821.66
497.344	9878.84
497.713	9999.51
498.082	10053.75
498.452	10145.27
498.821	10213.74
499.19	10164.93
499.559	10271.59
499.928	10465.49
500.298	10508.42
500.667	10626.16
501.036	10539.16
501.405	10724.24
501.774	10753.84
502.143	10840.84
502.512	10948.19
502.88	11031.8
503.249	11100.5
503.618	11121.97
503.987	11152.48
504.356	11229.76
504.724	11323.09
505.093	11415.52
505.462	11497.55
505.83	11539.58
506.199	11676.08
506.567	11781.39
506.936	11775.74
507.304	11930.31
507.672	11989.29
508.041	12031.55
508.409	12169.85
508.777	12290.75
509.145	12421.14
509.514	12357.64
509.882	12460.69
510.25	12590.86
510.618	12632.89
510.986	12731.19
511.354	12839.44
511.722	12883.28
512.09	12979.32
512.458	13019.54
512.826	13170.05
513.193	13273.1
513.561	13305.41
513.929	13484.17
514.297	13616.82
514.664	13679.41
515.032	13756.02
515.4	13828.79
515.767	13920.31
516.135	13998.5
516.502	13977.71
516.869	14270.13
517.237	14328.44
517.604	14322.79
517.972	14447.3
518.339	14571.82
518.706	14610.46
519.073	14764.81
519.44	14840.51
519.808	15030.34
520.175	15011.81
520.542	15170.22
520.909	15253.38
521.276	15345.36
521.643	15519.14
522.009	15585.8
522.376	15793.48
522.743	15903.76
523.11	16075.06
523.477	16114.15
523.843	16270.98
524.21	16453.35
524.577	16470.53
524.943	16552.11
525.31	16741.93
525.676	16911.19
526.043	17048.37
526.409	17115.48
526.776	17304.4
527.142	17368.58
527.508	17504.17
527.874	17605.64
528.241	17724.28
528.607	17816.93
528.973	18001.33
529.339	18008.79
529.705	18136.25
530.071	18388.67
530.437	18319.52
530.803	18563.35
531.169	18653.97
531.535	18565.39
531.901	18832.95
532.267	18849.45
532.632	18916.11
532.998	19047.86
533.364	19152.49
533.73	19169.89
534.095	19388.64
534.461	19401.98
534.826	19487.62
535.192	19655.98
535.557	19755.19
535.923	19694.4
536.288	19834.28
536.653	19893.49
537.019	20061.85
537.384	20020.72
537.749	20127.83
538.114	20193.14
538.479	20293.25
538.845	20350.88
539.21	20355.4
539.575	20572.34
539.94	20601.04
540.305	20754.26
540.67	20692.56
541.034	20808.49
541.399	20962.61
541.764	20932.33
542.129	21145.88
542.494	21054.59
542.858	21269.72
543.223	21229.72
543.587	21405.99
543.952	21354.92
544.316	21529.83
544.681	21491.19
545.045	21562.14
545.41	21782.93
545.774	21806.43
546.138	21896.37
546.503	21888.01
546.867	21824.06
547.231	21995.58
547.595	22094.79
547.959	22254.33
548.324	22218.62
548.688	22401.44
549.052	22512.18
549.416	22483.25
549.779	22512.85
550.143	22490.71
550.507	22701.32
550.871	22834.65
551.235	22760.53
551.599	23060.64
551.962	23113.97
552.326	23079.39
552.689	23317.35
553.053	23238.26
553.417	23331.59
553.78	23536.1
554.143	23456.56
554.507	23720.96
554.87	23720.28
555.234	23907.17
555.597	23882.76
555.96	23888.41
556.323	24158.01
556.686	24156.2
557.05	24354.16
557.413	24360.04
557.776	24514.16
558.139	24653.82
558.502	24629.41
558.865	24696.98
559.228	24973.13
559.59	25040.02
559.953	25067.59
560.316	25339.9
560.679	25284.98
561.041	25492.89
561.404	25656.5
561.767	25618.99
562.129	25744.18
562.492	26009.26
562.854	26051.29
563.217	26074.57
563.579	26115.7
563.941	26246.32
564.304	26364.73
564.666	26581.22
565.028	26630.26
565.39	26693.76
565.753	27013.75
566.115	26901.67
566.477	27185.5
566.839	27290.13
567.201	27423.01
567.563	27476.79
567.925	27543.46
568.287	27582.55
568.648	27664.13
569.01	27804.24
569.372	27971.24
569.734	27846.73
570.095	28201.52
570.457	28218.02
570.819	28246.49
571.18	28255.75
571.542	28519.02
571.903	28519.02
572.265	28685.12
572.626	28693.71
572.987	28756.31
573.349	28803.54
573.71	28887.15
574.071	29058.22
574.432	29055.28
574.794	29395.84
575.155	29270.19
575.516	29302.28
575.877	29493.91
576.238	29448.49
576.599	29629.05
576.96	29584.98
577.32	29528.94
577.681	29641.93
578.042	29805.54
578.403	29813.23
578.763	29814.81
579.124	29928.48
579.485	29993.56
579.845	30005.31
580.206	29978.65
580.566	29991.53
580.927	30027.01
581.287	30186.1
581.648	30051.41
582.008	30242.59
582.368	30212.31
582.728	30297.06
583.089	30267
583.449	30305.19
583.809	30170.28
584.169	30311.97
584.529	30292.76
584.889	30441.69
585.249	30173.9
585.609	30342.25
585.969	30316.72
586.329	30291.41
586.688	30446.21
587.048	30460.44
587.408	30400.78
587.768	30278.07
588.127	30431.97
588.487	30313.33
588.846	30391.74
589.206	30269.71
589.565	30402.36
589.925	30563.49
590.284	30480.33
590.643	30469.26
591.003	30480.33
591.362	30581.34
591.721	30567.78
592.08	30577.73
592.44	30584.05
592.799	30638.29
593.158	30543.83
593.517	30579.53
593.876	30750.83
594.235	30516.49
594.593	30619.99
594.952	30786.31
595.311	30662.92
595.67	30717.61
596.029	30801.68
596.387	30922.12
596.746	30972.74
597.104	30851.39
597.463	30805.29
597.822	30935.01
598.18	30746.99
598.538	30779.53
598.897	30977.49
599.255	30798.29
599.613	31065.62
599.972	30863.82
600.33	31087.77
600.688	30955.34
601.046	30988.34
601.404	31209.35
601.762	31044.83
602.12	31217.71
602.478	31133.19
602.836	31225.39
603.194	31109.46
603.552	31275.79
603.91	31179.97
604.268	31318.5
604.625	31276.47
604.983	31390.14
605.341	31202.8
605.698	31365.95
606.056	31471.04
606.413	31432.17
606.771	31496.35
607.128	31644.82
607.485	31473.3
607.843	31394.88
608.2	31652.95
608.557	31780.18
608.914	31660.64
609.272	31789.67
609.629	31941.08
609.986	31938.6
610.343	31857.24
610.7	32020.85
611.057	31909.22
611.414	31853.17
611.771	31933.62
612.127	32068.31
612.484	32054.3
612.841	32134.07
613.198	32094.3
613.554	32163.45
613.911	32180.62
614.267	32182.66
614.624	32337.23
614.98	32239.6
615.337	32543.55
615.693	32387.4
616.05	32446.38
616.406	32532.7
616.762	32402.99
617.118	32341.3
617.475	32411.13
617.831	32469.88
618.187	32597.11
618.543	32574.96
618.899	32806.14
619.255	32671.91
619.611	32621.29
619.967	32779.93
620.323	32845.92
620.678	32601.18
621.034	32635.07
621.39	32584.45
621.746	32538.58
622.101	32921.62
622.457	32618.35
622.812	32654.96
623.168	32750.78
623.523	32739.25
623.879	32898.57
624.234	32605.02
624.589	32756.2
624.945	32843.88
625.3	32765.92
625.655	32739.25
626.01	32838.23
626.365	32736.77
626.72	32760.95
627.075	32746.26
627.43	32760.72
627.785	32769.53
628.14	32747.84
628.495	32797.33
628.85	32622.87
629.205	32641.85
629.559	32753.49
629.914	32579.71
630.269	32669.65
630.623	32562.76
630.978	32610.44
631.332	32545.58
631.687	32640.72
632.041	32460.16
632.396	32591.23
632.75	32357.34
633.104	32516.43
633.459	32310.56
633.813	32294.74
634.167	32226.5
634.521	32210.45
634.875	32339.04
635.229	32250.23
635.583	32106.5
635.937	32225.59
636.291	32107.86
636.645	32153.73
636.999	31972.49
637.352	32011.14
637.706	31875.32
638.06	32014.53
638.413	31993.96
638.767	31845.72
639.121	31877.58
639.474	31827.41
639.828	31864.47
640.181	31855.21
640.534	31777.92
640.888	31625.84
641.241	31599.85
641.594	31589.23
641.947	31727.98
642.301	31552.62
642.654	31516.23
643.007	31536.8
643.36	31513.52
643.713	31381.55
644.066	31560.07
644.419	31309.91
644.771	31112.18
645.124	30840.55
645.477	30742.47
645.83	30563.04
646.182	30411.18
646.535	30230.62
646.888	30361.46
647.24	30197.62
647.593	30339.54
647.945	30189.94
648.298	30016.84
648.65	30067.68
649.002	29962.83
649.355	30209.83
649.707	30140
650.059	30324.17
650.411	30542.93
650.763	30550.38
651.115	30763.48
651.467	30715.8
651.819	30728.68
652.171	30702.02
652.523	30501.12
652.875	30630.38
653.227	30562.81
653.578	30670.15
653.93	30499.31
654.282	30371.18
654.633	30322.59
654.985	30423.15
655.337	30577.95
655.688	30357.62
656.039	30488.92
656.391	30228.81
656.742	30239.2
657.094	30252.09
657.445	30432.87
657.796	30241.01
658.147	30154.91
658.498	30274.68
658.849	30129.6
659.2	30206.21
659.551	30159.66
659.902	30245.76
660.253	30135.93
660.604	30179.55
660.955	30064.07
661.306	30123.28
661.656	30095.25
662.007	30206.89
662.358	30034.69
662.708	29951.3
663.059	30039.89
663.409	29831.98
663.76	29991.53
664.11	29952.21
664.461	29926.22
664.811	29977.29
665.161	29910.63
665.511	29820.91
665.862	29897.29
666.212	30011.64
666.562	29945.43
666.912	29888.03
667.262	29764.64
667.612	29796.5
667.962	29927.35
668.312	29743.17
668.662	29908.59
669.011	29776.17
669.361	29628.15
669.711	29750.86
670.06	29713.34
670.41	29677.86
670.76	29591.99
671.109	29736.17
671.459	29722.38
671.808	29609.84
672.157	29619.56
672.507	29609.62
672.856	29389.28
673.205	29606.23
673.554	29592.22
673.904	29406.23
674.253	29557.19
674.602	29610.52
674.951	29083.08
675.3	28894.61
675.649	29459.79
675.998	29358.32
676.346	29366.69
676.695	29413.92
677.044	29083.98
677.393	29177.31
677.741	29273.13
678.09	29142.06
678.438	29196.52
678.787	29215.95
679.135	29135.51
679.484	28970.09
679.832	28971.67
680.181	28876.53
680.529	29058.44
680.877	28891.9
681.225	28978.22
681.573	29079.46
681.922	28828.62
682.27	28743.65
682.618	28848.73
682.966	28732.58
683.314	28823.2
683.661	28620.04
684.009	28510.89
684.357	28488.74
684.705	28428.86
685.053	28360.16
685.4	28352.25
685.748	28176.89
686.095	28212.59
686.443	28121.29
686.79	28187.28
687.138	28106.61
687.485	28103.67
687.832	28018.47
688.18	27997.91
688.527	27945.48
688.874	27808.76
689.221	27749.78
689.568	27686.73
689.915	27668.2
690.262	27658.93
690.609	27497.13
690.956	27557.92
691.303	27434.98
691.65	27301.88
691.997	27213.52
692.344	27120.87
692.69	27118.83
693.037	27252.39
693.383	26948.44
693.73	26985.05
694.077	26906.19
694.423	26876.36
694.769	26658.73
695.116	26690.6
695.462	26638.4
695.808	26501
696.155	26602.92
696.501	26366.54
696.847	26411.73
697.193	26242.93
697.539	26259.42
697.885	26039.77
698.231	26050.84
698.577	26046.55
698.923	26161.12
699.269	25764.52
699.614	25604.07
699.96	25677.29
700.306	25653.34
700.651	25399.33
700.997	25509.84
701.342	25468.03
701.688	25451.31
702.033	25371.54
702.379	25280.01
702.724	25295.38
703.069	25275.27
703.415	24988.04
703.76	24921.15
704.105	25021.71
704.45	24792.12
704.795	24790.31
705.14	24728.16
705.485	24621.95
705.83	24425.8
706.175	24669.86
706.52	24433.26
706.865	24396.19
707.209	24367.49
707.554	24341.51
707.899	24370.21
708.243	24209.31
708.588	24149.42
708.932	23970.22
709.277	24079.59
709.621	24157.33
709.966	23837.34
710.31	23925.92
710.654	23726.61
710.998	23784.46
711.342	23879.82
711.687	23689.55
712.031	23652.26
712.375	23570
712.719	23574.97
713.063	23493.62
713.407	23491.81
713.75	23371.36
714.094	23388.76
714.438	23240.52
714.782	23296.79
715.125	23166.17
715.469	23104.93
715.812	23054.08
716.156	22942.45
716.499	22974.54
716.843	23056.34
717.186	22923.24
717.53	22967.31
717.873	22963.69
718.216	23018.38
718.559	22890.92
718.902	22619.74
719.246	22626.52
719.589	22593.3
719.932	22562.12
720.275	22589.24
720.617	22472.4
720.96	22514.89
721.303	22504.27
721.646	22422.24
721.989	22218.4
722.331	22360.32
722.674	22309.02
723.016	22193.99
723.359	22218.85
723.701	22230.15
724.044	22177.5
724.386	21975.69
724.729	22093.88
725.071	21985.64
725.413	21991.06
725.755	21968.69
726.097	21765.53
726.439	21775.47
726.782	21812.99
727.124	21876.94
727.465	21711.52
727.807	21617.96
728.149	21644.18
728.491	21415.03
728.833	21667.45
729.175	21458.64
729.516	21624.97
729.858	21484.18
730.199	21517.63
730.541	21394.47
730.882	21357.86
731.224	21405.54
731.565	21208.48
731.906	21304.52
732.248	21251.42
732.589	21149.27
732.93	21221.81
733.271	21150.86
733.612	21157.18
733.953	21174.36
734.294	21032.67
734.635	20996.96
734.976	20930.07
735.317	20950.86
735.658	20946.57
735.999	20894.59
736.339	20834.25
736.68	20985.21
737.021	20737.08
737.361	20699.12
737.702	20709.96
738.042	20699.79
738.383	20599.68
738.723	20744.54
739.063	20623.19
739.404	20663.64
739.744	20516.3
740.084	20437.2
740.424	20575.05
740.764	20476.75
741.104	20605.56
741.444	20375.28
741.784	20318.11
742.124	20403.53
742.464	20257.55
742.804	20232.91
743.143	20258
743.483	20323.99
743.823	20107.27
744.162	20140.04
744.502	20143.65
744.841	20082.86
745.181	20219.36
745.52	19982.3
745.86	20013.26
746.199	19984.11
746.538	19979.59
746.877	20004.9
747.216	19976.65
747.556	19764
747.895	19819.37
748.234	19735.98
748.573	19710.67
748.911	19717.22
749.25	19659.82
749.589	19607.39
749.928	19619.37
750.267	19549.32
750.605	19559.94
750.944	19519.71
751.283	19383.22
751.621	19438.36
751.96	19413.95
752.298	19310
752.636	19254.18
752.975	19231.81
753.313	19117.01
753.651	19147.07
753.989	18948.88
754.327	18971.7
754.666	18999.73
755.004	18941.65
755.342	18940.97
755.679	18999.73
756.017	18881.99
756.355	18741.88
756.693	18685.16
757.031	18729.45
757.368	18682.9
757.706	18635.44
758.044	18516.35
758.381	18589.34
758.719	18513.41
759.056	18483.36
759.394	18450.36
759.731	18295.79
760.068	18330.37
760.405	18261.89
760.743	18189.58
761.08	18218.96
761.417	18114.55
761.754	18052.86
762.091	17987.55
762.428	18010.6
762.765	17748.46
763.102	17879.53
763.438	17751.17
763.775	17692.64
764.112	17705.98
764.449	17715.69
764.785	17561.12
765.122	17465.53
765.458	17456.26
765.795	17394.12
766.131	17360.22
766.467	17411.75
766.804	17195.93
767.14	17112.77
767.476	17144.41
767.812	17044.75
768.148	17037.07
768.485	16939.67
768.821	16851.76
769.157	16796.39
769.492	16867.13
769.828	16632.11
770.164	16710.52
770.5	16560.69
770.836	16480.7
771.171	16433.47
771.507	16412.45
771.842	16330.87
772.178	16313.92
772.513	16268.72
772.849	16246.13
773.184	16021.73
773.519	16145.79
773.855	15990.54
774.19	15947.6
774.525	15984.21
774.86	15962.52
775.195	15882.07
775.53	15870.77
775.865	15715.52
776.2	15706.93
776.535	15489.76
776.87	15494.73
777.205	15532.47
777.539	15378.35
777.874	15347.62
778.209	15270.78
778.543	15284.8
778.878	15214.29
779.212	15120.05
779.547	14960.96
779.881	15088.64
780.215	15039.6
780.55	15064.46
780.884	14901.53
781.218	14904.01
781.552	14863.11
781.886	14779.27
782.22	14738.82
782.554	14637.58
782.888	14518.26
783.222	14519.84
783.556	14451.15
783.889	14410.24
784.223	14353.97
784.557	14312.17
784.89	14344.48
785.224	14107.65
785.557	14161.66
785.891	14110.59
786.224	14041.44
786.558	14035.79
786.891	13916.47
787.224	13806.87
787.557	13870.6
787.891	13786.98
788.224	13769.36
788.557	13672.63
788.89	13728
789.223	13719.41
789.556	13481.23
789.888	13520.32
790.221	13449.59
790.554	13496.14
790.887	13463.15
791.219	13484.17
791.552	13380.67
791.884	13278.75
792.217	13198.3
792.549	13220.22
792.882	13058.41
793.214	13007.12
793.546	13111.52
793.879	12987.23
794.211	12840.79
794.543	12918.76
794.875	12825.43
795.207	12923.5
795.539	12704.07
795.871	12780.45
796.203	12774.81
796.535	12664.98
796.867	12583.17
797.198	12576.84
797.53	12606
797.862	12483.06
798.193	12585.88
798.525	12458.88
798.856	12480.58
799.188	12314.48
799.519	12325.1
799.85	12218.66
800.182	12240.58
800.513	12202.84
800.844	12123.98
801.175	12193.58
801.506	12122.85
801.837	12029.51
802.168	12040.59
802.499	12034.71
802.83	11894.6
803.161	11919.69
803.491	11881.04
803.822	11844.21
804.153	11782.74
804.483	11698.45
804.814	11695.96
805.145	11660.71
805.475	11645.57
805.805	11642.63
806.136	11628.62
806.466	11551.79
806.796	11557.44
807.126	11398.12
807.457	11415.29
807.787	11479.02
808.117	11400.83
808.447	11336.88
808.777	11413.26
809.107	11367.61
809.436	11283.32
809.766	11236.09
810.096	11177.11
810.426	11190.21
810.755	11147.96
811.085	11118.35
811.414	11105.47
811.744	11045.36
812.073	11038.13
812.403	11057.11
812.732	10970.33
813.061	10967.62
813.39	10848.75
813.719	10899.15
814.049	10875.65
814.378	10784.12
814.707	10768.76
815.036	10790.68
815.365	10847.85
815.693	10710.68
816.022	10700.28
816.351	10636.1
816.68	10588.65
817.008	10636.78
817.337	10488.31
817.665	10459.16
817.994	10547.75
818.322	10538.71
818.651	10435.88
818.979	10428.88
819.307	10443.12
819.636	10374.19
819.964	10330.8
820.292	10372.83
820.62	10408.54
820.948	10409.22
821.276	10361.31
821.604	10331.25
821.932	10333.29
822.259	10259.84
822.587	10258.49
822.915	10261.88
823.243	10371.48
823.57	10263.68
823.898	10236.34
824.225	10227.08
824.553	10322.21
824.88	10312.5
825.207	10351.14
825.535	10303.91
825.862	10350.01
826.189	10167.64
826.516	10275.89
826.843	10317.02
827.17	10284.7
827.497	10357.24
827.824	10340.29
828.151	10344.59
828.478	10327.41
828.805	10339.39
829.131	10292.84
829.458	10278.6
829.785	10257.13
830.111	10272.95
830.438	10319.95
830.764	10350.46
831.09	10286.28
831.417	10201.31
831.743	10242.89
832.069	10280.86
832.395	10195.89
832.722	10275.89
833.048	10139.17
833.374	10235.89
833.7	10192.05
834.026	10258.94
834.351	10225.95
834.677	10235.44
835.003	10154.76
835.329	10190.92
835.654	10124.71
835.98	10129.23
836.306	10150.24
836.631	10072.73
836.956	10128.32
837.282	10153.18
837.607	9999.29
837.932	10012.39
838.258	10047.19
838.583	9978.49
838.908	9912.28
839.233	9969.68
839.558	10027.53
839.883	9893.3
840.208	9873.19
840.533	9845.62
840.858	9809.01
841.182	9841.78
841.507	9818.72
841.832	9806.07
842.156	9757.94
842.481	9743.92
842.805	9706.19
843.13	9698.28
843.454	9710.25
843.778	9683.59
844.103	9627.09
844.427	9588
844.751	9579.41
845.075	9557.71
845.399	9558.17
845.723	9510.94
846.047	9538.73
846.371	9436.14
846.695	9453.31
847.019	9392.52
847.343	9338.51
847.666	9280.21
847.99	9247.67
848.313	9269.81
848.637	9143.71
848.96	9154.56
849.284	9177.16
849.607	9069.59
849.931	9048.12
850.254	9029.59
850.577	9037.5
850.9	8945.08
851.223	8951.18
851.546	8877.05
851.869	8822.82
852.192	8826.89
852.515	8768.81
852.838	8711.64
853.161	8687.46
853.483	8630.96
853.806	8649.72
854.129	8613.56
854.451	8561.36
854.774	8574.01
855.096	8519.1
855.419	8556.39
855.741	8501.25
856.063	8483.17
856.385	8400.91
856.708	8395.49
857.03	8396.16
857.352	8388.03
857.674	8373.34
857.996	8275.71
858.318	8250.18
858.64	8215.6
858.961	8263.29
859.283	8289.73
859.605	8180.58
859.926	8185.32
860.248	8213.12
860.57	8192.55
860.891	8140.12
861.212	8123.63
861.534	8105.32
861.855	8100.58
862.176	8101.71
862.498	8063.74
862.819	8047.02
863.14	7966.34
863.461	7981.03
863.782	8038.43
864.103	7992.11
864.424	8003.41
864.745	7950.75
865.065	7917.53
865.386	7919.11
865.707	7897.42
866.027	7917.08
866.348	7859.23
866.668	7862.84
866.989	7876.86
867.309	7854.26
867.63	7844.31
867.95	7780.81
868.27	7764.54
868.59	7767.25
868.91	7821.72
869.23	7772.45
869.55	7673.24
869.87	7746.69
870.19	7772
870.51	7690.42
870.83	7722.51
871.15	7661.95
871.469	7682.51
871.789	7714.83
872.109	7670.53
872.428	7649.06
872.748	7603.19
873.067	7603.19
873.386	7535.62
873.706	7592.57
874.025	7535.85
874.344	7523.64
874.663	7581.5
874.982	7488.16
875.301	7528.39
875.62	7479.58
875.939	7480.93
876.258	7497.2
876.577	7463.53
876.896	7427.38
877.214	7412.46
877.533	7394.38
877.852	7450.2
878.17	7471.44
878.489	7412.23
878.807	7416.53
879.125	7348.28
879.444	7405.68
879.762	7312.58
880.08	7337.89
880.398	7335.17
880.716	7322.29
881.034	7286.81
881.352	7294.72
881.67	7265.35
881.988	7261.28
882.306	7213.37
882.624	7206.59
882.941	7172.01
883.259	7170.66
883.577	7200.71
883.894	7150.09
884.212	7157.78
884.529	7148.96
884.846	7121.17
885.164	7091.34
885.481	7101.73
885.798	7046.59
886.115	7040.27
886.432	7060.15
886.75	6993.49
887.067	7003.43
887.383	6963.21
887.7	6968.86
888.017	6889.54
888.334	6960.72
888.651	6924.34
888.967	6899.71
889.284	6852.02
889.6	6893.6
889.917	6841.85
890.233	6842.31
890.55	6840.27
890.866	6812.93
891.182	6751.01
891.498	6783.1
891.815	6731.8
892.131	6726.83
892.447	6658.36
892.763	6631.92
893.079	6661.75
893.395	6625.14
893.71	6589.21
894.026	6612.26
894.342	6551.69
894.657	6553.5
894.973	6572.26
895.289	6556.66
895.604	6524.57
895.92	6517.34
896.235	6466.27
896.55	6413.16
896.865	6370.23
897.181	6473.95
897.496	6430.34
897.811	6388.76
898.126	6376.56
898.441	6263.79
898.756	6308.53
899.071	6239.84
899.386	6296.11
899.7	6207.52
900.015	6175.88
900.33	6154.87
900.644	6167.97
900.959	6178.82
901.273	6154.41
901.588	6126.62
901.902	6043.68
902.216	6066.96
902.531	6078.71
902.845	6047.75
903.159	6015.89
903.473	5934.76
903.787	5939.73
904.101	5893.86
904.415	5930.47
904.729	5963.91
905.042	5859.73
905.356	5830.36
905.67	5829
905.984	5832.16
906.297	5797.81
906.611	5792.39
906.924	5702
907.237	5737.25
907.551	5780.64
907.864	5711.49
908.177	5688.66
908.491	5707.87
908.804	5633.52
909.117	5654.54
909.43	5588.33
909.743	5581.1
910.056	5538.16
910.368	5472.85
910.681	5493.87
910.994	5487.99
911.307	5468.33
911.619	5446.64
911.932	5432.17
912.244	5401.89
912.557	5386.53
912.869	5340.2
913.181	5373.19
913.494	5351.95
913.806	5312.18
914.118	5256.58
914.43	5290.48
914.742	5273.31
915.054	5213.42
915.366	5196.02
915.678	5149.7
915.99	5134.33
916.302	5137.04
916.613	5110.15
916.925	5123.48
917.236	5066.53
917.548	5017.5
917.859	5074.44
918.171	5016.59
918.482	5007.78
918.794	5001.45
919.105	4965.07
919.416	4948.8
919.727	4914.22
920.038	4912.87
920.349	4904.73
920.66	4819.99
920.971	4842.58
921.282	4880.1
921.593	4772.53
921.903	4749.25
922.214	4740.44
922.525	4746.09
922.835	4703.83
923.146	4685.53
923.456	4695.02
923.767	4647.34
924.077	4674.45
924.387	4645.98
924.697	4574.34
925.008	4561.24
925.318	4569.37
925.628	4549.94
925.938	4563.27
926.248	4464.06
926.558	4477.4
926.867	4466.78
927.177	4463.16
927.487	4449.15
927.796	4368.25
928.106	4381.81
928.416	4387.91
928.725	4360.56
929.034	4330.06
929.344	4332.54
929.653	4323.95
929.962	4276.5
930.271	4272.2
930.581	4271.3
930.89	4252.09
931.199	4206.9
931.508	4206.44
931.817	4239.89
932.125	4197.86
932.434	4140.23
932.743	4101.14
933.051	4151.08
933.36	4079.44
933.669	4093.45
933.977	4083.28
934.286	4052.32
934.594	4072.89
934.902	4029.95
935.21	4040.57
935.519	4006
935.827	3998.99
936.135	3911.76
936.443	3932.33
936.751	3900.01
937.059	3914.93
937.367	3910.41
937.674	3911.99
937.982	3859.33
938.29	3817.3
938.597	3866.79
938.905	3813.91
939.213	3794.25
939.52	3777.75
939.827	3791.54
940.135	3724.2
940.442	3726.68
940.749	3688.72
941.056	3711.31
941.363	3666.34
941.67	3671.99
941.977	3653.92
942.284	3632.22
942.591	3596.29
942.898	3598.32
943.205	3640.81
943.511	3596.52
943.818	3571.66
944.125	3532.56
944.431	3527.59
944.738	3491.66
945.044	3512.45
945.35	3526.91
945.657	3427.25
945.963	3427.93
946.269	3443.75
946.575	3456.63
946.881	3399.46
947.187	3424.77
947.493	3395.62
947.799	3358.1
948.105	3375.73
948.41	3335.73
948.716	3344.32
949.022	3335.05
949.327	3313.81
949.633	3244.43
949.938	3323.53
950.244	3272.23
950.549	3270.65
950.854	3217.54
951.16	3255.51
951.465	3210.09
951.77	3237.88
952.075	3158.79
952.38	3166.47
952.685	3174.83
952.99	3097.55
953.294	3099.35
953.599	3099.81
953.904	3153.59
954.209	3025.68
954.513	3103.65
954.818	3059.35
955.122	3117.66
955.426	3016.87
955.731	2993.14
956.035	3034.04
956.339	2990.88
956.643	2994.27
956.948	3001.73
957.252	2962.41
957.556	2973.93
957.86	2945.23
958.163	2934.84
958.467	2918.57
958.771	2899.58
959.075	2907.04
959.378	2896.2
959.682	2893.03
959.985	2883.54
960.289	2847.61
960.592	2830.89
960.896	2832.24
961.199	2833.82
961.502	2789.53
961.805	2794.5
962.108	2759.93
962.411	2778.23
962.714	2731.91
963.017	2746.59
963.32	2743.43
963.623	2715.41
963.926	2735.07
964.228	2708.4
964.531	2694.84
964.833	2717.44
965.136	2687.39
965.438	2642.87
965.741	2621.4
966.043	2644.9
966.345	2609.65
966.648	2593.6
966.95	2609.65
967.252	2610.1
967.554	2617.33
967.856	2564.45
968.158	2578.92
968.46	2529.2
968.761	2519.71
969.063	2549.31
969.365	2487.62
969.666	2510.67
969.968	2520.84
970.269	2466.83
970.571	2478.58
970.872	2513.38
971.174	2458.69
971.475	2411.46
971.776	2426.6
972.077	2423.21
972.378	2416.21
972.679	2418.24
972.98	2381.86
973.281	2433.83
973.582	2391.58
973.883	2359.03
974.183	2369.2
974.484	2353.16
974.785	2350.45
975.085	2366.72
975.386	2348.64
975.686	2299.6
975.986	2275.87
976.287	2314.74
976.587	2265.48
976.887	2277.68
977.187	2245.59
977.487	2262.99
977.787	2237.46
978.087	2245.82
978.387	2224.35
978.687	2239.04
978.987	2216.89
979.286	2154.07
979.586	2158.59
979.885	2186.38
980.185	2174.63
980.484	2153.16
980.784	2142.54
981.083	2126.72
981.382	2116.78
981.682	2130.57
981.981	2133.5
982.28	2097.57
982.579	2130.34
982.878	2111.81
983.177	2079.04
983.475	2091.92
983.774	2110.45
984.073	2044.24
984.372	2029.55
984.67	2026.16
984.969	2030.23
985.267	2032.49
985.566	2016.9
985.864	2010.34
986.162	1996.11
986.461	2018.48
986.759	1982.77
987.057	1974.86
987.355	1956.33
987.653	1958.59
987.951	1966.05
988.249	1967.41
988.547	1937.35
988.844	1919.5
989.142	1942.55
989.44	1896.22
989.737	1942.77
990.035	1926.05
990.332	1877.24
990.63	1902.55
990.927	1891.7
991.224	1887.41
991.521	1841.53
991.819	1870.69
992.116	1822.32
992.413	1846.96
992.71	1829.56
993.006	1810.57
993.303	1772.38
993.6	1792.72
993.897	1764.02
994.193	1776.22
994.49	1765.83
994.787	1779.39
995.083	1738.03
995.379	1731.71
995.676	1738.49
995.972	1752.5
996.268	1718.82
996.565	1703.46
996.861	1707.3
997.157	1711.37
997.453	1700.97
997.749	1650.13
998.044	1681.99
998.34	1688.54
998.636	1672.95
998.932	1651.71
999.227	1644.02
999.523	1638.6
999.818	1632.27
1000.114	1623.46
1000.409	1623.23
1000.704	1589.56
1001	1561.09
1001.295	1591.6
1001.59	1568.32
1001.885	1585.04
1002.18	1540.75
1002.475	1547.3
1002.77	1537.13
1003.065	1515.44
1003.359	1527.87
1003.654	1503.24
1003.949	1517.25
1004.243	1523.58
1004.538	1491.26
1004.832	1514.54
1005.127	1483.8
1005.421	1482.67
1005.715	1459.4
1006.009	1429.34
1006.304	1469.11
1006.598	1451.71
1006.892	1437.02
1007.186	1428.66
1007.48	1424.37
1007.773	1416.69
1008.067	1414.43
1008.361	1414.43
1008.655	1387.99
1008.948	1386.63
1009.242	1388.66
1009.535	1384.14
1009.829	1360.19
1010.122	1356.57
1010.415	1332.62
1010.708	1369.46
1011.001	1347.76
1011.295	1300.53
1011.588	1335.33
1011.881	1325.84
1012.173	1295.56
1012.466	1333.75
1012.759	1279.74
1013.052	1296.46
1013.344	1298.72
1013.637	1313.86
1013.93	1281.32
1014.222	1275.22
1014.514	1257.37
1014.807	1228.67
1015.099	1268.67
1015.391	1272.73
1015.683	1221.44
1015.976	1231.61
1016.268	1200.42
1016.56	1215.56
1016.851	1214.66
1017.143	1196.8
1017.435	1175.56
1017.727	1165.85
1018.018	1181.89
1018.31	1194.54
1018.602	1130.59
1018.893	1150.25
1019.185	1129.24
1019.476	1135.11
1019.767	1129.91
1020.058	1136.24
1020.35	1123.59
1020.641	1124.72
1020.932	1134.21
1021.223	1123.59
1021.514	1115
1021.804	1064.15
1022.095	1082.68
1022.386	1089.01
1022.677	1067.32
1022.967	1071.84
1023.258	1058.96
1023.548	1041.1
1023.839	1053.08
1024.129	1055.11
1024.419	1028
1024.709	1018.96
1025	1005.85
1025.29	1009.92
1025.58	1019.63
1025.87	994.55
1026.16	995.45
1026.449	994.32
1026.739	974.44
1027.029	977.15
1027.319	1006.98
1027.608	984.61
1027.898	980.31
1028.187	992.29
1028.477	937.38
1028.766	940.09
1029.055	950.26
1029.344	932.18
1029.634	898.06
1029.923	934.89
1030.212	913.42
1030.501	896.7
1030.79	905.06
1031.078	899.86
1031.367	896.02
1031.656	900.54
1031.945	881.33
1032.233	916.81
1032.522	902.35
1032.81	860.32
1033.099	844.27
1033.387	871.39
1033.675	858.51
1033.963	836.59
1034.251	846.76
1034.54	858.28
1034.828	834.33
1035.116	808.34
1035.403	850.37
1035.691	804.05
1035.979	813.76
1036.267	801.11
1036.554	809.02
1036.842	810.15
1037.129	802.46
1037.417	791.17
1037.704	761.11
1037.992	809.24
1038.279	791.17
1038.566	801.11
1038.853	801.11
1039.14	801.11
