Data from breadboard_white_FLMS001491_00069.txt Node
Date: Wed Feb 08 10:48:06 GMT 2017
User: dcchb
Spectrometer: FLMS00149
Trigger mode: 0
Integration Time (sec): 2.000000E-2
Scans to average: 10
Electric dark correction enabled: true
Nonlinearity correction enabled: false
Boxcar width: 0
XAxis mode: Wavelengths
Number of Pixels in Spectrum: 2048
>>>>>Begin Spectral Data<<<<<
341.393	-3.06
341.776	-3.06
342.16	-3.06
342.543	-39.45
342.927	-73.8
343.31	-72.44
343.693	-67.47
344.077	-48.26
344.46	-70.63
344.843	-66.57
345.226	-68.6
345.61	-24.53
345.993	-26.57
346.376	-3.52
346.759	18.63
347.142	45.75
347.525	44.17
347.908	55.01
348.291	72.19
348.674	79.19
349.057	133.65
349.44	133.43
349.823	139.3
350.206	175.46
350.588	217.49
350.971	223.37
351.354	233.31
351.737	260.66
352.119	276.48
352.502	263.59
352.884	291.84
353.267	285.06
353.65	286.87
354.032	324.38
354.414	332.29
354.797	315.8
355.179	345.85
355.562	332.97
355.944	326.87
356.326	348.11
356.709	338.62
357.091	362.12
357.473	364.16
357.855	338.17
358.238	333.88
358.62	329.13
359.002	365.96
359.384	342.91
359.766	374.1
360.148	352.63
360.53	349.02
360.912	339.75
361.294	342.46
361.676	373.2
362.057	352.18
362.439	340.65
362.821	340.43
363.203	351.5
363.584	338.17
363.966	349.02
364.348	353.54
364.729	342.46
365.111	348.11
365.493	342.46
365.874	341.33
366.256	332.07
366.637	349.92
367.019	336.36
367.4	346.76
367.781	342.01
368.163	348.56
368.544	335.01
368.925	349.47
369.306	339.75
369.688	332.75
370.069	330.94
370.45	341.78
370.831	339.75
371.212	341.33
371.593	350.82
371.974	342.69
372.355	337.04
372.736	350.82
373.117	365.29
373.498	355.12
373.879	359.41
374.26	363.48
374.641	350.37
375.021	362.58
375.402	364.16
375.783	374.33
376.163	358.96
376.544	357.38
376.925	368.22
377.305	353.54
377.686	373.42
378.066	364.16
378.447	378.62
378.827	386.08
379.208	383.82
379.588	371.84
379.968	377.26
380.349	376.13
380.729	405.51
381.109	389.92
381.489	381.78
381.87	400.31
382.25	395.79
382.63	370.48
383.01	406.87
383.39	415.68
383.77	399.18
384.15	422.46
384.53	405.74
384.91	394.89
385.29	410.48
385.67	420.65
386.049	417.26
386.429	443.25
386.809	433.53
387.189	417.04
387.568	427.21
387.948	431.5
388.328	448
388.707	440.99
389.087	460.2
389.466	481.67
389.846	478.73
390.225	456.58
390.605	450.48
390.984	461.78
391.363	477.37
391.743	472.18
392.122	477.83
392.501	494.1
392.881	491.16
393.26	489.13
393.639	518.05
394.018	530.03
394.397	530.25
394.776	533.42
395.155	523.47
395.534	533.42
395.913	519.86
396.292	527.99
396.671	548.33
397.05	544.72
397.429	552.4
397.808	573.19
398.186	572.74
398.565	581.1
398.944	584.72
399.323	584.04
399.701	619.52
400.08	602.34
400.458	624.72
400.837	622.68
401.215	638.95
401.594	627.2
401.972	657.03
402.351	670.14
402.729	676.01
403.107	685.5
403.486	711.94
403.864	725.28
404.242	703.13
404.62	714.88
404.999	719.4
405.377	732.51
405.755	763.24
406.133	774.99
406.511	771.38
406.889	815.9
407.267	824.94
407.645	836.01
408.023	862.22
408.401	838.27
408.779	841.43
409.156	870.36
409.534	881.21
409.912	924.37
410.29	926.4
410.667	948.1
411.045	991.03
411.422	975.21
411.8	1003.46
412.178	1022.22
412.555	1002.78
412.933	1059.51
413.31	1074.65
413.687	1099.96
414.065	1116.23
414.442	1123.91
414.819	1144.25
415.197	1150.8
415.574	1181.08
415.951	1183.57
416.328	1202.78
416.705	1230.8
417.082	1223.8
417.46	1256.79
417.837	1258.6
418.214	1285.94
418.591	1284.81
418.967	1297.01
419.344	1317.13
419.721	1332.72
420.098	1333.85
420.475	1391.47
420.852	1399.61
421.228	1392.83
421.605	1440.29
421.982	1444.35
422.358	1492.04
422.735	1461.53
423.111	1495.43
423.488	1505.6
423.864	1549.89
424.241	1540.17
424.617	1563.67
424.994	1578.14
425.37	1585.82
425.746	1610.9
426.123	1612.26
426.499	1663.33
426.875	1695.2
427.251	1698.81
427.627	1727.74
428.003	1747.62
428.379	1754.63
428.756	1782.2
429.132	1810.45
429.507	1856.32
429.883	1868.3
430.259	1909.88
430.635	1925.47
431.011	1978.13
431.387	1977.22
431.763	2012.02
432.138	2029.42
432.514	2063.1
432.89	2042.53
433.265	2122.08
433.641	2162.53
434.016	2196.2
434.392	2211.11
434.767	2259.93
435.143	2261.73
435.518	2290.66
435.894	2324.56
436.269	2341.51
436.644	2367.49
437.02	2401.84
437.395	2388.06
437.77	2448.62
438.145	2489.07
438.52	2497.89
438.895	2512.8
439.271	2558.9
439.646	2595.06
440.021	2590.31
440.395	2614.72
440.77	2604.55
441.145	2644.55
441.52	2676.86
441.895	2695.85
442.27	2709.86
442.645	2735.62
443.019	2790.99
443.394	2780.82
443.769	2794.38
444.143	2830.98
444.518	2873.24
444.892	2807.93
445.267	2852.68
445.641	2934.03
446.016	2908.95
446.39	2953.92
446.764	2962.51
447.139	2991.43
447.513	2993.47
447.887	3029.4
448.262	3048.15
448.636	3068.49
449.01	3097.64
449.384	3134.71
449.758	3161.15
450.132	3238.21
450.506	3229.39
450.88	3231.43
451.254	3251.09
451.628	3297.87
452.002	3324.08
452.376	3413.79
452.75	3402.04
453.123	3470.97
453.497	3456.51
453.871	3483.4
454.244	3538.08
454.618	3567.24
454.992	3646.78
455.365	3645.65
455.739	3777.63
456.112	3757.97
456.486	3788.93
456.859	3850.62
457.232	3894.01
457.606	3934.01
457.979	3969.49
458.352	4049.48
458.725	4118.86
459.099	4150.05
459.472	4222.36
459.845	4255.35
460.218	4288.12
460.591	4299.42
460.964	4357.95
461.337	4453.99
461.71	4538.28
462.083	4588.68
462.456	4592.97
462.829	4639.75
463.201	4688.34
463.574	4751.84
463.947	4840.2
464.32	4915.45
464.692	4900.08
465.065	4967.2
465.438	5078.16
465.81	5129.23
466.183	5176.23
466.555	5266.63
466.928	5278.83
467.3	5309.79
467.672	5417.81
468.045	5588.88
468.417	5607.18
468.789	5613.96
469.161	5733.06
469.534	5753.85
469.906	5869.32
470.278	5918.14
470.65	6036.55
471.022	6166.26
471.394	6240.84
471.766	6301.85
472.138	6419.82
472.51	6520.61
472.882	6619.81
473.253	6713.37
473.625	6815.51
473.997	6932.12
474.369	6986.58
474.74	7073.59
475.112	7131.44
475.484	7278.55
475.855	7443.07
476.227	7573.01
476.598	7738.43
476.97	7786.33
477.341	7937.74
477.713	8118.3
478.084	8127.57
478.455	8402.59
478.827	8492.98
479.198	8744.95
479.569	8726.88
479.94	8946.08
480.311	9060.88
480.682	9280.53
481.053	9405.95
481.424	9594.42
481.795	9690.69
482.166	9891.14
482.537	10008.42
482.908	10191.7
483.279	10160.51
483.65	10510.33
484.021	10707.61
484.391	10800.94
484.762	10895.18
485.133	10952.58
485.503	11187.38
485.874	11407.71
486.244	11558.44
486.615	11716.85
486.985	11860.35
487.356	12130.63
487.726	12187.35
488.097	12437.29
488.467	12501.24
488.837	12780.1
489.207	12843.15
489.578	13145.97
489.948	13177.61
490.318	13349.8
490.688	13420.08
491.058	13741.66
491.428	13811.94
491.798	13990.24
492.168	14304.36
492.538	14295.54
492.908	14463
493.278	14719.03
493.648	14724.91
494.017	14959.03
494.387	15107.95
494.757	15254.84
495.126	15371.45
495.496	15383.42
495.866	15527.6
496.235	15741.15
496.605	15923.07
496.974	15944.09
497.344	16160.35
497.713	16265.43
498.082	16373.45
498.452	16594.24
498.821	16632.43
499.19	16642.15
499.559	16907.68
499.928	17011.18
500.298	17147.44
500.667	17238.74
501.036	17264.05
501.405	17516.02
501.774	17564.61
502.143	17666.08
502.512	17796.69
502.88	17981.1
503.249	17957.59
503.618	18203.01
503.987	18377.92
504.356	18394.87
504.724	18484.81
505.093	18634.64
505.462	18648.2
505.83	18821.3
506.199	18947.17
506.567	19287.95
506.936	19230.1
507.304	19457.21
507.672	19522.75
508.041	19614.27
508.409	19815.85
508.777	19964.32
509.145	20104.43
509.514	20164.09
509.882	20410.18
510.25	20357.98
510.618	20601.82
510.986	20658.54
511.354	20855.37
511.722	21054.69
512.09	21269.82
512.458	21225.3
512.826	21472.98
513.193	21677.49
513.561	21621.23
513.929	21883.82
514.297	22136.47
514.664	22291.04
515.032	22376.01
515.4	22558.15
515.767	22600.63
516.135	22816
516.502	22661.65
516.869	23044.69
517.237	23252.37
517.604	23244.23
517.972	23528.97
518.339	23664.34
518.706	23848.51
519.073	23895.06
519.44	24206.02
519.808	24343.64
520.175	24446.46
520.542	24796.74
520.909	24816.62
521.276	24876.05
521.643	25245.76
522.009	25453.67
522.376	25626.09
522.743	25694.11
523.11	26090.03
523.477	26173.2
523.843	26391.95
524.21	26686.85
524.577	26865.16
524.943	26944.48
525.31	27197.58
525.676	27473.05
526.043	27551.01
526.409	27739.03
526.776	28052.47
527.142	28112.13
527.508	28343.76
527.874	28473.02
528.241	28753.92
528.607	28819.45
528.973	29046.57
529.339	29132.44
529.705	29420.79
530.071	29668.47
530.437	29778.3
530.803	30050.16
531.169	30287.89
531.535	30241.56
531.901	30259.42
532.267	30472.52
532.632	30768.78
532.998	30906.4
533.364	30921.55
533.73	31111.37
534.095	31283.57
534.461	31359.05
534.826	31661.41
535.192	31672.94
535.557	32022.99
535.923	31919.71
536.288	32026.15
536.653	32354.5
537.019	32115.19
537.384	32354.5
537.749	32587.26
538.114	32665.23
538.479	32856.86
538.845	32845.79
539.21	32852.12
539.575	33168.27
539.94	33178.21
540.305	33420.24
540.67	33362.84
541.034	33583.4
541.399	33654.81
541.764	33820.9
542.129	33945.42
542.494	33941.58
542.858	34184.28
543.223	34243.27
543.587	34485.29
543.952	34555.12
544.316	34703.82
544.681	34690.26
545.045	34856.58
545.41	35015.22
545.774	35010.48
546.138	35156.01
546.503	35265.16
546.867	35157.37
547.231	35603.23
547.595	35603.46
547.959	35729.78
548.324	35829.44
548.688	35951.24
549.052	36051.13
549.416	36179.71
549.779	36120.73
550.143	36268.3
550.507	36521.62
550.871	36732.01
551.235	36697.67
551.599	36961.16
551.962	37121.83
552.326	37197.54
552.689	37281.38
553.053	37287.48
553.417	37391.43
553.78	37891.98
554.143	37759.11
554.507	38056.27
554.87	37927.92
555.234	38525.64
555.597	38240.45
555.96	38346.21
556.323	38643.15
556.686	38721.79
557.05	38878.4
557.413	39055.57
557.776	39172.18
558.139	39475.67
558.502	39474.32
558.865	39666.85
559.228	39789.56
559.59	40033.4
559.953	40103.9
560.316	40428.19
560.679	40582.08
561.041	40766.48
561.404	40817.33
561.767	41199.24
562.129	41125.35
562.492	41527.37
562.854	41485.56
563.217	41534.6
563.579	41659.57
563.941	42050.97
564.304	42248.25
564.666	42347.23
565.028	42445.54
565.39	42560.79
565.753	42715.36
566.115	42958.97
566.477	43209.81
566.839	43233.31
567.201	43434.44
567.563	43413.87
567.925	43938.6
568.287	43878.95
568.648	43848.66
569.01	44117.58
569.372	44398.25
569.734	44310.8
570.095	44669.43
570.457	44819.49
570.819	44860.84
571.18	44857.68
571.542	45207.05
571.903	45311.22
572.265	45427.83
572.626	45542.86
572.987	45678.67
573.349	45657.66
573.71	45904.88
574.071	45996.86
574.432	46101.26
574.794	46307.81
575.155	46211.99
575.516	46063.52
575.877	46445.88
576.238	46515.49
576.599	46544.19
576.96	46608.82
577.32	46622.38
577.681	46751.41
578.042	46969.49
578.403	46934.23
578.763	46992.08
579.124	47077.28
579.485	47054.68
579.845	47308.23
580.206	47106.66
580.566	47196.82
580.927	47237.5
581.287	47464.16
581.648	47289.93
582.008	47531.73
582.368	47366.99
582.728	47499.87
583.089	47428.68
583.449	47420.77
583.809	47361.11
584.169	47413.54
584.529	47351.17
584.889	47743.93
585.249	47609.24
585.609	47556.36
585.969	47728.79
586.329	47576.02
586.688	47583.48
587.048	47567.21
587.408	47579.86
587.768	47555.01
588.127	47554.33
588.487	47484.5
588.846	47826.19
589.206	47383.94
589.565	47503.71
589.925	47703.93
590.284	47618.51
590.643	47586.19
591.003	47727.43
591.362	47905.96
591.721	47620.32
592.08	47685.17
592.44	47766.3
592.799	47803.36
593.158	47652.86
593.517	47725.17
593.876	47844.26
594.235	47611.05
594.593	47773.98
594.952	47813.08
595.311	47753.87
595.67	47836.36
596.029	47927.43
596.387	47992.74
596.746	48037.48
597.104	47922.68
597.463	47898.5
597.822	48123.58
598.18	47883.81
598.538	48070.7
598.897	48179.85
599.255	47829.12
599.613	48445.38
599.972	48066.18
600.33	48261.65
600.688	48045.62
601.046	48205.84
601.404	48315.44
601.762	48298.49
602.12	48591.36
602.478	48454.19
602.836	48508.88
603.194	48334.87
603.552	48343.91
603.91	48184.82
604.268	48565.6
604.625	48334.87
604.983	48633.4
605.341	48365.38
605.698	48517.24
606.056	48465.94
606.413	48608.76
606.771	48776.67
607.128	48686.05
607.485	48656.22
607.843	48652.38
608.2	48856.44
608.557	49071.8
608.914	48855.09
609.272	49039.49
609.629	49150.44
609.986	49265.92
610.343	48864.58
610.7	49247.17
611.057	49218.69
611.414	49107.73
611.771	49262.31
612.127	49393.15
612.484	49285.81
612.841	49571.68
613.198	49373.49
613.554	49325.36
613.911	49528.29
614.267	49543.2
614.624	49606.7
614.98	49500.04
615.337	49754.5
615.693	49641.96
616.05	49599.92
616.406	49874.95
616.762	49751.56
617.118	49715.63
617.475	49709.75
617.831	49813.25
618.187	49819.13
618.543	49888.28
618.899	50062.51
619.255	50003.08
619.611	49955.4
619.967	50171.21
620.323	50099.8
620.678	50060.25
621.034	49903.42
621.39	49966.24
621.746	49882.4
622.101	50221.15
622.457	49948.62
622.812	50013.7
623.168	50123.53
623.523	50134.15
623.879	50274.26
624.234	49942.29
624.589	50234.71
624.945	50204.65
625.3	50155.62
625.655	50149.29
626.01	50234.94
626.365	50167.59
626.72	50139.35
627.075	50082.62
627.43	50004.21
627.785	49895.74
628.14	50020.7
628.495	50070.87
628.85	50027.71
629.205	49946.36
629.559	50084.21
629.914	49872.46
630.269	50002.17
630.623	49784.1
630.978	49787.94
631.332	49912.46
631.687	49934.61
632.041	49697.1
632.396	49870.43
632.75	49633.37
633.104	49683.54
633.459	49592.24
633.813	49507.27
634.167	49535.97
634.521	49533.03
634.875	49641.05
635.229	49463.66
635.583	49256.88
635.937	49293.04
636.291	49291.91
636.645	49161.52
636.999	49073.61
637.352	49143.21
637.706	48924.91
638.06	49145.47
638.413	49140.28
638.767	48940.96
639.121	48987.74
639.474	48738.03
639.828	48692.83
640.181	48801.75
640.534	48873.84
640.888	48616.9
641.241	48620.29
641.594	48533.74
641.947	48866.61
642.301	48508.88
642.654	48644.02
643.007	48606.5
643.36	48437.02
643.713	48338.04
644.066	48438.83
644.419	48352.95
644.771	48100.98
645.124	47854.43
645.477	47767.88
645.83	47392.98
646.182	47282.92
646.535	47054.68
646.888	47068.92
647.24	46838.87
647.593	47245.64
647.945	46946.21
648.298	46754.12
648.65	46692.43
649.002	46571.08
649.355	46732.88
649.707	46617.63
650.059	46780.34
650.411	47295.35
650.763	47378.74
651.115	47724.72
651.467	47609.47
651.819	47582.35
652.171	47383.03
652.523	47353.88
652.875	47336.48
653.227	47133.77
653.578	47372.41
653.93	47303.26
654.282	47078.86
654.633	46992.54
654.985	47212.42
655.337	47101.69
655.688	46983.27
656.039	47292.41
656.391	46871.41
656.742	47042.7
657.094	46948.24
657.445	47017.62
657.796	46979.43
658.147	46919.54
658.498	46964.06
658.849	46862.6
659.2	46747.12
659.551	46730.62
659.902	46910.73
660.253	46809.26
660.604	46892.2
660.955	46514.58
661.306	46704.18
661.656	46623.05
662.007	46697.63
662.358	46616.73
662.708	46622.83
663.059	46469.39
663.409	46333.8
663.76	46626.44
664.11	46551.19
664.461	46534.02
664.811	46441.82
665.161	46514.13
665.511	46419.44
665.862	46469.39
666.212	46509.16
666.562	46486.56
666.912	46400.23
667.262	46474.81
667.612	46303.97
667.962	46287.24
668.312	46223.06
668.662	46425.54
669.011	46361.82
669.361	46150.75
669.711	46138.32
670.06	46238.88
670.41	46068.04
670.76	46008.61
671.109	46205.66
671.459	46128.83
671.808	45962.05
672.157	46099.45
672.507	45818.1
672.856	45871.66
673.205	45802.74
673.554	45957.99
673.904	45861.72
674.253	45944.2
674.602	45857.65
674.951	45229.87
675.3	45074.85
675.649	45616.75
675.998	45643.42
676.346	45710.76
676.695	45710.31
677.044	45466.25
677.393	45485.46
677.741	45599.58
678.09	45492.01
678.438	45438.23
678.787	45403.65
679.135	45289.3
679.484	45156.65
679.832	45247.95
680.181	45207.95
680.529	45206.82
680.877	44968.41
681.225	44940.84
681.573	45273.26
681.922	44937
682.27	44749.88
682.618	44697.91
682.966	44694.97
683.314	44808.19
683.661	44662.2
684.009	44429.89
684.357	44436.67
684.705	44450.23
685.053	44396.67
685.4	44240.52
685.748	44143.34
686.095	44032.84
686.443	44064.03
686.79	43916.68
687.138	43894.31
687.485	43906.29
687.832	43723.92
688.18	43801.66
688.527	43460.2
688.874	43525.96
689.221	43433.76
689.568	43300.2
689.915	43136.59
690.262	43249.36
690.609	43132.98
690.956	42802.82
691.303	42761.69
691.65	42615.48
691.997	42635.14
692.344	42443.05
692.69	42402.15
693.037	42501.35
693.383	42178.2
693.73	42195.83
694.077	42074.92
694.423	41944.76
694.769	41894.59
695.116	41828.38
695.462	41775.27
695.808	41523.3
696.155	41744.76
696.501	41340.71
696.847	41390.87
697.193	41124.67
697.539	41326.02
697.885	40853.94
698.231	40808.29
698.577	40856.43
698.923	40730.55
699.269	40493.27
699.614	40420.96
699.96	40303.45
700.306	40358.59
700.651	40044.92
700.997	40030.46
701.342	39920.86
701.688	39928.54
702.033	39743.23
702.379	39627.98
702.724	39501.89
703.069	39544.14
703.415	39198.16
703.76	39181.67
704.105	39128.11
704.45	39184.38
704.795	38962.01
705.14	38710.04
705.485	38850.38
705.83	38630.27
706.175	38688.57
706.52	38604.06
706.865	38440.9
707.209	38360.22
707.554	38188.7
707.899	38236.16
708.243	38077.97
708.588	38108.25
708.932	37768.6
709.277	37774.92
709.621	37745.55
709.966	37556.85
710.31	37569.51
710.654	37162.51
710.998	37265.79
711.342	37310.3
711.687	37131.78
712.031	36819.47
712.375	36839.13
712.719	36939.01
713.063	36882.52
713.407	36951.67
713.75	36660.83
714.094	36694.95
714.438	36554.84
714.782	36602.53
715.125	36381.29
715.469	36552.13
715.812	36321.4
716.156	36062.2
716.499	35993.73
716.843	36137.91
717.186	35821.53
717.53	36008.19
717.873	36052.03
718.216	35912.15
718.559	35593.97
718.902	35391.26
719.246	35588.54
719.589	35507.41
719.932	35307.19
720.275	35316.68
720.617	35304.93
720.96	35130.25
721.303	35250.25
721.646	35070.59
721.989	34887.54
722.331	35184.03
722.674	34883.48
723.016	34913.76
723.359	34845.96
723.701	34894.77
724.044	34490.04
724.386	34465.86
724.729	34585.4
725.071	34424.73
725.413	34291.85
725.755	34487.33
726.097	34297.95
726.439	33958.75
726.782	33990.84
727.124	34200.78
727.465	34018.87
727.807	33907.46
728.149	33832.66
728.491	33747.01
728.833	33811.87
729.175	33768.7
729.516	33622.04
729.858	33581.59
730.199	33776.16
730.541	33501.82
730.882	33422.27
731.224	33521.25
731.565	33339.79
731.906	33359
732.248	33325.78
732.589	33124.2
732.93	33048.95
733.271	33135.72
733.612	33110.64
733.953	33062.51
734.294	32867.94
734.635	32867.71
734.976	32832.46
735.317	32850.31
735.658	32662.29
735.999	32660.94
736.339	32615.74
736.68	32480.6
737.021	32475.18
737.361	32418.23
737.702	32405.57
738.042	32439.7
738.383	32326.03
738.723	32513.82
739.063	32217.56
739.404	32215.97
739.744	32193.15
740.084	32010.33
740.424	32063.66
740.764	32014.62
741.104	32074.06
741.444	31856.66
741.784	31748.87
742.124	31852.37
742.464	31861.18
742.804	31751.35
743.143	31642.66
743.483	31538.25
743.823	31407.86
744.162	31472.94
744.502	31514.52
744.841	31246.06
745.181	31357.69
745.52	31172.16
745.86	31116.34
746.199	31089
746.538	31070.47
746.877	31063.69
747.216	31056.46
747.556	30946.63
747.895	30884.94
748.234	30784.6
748.573	30739.86
748.911	30695.11
749.25	30526.53
749.589	30438.62
749.928	30634.1
750.267	30791.61
750.605	30572.63
750.944	30294.9
751.283	30199.76
751.621	30345.97
751.96	30120.44
752.298	30113.43
752.636	30108.01
752.975	29966.77
753.313	29879.77
753.651	30122.7
753.989	29833.66
754.327	29795.02
754.666	29555.25
755.004	29688.58
755.342	29429.38
755.679	29498.53
756.017	29226.9
756.355	29419.21
756.693	29277.3
757.031	29262.15
757.368	29073.46
757.706	29030.3
758.044	29003.63
758.381	28836.85
758.719	28830.53
759.056	28766.35
759.394	28636.41
759.731	28552.34
760.068	28365.91
760.405	28442.51
760.743	28296.98
761.08	28442.29
761.417	28131.34
761.754	28092.92
762.091	28094.28
762.428	27935.41
762.765	27675.08
763.102	27827.16
763.438	27565.93
763.775	27523.89
764.112	27452.03
764.449	27502.43
764.785	27393.95
765.122	27222.43
765.458	27075.77
765.795	27176.79
766.131	26965.04
766.467	26940.18
766.804	26816.57
767.14	26593.3
767.476	26682.11
767.812	26430.36
768.148	26489.12
768.485	26335.9
768.821	26133.2
769.157	26278.28
769.492	26031.28
769.828	25994.9
770.164	25812.75
770.5	25592.42
770.836	25777.95
771.171	25528.02
771.507	25578.86
771.842	25352.2
772.178	25415.02
772.513	25327.12
772.849	25182.04
773.184	24984.3
773.519	24984.75
773.855	25003.06
774.19	24862.95
774.525	24710.41
774.86	24734.59
775.195	24692.33
775.53	24591.54
775.865	24390.64
776.2	24290.53
776.535	24168.05
776.87	24096.87
777.205	24079.69
777.539	23918.79
777.874	23948.62
778.209	23693.26
778.543	23694.17
778.878	23546.37
779.212	23541.4
779.547	23352.93
779.881	23323.1
780.215	23344.57
780.55	23365.13
780.884	23120.39
781.218	22926.28
781.552	23015.09
781.886	22830.01
782.22	22666.85
782.554	22633.18
782.888	22409.68
783.222	22430.02
783.556	22319.74
783.889	22200.87
784.223	22058.05
784.557	22067.77
784.89	22183.47
785.224	21846.08
785.557	21758.85
785.891	21798.17
786.224	21648.12
786.558	21703.71
786.891	21445.18
787.224	21442.02
787.557	21348.69
787.891	21353.44
788.224	21275.92
788.557	21197.28
788.89	21152.99
789.223	21133.1
789.556	20946.67
789.888	20871.64
790.221	20813.34
790.554	20744.19
790.887	20690.63
791.219	20525.43
791.552	20517.75
791.884	20398.66
792.217	20394.14
792.549	20360.92
792.882	20172.68
793.214	20185.78
793.546	20103.3
793.879	19904.43
794.211	19964.55
794.543	19962.29
794.875	19812.46
795.207	19819.46
795.539	19774.49
795.871	19748.51
796.203	19565.23
796.535	19444.79
796.867	19493.82
797.198	19440.49
797.53	19427.38
797.862	19176.77
798.193	19333.38
798.525	19156.88
798.856	19078.69
799.188	18949.43
799.519	18918.02
799.85	18739.72
800.182	18784.92
800.513	18727.52
800.844	18612.26
801.175	18711.92
801.506	18673.96
801.837	18548.54
802.168	18440.74
802.499	18448.2
802.83	18273.06
803.161	18243.24
803.491	18323.23
803.822	18195.78
804.153	18122.11
804.483	17951.49
804.814	18011.38
805.145	17983.35
805.475	17921.66
805.805	17927.31
806.136	17930.7
806.466	17789.46
806.796	17803.02
807.126	17644.15
807.457	17648.67
807.787	17595.12
808.117	17455.23
808.447	17386.31
808.777	17460.43
809.107	17279.87
809.436	17283.94
809.766	17287.33
810.096	17293.66
810.426	17151.96
810.755	17158.97
811.085	17054.79
811.414	17032.65
811.744	16896.83
812.073	16912.42
812.403	16903.84
812.732	16835.59
813.061	16775.93
813.39	16743.16
813.719	16652.77
814.049	16651.19
814.378	16643.96
814.707	16535.26
815.036	16563.51
815.365	16452.32
815.693	16362.15
816.022	16342.49
816.351	16267.02
816.68	16195.38
817.008	16219.56
817.337	16136.62
817.665	16061.82
817.994	16049.62
818.322	16093.24
818.651	15821.38
818.979	15877.87
819.307	15933.01
819.636	15898.21
819.964	15789.51
820.292	15972.33
820.62	15856.86
820.948	15730.31
821.276	15788.38
821.604	15802.17
821.932	15775.73
822.259	15763.07
822.587	15719.23
822.915	15745
823.243	15693.02
823.57	15650.99
823.898	15686.69
824.225	15676.75
824.553	15616.86
824.88	15733.47
825.207	15723.75
825.535	15646.02
825.862	15647.82
826.189	15522.63
826.516	15719.01
826.843	15705.67
827.17	15655.28
827.497	15639.24
827.824	15633.59
828.151	15721.95
828.478	15673.59
828.805	15716.07
829.131	15692.79
829.458	15592.68
829.785	15486.25
830.111	15632.91
830.438	15586.36
830.764	15556.07
831.09	15621.61
831.417	15490.54
831.743	15592.91
832.069	15537.77
832.395	15467.04
832.722	15403.08
833.048	15439.24
833.374	15469.75
833.7	15385.91
834.026	15408.28
834.351	15409.86
834.677	15417.09
835.003	15419.81
835.329	15422.52
835.654	15371.22
835.98	15267.95
836.306	15343.42
836.631	15276.76
836.956	15286.48
837.282	15290.09
837.607	15211.68
837.932	15292.8
838.258	15178.68
838.583	15244.22
838.908	14972.36
839.233	15128.29
839.558	15060.27
839.883	14967.16
840.208	14959.93
840.533	15024.11
840.858	14981.63
841.182	14998.57
841.507	14891.91
841.832	14889.88
842.156	14783.44
842.481	14874.96
842.805	14748.19
843.13	14782.76
843.454	14716.77
843.778	14666.61
844.103	14588.87
844.427	14568.98
844.751	14539.15
845.075	14457.8
845.399	14392.04
845.723	14389.1
846.047	14399.04
846.371	14262.32
846.695	14262.1
847.019	14169.22
847.343	14167.86
847.666	14064.59
847.99	13981.88
848.313	13998.37
848.637	13887.64
848.96	13908.66
849.284	13859.85
849.607	13669.34
849.931	13717.25
850.254	13583.47
850.577	13601.32
850.9	13456.02
851.223	13366.3
851.546	13299.41
851.869	13199.98
852.192	13369.01
852.515	13221.45
852.838	13108.68
853.161	13123.6
853.483	13072.07
853.806	12990.27
854.129	13025.29
854.451	12992.53
854.774	12890.38
855.096	12785.3
855.419	12861.91
855.741	12821
856.063	12799.08
856.385	12720.67
856.708	12639.99
857.03	12628.02
857.352	12629.82
857.674	12506.89
857.996	12560.45
858.318	12414.24
858.64	12510.28
858.961	12422.82
859.283	12326.33
859.605	12273.67
859.926	12356.61
860.248	12260.79
860.57	12221.7
860.891	12236.84
861.212	12225.31
861.534	12129.27
861.855	12129.72
862.176	12075.94
862.498	12128.37
862.819	12091.53
863.14	12013.34
863.461	12020.57
863.782	11889.96
864.103	11921.59
864.424	11835.49
864.745	11926.56
865.065	11804.08
865.386	11878.88
865.707	11839.34
866.027	11794.59
866.348	11764.76
866.668	11780.58
866.989	11654.93
867.309	11607.7
867.63	11691.77
867.95	11654.71
868.27	11583.98
868.59	11563.18
868.91	11533.13
869.23	11540.59
869.55	11454.94
869.87	11517.54
870.19	11502.62
870.51	11492.68
870.83	11400.7
871.15	11394.38
871.469	11307.82
871.789	11362.29
872.109	11402.06
872.428	11229.41
872.748	11301.72
873.067	11263.76
873.386	11310.99
873.706	11292.23
874.025	11175.17
874.344	11136.98
874.663	11220.59
874.982	11164.55
875.301	11117.55
875.62	11098.11
875.939	11016.98
876.258	11033.26
876.577	11038.45
876.896	11029.41
877.214	10990.77
877.533	11079.13
877.852	11008.17
878.17	10963.88
878.489	11014.72
878.807	10969.98
879.125	10921.62
879.444	10859.47
879.762	10799.59
880.08	10885.46
880.398	10841.4
880.716	10897.67
881.034	10798.23
881.352	10793.26
881.67	10733.38
881.988	10731.57
882.306	10648.18
882.624	10733.15
882.941	10647.95
883.259	10611.35
883.577	10548.3
883.894	10572.02
884.212	10574.96
884.529	10542.87
884.846	10508.52
885.164	10464
885.481	10525.92
885.798	10465.36
886.115	10421.07
886.432	10454.06
886.75	10368.87
887.067	10355.31
887.383	10391.01
887.7	10335.87
888.017	10284.35
888.334	10342.43
888.651	10295.87
888.967	10272.82
889.284	10189.89
889.6	10195.09
889.917	10121.64
890.233	10127.29
890.55	10090
890.866	10083.22
891.182	10002.1
891.498	10054.75
891.815	9944.7
892.131	9993.51
892.447	9923.91
892.763	9855.66
893.079	9871.7
893.395	9849.56
893.71	9747.64
894.026	9817.24
894.342	9700.18
894.657	9714.42
894.973	9671.48
895.289	9722.78
895.604	9623.35
895.92	9522.56
896.235	9461.55
896.55	9466.74
896.865	9508.1
897.181	9414.09
897.496	9494.99
897.811	9319.4
898.126	9336.58
898.441	9312.62
898.756	9235.11
899.071	9255.67
899.386	9211.16
899.7	9192.4
900.015	9124.83
900.33	9022.69
900.644	9035.57
900.959	9005.96
901.273	9030.37
901.588	8948.11
901.902	8945.4
902.216	8959.64
902.531	8887.1
902.845	8902.92
903.159	8791.51
903.473	8682.36
903.787	8736.82
904.101	8717.38
904.415	8676.48
904.729	8675.58
905.042	8613.66
905.356	8591.51
905.67	8557.16
905.984	8514
906.297	8450.95
906.611	8432.87
906.924	8447.33
907.237	8434.91
907.551	8381.12
907.864	8241.92
908.177	8308.35
908.491	8237.17
908.804	8155.14
909.117	8183.84
909.43	8108.13
909.743	8122.6
910.056	8034.01
910.368	8025.88
910.681	7995.82
910.994	8024.97
911.307	7954.01
911.619	7880.57
911.932	7951.08
912.244	7874.02
912.557	7847.35
912.869	7783.4
913.181	7736.17
913.494	7742.49
913.806	7672.67
914.118	7661.37
914.43	7609.39
914.742	7632.89
915.054	7564.87
915.366	7582.27
915.678	7500.24
915.99	7502.27
916.302	7376.63
916.613	7387.7
916.925	7389.28
917.236	7355.61
917.548	7365.33
917.859	7313.13
918.171	7277.42
918.482	7205.56
918.794	7207.14
919.105	7151.78
919.416	7150.65
919.727	7119.69
920.038	7171.66
920.349	7032
920.66	7002.63
920.971	6936.87
921.282	6984.32
921.593	6886.92
921.903	6848.73
922.214	6851.67
922.525	6823.42
922.835	6761.05
923.146	6759.92
923.456	6732.35
923.767	6666.82
924.077	6689.19
924.387	6637.66
924.697	6639.47
925.008	6601.28
925.318	6592.92
925.628	6537.33
925.938	6527.61
926.248	6466.37
926.558	6441.51
926.867	6439.03
927.177	6387.73
927.487	6320.61
927.796	6288.3
928.106	6271.57
928.416	6283.1
928.725	6260.05
929.034	6287.39
929.344	6225.92
929.653	6223.89
929.962	6160.61
930.271	6136.43
930.581	6078.13
930.89	6037.45
931.199	6060.5
931.508	6060.96
931.817	6024.8
932.125	5970.34
932.434	5982.09
932.743	5904.8
933.051	5845.14
933.36	5857.35
933.669	5834.75
933.977	5846.95
934.286	5809.66
934.594	5746.39
934.902	5734.41
935.21	5749.33
935.519	5696.22
935.827	5663
936.135	5623
936.443	5617.8
936.751	5594.53
937.059	5557.24
937.367	5531.25
937.674	5522.21
937.982	5544.13
938.29	5497.58
938.597	5438.83
938.905	5448.54
939.213	5409.67
939.52	5408.32
939.827	5410.35
940.135	5338.04
940.442	5261.66
940.749	5334.42
941.056	5298.49
941.363	5216.23
941.67	5208.32
941.977	5186.4
942.284	5182.56
942.591	5166.29
942.898	5119.96
943.205	5128.1
943.511	5093.3
943.818	5043.13
944.125	5043.13
944.431	5010.36
944.738	5027.09
945.044	5001.55
945.35	4961.32
945.657	4942.79
945.963	4955.9
946.269	4853.76
946.575	4862.34
946.881	4860.08
947.187	4879.07
947.493	4808.79
947.799	4818.96
948.105	4771.95
948.41	4752.29
948.716	4796.58
949.022	4705.51
949.327	4749.58
949.633	4672.74
949.938	4681.11
950.244	4658.51
950.549	4576.48
950.854	4576.93
951.16	4620.09
951.465	4562.24
951.77	4521.79
952.075	4475.91
952.38	4530.15
952.685	4483.82
952.99	4448.57
953.294	4372.19
953.599	4439.98
953.904	4422.81
954.209	4291.96
954.513	4369.48
954.818	4334.67
955.122	4353.2
955.426	4325.86
955.731	4282.25
956.035	4236.15
956.339	4244.73
956.643	4204.06
956.948	4191.63
957.252	4165.19
957.556	4154.57
957.86	4184.62
958.163	4136.94
958.467	4127.67
958.771	4082.93
959.075	4108.69
959.378	4055.36
959.682	4051.07
959.985	4034.34
960.289	4005.64
960.592	3974.46
960.896	3982.37
961.199	3949.15
961.502	3882.71
961.805	3872.09
962.108	3885.19
962.411	3879.09
962.714	3841.58
963.017	3841.81
963.32	3848.81
963.623	3787.12
963.926	3786.44
964.228	3738.76
964.531	3774.01
964.833	3778.08
965.136	3709.83
965.438	3721.36
965.741	3679.1
966.043	3687.01
966.345	3679.55
966.648	3609.5
966.95	3645.43
967.252	3589.16
967.554	3608.82
967.856	3630.96
968.158	3560.46
968.46	3557.29
968.761	3561.59
969.063	3502.15
969.365	3513.23
969.666	3453.79
969.968	3438.43
970.269	3455.38
970.571	3438.65
970.872	3418.31
971.174	3415.38
971.475	3388.48
971.776	3394.59
972.077	3360.91
972.378	3360.24
972.679	3335.6
972.98	3346.9
973.281	3352.55
973.582	3297.87
973.883	3275.72
974.183	3300.8
974.484	3243.63
974.785	3221.71
975.085	3244.53
975.386	3219.45
975.686	3210.64
975.986	3179.22
976.287	3210.41
976.587	3160.02
976.887	3158.21
977.187	3158.89
977.487	3132.22
977.787	3081.15
978.087	3114.82
978.387	3097.87
978.687	3048.15
978.987	3059.91
979.286	3057.19
979.586	3006.35
979.885	3038.44
980.185	2986.69
980.484	2983.52
980.784	2991.21
981.083	2956.18
981.382	2959.57
981.682	2900.81
981.981	2912.11
982.28	2906.69
982.579	2899.01
982.878	2896.97
983.177	2906.46
983.475	2879.57
983.774	2812.91
984.073	2817.65
984.372	2802.29
984.67	2785.11
984.969	2793.47
985.267	2772.68
985.566	2770.2
985.864	2783.08
986.162	2752.57
986.461	2711.89
986.759	2726.13
987.057	2668.5
987.355	2705.11
987.653	2680.25
987.951	2657.43
988.249	2641.16
988.547	2629.63
988.844	2634.38
989.142	2623.53
989.44	2579.47
989.737	2609.3
990.035	2610.88
990.332	2592.8
990.63	2518.45
990.927	2540.82
991.224	2582.18
991.521	2504.44
991.819	2506.25
992.116	2520.03
992.413	2511.45
992.71	2496.76
993.006	2447.27
993.303	2453.59
993.6	2447.27
993.897	2433.26
994.193	2442.97
994.49	2403.65
994.787	2389.64
995.083	2408.85
995.379	2376.76
995.676	2366.36
995.972	2354.61
996.268	2361.17
996.565	2308.51
996.861	2298.8
997.157	2311.68
997.453	2294.05
997.749	2284.33
998.044	2251.11
998.34	2255.41
998.636	2256.76
998.932	2236.42
999.227	2235.29
999.523	2229.42
999.818	2234.39
1000.114	2181.28
1000.409	2173.83
1000.704	2173.15
1001	2143.32
1001.295	2129.31
1001.59	2110.78
1001.885	2136.09
1002.18	2109.87
1002.475	2100.61
1002.77	2094.51
1003.065	2082.08
1003.359	2098.57
1003.654	2056.09
1003.949	2064.45
1004.243	2058.58
1004.538	2025.13
1004.832	2014.51
1005.127	2018.8
1005.421	1994.17
1005.715	1969.31
1006.009	1951.69
1006.304	1948.07
1006.598	1909.2
1006.892	1941.97
1007.186	1918.24
1007.48	1921.63
1007.773	1924.12
1008.067	1865.59
1008.361	1860.16
1008.655	1870.11
1008.948	1859.94
1009.242	1841.18
1009.535	1809.77
1009.829	1825.14
1010.122	1800.05
1010.415	1778.36
1010.708	1792.59
1011.001	1716.21
1011.295	1795.31
1011.588	1783.78
1011.881	1763.67
1012.173	1734.06
1012.466	1746.95
1012.759	1740.84
1013.052	1734.52
1013.344	1680.51
1013.637	1645.93
1013.93	1675.54
1014.222	1692.26
1014.514	1672.37
1014.807	1630.56
1015.099	1618.59
1015.391	1658.36
1015.683	1599.83
1015.976	1583.79
1016.268	1577.68
1016.56	1584.01
1016.851	1564.8
1017.143	1568.19
1017.435	1579.72
1017.727	1558.48
1018.018	1554.41
1018.31	1536.1
1018.602	1515.99
1018.893	1523.67
1019.185	1522.32
1019.476	1502.21
1019.767	1477.35
1020.058	1469.66
1020.35	1464.02
1020.641	1446.61
1020.932	1450.46
1021.223	1411.59
1021.514	1429.89
1021.804	1417.24
1022.095	1400.06
1022.386	1396.9
1022.677	1379.95
1022.967	1368.88
1023.258	1379.27
1023.548	1351.25
1023.839	1333.85
1024.129	1323.23
1024.419	1325.26
1024.709	1341.53
1025	1309.67
1025.29	1305.15
1025.58	1271.03
1025.87	1275.55
1026.16	1272.83
1026.449	1275.09
1026.739	1261.53
1027.029	1259.05
1027.319	1245.72
1027.608	1240.52
1027.898	1263.12
1028.187	1224.02
1028.477	1254.76
1028.766	1221.08
1029.055	1194.19
1029.344	1184.02
1029.634	1182.21
1029.923	1197.36
1030.212	1166.62
1030.501	1143.35
1030.79	1167.07
1031.078	1140.63
1031.367	1176.34
1031.656	1136.79
1031.945	1143.8
1032.233	1121.88
1032.522	1106.06
1032.81	1120.75
1033.099	1085.04
1033.387	1064.03
1033.675	1075.55
1033.963	1091.14
1034.251	1075.1
1034.54	1058.83
1034.828	1072.16
1035.116	1032.16
1035.403	1050.24
1035.691	1034.2
1035.979	1022.67
1036.267	1012.28
1036.554	1007.53
1036.842	1020.86
1037.129	1000.52
1037.417	980.41
1037.704	987.42
1037.992	961.66
1038.279	972.95
1038.566	966.4
1038.853	966.4
1039.14	966.4
