Data from breadboard_white_FLMS001491_00020.txt Node
Date: Wed Feb 08 10:47:21 GMT 2017
User: dcchb
Spectrometer: FLMS00149
Trigger mode: 0
Integration Time (sec): 2.000000E-2
Scans to average: 10
Electric dark correction enabled: true
Nonlinearity correction enabled: false
Boxcar width: 0
XAxis mode: Wavelengths
Number of Pixels in Spectrum: 2048
>>>>>Begin Spectral Data<<<<<
341.393	-4.04
341.776	-4.04
342.16	-4.04
342.543	-52.85
342.927	-61.21
343.31	-56.47
343.693	-66.86
344.077	-65.51
344.46	-50.37
344.843	-75.9
345.226	-49.69
345.61	-19.41
345.993	-20.54
346.376	0.71
346.759	14.94
347.142	14.04
347.525	26.24
347.908	55.62
348.291	73.7
348.674	108.05
349.057	111.44
349.44	135.39
349.823	150.31
350.206	149.18
350.588	216.07
350.971	229.85
351.354	260.36
351.737	257.42
352.119	299
352.502	294.26
352.884	285.67
353.267	323.86
353.65	320.7
354.032	324.09
354.414	343.97
354.797	334.48
355.179	331.54
355.562	367.48
355.944	361.6
356.326	361.37
356.709	380.36
357.091	357.31
357.473	364.76
357.855	366.57
358.238	380.13
358.62	358.44
359.002	357.98
359.384	364.54
359.766	366.35
360.148	351.21
360.53	365.44
360.912	366.35
361.294	362.96
361.676	361.83
362.057	370.64
362.439	367.25
362.821	358.44
363.203	365.22
363.584	378.78
363.966	342.84
364.348	360.92
364.729	371.77
365.111	369.74
365.493	353.92
365.874	332.22
366.256	376.06
366.637	369.28
367.019	341.04
367.4	340.13
367.781	360.7
368.163	357.98
368.544	359.11
368.925	358.66
369.306	370.41
369.688	374.93
370.069	363.63
370.45	361.6
370.831	362.96
371.212	366.12
371.593	370.41
371.974	376.06
372.355	330.87
372.736	360.24
373.117	367.93
373.498	373.8
373.879	347.14
374.26	386.91
374.641	381.26
375.021	357.76
375.402	369.28
375.783	380.13
376.163	394.82
376.544	389.17
376.925	383.07
377.305	396.4
377.686	385.1
378.066	416.97
378.447	427.36
378.827	435.27
379.208	414.03
379.588	402.73
379.968	420.81
380.349	411.99
380.729	414.71
381.109	427.14
381.489	416.51
381.87	415.16
382.25	418.32
382.63	410.19
383.01	426.23
383.39	412.67
383.77	432.79
384.15	434.37
384.53	432.79
384.91	447.25
385.29	440.69
385.67	452.9
386.049	467.59
386.429	478.43
386.809	458.77
387.189	503.74
387.568	483.63
387.948	468.26
388.328	491.54
388.707	484.54
389.087	494.93
389.466	504.2
389.846	514.59
390.225	510.52
390.605	531.09
390.984	510.52
391.363	536.51
391.743	534.7
392.122	550.75
392.501	552.1
392.881	572.22
393.26	544.87
393.639	563.86
394.018	591.2
394.397	594.14
394.776	581.26
395.155	588.71
395.534	614.48
395.913	596.62
396.292	628.49
396.671	625.32
397.05	665.1
397.429	622.16
397.808	664.64
398.186	673.91
398.565	686.56
398.944	710.97
399.323	681.82
399.701	717.3
400.08	726.11
400.458	703.06
400.837	748.03
401.215	749.16
401.594	750.52
401.972	769.95
402.351	750.52
402.729	796.62
403.107	774.7
403.486	803.17
403.864	835.49
404.242	826.9
404.62	845.88
404.999	887.46
405.377	872.77
405.755	885.65
406.133	905.99
406.511	919.78
406.889	953.22
407.267	971.3
407.645	978.99
408.023	997.74
408.401	996.61
408.779	1014.46
409.156	1037.52
409.534	1060.11
409.912	1112.99
410.29	1107.8
410.667	1105.76
411.045	1154.12
411.422	1187.34
411.8	1169.72
412.178	1212.88
412.555	1232.09
412.933	1256.04
413.31	1298.75
413.687	1290.39
414.065	1352.08
414.442	1347.11
414.819	1364.29
415.197	1383.49
415.574	1427.34
415.951	1485.41
416.328	1468.46
416.705	1500.33
417.082	1485.64
417.46	1534.23
417.837	1557.5
418.214	1557.28
418.591	1602.7
418.967	1625.97
419.344	1642.24
419.721	1657.16
420.098	1640.21
420.475	1694.67
420.852	1690.61
421.228	1753.43
421.605	1770.6
421.982	1753.43
422.358	1799.3
422.735	1816.7
423.111	1833.2
423.488	1893.31
423.864	1886.98
424.241	1916.59
424.617	1914.78
424.994	1958.85
425.37	1931.28
425.746	2007.66
426.123	2002.24
426.499	2014.44
426.875	2085.4
427.251	2113.42
427.627	2159.29
428.003	2163.59
428.379	2185.28
428.756	2214.89
429.132	2257.37
429.507	2305.5
429.883	2317.93
430.259	2358.61
430.635	2356.58
431.011	2417.37
431.387	2488.1
431.763	2481.09
432.138	2521.54
432.514	2593.86
432.89	2579.4
433.265	2627.53
433.641	2686.06
434.016	2713.18
434.392	2751.82
434.767	2778.94
435.143	2794.31
435.518	2844.02
435.894	2870.46
436.269	2937.13
436.644	2955.2
437.02	2994.07
437.395	3023.68
437.77	3099.38
438.145	3109.33
438.52	3117.91
438.895	3155.43
439.271	3178.02
439.646	3261.86
440.021	3275.87
440.395	3291.24
440.77	3269.77
441.145	3311.58
441.52	3353.61
441.895	3409.43
442.27	3401.29
442.645	3445.14
443.019	3481.07
443.394	3495.08
443.769	3564.91
444.143	3524.91
444.518	3595.19
444.892	3580.73
445.267	3634.28
445.641	3657.79
446.016	3700.04
446.39	3707.73
446.764	3745.01
447.139	3779.14
447.513	3830.21
447.887	3867.05
448.262	3820.04
448.636	3885.58
449.01	3917.67
449.384	3958.57
449.758	4015.52
450.132	4011
450.506	4067.72
450.88	4062.75
451.254	4082.63
451.628	4150.43
452.002	4232.01
452.376	4256.87
452.75	4303.19
453.123	4337.32
453.497	4420.03
453.871	4452.34
454.244	4492.34
454.618	4521.04
454.992	4626.57
455.365	4626.57
455.739	4730.53
456.112	4791.54
456.486	4844.19
456.859	4918.32
457.232	5002.61
457.606	4946.79
457.979	5052.55
458.352	5145.66
458.725	5217.52
459.099	5277.18
459.472	5314.24
459.845	5488.02
460.218	5464.74
460.591	5549.71
460.964	5527.34
461.337	5683.27
461.71	5792.64
462.083	5855.47
462.456	5876.71
462.829	5838.52
463.201	6010.72
463.574	6039.42
463.947	6144.5
464.32	6307.43
464.692	6311.27
465.065	6398.05
465.438	6477.37
465.81	6600.76
466.183	6638.72
466.555	6823.8
466.928	6799.62
467.3	6786.97
467.672	6951.94
468.045	7171.37
468.417	7176.56
468.789	7237.58
469.161	7271.48
469.534	7443.9
469.906	7605.7
470.278	7648.87
470.65	7786.26
471.022	7904
471.394	8077.1
471.766	8160.94
472.138	8208.85
472.51	8462.63
472.882	8544.89
473.253	8631.89
473.625	8754.37
473.997	8942.62
474.369	9001.37
474.74	9116.62
475.112	9271.42
475.484	9428.25
475.855	9595.26
476.227	9716.38
476.598	9987.79
476.97	10038.86
477.341	10286.76
477.713	10441.34
478.084	10595
478.455	10842.46
478.827	10928.1
479.198	11260.52
479.569	11284.7
479.94	11618.93
480.311	11696.44
480.682	11952.48
481.053	12213.04
481.424	12378.23
481.795	12454.39
482.166	12723.54
482.537	12908.16
482.908	13154.48
483.279	13356.06
483.65	13538.2
484.021	13815.48
484.391	13913.79
484.762	14090.28
485.133	14246.43
485.503	14469.48
485.874	14763.93
486.244	15016.58
486.615	15193.75
486.985	15320.53
487.356	15678.71
487.726	15900.18
488.097	16200.73
488.467	16201.18
488.837	16673.04
489.207	16802.75
489.578	17104.66
489.948	17100.14
490.318	17381.27
490.688	17521.83
491.058	17772.44
491.428	18048.37
491.798	18190.51
492.168	18570.39
492.538	18632.53
492.908	18799.08
493.278	19124.05
493.648	19181.44
494.017	19437.71
494.387	19540.98
494.757	19778.94
495.126	20055.55
495.496	20021.42
495.866	20158.82
496.235	20382.77
496.605	20712.03
496.974	20743.66
497.344	20924.9
497.713	21144.56
498.082	21209.19
498.452	21476.75
498.821	21618.22
499.19	21708.38
499.559	21937.3
499.928	22106.11
500.298	22197.41
500.667	22353.34
501.036	22394.47
501.405	22744.51
501.774	22684.18
502.143	22956.49
502.512	23195.8
502.88	23283.26
503.249	23280.55
503.618	23531.84
503.987	23456.59
504.356	23779.52
504.724	23925.5
505.093	24049.79
505.462	24145.83
505.83	24440.74
506.199	24637.8
506.567	24873.27
506.936	24848.41
507.304	25223.77
507.672	25231.68
508.041	25472.8
508.409	25730.2
508.777	25922.96
509.145	26066.01
509.514	26011.55
509.882	26293.8
510.25	26442.72
510.618	26618.09
510.986	26789.83
511.354	27039.54
511.722	27233.21
512.09	27479.98
512.458	27444.96
512.826	27773.08
513.193	27954.1
513.561	27978.05
513.929	28285.16
514.297	28574.42
514.664	28674.98
515.032	28733.51
515.4	29175.76
515.767	29266.38
516.135	29415.3
516.502	29384.11
516.869	29881.28
517.237	30017.32
517.604	29925.57
517.972	30311.1
518.339	30590.41
518.706	30617.75
519.073	30911.76
519.44	31257.06
519.808	31452.08
520.175	31377.06
520.542	31852.98
520.909	32090.48
521.276	32094.78
521.643	32469.23
522.009	32695.44
522.376	32970.01
522.743	33207.52
523.11	33521.63
523.477	33755.52
523.843	33826.48
524.21	34452.46
524.577	34588.27
524.943	34730.41
525.31	34909.62
525.676	35279.78
526.043	35505.76
526.409	35667.56
526.776	36079.98
527.142	36147.1
527.508	36394.33
527.874	36680.87
528.241	36771.94
528.607	36939.17
528.973	37338.26
529.339	37251.7
529.705	37681.3
530.071	37858.02
530.437	38158.12
530.803	38307.27
531.169	38453.48
531.535	38647.83
531.901	38702.74
532.267	39070.64
532.632	39219.34
532.998	39436.96
533.364	39563.28
533.73	39697.29
534.095	40084.4
534.461	40171.85
534.826	40249.82
535.192	40441.22
535.557	40704.72
535.923	40779.07
536.288	40975.67
536.653	41200.75
537.019	41231.49
537.384	41416.34
537.749	41632.61
538.114	41741.98
538.479	41668.09
538.845	41990.56
539.21	41980.85
539.575	42120.05
539.94	42229.2
540.305	42445.92
540.67	42519.14
541.034	42646.59
541.399	42919.8
541.764	42923.65
542.129	43033.47
542.494	43119.8
542.858	43292.45
543.223	43358.89
543.587	43684.08
543.952	43715.71
544.316	43755.71
544.681	43898.99
545.045	44218.75
545.41	44201.13
545.774	44409.26
546.138	44266.43
546.503	44619.65
546.867	44588.01
547.231	44809.25
547.595	45002.01
547.959	45195
548.324	45380.3
548.688	45281.78
549.052	45460.98
549.416	45576.23
549.779	45681.76
550.143	45731.03
550.507	46115.88
550.871	46105.26
551.235	46136.44
551.599	46505.47
551.962	46542.08
552.326	46702.76
552.689	46820.49
553.053	46761.96
553.417	46953.37
553.78	47349.97
554.143	47129.18
554.507	47486.46
554.87	47647.14
555.234	47955.15
555.597	47754.93
555.96	48055.04
556.323	48240.57
556.686	48228.14
557.05	48495.93
557.413	48548.81
557.776	48677.84
558.139	48859.76
558.502	48922.81
558.865	49099.08
559.228	49497.71
559.59	49522.12
559.953	49636.69
560.316	49959.17
560.679	49885.04
561.041	50141.08
561.404	50368.42
561.767	50593.5
562.129	50509.89
562.492	50842.99
562.854	50756.21
563.217	50843.44
563.579	51077.78
563.941	51272.8
564.304	51330.66
564.666	51537.88
565.028	51694.94
565.39	51688.39
565.753	51950.53
566.115	52023.75
566.477	52160.46
566.839	52237.07
567.201	52414.02
567.563	52430.97
567.925	52685.2
568.287	52632.09
568.648	52800.67
569.01	52917.28
569.372	53161.57
569.734	53068.92
570.095	53275.24
570.457	53333.09
570.819	53440.21
571.18	53415.35
571.542	53574.21
571.903	53569.92
572.265	53763.36
572.626	53810.82
572.987	53914.77
573.349	54048.32
573.71	54085.16
574.071	54204.25
574.432	54273.86
574.794	54495.54
575.155	54419.39
575.516	54306.85
575.877	54521.08
576.238	54508.88
576.599	54657.8
576.96	54625.48
577.32	54710.91
577.681	54803.56
578.042	54875.65
578.403	54858.7
578.763	54885.36
579.124	54880.17
579.485	54979.83
579.845	55080.39
580.206	55027.06
580.566	54987.96
580.927	55134.62
581.287	55244.68
581.648	55183.44
582.008	55274.51
582.368	55174.4
582.728	55288.74
583.089	55244
583.449	55258.91
583.809	55238.35
584.169	55303.21
584.529	55231.57
584.889	55422.53
585.249	55244.9
585.609	55192.25
585.969	55364
586.329	55255.3
586.688	55307.27
587.048	55240.38
587.408	55247.62
587.768	55203.55
588.127	55261.63
588.487	55289.2
588.846	55353.38
589.206	55123.55
589.565	55201.29
589.925	55348.63
590.284	55259.14
590.643	55326.71
591.003	55387.05
591.362	55474.5
591.721	55367.16
592.08	55354.73
592.44	55337.33
592.799	55421.4
593.158	55281.96
593.517	55384.56
593.876	55390.66
594.235	55375.07
594.593	55421.85
594.952	55457.55
595.311	55375.52
595.67	55429.08
596.029	55577.1
596.387	55573.93
596.746	55598.11
597.104	55442.64
597.463	55467.95
597.822	55593.59
598.18	55502.98
598.538	55493.71
598.897	55676.98
599.255	55379.82
599.613	55801.05
599.972	55641.05
600.33	55670.88
600.688	55587.49
601.046	55630.43
601.404	55784.78
601.762	55743.42
602.12	55840.59
602.478	55816.87
602.836	55853.7
603.194	55738.45
603.552	55826.13
603.91	55742.74
604.268	55875.4
604.625	55731.67
604.983	56028.84
605.341	55813.7
605.698	55841.95
606.056	56006.24
606.413	55974.38
606.771	56082.17
607.128	56048.27
607.485	55984.77
607.843	56028.84
608.2	56182.28
608.557	56226.8
608.914	56155.39
609.272	56247.81
609.629	56227.93
609.986	56354.48
610.343	56226.57
610.7	56480.13
611.057	56338.21
611.414	56290.07
611.771	56388.15
612.127	56477.41
612.484	56461.59
612.841	56482.38
613.198	56402.16
613.554	56458.88
613.911	56612.55
614.267	56546.34
614.624	56544.53
614.98	56648.26
615.337	56662.72
615.693	56628.37
616.05	56597.86
616.406	56806.22
616.762	56665.43
617.118	56710.18
617.475	56758.31
617.831	56784.07
618.187	56797.4
618.543	56779.78
618.899	56972.77
619.255	56834.24
619.611	56825.2
619.967	56894.58
620.323	56985.2
620.678	56816.61
621.034	56831.53
621.39	56826.33
621.746	56829.04
622.101	57078.98
622.457	56798.99
622.812	56928.93
623.168	57041.69
623.523	57024.97
623.879	57060.22
624.234	56853.22
624.589	56981.81
624.945	57069.71
625.3	57074.01
625.655	56957.17
626.01	56949.27
626.365	56919.66
626.72	56963.95
627.075	56975.71
627.43	57004.18
627.785	56876.95
628.14	56869.72
628.495	56909.49
628.85	56864.52
629.205	56755.6
629.559	56954.46
629.914	56701.36
630.269	56864.52
630.623	56631.53
630.978	56583.85
631.332	56773.9
631.687	56712.21
632.041	56594.92
632.396	56681.02
632.75	56641.93
633.104	56583.4
633.459	56443.29
633.813	56404.42
634.167	56414.82
634.521	56434.93
634.875	56436.51
635.229	56358.55
635.583	56361.03
635.937	56303.18
636.291	56319
636.645	56273.8
636.999	56158.1
637.352	56225.44
637.706	56042.62
638.06	56127.59
638.413	56042.85
638.767	56010.08
639.121	56045.11
639.474	55834.49
639.828	55848.96
640.181	56003.98
640.534	55881.5
640.888	55782.97
641.241	55728.05
641.594	55787.94
641.947	55901.61
642.301	55698.9
642.654	55752.46
643.007	55730.09
643.36	55652.35
643.713	55659.81
644.066	55709.3
644.419	55537.78
644.771	55301.85
645.124	55113.83
645.477	55105.47
645.83	54911.13
646.182	54651.02
646.535	54586.39
646.888	54575.32
647.24	54488.77
647.593	54533.74
647.945	54540.29
648.298	54414.19
648.65	54254.19
649.002	54186.63
649.355	54330.13
649.707	54308.2
650.059	54446.51
650.411	54793.62
650.763	54730.79
651.115	55038.36
651.467	54969.2
651.819	54975.53
652.171	54839.72
652.523	54759.94
652.875	54782.77
653.227	54661.19
653.578	54888.98
653.93	54802.43
654.282	54638.59
654.633	54528.09
654.985	54633.85
655.337	54678.82
655.688	54631.36
656.039	54728.31
656.391	54389.56
656.742	54483.57
657.094	54499.61
657.445	54552.27
657.796	54461.2
658.147	54416.22
658.498	54408.77
658.849	54463.68
659.2	54422.55
659.551	54365.15
659.902	54466.39
660.253	54365.38
660.604	54346.17
660.955	54232.05
661.306	54232.27
661.656	54236.34
662.007	54264.59
662.358	54217.36
662.708	54205.38
663.059	54172.39
663.409	53971.49
663.76	54204.48
664.11	54101.88
664.461	54104.14
664.811	54160.64
665.161	54063.92
665.511	53941.21
665.862	53993.64
666.212	54121.09
666.562	54082.22
666.912	53977.14
667.262	53935.33
667.612	54021.88
667.962	54005.84
668.312	53956.35
668.662	54048.32
669.011	54022.11
669.361	53936.01
669.711	53804.94
670.06	53806.3
670.41	53801.1
670.76	53737.6
671.109	53808.1
671.459	53743.47
671.808	53699.63
672.157	53719.29
672.507	53509.36
672.856	53488.57
673.205	53623.03
673.554	53602.69
673.904	53462.58
674.253	53628.22
674.602	53467.55
674.951	53131.96
675.3	52981.69
675.649	53328.8
675.998	53410.6
676.346	53396.14
676.695	53376.48
677.044	53246.76
677.393	53321.11
677.741	53357.27
678.09	53395.69
678.438	53272.98
678.787	53314.56
679.135	53198.18
679.484	52933.1
679.832	53178.74
680.181	52905.53
680.529	53053.32
680.877	52929.03
681.225	52917.05
681.573	53087.9
681.922	52878.19
682.27	52697.63
682.618	52806.32
682.966	52663.95
683.314	52792.54
683.661	52576.27
684.009	52530.4
684.357	52447.91
684.705	52310.52
685.053	52422.83
685.4	52323.17
685.748	52078.66
686.095	52136.96
686.443	52087.25
686.79	51945.1
687.138	51971.32
687.485	51979.68
687.832	51887.93
688.18	51955.05
688.527	51705.79
688.874	51688.61
689.221	51522.29
689.568	51507.83
689.915	51431.9
690.262	51418.56
690.609	51281.17
690.956	51186.7
691.303	51035.75
691.65	50946.94
691.997	50859.26
692.344	50650.67
692.69	50741.52
693.037	50747.39
693.383	50471.24
693.73	50473.73
694.077	50371.36
694.423	50317.35
694.769	50162.78
695.116	50094.3
695.462	49974.76
695.808	49924.37
696.155	49985.38
696.501	49596.69
696.847	49703.13
697.193	49330.48
697.539	49596.24
697.885	49262.91
698.231	49127.78
698.577	49110.6
698.923	49165.52
699.269	48968.68
699.614	48744.51
699.96	48703.61
700.306	48628.35
700.651	48464.74
700.997	48368.7
701.342	48402.82
701.688	48165.77
702.033	48080.12
702.379	48088.48
702.724	47970.97
703.069	47942.95
703.415	47502.96
703.76	47547.48
704.105	47612.79
704.45	47442.85
704.795	47211.22
705.14	47076.08
705.485	47062.52
705.83	46948.85
706.175	46989.98
706.52	46726.48
706.865	46626.82
707.209	46620.5
707.554	46487.62
707.899	46493.04
708.243	46334.86
708.588	46291.01
708.932	46072.72
709.277	46038.59
709.621	46010.57
709.966	45612.39
710.31	45734.19
710.654	45374.2
710.998	45459.17
711.342	45557.47
711.687	45323.58
712.031	45162
712.375	45087.88
712.719	45173.08
713.063	44912.29
713.407	45107.99
713.75	44754.11
714.094	44649.7
714.438	44479.76
714.782	44546.2
715.125	44332.42
715.469	44479.54
715.812	44212.88
716.156	44048.36
716.499	44082.26
716.843	44118.64
717.186	43720.46
717.53	44015.14
717.873	43899.44
718.216	43844.53
718.559	43704.87
718.902	43392.56
719.246	43499.22
719.589	43291.09
719.932	43203.19
720.275	43190.98
720.617	43204.77
720.96	43054.26
721.303	42991.67
721.646	42921.16
721.989	42725.46
722.331	42855.62
722.674	42712.35
723.016	42723.88
723.359	42619.92
723.701	42556.2
724.044	42294.74
724.386	42196.43
724.729	42412.92
725.071	42214.96
725.413	42183.55
725.755	42125.47
726.097	41988.53
726.439	41839.83
726.782	41808.87
727.124	41981.75
727.465	41619.05
727.807	41537.24
728.149	41387.19
728.491	41346.74
728.833	41325.72
729.175	41156.01
729.516	41076.01
729.858	41098.38
730.199	41189.23
730.541	41037.14
730.882	40982.45
731.224	41099.06
731.565	40716.25
731.906	40803.25
732.248	40945.62
732.589	40628.56
732.93	40529.58
733.271	40505.4
733.612	40653.2
733.953	40612.75
734.294	40267.9
734.635	40085.08
734.976	40192.87
735.317	40062.93
735.658	40007.56
735.999	40003.5
736.339	39774.58
736.68	39973.21
737.021	39744.75
737.361	39499.33
737.702	39719.66
738.042	39587.01
738.383	39518.54
738.723	39560.57
739.063	39421.59
739.404	39502.27
739.744	39369.39
740.084	39107.47
740.424	39166.91
740.764	39159
741.104	39231.54
741.444	38983.64
741.784	38836.97
742.124	38915.84
742.464	38840.36
742.804	38618.22
743.143	38716.3
743.483	38667.26
743.823	38476.08
744.162	38369.41
744.502	38578
744.841	38335.07
745.181	38378.91
745.52	38270.89
745.86	38170.78
746.199	37979.82
746.538	38079.25
746.877	38171
747.216	37977.11
747.556	37926.94
747.895	37805.81
748.234	37665.03
748.573	37676.33
748.911	37585.03
749.25	37448.99
749.589	37331.48
749.928	37380.06
750.267	37324.47
750.605	37190.01
750.944	37004.03
751.283	36898.95
751.621	37135.77
751.96	36747.54
752.298	36781.66
752.636	36862.11
752.975	36584.83
753.313	36362.91
753.651	36629.35
753.989	36384.38
754.327	36317.27
754.666	36108.23
755.004	36169.25
755.342	36141.22
755.679	36062.36
756.017	35710.28
756.355	35835.47
756.693	35705.98
757.031	35721.8
757.368	35505.99
757.706	35457.63
758.044	35334.01
758.381	35457.4
758.719	35096.51
759.056	35152.78
759.394	34986.23
759.731	34764.76
760.068	34853.8
760.405	34630.3
760.743	34553.24
761.08	34727.02
761.417	34335.85
761.754	34339.69
762.091	34219.02
762.428	34084.33
762.765	33702.64
763.102	33992.81
763.438	33750.55
763.775	33612.25
764.112	33642.53
764.449	33667.84
764.785	33296.1
765.122	33177.46
765.458	33043.91
765.795	33097.92
766.131	33104.02
766.467	32889.78
766.804	32773.86
767.14	32571.15
767.476	32602.11
767.812	32412.74
768.148	32370.48
768.485	32268.56
768.821	31972.97
769.157	31978.4
769.492	32036.02
769.828	31829.25
770.164	31552.19
770.5	31474.45
770.836	31397.17
771.171	31224.29
771.507	31223.39
771.842	31014.58
772.178	30916.73
772.513	30842.83
772.849	30732.78
773.184	30627.47
773.519	30605.78
773.855	30401.71
774.19	30341.15
774.525	30283.75
774.86	30257.31
775.195	30102.51
775.53	29947.49
775.865	29735.52
776.2	29616.65
776.535	29424.79
776.87	29420.27
777.205	29233.38
777.539	29116.78
777.874	29038.36
778.209	28947.29
778.543	28862.09
778.878	28666.39
779.212	28690.8
779.547	28530.35
779.881	28644.02
780.215	28344.59
780.55	28352.5
780.884	28295.78
781.218	28122.68
781.552	28079.29
781.886	27952.74
782.22	27753.87
782.554	27547.1
782.888	27441.79
783.222	27440.66
783.556	27286.32
783.889	27270.72
784.223	27060.56
784.557	26983.95
784.89	26994.57
785.224	26776.5
785.557	26620.57
785.891	26588.26
786.224	26607.46
786.558	26509.16
786.891	26348.94
787.224	26105.56
787.557	26172.67
787.891	26021.04
788.224	25909.86
788.557	25987.82
788.89	25984.88
789.223	25838.67
789.556	25466.25
789.888	25535.63
790.221	25462.86
790.554	25285.92
790.887	25210.44
791.219	25141.06
791.552	25088.86
791.884	24952.82
792.217	24888.64
792.549	24751.47
792.882	24711.47
793.214	24544.24
793.546	24503.56
793.879	24290.01
794.211	24184.25
794.543	24360.07
794.875	24156.23
795.207	24261.99
795.539	24022.67
795.871	24117.13
796.203	23710.37
796.535	23655.9
796.867	23651.61
797.198	23582.01
797.53	23626.53
797.862	23418.85
798.193	23358.96
798.525	23232.64
798.856	23355.57
799.188	23056.82
799.519	22943.15
799.85	22773.67
800.182	22888.24
800.513	22814.12
800.844	22647.12
801.175	22796.27
801.506	22680.11
801.837	22573.9
802.168	22603.95
802.499	22403.73
802.83	22308.14
803.161	22218.65
803.491	22201.93
803.822	22179.78
804.153	22062.05
804.483	21878.55
804.814	21814.82
805.145	21747.03
805.475	21786.12
805.805	21697.99
806.136	21696.41
806.466	21612.12
806.796	21666.8
807.126	21444.44
807.457	21359.69
807.787	21389.3
808.117	21228.62
808.447	21157.44
808.777	21170.55
809.107	21087.16
809.436	20958.57
809.766	21004.67
810.096	20794.74
810.426	20855.53
810.755	20813.04
811.085	20788.86
811.414	20709.09
811.744	20534.63
812.073	20508.42
812.403	20527.62
812.732	20324.92
813.061	20369.66
813.39	20324.69
813.719	20209.89
814.049	20248.31
814.378	20220.51
814.707	20148.65
815.036	20142.55
815.365	20002.21
815.693	19885.61
816.022	19861.88
816.351	19738.04
816.68	19725.84
817.008	19755.67
817.337	19603.81
817.665	19546.86
817.994	19577.14
818.322	19563.58
818.651	19448.33
818.979	19376.47
819.307	19450.36
819.636	19313.87
819.964	19263.48
820.292	19333.98
820.62	19249.47
820.948	19209.01
821.276	19307.09
821.604	19309.8
821.932	19245.17
822.259	19270.71
822.587	19111.16
822.915	19108.9
823.243	19153.65
823.57	19062.58
823.898	19082.92
824.225	19023.93
824.553	19011.73
824.88	19079.98
825.207	19022.13
825.535	18995.01
825.862	19127.43
826.189	19001.79
826.516	19126.76
826.843	19091.96
827.17	19010.38
827.497	19050.83
827.824	19020.09
828.151	19147.1
828.478	19077.04
828.805	19122.24
829.131	19042.92
829.458	19010.15
829.785	18847.89
830.111	19001.56
830.438	18927.67
830.764	18943.71
831.09	19003.37
831.417	18765.86
831.743	18967.21
832.069	18897.61
832.395	18885.63
832.722	18833.21
833.048	18850.83
833.374	18816.93
833.7	18681.57
834.026	18793.66
834.351	18849.48
834.677	18701.23
835.003	18770.38
835.329	18684.73
835.654	18661.01
835.98	18613.1
836.306	18663.49
836.631	18585.08
836.956	18595.47
837.282	18525.19
837.607	18482.25
837.932	18428.24
838.258	18411.97
838.583	18476.6
838.908	18265.08
839.233	18297.17
839.558	18284.07
839.883	18248.14
840.208	18261.69
840.533	18218.08
840.858	18184.41
841.182	18147.35
841.507	18131.75
841.832	17962.49
842.156	18000.01
842.481	17991.87
842.805	17883.63
843.13	17909.84
843.454	17834.36
843.778	17753.01
844.103	17753.46
844.427	17667.59
844.751	17676.85
845.075	17613.8
845.399	17546.69
845.723	17388.95
846.047	17466.46
846.371	17304.66
846.695	17382.85
847.019	17158.45
847.343	17142.63
847.666	16978.79
847.99	16928.62
848.313	16933.14
848.637	16768.63
848.96	16856.31
849.284	16735.63
849.607	16649.08
849.931	16539.71
850.254	16446.6
850.577	16341.29
850.9	16278.7
851.223	16302.2
851.546	16176.55
851.869	15991.47
852.192	16098.36
852.515	16007.29
852.838	15852.04
853.161	15847.52
853.483	15774.98
853.806	15677.81
854.129	15709.9
854.451	15581.99
854.774	15629.22
855.096	15532.28
855.419	15532.28
855.741	15502.22
856.063	15379.74
856.385	15304.26
856.708	15247.08
857.03	15209.12
857.352	15219.52
857.674	15155.11
857.996	15153.53
858.318	15033.31
858.64	15080.31
858.961	15057.26
859.283	15024.04
859.605	14903.59
859.926	14947.88
860.248	14902.46
860.57	14772.75
860.891	14849.36
861.212	14658.17
861.534	14673.77
861.855	14618.4
862.176	14577.05
862.498	14611.4
862.819	14533.66
863.14	14441.23
863.461	14473.77
863.782	14451.63
864.103	14411.85
864.424	14333.66
864.745	14395.58
865.065	14280.1
865.386	14215.93
865.707	14290.73
866.027	14230.84
866.348	14180.45
866.668	14240.33
866.989	14130.96
867.309	14069.04
867.63	14046.21
867.95	14083.95
868.27	13882.15
868.59	13986.78
868.91	13937.51
869.23	13945.42
869.55	13787.91
869.87	13936.84
870.19	13782.72
870.51	13800.34
870.83	13786.33
871.15	13704.75
871.469	13776.62
871.789	13746.33
872.109	13723.96
872.428	13624.98
872.748	13697.52
873.067	13592.67
873.386	13667.01
873.706	13545.43
874.025	13530.75
874.344	13457.75
874.663	13454.59
874.982	13468.83
875.301	13402.16
875.62	13359.68
875.939	13368.04
876.258	13364.42
876.577	13348.15
876.896	13328.04
877.214	13189.06
877.533	13292.33
877.852	13336.4
878.17	13255.72
878.489	13246.23
878.807	13258.89
879.125	13185.22
879.444	13139.57
879.762	13149.74
880.08	13083.07
880.398	13037.65
880.716	13014.38
881.034	13001.04
881.352	12997.43
881.67	12987.03
881.988	12862.74
882.306	12940.48
882.624	12954.04
882.941	12867.71
883.259	12801.95
883.577	12773.48
883.894	12714.27
884.212	12746.13
884.529	12658.68
884.846	12634.27
885.164	12623.43
885.481	12555.4
885.798	12649.19
886.115	12536.42
886.432	12548.62
886.75	12493.71
887.067	12487.61
887.383	12416.42
887.7	12436.76
888.017	12367.16
888.334	12312.25
888.651	12298.01
888.967	12292.36
889.284	12190.67
889.6	12207.84
889.917	12047.4
890.233	12101.86
890.55	12032.25
890.866	12109.09
891.182	12091.91
891.498	12053.72
891.815	11961.52
892.131	11902.54
892.447	11915.2
892.763	11842.65
893.079	11760.62
893.395	11729.21
893.71	11783
894.026	11674.07
894.342	11663.45
894.657	11621.64
894.973	11575.77
895.289	11609.67
895.604	11624.36
895.92	11422.1
896.235	11446.73
896.55	11415.32
896.865	11386.17
897.181	11328.54
897.496	11313.18
897.811	11193.86
898.126	11206.29
898.441	11096.69
898.756	11123.35
899.071	11026.4
899.386	11048.33
899.7	10953.19
900.015	10893.08
900.33	10849.91
900.644	10795.9
900.959	10853.98
901.273	10813.3
901.588	10730.82
901.902	10680.88
902.216	10735.79
902.531	10618.28
902.845	10576.7
903.159	10496.02
903.473	10524.5
903.787	10444.5
904.101	10388.46
904.415	10458.28
904.729	10363.6
905.042	10331.96
905.356	10283.37
905.67	10206.99
905.984	10251.74
906.297	10185.75
906.611	10099.65
906.924	10140.1
907.237	10020.33
907.551	10009.48
907.864	9989.82
908.177	9968.81
908.491	9896.49
908.804	9799.77
909.117	9778.75
909.43	9718.42
909.743	9714.12
910.056	9682.94
910.368	9627.35
910.681	9559.55
910.994	9509.61
911.307	9530.63
911.619	9427.8
911.932	9436.84
912.244	9352.78
912.557	9372.89
912.869	9265.32
913.181	9243.85
913.494	9211.09
913.806	9108.26
914.118	9205.44
914.43	9101.26
914.742	9172.22
915.054	9007.93
915.366	9004.76
915.678	8983.29
915.99	8959.34
916.302	8870.98
916.613	8812
916.925	8809.51
917.236	8826.01
917.548	8750.31
917.859	8719.8
918.171	8695.17
918.482	8601.38
918.794	8623.76
919.105	8614.49
919.416	8526.81
919.727	8461.27
920.038	8416.76
920.349	8355.74
920.66	8296.76
920.971	8292.47
921.282	8287.95
921.593	8232.13
921.903	8181.73
922.214	8178.34
922.525	8137.89
922.835	8067.16
923.146	8005.02
923.456	8029.42
923.767	7984.9
924.077	7972.25
924.387	7888.63
924.697	7923.89
925.008	7777.45
925.318	7820.39
925.628	7805.47
925.938	7820.84
926.248	7728.41
926.558	7696.55
926.867	7668.98
927.177	7607.96
927.487	7537.68
927.796	7482.54
928.106	7475.31
928.416	7548.08
928.725	7503.79
929.034	7369.33
929.344	7478.25
929.653	7382.43
929.962	7304.69
930.271	7240.29
930.581	7221.76
930.89	7208.88
931.199	7141.54
931.508	7161.65
931.817	7082.55
932.125	7101.54
932.434	7040.52
932.743	7036
933.051	6975.21
933.36	6974.08
933.669	6921.2
933.977	6901.09
934.286	6884.37
934.594	6879.85
934.902	6809.34
935.21	6847.53
935.519	6785.16
935.827	6744.71
936.135	6658.38
936.443	6613.64
936.751	6617.93
937.059	6589.23
937.367	6540.42
937.674	6567.77
937.982	6584.71
938.29	6507.2
938.597	6486.64
938.905	6471.72
939.213	6381.1
939.52	6430.82
939.827	6402.57
940.135	6363.02
940.442	6286.64
940.749	6313.76
941.056	6269.69
941.363	6217.72
941.67	6199.87
941.977	6178.4
942.284	6097.95
942.591	6146.99
942.898	6098.85
943.205	6109.7
943.511	6058.63
943.818	5965.3
944.125	5931.85
944.431	5910.61
944.738	5925.97
945.044	5887.78
945.35	5820.89
945.657	5906.54
945.963	5854.11
946.269	5812.3
946.575	5749.26
946.881	5733.89
947.187	5712.19
947.493	5696.6
947.799	5689.37
948.105	5634.23
948.41	5619.09
948.716	5608.24
949.022	5577.06
949.327	5643.5
949.633	5502.03
949.938	5532.76
950.244	5467.46
950.549	5393.33
950.854	5350.85
951.16	5390.62
951.465	5358.76
951.77	5343.62
952.075	5332.32
952.38	5371.86
952.685	5303.84
952.99	5214.13
953.294	5219.55
953.599	5205.99
953.904	5171.42
954.209	5152.44
954.513	5133.45
954.818	5152.89
955.122	5128.93
955.426	5082.83
955.731	5031.76
956.035	4999.9
956.339	4948.37
956.643	4994.02
956.948	4916.96
957.252	4940.92
957.556	4905.66
957.86	4879.67
958.163	4810.75
958.467	4879.22
958.771	4851.2
959.075	4762.61
959.378	4734.14
959.682	4753.35
959.985	4758.55
960.289	4714.93
960.592	4673.35
960.896	4682.84
961.199	4642.62
961.502	4660.92
961.805	4622.51
962.108	4560.13
962.411	4605.78
962.714	4521.94
963.017	4525.11
963.32	4523.3
963.623	4502.51
963.926	4496.18
964.228	4444.66
964.531	4412.12
964.833	4410.08
965.136	4399.46
965.438	4362.17
965.741	4368.27
966.043	4310.2
966.345	4332.12
966.648	4288.05
966.95	4277.43
967.252	4242.85
967.554	4266.13
967.856	4215.74
968.158	4163.08
968.46	4139.58
968.761	4163.53
969.063	4044.89
969.365	4112.01
969.666	4086.25
969.968	4025.69
970.269	3975.29
970.571	4037.66
970.872	4026.36
971.174	4004.67
971.475	4015.29
971.776	3973.94
972.077	3926.25
972.378	3909.53
972.679	3949.75
972.98	3870.21
973.281	3859.36
973.582	3902.75
973.883	3810.55
974.183	3792.92
974.484	3854.84
974.785	3806.03
975.085	3814.39
975.386	3748.18
975.686	3746.37
975.986	3719.93
976.287	3702.3
976.587	3673.6
976.887	3681.74
977.187	3658.69
977.487	3646.49
977.787	3592.02
978.087	3594.51
978.387	3557.67
978.687	3568.75
978.987	3567.17
979.286	3520.84
979.586	3533.72
979.885	3492.59
980.185	3520.61
980.484	3482.65
980.784	3446.49
981.083	3416.21
981.382	3419.37
981.682	3431.8
981.981	3399.49
982.28	3348.87
982.579	3360.62
982.878	3410.11
983.177	3353.39
983.475	3342.77
983.774	3330.11
984.073	3277
984.372	3281.3
984.67	3241.3
984.969	3237.01
985.267	3255.08
985.566	3223.9
985.864	3188.64
986.162	3197.23
986.461	3210.11
986.759	3147.97
987.057	3127.4
987.355	3150.91
987.653	3114.3
987.951	3097.12
988.249	3096.9
988.547	3095.77
988.844	3050.57
989.142	3049.89
989.44	3009.67
989.737	3023
990.035	3012.83
990.332	2995.43
990.63	2949.33
990.927	2963.34
991.224	2910.69
991.521	2918.37
991.819	2912.27
992.116	2879.5
992.413	2856.22
992.71	2883.34
993.006	2888.54
993.303	2881.08
993.6	2801.76
993.897	2797.02
994.193	2797.69
994.49	2807.86
994.787	2766.06
995.083	2786.62
995.379	2767.19
995.676	2776.23
995.972	2735.78
996.268	2682.22
996.565	2700.75
996.861	2633.63
997.157	2661.43
997.453	2658.94
997.749	2600.64
998.044	2605.61
998.34	2583.24
998.636	2559.73
998.932	2590.24
999.227	2568.77
999.523	2539.85
999.818	2541.2
1000.114	2536.46
1000.409	2513.86
1000.704	2511.15
1001	2492.17
1001.295	2511.6
1001.59	2458.72
1001.885	2438.61
1002.18	2414.43
1002.475	2444.71
1002.77	2420.53
1003.065	2384.37
1003.359	2398.38
1003.654	2375.33
1003.949	2364.71
1004.243	2339.63
1004.538	2294.21
1004.832	2320.42
1005.127	2332.62
1005.421	2307.99
1005.715	2296.24
1006.009	2271.83
1006.304	2230.93
1006.598	2223.7
1006.892	2225.51
1007.186	2204.26
1007.48	2170.14
1007.773	2170.59
1008.067	2162.01
1008.361	2159.97
1008.655	2139.86
1008.948	2107.32
1009.242	2141.67
1009.535	2122.91
1009.829	2072.29
1010.122	2077.49
1010.415	2021.22
1010.708	2036.81
1011.001	2027.55
1011.295	2003.82
1011.588	1981.9
1011.881	1965.63
1012.173	2014.44
1012.466	1990.94
1012.759	1938.51
1013.052	1946.19
1013.344	1954.33
1013.637	1930.6
1013.93	1931.28
1014.222	1920.43
1014.514	1916.36
1014.807	1877.49
1015.099	1889.92
1015.391	1849.25
1015.683	1839.53
1015.976	1828.68
1016.268	1802.01
1016.56	1801.34
1016.851	1811.73
1017.143	1803.37
1017.435	1788.46
1017.727	1763.6
1018.018	1762.24
1018.31	1774.67
1018.602	1730.15
1018.893	1732.19
1019.185	1697.38
1019.476	1723.6
1019.767	1696.48
1020.058	1676.82
1020.35	1656.71
1020.641	1659.42
1020.932	1638.86
1021.223	1643.6
1021.514	1624.39
1021.804	1590.04
1022.095	1597.95
1022.386	1582.81
1022.677	1571.96
1022.967	1564.73
1023.258	1579.2
1023.548	1537.84
1023.839	1534.9
1024.129	1506.88
1024.419	1521.12
1024.709	1514.11
1025	1521.57
1025.29	1477.5
1025.58	1451.97
1025.87	1475.24
1026.16	1449.26
1026.449	1443.61
1026.739	1462.36
1027.029	1425.3
1027.319	1425.3
1027.608	1428.92
1027.898	1387.11
1028.187	1371.97
1028.477	1356.15
1028.766	1389.6
1029.055	1358.86
1029.344	1340.56
1029.634	1327.22
1029.923	1359.09
1030.212	1325.87
1030.501	1298.3
1030.79	1347.11
1031.078	1317.73
1031.367	1282.25
1031.656	1285.87
1031.945	1256.04
1032.233	1267.79
1032.522	1245.19
1032.81	1237.51
1033.099	1221.24
1033.387	1226.44
1033.675	1225.76
1033.963	1199.77
1034.251	1199.09
1034.54	1224.18
1034.828	1186.66
1035.116	1177.85
1035.403	1150.96
1035.691	1164.74
1035.979	1155.48
1036.267	1131.75
1036.554	1137.63
1036.842	1148.7
1037.129	1132.65
1037.417	1155.03
1037.704	1114.12
1037.992	1097.85
1038.279	1115.93
1038.566	1082.26
1038.853	1082.26
1039.14	1082.26
