Data from breadboard_white_FLMS001491_00033.txt Node
Date: Wed Feb 08 10:47:38 GMT 2017
User: dcchb
Spectrometer: FLMS00149
Trigger mode: 0
Integration Time (sec): 2.000000E-2
Scans to average: 10
Electric dark correction enabled: true
Nonlinearity correction enabled: false
Boxcar width: 0
XAxis mode: Wavelengths
Number of Pixels in Spectrum: 2048
>>>>>Begin Spectral Data<<<<<
341.393	-17.85
341.776	-17.85
342.16	-17.85
342.543	-60.34
342.927	-56.72
343.31	-77.96
343.693	-64.18
344.077	-65.08
344.46	-52.88
344.843	-70.96
345.226	-35.93
345.61	-14.24
345.993	-23.05
346.376	-0.45
346.759	-5.65
347.142	21.47
347.525	61.02
347.908	68.92
348.291	75.25
348.674	82.03
349.057	101.69
349.44	128.13
349.823	139.88
350.206	163.61
350.588	214.46
350.971	206.32
351.354	233.89
351.737	251.97
352.119	241.35
352.502	260.33
352.884	279.77
353.267	289.94
353.65	305.98
354.032	303.72
354.414	306.21
354.797	329.93
355.179	330.61
355.562	345.75
355.944	335.58
356.326	339.65
356.709	355.47
357.091	341.69
357.473	367
357.855	325.19
358.238	345.98
358.62	344.17
359.002	345.98
359.384	341.01
359.766	346.66
360.148	358.18
360.53	350.73
360.912	339.88
361.294	333.55
361.676	330.84
362.057	345.53
362.439	326.55
362.821	334.23
363.203	322.93
363.584	329.48
363.966	341.69
364.348	319.99
364.729	341.01
365.111	322.25
365.493	358.41
365.874	327.22
366.256	325.64
366.637	352.08
367.019	343.04
367.4	328.8
367.781	313.44
368.163	325.87
368.544	346.43
368.925	338.97
369.306	345.08
369.688	340.78
370.069	331.97
370.45	327.67
370.831	312.76
371.212	337.17
371.593	325.64
371.974	308.24
372.355	348.92
372.736	336.71
373.117	318.64
373.498	341.91
373.879	328.35
374.26	342.59
374.641	351.18
375.021	341.91
375.402	346.88
375.783	330.61
376.163	353.89
376.544	358.63
376.925	350.05
377.305	334
377.686	347.11
378.066	364.28
378.447	334.91
378.827	368.35
379.208	377.62
379.588	370.16
379.968	367
380.349	366.77
380.729	374.91
381.109	344.4
381.489	366.32
381.87	369.26
382.25	390.5
382.63	394.34
383.01	388.69
383.39	397.5
383.77	392.31
384.15	395.47
384.53	388.24
384.91	379.88
385.29	406.54
385.67	411.97
386.049	387.79
386.429	397.28
386.809	406.54
387.189	387.56
387.568	413.55
387.948	389.37
388.328	413.32
388.707	413.77
389.087	429.37
389.466	417.84
389.846	425.53
390.225	445.19
390.605	442.7
390.984	430.05
391.363	451.74
391.743	447.9
392.122	478.18
392.501	462.59
392.881	461.91
393.26	464.17
393.639	480.89
394.018	463.26
394.397	503.94
394.776	494
395.155	491.06
395.534	519.76
395.913	492.87
396.292	472.08
396.671	545.3
397.05	504.39
397.429	517.05
397.808	529.03
398.186	525.86
398.565	538.06
398.944	571.96
399.323	557.5
399.701	553.21
400.08	563.6
400.458	562.25
400.837	596.82
401.215	588.23
401.594	603.15
401.972	610.61
402.351	602.24
402.729	639.31
403.107	629.36
403.486	641.79
403.864	671.39
404.242	668.46
404.62	662.81
404.999	668.91
405.377	702.35
405.755	704.16
406.133	715.69
406.511	712.75
406.889	735.35
407.267	752.75
407.645	771.73
408.023	758.4
408.401	802.69
408.779	823.03
409.156	823.48
409.534	824.84
409.912	856.02
410.29	873.2
410.667	894.67
411.045	910.94
411.422	920.65
411.8	922.46
412.178	936.7
412.555	946.87
412.933	980.31
413.31	1006.08
413.687	1009.92
414.065	1028.22
414.442	1026.87
414.819	1066.86
415.197	1069.12
415.574	1116.13
415.951	1077.94
416.328	1144.6
416.705	1125.39
417.082	1179.63
417.46	1178.5
417.837	1206.52
418.214	1201.55
418.591	1220.08
418.967	1204.49
419.344	1265.5
419.721	1261.21
420.098	1275.9
420.475	1295.56
420.852	1311.83
421.228	1323.13
421.605	1326.52
421.982	1360.87
422.358	1356.57
422.735	1409.45
423.111	1407.65
423.488	1467.08
423.864	1433.18
424.241	1438.61
424.617	1477.25
424.994	1467.98
425.37	1534.2
425.746	1499.4
426.123	1536.23
426.499	1536.68
426.875	1555.44
427.251	1594.53
427.627	1616.68
428.003	1651.26
428.379	1693.29
428.756	1679.5
429.132	1706.4
429.507	1771.25
429.883	1745.49
430.259	1785.72
430.635	1826.17
431.011	1834.53
431.387	1867.52
431.763	1872.49
432.138	1897.35
432.514	1945.26
432.89	1928.08
433.265	2007.4
433.641	2023
434.016	2032.26
434.392	2060.28
434.767	2092.15
435.143	2081.98
435.518	2142.54
435.894	2174.18
436.269	2186.38
436.644	2222.77
437.02	2292.6
437.395	2259.6
437.77	2326.27
438.145	2304.35
438.52	2318.58
438.895	2371.92
439.271	2348.64
439.646	2432.25
440.021	2465.47
440.395	2497.79
440.77	2422.76
441.145	2471.57
441.52	2527.39
441.895	2518.13
442.27	2559.48
442.645	2574.17
443.019	2602.19
443.394	2581.85
443.769	2621.17
444.143	2624.11
444.518	2693.94
444.892	2679.7
445.267	2692.58
445.641	2699.36
446.016	2750.89
446.39	2788.4
446.764	2758.35
447.139	2792.92
447.513	2868.85
447.887	2822.07
448.262	2870.21
448.636	2851.22
449.01	2890.09
449.384	2920.15
449.758	2944.1
450.132	2986.81
450.506	3008.28
450.88	3039.02
451.254	2993.14
451.628	3087.83
452.002	3133.7
452.376	3124.89
452.75	3166.7
453.123	3181.84
453.497	3261.84
453.871	3277.43
454.244	3342.74
454.618	3385.9
454.992	3389.29
455.365	3417.09
455.739	3463.19
456.112	3512.45
456.486	3573.01
456.859	3600.13
457.232	3710.18
457.606	3704.76
457.979	3688.94
458.352	3784.53
458.725	3810.3
459.099	3830.18
459.472	3915.6
459.845	3975.71
460.218	3993.57
460.591	3978.2
460.964	4092.1
461.337	4155.37
461.71	4188.14
462.083	4322.37
462.456	4270.85
462.829	4306.33
463.201	4398.08
463.574	4401.69
463.947	4447.57
464.32	4565.76
464.692	4652.76
465.065	4651.4
465.438	4738.86
465.81	4805.3
466.183	4793.55
466.555	4958.51
466.928	4967.55
467.3	4936.37
467.672	4991.28
468.045	5157.6
468.417	5199.41
468.789	5251.84
469.161	5303.82
469.534	5369.12
469.906	5438.05
470.278	5546.52
470.65	5602.56
471.022	5704.71
471.394	5848.43
471.766	5852.95
472.138	5930.24
472.51	6097.24
472.882	6166.62
473.253	6224.7
473.625	6326.84
473.997	6436.89
474.369	6484.35
474.74	6571.8
475.112	6691.12
475.484	6834.4
475.855	6868.52
476.227	6944
476.598	7198.23
476.97	7197.55
477.341	7467.37
477.713	7458.33
478.084	7578.78
478.455	7788.95
478.827	7815.39
479.198	8051.09
479.569	8077.3
479.94	8298.76
480.311	8439.78
480.682	8572.88
481.053	8736.72
481.424	8911.86
481.795	8976.26
482.166	9068.91
482.537	9265.75
482.908	9443.14
483.279	9572.63
483.65	9761.55
484.021	9903.92
484.391	9977.59
484.762	10136.46
485.133	10245.38
485.503	10301.42
485.874	10578.7
486.244	10665.48
486.615	10883.78
486.985	11035.42
487.356	11208.97
487.726	11269.99
488.097	11565.8
488.467	11544.78
488.837	11902.51
489.207	11971.44
489.578	12131.66
489.948	12234.25
490.318	12399
490.688	12503.4
491.058	12700.91
491.428	12760.79
491.798	12974.8
492.168	13194.68
492.538	13330.5
492.908	13405.75
493.278	13609.13
493.648	13670.15
494.017	13797.15
494.387	13896.13
494.757	14028.56
495.126	14207.08
495.496	14316.91
495.866	14461.99
496.235	14549.67
496.605	14663.8
496.974	14718.26
497.344	14885.03
497.713	14976.78
498.082	15155.53
498.452	15284.8
498.821	15383.1
499.19	15535.41
499.559	15545.81
499.928	15751.68
500.298	15800.26
500.667	15981.95
501.036	15905.57
501.405	16182.4
501.774	16237.77
502.143	16337.42
502.512	16493.35
502.88	16540.36
503.249	16655.61
503.618	16786.23
503.987	16881.59
504.356	16954.81
504.724	17122.71
505.093	17183.95
505.462	17301.92
505.83	17402.48
506.199	17606.32
506.567	17663.72
506.936	17780.55
507.304	18030.26
507.672	18030.26
508.041	18202.46
508.409	18284.49
508.777	18483.36
509.145	18581.66
509.514	18622.34
509.882	18783.46
510.25	18771.03
510.618	18941.65
510.986	19050.8
511.354	19241.75
511.722	19437
512.09	19599.26
512.458	19588.41
512.826	19844.45
513.193	20013.26
513.561	20013.71
513.929	20212.58
514.297	20391.33
514.664	20594.71
515.032	20570.76
515.4	20784.76
515.767	20832.67
516.135	21020.46
516.502	20990.63
516.869	21334.13
517.237	21425.65
517.604	21516.72
517.972	21640.79
518.339	21867.67
518.706	21978.18
519.073	22041.45
519.44	22345.18
519.808	22495.91
520.175	22511.95
520.542	22796.01
520.909	22931.37
521.276	22858.38
521.643	23250.24
522.009	23468.31
522.376	23679.83
522.743	23684.8
523.11	24029.2
523.477	24118.24
523.843	24272.36
524.21	24593.48
524.577	24780.82
524.943	24817.88
525.31	25013.58
525.676	25305.78
526.043	25475.04
526.409	25559.78
526.776	25813.33
527.142	25825.76
527.508	26082.03
527.874	26271.85
528.241	26405.86
528.607	26500.55
528.973	26732.86
529.339	26827.32
529.705	27088.33
530.071	27277.25
530.437	27422.1
530.803	27557.24
531.169	27734.19
531.535	27728.31
531.901	27907.74
532.267	28008.3
532.632	28168.52
532.998	28295.08
533.364	28641.96
533.73	28520.38
534.095	28770.99
534.461	28893.7
534.826	29019.12
535.192	29003.31
535.557	29394.48
535.923	29362.39
536.288	29517.42
536.653	29627.92
537.019	29568.71
537.384	29755.15
537.749	29855.03
538.114	29941.81
538.479	30094.35
538.845	30262.26
539.21	30197.4
539.575	30381.12
539.94	30501.34
540.305	30669.48
540.67	30779.98
541.034	30803.94
541.399	30937.72
541.764	30902.69
542.129	31103.59
542.494	31317.82
542.858	31272.4
543.223	31501.77
543.587	31520.75
543.952	31538.61
544.316	31793.06
544.681	31764.14
545.045	32096.78
545.41	32227.63
545.774	32201.64
546.138	32292.48
546.503	32330
546.867	32491.12
547.231	32613.83
547.595	32791.91
547.959	32802.08
548.324	32821.74
548.688	32955.97
549.052	33068.96
549.416	33081.16
549.779	33219.92
550.143	33293.36
550.507	33527.03
550.871	33751.65
551.235	33676.18
551.599	34010.63
551.962	33917.98
552.326	34135.6
552.689	34294.69
553.053	34092.44
553.417	34343.96
553.78	34732.87
554.143	34597.28
554.507	34741.23
554.87	34901.23
555.234	35343.03
555.597	35079.53
555.96	35327.21
556.323	35415.79
556.686	35395
557.05	35760.87
557.413	35878.6
557.776	35790.47
558.139	36227.3
558.502	36262.55
558.865	36239.5
559.228	36627.06
559.59	36759.94
559.953	36828.18
560.316	37157.44
560.679	37132.13
561.041	37390.43
561.404	37581.61
561.767	37794.71
562.129	37756.97
562.492	38149.28
562.854	38046.91
563.217	38227.92
563.579	38223.18
563.941	38522.38
564.304	38714.24
564.666	39044.62
565.028	38882.59
565.39	39116.94
565.753	39400.32
566.115	39530.94
566.477	39614.33
566.839	39744.49
567.201	40070.81
567.563	40115.56
567.925	40278.71
568.287	40383.12
568.648	40455.43
569.01	40813.16
569.372	40893.84
569.734	40872.82
570.095	41093.38
570.457	41169.31
570.819	41214.51
571.18	41333.38
571.542	41625.12
571.903	41416.09
572.265	41659.24
572.626	41823.08
572.987	41811.1
573.349	41974.26
573.71	42106.24
574.071	42212.22
574.432	42482.5
574.794	42568.82
575.155	42584.64
575.516	42599.33
575.877	42742.15
576.238	42693.79
576.599	42914.35
576.96	42986.89
577.32	43002.94
577.681	43055.59
578.042	43327.9
578.403	43319.09
578.763	43100.56
579.124	43255.59
579.485	43349.82
579.845	43486.99
580.206	43518.18
580.566	43362.25
580.927	43512.3
581.287	43604.05
581.648	43608.8
582.008	43835.68
582.368	43733.09
582.728	43704.61
583.089	43616.25
583.449	43666.2
583.809	43826.19
584.169	43804.5
584.529	43624.84
584.889	44109.12
585.249	43679.53
585.609	43689.7
585.969	43861.9
586.329	43822.12
586.688	43997.04
587.048	43951.61
587.408	43900.09
587.768	43898.73
588.127	43864.38
588.487	43850.15
588.846	43892.41
589.206	43858.51
589.565	43938.73
589.925	43898.96
590.284	43800.43
590.643	43907.77
591.003	44086.98
591.362	44104.83
591.721	43918.17
592.08	43962.69
592.44	44182.79
592.799	44090.82
593.158	43999.75
593.517	44047.2
593.876	44075
594.235	44077.49
594.593	44103.02
594.952	44177.37
595.311	44086.98
595.67	44230.25
596.029	44376.46
596.387	44436.8
596.746	44308.21
597.104	44210.14
597.463	44158.16
597.822	44372.17
598.18	44149.8
598.538	44211.72
598.897	44419.4
599.255	44197.26
599.613	44678.37
599.972	44489.45
600.33	44617.58
600.688	44413.07
601.046	44593.86
601.404	44625.49
601.762	44601.09
602.12	44807.18
602.478	44733.74
602.836	44817.8
603.194	44554.53
603.552	44728.32
603.91	44583.23
604.268	44801.76
604.625	44638.83
604.983	44801.76
605.341	44718.37
605.698	44956.56
606.056	44892.83
606.413	44863.91
606.771	45111.58
607.128	45087.4
607.485	44836.34
607.843	45013.28
608.2	45124.01
608.557	45325.14
608.914	45117.23
609.272	45424.34
609.629	45412.37
609.986	45549.31
610.343	45338.47
610.7	45616.43
611.057	45591.8
611.414	45427.28
611.771	45570.55
612.127	45744.11
612.484	45588.18
612.841	45780.94
613.198	45599.7
613.554	45754.96
613.911	46000.6
614.267	45831.34
614.624	45838.12
614.98	45949.98
615.337	46230.42
615.693	46002.41
616.05	45973.25
616.406	46087.38
616.762	46080.37
617.118	46064.78
617.475	46097.54
617.831	46286.01
618.187	46218.22
618.543	46382.51
618.899	46503.86
619.255	46499.57
619.611	46453.92
619.967	46383.19
620.323	46493.01
620.678	46356.3
621.034	46279.46
621.39	46269.29
621.746	46184.32
622.101	46685.78
622.457	46371.89
622.812	46538.66
623.168	46521.49
623.523	46491.43
623.879	46566.91
624.234	46269.52
624.589	46496.4
624.945	46509.06
625.3	46558.78
625.655	46527.82
626.01	46526.23
626.365	46554.26
626.72	46439.23
627.075	46567.36
627.43	46447.37
627.785	46325.34
628.14	46454.37
628.495	46435.62
628.85	46420.02
629.205	46224.1
629.559	46381.15
629.914	46230.42
630.269	46382.74
630.623	46091.67
630.978	46075.62
631.332	46198.11
631.687	46287.6
632.041	46227.94
632.396	46181.16
632.75	45962.41
633.104	46055.06
633.459	45802.64
633.813	45730.55
634.167	45758.57
634.521	45692.58
634.875	45872.47
635.229	45822.52
635.583	45465.7
635.937	45639.25
636.291	45654.62
636.645	45590.67
636.999	45329.43
637.352	45625.92
637.706	45171.69
638.06	45465.7
638.413	45171.69
638.767	45121.07
639.121	45188.42
639.474	45083.11
639.828	45052.6
640.181	45017.57
640.534	45081.75
640.888	44901.87
641.241	44761.31
641.594	44758.37
641.947	44727.64
642.301	44679.5
642.654	44655.32
643.007	44641.99
643.36	44630.46
643.713	44544.14
644.066	44698.03
644.419	44411.04
644.771	44106.41
645.124	43908.45
645.477	43715.69
645.83	43433.43
646.182	43185.53
646.535	43155.7
646.888	43223.27
647.24	42988.47
647.593	43164.06
647.945	43202.71
648.298	42871.87
648.65	42798.87
649.002	42590.74
649.355	42793.45
649.707	42807.46
650.059	42897.18
650.411	43411.97
650.763	43298.75
651.115	43790.49
651.467	43770.83
651.819	43584.16
652.171	43496.26
652.523	43316.38
652.875	43382.14
653.227	43156.38
653.578	43387.11
653.93	43332.65
654.282	43219.43
654.633	43177.4
654.985	43184.63
655.337	43245.42
655.688	43107.12
656.039	43320.67
656.391	42828.48
656.742	42969.94
657.094	42915.03
657.445	43046.33
657.796	43028.7
658.147	42987.34
658.498	42730.4
658.849	42966.55
659.2	42954.58
659.551	42792.1
659.902	43014.69
660.253	42890.62
660.604	42760.23
660.955	42511.2
661.306	42581.03
661.656	42613.12
662.007	42639.33
662.358	42791.87
662.708	42677.3
663.059	42679.56
663.409	42287.7
663.76	42615.15
664.11	42545.32
664.461	42551.65
664.811	42522.72
665.161	42500.8
665.511	42439.79
665.862	42398.21
666.212	42588.48
666.562	42488.83
666.912	42369.51
667.262	42310.75
667.612	42263.75
667.962	42360.47
668.312	42217.2
668.662	42377.87
669.011	42427.13
669.361	42287.25
669.711	42181.04
670.06	42237.53
670.41	42006.81
670.76	42067.82
671.109	42241.15
671.459	42086.58
671.808	42096.75
672.157	42103.53
672.507	41698.79
672.856	41878.67
673.205	41831.22
673.554	42061.27
673.904	41749.18
674.253	42045.45
674.602	41899.01
674.951	41242.76
675.3	41126.83
675.649	41671.45
675.998	41595.97
676.346	41610.66
676.695	41760.26
677.044	41414.73
677.393	41421.74
677.741	41593.48
678.09	41518.46
678.438	41426.71
678.787	41449.98
679.135	41411.79
679.484	41085.25
679.832	41412.7
680.181	41068.98
680.529	41150.1
680.877	41037.57
681.225	41027.85
681.573	41229.2
681.922	40826.27
682.27	40775.65
682.618	40889.32
682.966	40538.14
683.314	40718.93
683.661	40602.32
684.009	40422.44
684.357	40309.9
684.705	40304.7
685.053	40403.68
685.4	40307.41
685.748	40203.24
686.095	40113.97
686.443	39990.81
686.79	39823.81
687.138	39973.64
687.485	39997.59
687.832	39779.74
688.18	39747.66
688.527	39620.43
688.874	39535.91
689.221	39484.39
689.568	39177.27
689.915	39294.11
690.262	39320.32
690.609	39169.14
690.956	38907.9
691.303	38979.99
691.65	38840.33
691.997	38869.26
692.344	38457.29
692.69	38474.02
693.037	38513.34
693.383	38194.25
693.73	38227.02
694.077	37954.26
694.423	38139.56
694.769	38061.37
695.116	37735.73
695.462	37874.26
695.808	37682.4
696.155	37827.71
696.501	37451.22
696.847	37444.44
697.193	37122.19
697.539	37357.89
697.885	37026.15
698.231	36960.61
698.577	36880.39
698.923	36844.91
699.269	36736.66
699.614	36535.99
699.96	36453.28
700.306	36538.25
700.651	36284.7
700.997	36185.04
701.342	36045.61
701.688	36053.97
702.033	35855.55
702.379	35833.18
702.724	35851.71
703.069	35862.79
703.415	35343.25
703.76	35446.3
704.105	35456.02
704.45	35272.74
704.795	35207.44
705.14	35012.41
705.485	35006.54
705.83	34845.64
706.175	34945.07
706.52	34810.61
706.865	34587.57
707.209	34539.43
707.554	34516.15
707.899	34450.85
708.243	34394.8
708.588	34308.25
708.932	34021.03
709.277	34027.58
709.621	34082.95
709.966	33851.54
710.31	33910.97
710.654	33593.47
710.998	33696.97
711.342	33748.49
711.687	33532.9
712.031	33343.53
712.375	33317.09
712.719	33324.32
713.063	33216.53
713.407	33313.02
713.75	33098.56
714.094	33060.83
714.438	32933.6
714.782	33078.9
715.125	32753.49
715.469	32840.27
715.812	32694.06
716.156	32519.14
716.499	32452.71
716.843	32547.39
717.186	32320.51
717.53	32492.48
717.873	32441.86
718.216	32388.53
718.559	32228.08
718.902	31906.51
719.246	32113.28
719.589	31948.31
719.932	31801.2
720.275	31820.18
720.617	31855.66
720.96	31716.91
721.303	31720.75
721.646	31802.55
721.989	31508.32
722.331	31553.07
722.674	31453.41
723.016	31494.77
723.359	31410.25
723.701	31402.56
724.044	31155.34
724.386	30949.24
724.729	31175.68
725.071	31147.88
725.413	31003.03
725.755	30939.75
726.097	30761.9
726.439	30656.82
726.782	30733.43
727.124	30853.65
727.465	30683.26
727.807	30563.72
728.149	30438.3
728.491	30476.94
728.833	30379.99
729.175	30481.91
729.516	30341.8
729.858	30200.56
730.199	30284.85
730.541	30231.75
730.882	30102.49
731.224	30109.94
731.565	30024.75
731.906	29960.57
732.248	30095.71
732.589	29832.44
732.93	29730.07
733.271	29703.4
733.612	29807.35
733.953	29721.03
734.294	29597.87
734.635	29593.12
734.976	29717.18
735.317	29352.9
735.658	29434.48
735.999	29573.91
736.339	29344.77
736.68	29462.28
737.021	29207.59
737.361	29189.06
737.702	29263.19
738.042	29010.76
738.383	29027.26
738.723	29042.63
739.063	28916.53
739.404	28992.91
739.744	28935.28
740.084	28770.32
740.424	28866.81
740.764	28677.89
741.104	28776.64
741.444	28633.6
741.784	28554.28
742.124	28564.9
742.464	28500.04
742.804	28408.97
743.143	28317.22
743.483	28262.08
743.823	28270.22
744.162	28157
744.502	28160.62
744.841	28038.58
745.181	28199.03
745.52	28025.93
745.86	28016.21
746.199	27955.2
746.538	27998.36
746.877	27990.45
747.216	27954.97
747.556	27846.5
747.895	27813.73
748.234	27717.69
748.573	27590.46
748.911	27587.3
749.25	27618.26
749.589	27504.81
749.928	27461.88
750.267	27401.31
750.605	27338.72
750.944	27272.05
751.283	27008.78
751.621	27304.59
751.96	27012.62
752.298	26995.45
752.636	26934.66
752.975	26821.67
753.313	26873.87
753.651	26811.95
753.989	26781.44
754.327	26686.08
754.666	26534.9
755.004	26576.25
755.342	26566.31
755.679	26483.15
756.017	26278.18
756.355	26341.23
756.693	26183.94
757.031	26212.19
757.368	25944.63
757.706	26062.82
758.044	25849.26
758.381	25878.42
758.719	25751.64
759.056	25712.32
759.394	25688.14
759.731	25517.07
760.068	25484.08
760.405	25422.16
760.743	25354.59
761.08	25311.88
761.417	25257.41
761.754	25169.51
762.091	25172.45
762.428	24969.06
762.765	24913.92
763.102	24859.91
763.438	24726.58
763.775	24729.97
764.112	24734.94
764.449	24562.74
764.785	24477.55
765.122	24299.25
765.458	24101.74
765.795	24248.85
766.131	24339.25
766.467	24128.86
766.804	23995.08
767.14	23823.33
767.476	23859.49
767.812	23720.05
768.148	23725.93
768.485	23544.47
768.821	23447.52
769.157	23309.67
769.492	23355.77
769.828	23334.75
770.164	23085.49
770.5	23051.6
770.836	23063.35
771.171	22905.84
771.507	22892.96
771.842	22714.88
772.178	22703.58
772.513	22732.74
772.849	22523.93
773.184	22387.43
773.519	22438.73
773.855	22221.11
774.19	22121.9
774.525	21978.63
774.86	22112.19
775.195	21907.67
775.53	21945.64
775.865	21799.43
776.2	21704.51
776.535	21577.06
776.87	21481.02
777.205	21474.69
777.539	21346.56
777.874	21333.45
778.209	21111.31
778.543	21108.15
778.878	20984.08
779.212	21033.35
779.547	20866.34
779.881	20934.14
780.215	20688.27
780.55	20785.89
780.884	20650.3
781.218	20577.76
781.552	20600.59
781.886	20519.46
782.22	20375.28
782.554	20316.08
782.888	20074.27
783.222	20006.93
783.556	19983.66
783.889	19823.66
784.223	19707.05
784.557	19735.53
784.89	19723.55
785.224	19638.35
785.557	19542.31
785.891	19395.65
786.224	19459.15
786.558	19293.96
786.891	19265.26
787.224	19120.85
787.557	19072.49
787.891	18978.71
788.224	19038.82
788.557	18937.81
788.89	18909.11
789.223	18864.14
789.556	18822.33
789.888	18720.86
790.221	18568.33
790.554	18489.68
790.887	18452.85
791.219	18380.53
791.552	18283.81
791.884	18204.04
792.217	18234.55
792.549	18179.18
792.882	18060.54
793.214	18008.11
793.546	17972.41
793.879	17922.24
794.211	17779.87
794.543	17755.92
794.875	17853.32
795.207	17795.01
795.539	17536.71
795.871	17638.63
796.203	17506.66
796.535	17389.37
796.867	17284.52
797.198	17427.79
797.53	17311.18
797.862	17183.95
798.193	17247.23
798.525	17016.95
798.856	17113.22
799.188	16838.88
799.519	16858.09
799.85	16696.06
800.182	16710.52
800.513	16674.59
800.844	16617.42
801.175	16705.78
801.506	16626.23
801.837	16429.62
802.168	16452.45
802.499	16349.4
802.83	16424.65
803.161	16242.51
803.491	16275.96
803.822	16245.67
804.153	16105.34
804.483	16037.54
804.814	15987.15
805.145	15989.18
805.475	15894.72
805.805	15785.57
806.136	15843.2
806.466	15934.95
806.796	15845.46
807.126	15678.01
807.457	15668.51
807.787	15637.33
808.117	15553.26
808.447	15461.29
808.777	15557.33
809.107	15425.13
809.436	15445.92
809.766	15417.9
810.096	15293.84
810.426	15271.01
810.755	15290.45
811.085	15216.1
811.414	15225.36
811.744	15064.46
812.073	15058.81
812.403	15028.08
812.732	15024.92
813.061	15035.76
813.39	14844.58
813.719	14779.5
814.049	14878.7
814.378	14833.51
814.707	14743.12
815.036	14776.11
815.365	14685.04
815.693	14493.63
816.022	14495.21
816.351	14450.69
816.68	14373.18
817.008	14473.74
817.337	14302.9
817.665	14316.69
817.994	14335.22
818.322	14271.04
818.651	14214.09
818.979	14174.77
819.307	14320.75
819.636	14115.79
819.964	14043.47
820.292	14147.2
820.62	14047.31
820.948	14032.85
821.276	14085.05
821.604	14073.75
821.932	14051.61
822.259	14071.72
822.587	14081.44
822.915	13897.26
823.243	14026.3
823.57	13908.79
823.898	14072.4
824.225	13930.93
824.553	13857.49
824.88	13985.39
825.207	14029.46
825.535	13915.57
825.862	14050.03
826.189	13973.64
826.516	14010.71
826.843	14012.74
827.17	13925.96
827.497	13995.34
827.824	13975.68
828.151	13976.13
828.478	13909.69
828.805	13998.28
829.131	13889.8
829.458	13872.18
829.785	13826.76
830.111	13887.54
830.438	13976.58
830.764	13918.5
831.09	13896.13
831.417	13865.17
831.743	13876.25
832.069	13835.12
832.395	13771.62
832.722	13874.89
833.048	13839.86
833.374	13777.26
833.7	13737.94
834.026	13706.31
834.351	13827.88
834.677	13771.16
835.003	13768.45
835.329	13765.74
835.654	13652.97
835.98	13674.44
836.306	13564.62
836.631	13557.84
836.956	13675.57
837.282	13639.64
837.607	13552.86
837.932	13463.83
838.258	13532.53
838.583	13443.26
838.908	13401.68
839.233	13450.27
839.558	13455.24
839.883	13276.26
840.208	13268.35
840.533	13414.79
840.858	13328.69
841.182	13395.35
841.507	13304.73
841.832	13180.22
842.156	13188.35
842.481	13178.86
842.805	13118.75
843.13	13115.81
843.454	13137.51
843.778	12976.83
844.103	12994.46
844.427	12977.96
844.751	12918.76
845.075	12903.62
845.399	12857.74
845.723	12777.52
846.047	12827.69
846.371	12712.21
846.695	12676.73
847.019	12557.41
847.343	12594.02
847.666	12539.33
847.99	12416.17
848.313	12379.56
848.637	12383.86
848.96	12341.82
849.284	12288.26
849.607	12142.96
849.931	12187.02
850.254	12082.85
850.577	12008.72
850.9	11944.32
851.223	11941.38
851.546	11948.39
851.869	11790.42
852.192	11787.94
852.515	11702.97
852.838	11678.34
853.161	11650.54
853.483	11580.03
853.806	11557.44
854.129	11491.45
854.451	11529.19
854.774	11471.56
855.096	11389.08
855.419	11396.76
855.741	11344.11
856.063	11297.33
856.385	11254.17
856.708	11208.97
857.03	11159.03
857.352	11198.35
857.674	11159.71
857.996	11083.32
858.318	11090.56
858.64	11066.38
858.961	10971.01
859.283	10894.63
859.605	10874.97
859.926	10950.9
860.248	10883.56
860.57	10850.56
860.891	10778.47
861.212	10918.81
861.534	10781.64
861.855	10747.97
862.176	10739.15
862.498	10697.35
862.819	10775.99
863.14	10648.08
863.461	10590.46
863.782	10568.54
864.103	10595.2
864.424	10547.07
864.745	10582.55
865.065	10477.46
865.386	10493.74
865.707	10413.74
866.027	10471.14
866.348	10430.91
866.668	10373.06
866.989	10397.01
867.309	10348.2
867.63	10318.15
867.95	10343.68
868.27	10231.82
868.59	10267.75
868.91	10256.45
869.23	10255.55
869.55	10185.49
869.87	10204.7
870.19	10238.83
870.51	10201.31
870.83	10179.39
871.15	10108.89
871.469	10054.2
871.789	10068.66
872.109	10011.04
872.428	10040.19
872.748	10087.87
873.067	9986.86
873.386	9990.02
873.706	9973.3
874.025	9947.99
874.344	9849.91
874.663	9908.89
874.982	9888.33
875.301	9887.2
875.62	9849.68
875.939	9849.91
876.258	9839.29
876.577	9822.79
876.896	9792.74
877.214	9823.7
877.533	9755
877.852	9743.25
878.17	9786.86
878.489	9723.59
878.807	9781.21
879.125	9718.61
879.444	9712.51
879.762	9674.77
880.08	9668.9
880.398	9609.01
880.716	9655.79
881.034	9600.43
881.352	9541.22
881.67	9456.47
881.988	9541.67
882.306	9516.13
882.624	9436.81
882.941	9402.92
883.259	9412.41
883.577	9366.53
883.894	9352.07
884.212	9392.75
884.529	9352.3
884.846	9327.66
885.164	9378.28
885.481	9301
885.798	9309.81
886.115	9234.33
886.432	9239.08
886.75	9262.13
887.067	9230.27
887.383	9136.71
887.7	9155.24
888.017	9119.76
888.334	9150.27
888.651	9128.12
888.967	9024.62
889.284	9004.06
889.6	8999.09
889.917	8945.53
890.233	8949.82
890.55	8851.29
890.866	8911.86
891.182	8816.94
891.498	8890.61
891.815	8816.72
892.131	8763.39
892.447	8742.82
892.763	8784.4
893.079	8685.42
893.395	8625.54
893.71	8640.68
894.026	8655.82
894.342	8573.33
894.657	8537.18
894.973	8531.75
895.289	8501.25
895.604	8578.98
895.92	8466.67
896.235	8393
896.55	8450.4
896.865	8375.6
897.181	8342.61
897.496	8397.75
897.811	8279.1
898.126	8291.99
898.441	8263.06
898.756	8169.28
899.071	8180.12
899.386	8186.23
899.7	8124.08
900.015	8096.96
900.33	8080.24
900.644	7983.29
900.959	8038.21
901.273	7983.52
901.588	7946.23
901.902	7865.1
902.216	7865.56
902.531	7841.6
902.845	7810.19
903.159	7791.89
903.473	7712.34
903.787	7740.36
904.101	7722.28
904.415	7668.5
904.729	7630.08
905.042	7640.7
905.356	7651.1
905.67	7576.52
905.984	7577.2
906.297	7482.97
906.611	7437.32
906.924	7468.5
907.237	7401.39
907.551	7357.09
907.864	7337.43
908.177	7430.54
908.491	7299.02
908.804	7277.77
909.117	7275.97
909.43	7214.27
909.743	7159.13
910.056	7205.91
910.368	7099.25
910.681	7095.86
910.994	7078.46
911.307	7058.12
911.619	6936.54
911.932	6957.11
912.244	6929.54
912.557	6940.38
912.869	6901.97
913.181	6865.13
913.494	6835.3
913.806	6793.49
914.118	6760.5
914.43	6708.07
914.742	6744.91
915.054	6685.93
915.366	6629.43
915.678	6635.08
915.99	6595.76
916.302	6568.41
916.613	6576.1
916.925	6599.37
917.236	6516.89
917.548	6467.4
917.859	6497.68
918.171	6417.23
918.482	6358.7
918.794	6431.92
919.105	6341.53
919.416	6337.91
919.727	6260.4
920.038	6266.5
920.349	6200.06
920.66	6194.41
920.971	6153.51
921.282	6148.54
921.593	6069.9
921.903	6078.26
922.214	6057.02
922.525	6065.15
922.835	6027.41
923.146	5996
923.456	6003.01
923.767	5944.48
924.077	5890.24
924.387	5868.32
924.697	5912.39
925.008	5838.49
925.318	5830.81
925.628	5746.74
925.938	5777.93
926.248	5665.61
926.558	5777.02
926.867	5709.45
927.177	5701.77
927.487	5620.42
927.796	5580.19
928.106	5635.33
928.416	5610.7
928.725	5559.18
929.034	5532.96
929.344	5517.14
929.653	5489.57
929.962	5426.07
930.271	5432.17
930.581	5417.26
930.89	5329.35
931.199	5335.23
931.508	5328
931.817	5317.83
932.125	5322.12
932.434	5310.59
932.743	5227.21
933.051	5248.22
933.36	5193.76
933.669	5157.83
933.977	5158.96
934.286	5143.82
934.594	5164.84
934.902	5084.84
935.21	5070.6
935.519	5057.04
935.827	5048.91
936.135	4937.95
936.443	4963.26
936.751	4951.28
937.059	4968.68
937.367	4914
937.674	4949.25
937.982	4888.46
938.29	4881.68
938.597	4808.01
938.905	4756.26
939.213	4750.61
939.52	4770.04
939.827	4817.5
940.135	4745.19
940.442	4703.15
940.749	4698.63
941.056	4703.15
941.363	4643.04
941.67	4627.9
941.977	4619.77
942.284	4556.26
942.591	4547.23
942.898	4563.04
943.205	4517.4
943.511	4487.34
943.818	4493.22
944.125	4456.61
944.431	4414.8
944.738	4471.75
945.044	4412.09
945.35	4438.75
945.657	4353.78
945.963	4382.94
946.269	4405.08
946.575	4317.17
946.881	4305.65
947.187	4304.29
947.493	4289.38
947.799	4245.09
948.105	4209.83
948.41	4220.91
948.716	4244.86
949.022	4183.62
949.327	4192.43
949.633	4116.5
949.938	4137.07
950.244	4122.83
950.549	4111.98
950.854	4062.27
951.16	4057.29
951.465	4013.45
951.77	4013.91
952.075	4003.74
952.38	3993.79
952.685	3997.63
952.99	3960.57
953.294	3939.56
953.599	3885.77
953.904	3906.56
954.209	3881.93
954.513	3871.31
954.818	3842.38
955.122	3852.1
955.426	3808.26
955.731	3813.46
956.035	3769.17
956.339	3769.17
956.643	3757.42
956.948	3701.82
957.252	3692.78
957.556	3697.08
957.86	3674.71
958.163	3650.75
958.467	3684.2
958.771	3625.22
959.075	3620.7
959.378	3586.12
959.682	3576.4
959.985	3557.65
960.289	3552.45
960.592	3547.48
960.896	3515.84
961.199	3505.67
961.502	3501.6
961.805	3422.96
962.108	3434.03
962.411	3458.21
962.714	3396.52
963.017	3414.6
963.32	3435.16
963.623	3394.49
963.926	3383.19
964.228	3354.94
964.531	3350.19
964.833	3310.42
965.136	3306.58
965.438	3306.58
965.741	3288.05
966.043	3284.21
966.345	3246.24
966.648	3248.28
966.95	3253.7
967.252	3207.83
967.554	3195.85
967.856	3183.65
968.158	3144.78
968.46	3178.22
968.761	3166.47
969.063	3126.02
969.365	3134.83
969.666	3109.3
969.968	3059.13
970.269	3082.86
970.571	3043.99
970.872	3048.96
971.174	3033.37
971.475	3022.52
971.776	3030.2
972.077	2939.13
972.378	2980.71
972.679	2968.51
972.98	2947.72
973.281	2957.44
973.582	2940.49
973.883	2900.49
974.183	2931.67
974.484	2866.59
974.785	2871.34
975.085	2888.29
975.386	2871.11
975.686	2836.99
975.986	2814.62
976.287	2837.44
976.587	2802.41
976.887	2782.07
977.187	2767.38
977.487	2781.4
977.787	2779.59
978.087	2735.75
978.387	2728.97
978.687	2730.32
978.987	2653.04
979.286	2683.32
979.586	2716.54
979.885	2662.08
980.185	2659.14
980.484	2664.79
980.784	2649.2
981.083	2627.28
981.382	2578.92
981.682	2619.37
981.981	2586.82
982.28	2564.23
982.579	2565.13
982.878	2554.06
983.177	2578.01
983.475	2552.02
983.774	2554.74
984.073	2504.34
984.372	2505.7
984.67	2481.06
984.969	2469.77
985.267	2487.39
985.566	2446.72
985.864	2461.18
986.162	2400.39
986.461	2422.31
986.759	2391.35
987.057	2398.13
987.355	2394.51
987.653	2382.76
987.951	2378.92
988.249	2401.97
988.547	2351.12
988.844	2348.41
989.142	2311.13
989.44	2304.57
989.737	2295.08
990.035	2289.43
990.332	2288.75
990.63	2255.53
990.927	2237.68
991.224	2231.58
991.521	2256.66
991.819	2240.39
992.116	2238.81
992.413	2218.92
992.71	2167.63
993.006	2217.12
993.303	2191.58
993.6	2173.73
993.897	2193.39
994.193	2126.27
994.49	2116.55
994.787	2126.05
995.083	2085.59
995.379	2078.59
995.676	2103.67
995.972	2079.27
996.268	2088.31
996.565	2053.96
996.861	2062.54
997.157	2043.34
997.453	2028.42
997.749	2027.07
998.044	2035.65
998.34	2002.43
998.636	1981.19
998.932	1990.91
999.227	1960.85
999.523	1973.96
999.818	2001.76
1000.114	1934.86
1000.409	1938.48
1000.704	1916.79
1001	1900.06
1001.295	1882.21
1001.59	1896.67
1001.885	1863.68
1002.18	1913.17
1002.475	1863.68
1002.77	1855.32
1003.065	1827.97
1003.359	1830.69
1003.654	1822.32
1003.949	1831.36
1004.243	1783.46
1004.538	1785.94
1004.832	1779.84
1005.127	1775.77
1005.421	1758.82
1005.715	1744.81
1006.009	1753.85
1006.304	1717.24
1006.598	1730.12
1006.892	1711.59
1007.186	1739.39
1007.48	1688.32
1007.773	1707.98
1008.067	1674.08
1008.361	1679.5
1008.655	1693.51
1008.948	1660.75
1009.242	1634.76
1009.535	1638.38
1009.829	1641.31
1010.122	1637.7
1010.415	1601.77
1010.708	1579.62
1011.001	1564.7
1011.295	1576.23
1011.588	1524.71
1011.881	1553.63
1012.173	1546.17
1012.466	1545.27
1012.759	1558.15
1013.052	1528.55
1013.344	1496.01
1013.637	1493.52
1013.93	1501.43
1014.222	1491.26
1014.514	1460.75
1014.807	1463.92
1015.099	1487.19
1015.391	1451.71
1015.683	1445.61
1015.976	1456.01
1016.268	1438.83
1016.56	1434.54
1016.851	1399.96
1017.143	1395.22
1017.435	1404.71
1017.727	1383.01
1018.018	1375.33
1018.31	1361.32
1018.602	1360.42
1018.893	1340.98
1019.185	1371.94
1019.476	1321.77
1019.767	1350.7
1020.058	1291.49
1020.35	1303.69
1020.641	1302.56
1020.932	1298.04
1021.223	1283.36
1021.514	1281.55
1021.804	1250.36
1022.095	1270.02
1022.386	1252.62
1022.677	1223.92
1022.967	1255.56
1023.258	1228.67
1023.548	1219.85
1023.839	1221.44
1024.129	1201.32
1024.419	1187.99
1024.709	1184.83
1025	1180.31
1025.29	1198.39
1025.58	1165.62
1025.87	1140.31
1026.16	1158.39
1026.449	1174.88
1026.739	1117.94
1027.029	1143.47
1027.319	1114.1
1027.608	1119.74
1027.898	1113.64
1028.187	1079.75
1028.477	1105.06
1028.766	1103.02
1029.055	1080.2
1029.344	1088.11
1029.634	1063.7
1029.923	1053.31
1030.212	1061.22
1030.501	1077.03
1030.79	1065.28
1031.078	1026.19
1031.367	1063.47
1031.656	1014.44
1031.945	1030.93
1032.233	1010.14
1032.522	985.28
1032.81	1008.79
1033.099	970.37
1033.387	980.54
1033.675	1001.1
1033.963	975.12
1034.251	958.39
1034.54	968.79
1034.828	947.77
1035.116	961.78
1035.403	958.84
1035.691	931.05
1035.979	939.41
1036.267	943.7
1036.554	924.72
1036.842	903.03
1037.129	902.12
1037.417	922.46
1037.704	919.98
1037.992	871.39
1038.279	881.33
1038.566	881.11
1038.853	881.11
1039.14	881.11
