Data from breadboard_black_back_FLMS001491_00013.txt Node
Date: Wed Feb 08 10:50:00 GMT 2017
User: dcchb
Spectrometer: FLMS00149
Trigger mode: 0
Integration Time (sec): 2.000000E-2
Scans to average: 10
Electric dark correction enabled: true
Nonlinearity correction enabled: false
Boxcar width: 0
XAxis mode: Wavelengths
Number of Pixels in Spectrum: 2048
>>>>>Begin Spectral Data<<<<<
341.393	-35.08
341.776	-35.08
342.16	-35.08
342.543	-66.5
342.927	-88.19
343.31	-79.83
343.693	-67.85
344.077	-77.57
344.46	-54.29
344.843	-57.46
345.226	-45.71
345.61	-24.46
345.993	-11.58
346.376	-16.33
346.759	2.2
347.142	27.97
347.525	41.75
347.908	62.77
348.291	88.98
348.674	100.05
349.057	111.35
349.44	108.19
349.823	142.76
350.206	146.15
350.588	187.51
350.971	204.46
351.354	214.63
351.737	259.6
352.119	241.29
352.502	260.95
352.884	255.53
353.267	291.01
353.65	292.14
354.032	295.08
354.414	307.05
354.797	308.18
355.179	325.81
355.562	341.86
355.944	343.21
356.326	330.78
356.709	329.88
357.091	354.28
357.473	340.5
357.855	342.31
358.238	349.09
358.62	337.56
359.002	330.56
359.384	344.57
359.766	352.7
360.148	335.98
360.53	357.67
360.912	346.83
361.294	347.96
361.676	359.26
362.057	361.97
362.439	348.18
362.821	352.7
363.203	356.77
363.584	333.04
363.966	354.28
364.348	344.57
364.729	335.3
365.111	342.76
365.493	333.27
365.874	350.44
366.256	347.73
366.637	332.82
367.019	330.1
367.4	352.93
367.781	350.22
368.163	348.18
368.544	351.57
368.925	338.47
369.306	350.67
369.688	331.01
370.069	334.62
370.45	315.64
370.831	351.35
371.212	345.47
371.593	360.84
371.974	354.06
372.355	358.58
372.736	356.09
373.117	333.04
373.498	343.21
373.879	354.74
374.26	364.45
374.641	350.67
375.021	347.05
375.402	361.52
375.783	364.91
376.163	387.05
376.544	365.58
376.925	387.73
377.305	374.17
377.686	375.75
378.066	363.55
378.447	360.39
378.827	352.7
379.208	364.23
379.588	396.77
379.968	389.09
380.349	404
380.729	392.25
381.109	382.08
381.489	410.55
381.87	387.28
382.25	408.52
382.63	405.58
383.01	403.77
383.39	416.66
383.77	443.55
384.15	412.81
384.53	435.86
384.91	415.3
385.29	437.67
385.67	423.66
386.049	447.62
386.429	450.78
386.809	434.51
387.189	445.13
387.568	422.76
387.948	462.98
388.328	432.7
388.707	458.69
389.087	448.29
389.466	469.76
389.846	459.82
390.225	466.37
390.605	456.65
390.984	479.03
391.363	490.55
391.743	479.03
392.122	478.12
392.501	489.87
392.881	476.09
393.26	495.52
393.639	515.18
394.018	510.21
394.397	526.71
394.776	536.43
395.155	511.12
395.534	526.26
395.913	544.11
396.292	546.37
396.671	552.92
397.05	546.14
397.429	548.86
397.808	573.94
398.186	552.47
398.565	551.79
398.944	550.44
399.323	582.3
399.701	576.88
400.08	585.46
400.458	558.57
400.837	567.84
401.215	592.24
401.594	598.12
401.972	601.06
402.351	613.49
402.729	606.48
403.107	640.83
403.486	610.55
403.864	622.75
404.242	630.44
404.62	622.3
404.999	653.94
405.377	648.29
405.755	680.38
406.133	662.75
406.511	666.14
406.889	688.51
407.267	691
407.645	689.64
408.023	673.6
408.401	716.99
408.779	727.83
409.156	719.02
409.534	718.57
409.912	722.86
410.29	730.09
410.667	756.53
411.045	759.02
411.422	781.39
411.8	788.85
412.178	771
412.555	794.95
412.933	799.47
413.31	829.75
413.687	824.1
414.065	846.25
414.442	828.62
414.819	844.89
415.197	846.47
415.574	855.74
415.951	864.1
416.328	884.44
416.705	867.04
417.082	890.99
417.46	879.24
417.837	927.6
418.214	913.37
418.591	914.95
418.967	954.04
419.344	949.98
419.721	939.81
420.098	957.88
420.475	980.48
420.852	1016.41
421.228	1026.58
421.605	1018.67
421.982	1020.26
422.358	1044.21
422.735	1036.98
423.111	1017.32
423.488	1047.37
423.864	1065.23
424.241	1104.77
424.617	1082.85
424.994	1077.88
425.37	1090.76
425.746	1121.95
426.123	1128.5
426.499	1131.89
426.875	1141.16
427.251	1166.69
427.627	1208.95
428.003	1226.58
428.379	1222.74
428.756	1226.8
429.132	1243.07
429.507	1271.77
429.883	1260.25
430.259	1280.59
430.635	1296.63
431.011	1307.25
431.387	1342.96
431.763	1374.82
432.138	1337.99
432.514	1380.92
432.89	1421.15
433.265	1439
433.641	1420.92
434.016	1441.49
434.392	1435.39
434.767	1476.51
435.143	1515.16
435.518	1523.75
435.894	1502.5
436.269	1562.39
436.644	1573.24
437.02	1570.3
437.395	1593.8
437.77	1603.74
438.145	1628.38
438.52	1651.88
438.895	1655.49
439.271	1681.26
439.646	1726
440.021	1697.98
440.395	1748.6
440.77	1698.43
441.145	1739.33
441.52	1739.33
441.895	1766.45
442.27	1778.88
442.645	1798.77
443.019	1813.23
443.394	1798.31
443.769	1860.01
444.143	1813
444.518	1834.25
444.892	1865.88
445.267	1890.06
445.641	1882.61
446.016	1919.67
446.39	1900.68
446.764	1930.06
447.139	1907.92
447.513	1978.2
447.887	1956.05
448.262	2008.93
448.636	2017.07
449.01	1988.59
449.384	2051.64
449.758	2050.74
450.132	2076.5
450.506	2053.9
450.88	2101.81
451.254	2116.27
451.628	2153.56
452.002	2168.25
452.376	2206.21
452.75	2186.78
453.123	2214.12
453.497	2245.53
453.871	2314.46
454.244	2328.92
454.618	2368.47
454.992	2372.76
455.365	2374.12
455.739	2443.04
456.112	2435.81
456.486	2497.73
456.859	2496.6
457.232	2558.52
457.606	2523.49
457.979	2536.15
458.352	2605.3
458.725	2655.24
459.099	2681.45
459.472	2719.87
459.845	2746.31
460.218	2772.3
460.591	2802.58
460.964	2815.91
461.337	2899.08
461.71	2965.74
462.083	3000.77
462.456	2958.51
462.829	2984.27
463.201	3043.48
463.574	3049.81
463.947	3111.27
464.32	3184.72
464.692	3226.75
465.065	3218.16
465.438	3271.95
465.81	3347.2
466.183	3352.4
466.555	3422.9
466.928	3435.11
467.3	3473.98
467.672	3491.6
468.045	3603.69
468.417	3617.02
468.789	3611.6
469.161	3696.57
469.534	3723.01
469.906	3856.11
470.278	3835.32
470.65	3906.06
471.022	3948.31
471.394	4014.53
471.766	4057.24
472.138	4165.71
472.51	4225.14
472.882	4271.7
473.253	4371.58
473.625	4394.86
473.997	4451.58
474.369	4467.17
474.74	4523.67
475.112	4647.28
475.484	4675.07
475.855	4775.86
476.227	4849.99
476.598	4988.96
476.97	5018.79
477.341	5125.46
477.713	5184.21
478.084	5240.03
478.455	5303.31
478.827	5445.22
479.198	5533.36
479.569	5559.8
479.94	5715.73
480.311	5735.84
480.682	5937.41
481.053	6074.13
481.424	6158.2
481.795	6236.39
482.166	6237.97
482.537	6383.73
482.908	6479.77
483.279	6579.66
483.65	6718.86
484.021	6825.53
484.391	6866.88
484.762	6948.69
485.133	7020.55
485.503	7144.84
485.874	7251.73
486.244	7388.45
486.615	7486.07
486.985	7582.79
487.356	7631.38
487.726	7794.77
488.097	7935.78
488.467	7946.4
488.837	8175.32
489.207	8281.31
489.578	8398.59
489.948	8393.62
490.318	8579.38
490.688	8652.37
491.058	8745.7
491.428	8854.85
491.798	8949.99
492.168	9095.3
492.538	9140.72
492.908	9307.04
493.278	9351.34
493.648	9413.48
494.017	9539.81
494.387	9626.36
494.757	9728.5
495.126	9773.47
495.496	9812.34
495.866	9943.18
496.235	10036.29
496.605	10175.04
496.974	10138.89
497.344	10310.41
497.713	10283.29
498.082	10390.63
498.452	10602.83
498.821	10727.57
499.19	10573.68
499.559	10731.19
499.928	10818.87
500.298	10882.6
500.667	10995.59
501.036	10995.81
501.405	11197.16
501.774	11151.97
502.143	11245.75
502.512	11335.01
502.88	11513.31
503.249	11458.17
503.618	11556.48
503.987	11632.18
504.356	11744.49
504.724	11793.76
505.093	11860.87
505.462	11901.78
505.83	12007.99
506.199	12206.18
506.567	12288.43
506.936	12240.53
507.304	12478.26
507.672	12471.93
508.041	12550.12
508.409	12608.2
508.777	12784.24
509.145	12885.25
509.514	12876.44
509.882	12996.66
510.25	13020.62
510.618	13157.56
510.986	13198.92
511.354	13316.66
511.722	13453.6
512.09	13572.92
512.458	13555.07
512.826	13797.09
513.193	13847.26
513.561	13869.41
513.929	13958.45
514.297	14136.97
514.664	14227.14
515.032	14320.24
515.4	14469.62
515.767	14564.53
516.135	14494.03
516.502	14530.41
516.869	14842.49
517.237	14873.9
517.604	14848.59
517.972	14975.82
518.339	15194.8
518.706	15228.47
519.073	15291.97
519.44	15439.99
519.808	15590.04
520.175	15635.92
520.542	15923.37
520.909	15911.39
521.276	15979.64
521.643	16161.55
522.009	16308.67
522.376	16394.09
522.743	16510.92
523.11	16685.38
523.477	16866.84
523.843	16935.77
524.21	17146.39
524.577	17202.88
524.943	17337.79
525.31	17495.75
525.676	17541.18
526.043	17655.52
526.409	17803.32
526.776	17987.04
527.142	18090.99
527.508	18184.55
527.874	18342.96
528.241	18507.93
528.607	18546.57
528.973	18738.43
529.339	18785.21
529.705	18968.48
530.071	19072.44
530.437	19222.49
530.803	19284.86
531.169	19414.8
531.535	19403.28
531.901	19433.56
532.267	19571.86
532.632	19711.29
532.998	19743.83
533.364	19971.4
533.73	19988.34
534.095	20134.56
534.461	20218.39
534.826	20277.15
535.192	20458.39
535.557	20605.28
535.923	20636.46
536.288	20622.45
536.653	20688.21
537.019	20746.06
537.384	20912.61
537.749	21043.68
538.114	21042.1
538.479	21081.2
538.845	21291.59
539.21	21206.84
539.575	21366.16
539.94	21485.48
540.305	21575.65
540.67	21555.31
541.034	21743.78
541.399	21781.97
541.764	21810.9
542.129	21846.37
542.494	21907.84
542.858	22073.94
543.223	22138.8
543.587	22309.87
543.952	22145.35
544.316	22334.72
544.681	22385.57
545.045	22556.86
545.41	22500.14
545.774	22640.93
546.138	22692.68
546.503	22779.46
546.867	22757.54
547.231	23081.6
547.595	22988.49
547.959	23186.68
548.324	23176.74
548.688	23241.14
549.052	23316.17
549.416	23405.2
549.779	23366.79
550.143	23427.12
550.507	23632.09
550.871	23763.39
551.235	23785.98
551.599	23996.83
551.962	24014.68
552.326	24061.91
552.689	24160.89
553.053	24192.53
553.417	24135.35
553.78	24599.97
554.143	24602.91
554.507	24571.95
554.87	24674.55
555.234	24923.36
555.597	24800.42
555.96	24878.61
556.323	24969.91
556.686	25037.48
557.05	25247.87
557.413	25293.52
557.776	25437.01
558.139	25660.96
558.502	25557.24
558.865	25698.02
559.228	26002.42
559.59	26118.58
559.953	26144.34
560.316	26403.09
560.679	26362.64
561.041	26558.12
561.404	26637.21
561.767	26748.39
562.129	26810.54
562.492	27074.94
562.854	27020.7
563.217	27106.12
563.579	27113.13
563.941	27334.59
564.304	27587.47
564.666	27697.07
565.028	27861.81
565.39	27871.3
565.753	27935.03
566.115	28086.89
566.477	28156.72
566.839	28283.27
567.201	28428.8
567.563	28588.57
567.925	28793.99
568.287	28864.04
568.648	28795.12
569.01	29029.91
569.372	29113.75
569.734	29106.75
570.095	29281.21
570.457	29414.09
570.819	29413.63
571.18	29499.28
571.542	29676.23
571.903	29725.49
572.265	29804.36
572.626	29944.92
572.987	29968.65
573.349	30066.05
573.71	30139.04
574.071	30240.96
574.432	30402.08
574.794	30554.39
575.155	30539.03
575.516	30496.54
575.877	30632.81
576.238	30666.71
576.599	30845.23
576.96	30809.98
577.32	30850.43
577.681	31055.17
578.042	31036.87
578.403	31122.06
578.763	31081.61
579.124	31134.72
579.485	31174.27
579.845	31322.96
580.206	31236.18
580.566	31278.9
580.927	31416.52
581.287	31490.19
581.648	31315.96
582.008	31513.01
582.368	31519.79
582.728	31493.35
583.089	31476.86
583.449	31426.01
583.809	31534.26
584.169	31513.92
584.529	31604.76
584.889	31747.36
585.249	31437.99
585.609	31570.86
585.969	31629.85
586.329	31603.18
586.688	31696.96
587.048	31594.82
587.408	31555.05
587.768	31637.08
588.127	31546.46
588.487	31578.1
588.846	31663.74
589.206	31601.37
589.565	31651.99
589.925	31705.55
590.284	31672.56
590.643	31678.43
591.003	31781.25
591.362	31905.77
591.721	31912.55
592.08	31707.13
592.44	31893.12
592.799	31786.9
593.158	31795.27
593.517	31899.22
593.876	31829.16
594.235	31955.49
594.593	31846.34
594.952	31964.53
595.311	31941.93
595.67	31918.88
596.029	32089.95
596.387	32209.27
596.746	32240.9
597.104	32038.2
597.463	32026.45
597.822	32209.04
598.18	32122.26
598.538	31988.03
598.897	32259.66
599.255	32026.22
599.613	32338.53
599.972	32276.61
600.33	32345.31
600.688	32128.82
601.046	32279.77
601.404	32502.37
601.762	32305.31
602.12	32495.13
602.478	32553.21
602.836	32536.26
603.194	32408.13
603.552	32585.98
603.91	32469.82
604.268	32687.22
604.625	32467.56
604.983	32731.96
605.341	32468.02
605.698	32695.36
606.056	32783.71
606.413	32657.62
606.771	32893.54
607.128	32788.01
607.485	32734.68
607.843	32803.83
608.2	33042.69
608.557	33112.29
608.914	32948.23
609.272	33063.25
609.629	33143.25
609.986	33220.54
610.343	33040.66
610.7	33339.63
611.057	33283.81
611.414	33284.72
611.771	33273.64
612.127	33308.22
612.484	33297.15
612.841	33412.85
613.198	33405.62
613.554	33465.73
613.911	33498.05
614.267	33537.37
614.624	33540.98
614.98	33532.85
615.337	33750.24
615.693	33775.1
616.05	33707.76
616.406	33897.13
616.762	33704.14
617.118	33719.06
617.475	33704.59
617.831	33876.79
618.187	33875.21
618.543	33882.22
618.899	33993.17
619.255	33986.85
619.611	33922.22
619.967	34076.79
620.323	34084.7
620.678	34054.64
621.034	33919.73
621.39	33884.25
621.746	33928.77
622.101	34346.84
622.457	34030.01
622.812	34040.18
623.168	34192.04
623.523	34133.28
623.879	34315.88
624.234	34090.35
624.589	34080.4
624.945	34284.69
625.3	34244.47
625.655	34170.34
626.01	34126.73
626.365	34110.23
626.72	34175.54
627.075	34193.39
627.43	34222.09
627.785	34126.5
628.14	34129.89
628.495	34123.34
628.85	33961.31
629.205	33870.92
629.559	34173.28
629.914	33956.56
630.269	33972.16
630.623	33928.77
630.978	33915.66
631.332	33938.71
631.687	33864.82
632.041	33799.73
632.396	33833.18
632.75	33726.06
633.104	33722.9
633.459	33662.34
633.813	33644.48
634.167	33744.59
634.521	33570.36
634.875	33730.36
635.229	33480.42
635.583	33449.23
635.937	33392.29
636.291	33573.52
636.645	33425.28
636.999	33406.52
637.352	33284.72
637.706	33216.02
638.06	33328.33
638.413	33152.07
638.767	33249.46
639.121	33178.28
639.474	32997.72
639.828	33096.25
640.181	33077.27
640.534	32967.66
640.888	32896.71
641.241	32727.67
641.594	32964.27
641.947	32968.57
642.301	32887.89
642.654	32785.07
643.007	32836.82
643.36	32739.87
643.713	32598.86
644.066	32700.55
644.419	32493.1
644.771	32361.35
645.124	32204.75
645.477	32055.6
645.83	31828.26
646.182	31745.78
646.535	31594.14
646.888	31658.32
647.24	31427.59
647.593	31583.75
647.945	31432.11
648.298	31351.66
648.65	31313.24
649.002	31185.79
649.355	31331.32
649.707	31285.9
650.059	31366.12
650.411	31846.56
650.763	31856.51
651.115	32170.17
651.467	32009.5
651.819	32068.93
652.171	31823.74
652.523	31781.93
652.875	31840.46
653.227	31612.22
653.578	31812.21
653.93	31826.23
654.282	31565.22
654.633	31597.76
654.985	31711.65
655.337	31745.1
655.688	31574.48
656.039	31787.13
656.391	31521.6
656.742	31450.42
657.094	31558.89
657.445	31706
657.796	31629.39
658.147	31519.57
658.498	31393.69
658.849	31427.37
659.2	31501.71
659.551	31385.78
659.902	31510.3
660.253	31381.49
660.604	31529.28
660.955	31253.36
661.306	31440.02
661.656	31271.21
662.007	31209.52
662.358	31232.79
662.708	31285.67
663.059	31257.43
663.409	31106.24
663.76	31154.83
664.11	31205.68
664.461	31204.77
664.811	31250.2
665.161	31126.81
665.511	31087.04
665.862	31121.84
666.212	31244.32
666.562	31215.39
666.912	31152.8
667.262	31163.19
667.612	31101.27
667.962	31092.46
668.312	31042.52
668.662	31145.11
669.011	31085.45
669.361	30954.16
669.711	31002.52
670.06	30927.27
670.41	30885.91
670.76	30785.12
671.109	31033.25
671.459	30855.4
671.808	30774.95
672.157	31000.71
672.507	30629.19
672.856	30673.71
673.205	30693.6
673.554	30828.51
673.904	30729.98
674.253	30878.23
674.602	30717.55
674.951	30304.91
675.3	30150.79
675.649	30632.58
675.998	30586.71
676.346	30583.09
676.695	30622.19
677.044	30390.78
677.393	30475.3
677.741	30551.46
678.09	30259.94
678.438	30439.82
678.787	30435.98
679.135	30372.7
679.484	30207.28
679.832	30239.15
680.181	30130
680.529	30213.84
680.877	30080.28
681.225	30010.91
681.573	30185.59
681.922	30016.1
682.27	30013.39
682.618	29908.54
682.966	29878.25
683.314	29855.43
683.661	29825.37
684.009	29723.23
684.357	29659.73
684.705	29597.58
685.053	29546.51
685.4	29680.75
685.748	29381.54
686.095	29419.06
686.443	29418.15
686.79	29273.98
687.138	29250.93
687.485	29219.74
687.832	29162.11
688.18	29206.63
688.527	29009.58
688.874	29032.17
689.221	28955.79
689.568	28865.63
689.915	28855
690.262	28952.85
690.609	28785.18
690.956	28510.61
691.303	28709.25
691.65	28485.97
691.997	28500.44
692.344	28286.66
692.69	28277.17
693.037	28325.3
693.383	28053.44
693.73	28156.94
694.077	27956.72
694.423	28030.84
694.769	27891.19
695.116	27840.12
695.462	27814.13
695.808	27710.4
696.155	27754.24
696.501	27473.35
696.847	27518.77
697.193	27260.92
697.539	27345.67
697.885	27137.08
698.231	27083.98
698.577	27130.98
698.923	27167.14
699.269	26998.1
699.614	26798.56
699.96	26836.75
700.306	26816.87
700.651	26614.16
700.997	26536.65
701.342	26556.99
701.688	26471.79
702.033	26484.22
702.379	26367.61
702.724	26290.78
703.069	26291.91
703.415	25998.36
703.76	26085.59
704.105	26001.52
704.45	25912.03
704.795	25858.92
705.14	25707.52
705.485	25698.02
705.83	25579.61
706.175	25664.35
706.52	25574.19
706.865	25476.34
707.209	25571.47
707.554	25275.66
707.899	25525.15
708.243	25266.17
708.588	25235.44
708.932	25048.78
709.277	25042
709.621	25092.62
709.966	25051.49
710.31	24959.51
710.654	24684.72
710.998	24875.22
711.342	24841.78
711.687	24715
712.031	24508.23
712.375	24541.45
712.719	24587.09
713.063	24524.72
713.407	24575.57
713.75	24407.66
714.094	24489.7
714.438	24286.54
714.782	24323.15
715.125	24105.75
715.469	24226.65
715.812	24079.54
716.156	23990.27
716.499	24022.81
716.843	24007.9
717.186	23954.12
717.53	24000.67
717.873	23836.83
718.216	23855.36
718.559	23745.76
718.902	23606.78
719.246	23665.76
719.589	23563.17
719.932	23416.5
720.275	23435.71
720.617	23512.77
720.96	23461.7
721.303	23421.7
721.646	23482.04
721.989	23236.62
722.331	23368.37
722.674	23306.22
723.016	23237.98
723.359	23193.91
723.701	23231.65
724.044	23073.69
724.386	22829.85
724.729	22967.93
725.071	22917.76
725.413	22906.23
725.755	22887.7
726.097	22825.11
726.439	22737.88
726.782	22733.13
727.124	22814.71
727.465	22750.98
727.807	22713.02
728.149	22701.49
728.491	22548.96
728.833	22556.19
729.175	22428.28
729.516	22445.91
729.858	22445.46
730.199	22483.87
730.541	22345.12
730.882	22341.5
731.224	22374.04
731.565	22119.36
731.906	22208.85
732.248	22105.8
732.589	22166.14
732.93	22076.65
733.271	22117.1
733.612	22084.33
733.953	22052.47
734.294	21988.07
734.635	21849.76
734.976	21994.85
735.317	21817.45
735.658	21929.99
735.999	21813.16
736.339	21794.17
736.68	21751.91
737.021	21685.25
737.361	21644.12
737.702	21770.67
738.042	21570.45
738.383	21573.61
738.723	21608.87
739.063	21584.69
739.404	21557.12
739.744	21525.03
740.084	21412.49
740.424	21387.63
740.764	21266.73
741.104	21480.06
741.444	21223.57
741.784	21290.01
742.124	21261.31
742.464	21233.06
742.804	21173.4
743.143	21036
743.483	21123.91
743.823	20996.68
744.162	20972.95
744.502	21004.59
744.841	20939.51
745.181	21001.65
745.52	20907.87
745.86	21075.55
746.199	20847.76
746.538	20858.83
746.877	20877.81
747.216	20786.06
747.556	20728.44
747.895	20813.41
748.234	20578.61
748.573	20530.25
748.911	20546.3
749.25	20541.55
749.589	20360.09
749.928	20503.36
750.267	20501.1
750.605	20438.05
750.944	20353.53
751.283	20219.98
751.621	20363.02
751.96	20101.56
752.298	20145.18
752.636	20169.58
752.975	19994.9
753.313	19917.61
753.651	19976.14
753.989	19898.86
754.327	19877.61
754.666	19718.52
755.004	19822.93
755.342	19859.99
755.679	19812.76
756.017	19588.81
756.355	19695.24
756.693	19562.82
757.031	19549.49
757.368	19476.49
757.706	19476.27
758.044	19338.87
758.381	19525.98
758.719	19312.88
759.056	19362.15
759.394	19330.28
759.731	19207.35
760.068	19090.06
760.405	19105.88
760.743	18942.04
761.08	19007.35
761.417	18954.7
761.754	18881.48
762.091	18785.44
762.428	18776.4
762.765	18624.99
763.102	18739.56
763.438	18627.7
763.775	18528.5
764.112	18550.42
764.449	18498.89
764.785	18399.91
765.122	18185
765.458	18192.46
765.795	18192.69
766.131	18193.59
766.467	18091.45
766.804	18000.83
767.14	17991.11
767.476	17933.94
767.812	17833.37
768.148	17871.11
768.485	17696.2
768.821	17670.21
769.157	17576.88
769.492	17552.02
769.828	17505.7
770.164	17388.19
770.5	17385.48
770.836	17367.62
771.171	17198.36
771.507	17119.72
771.842	17117.23
772.178	17015.77
772.513	17051.92
772.849	16907.97
773.184	16934.87
773.519	16902.1
773.855	16828.2
774.19	16717.47
774.525	16628.66
774.86	16665.04
775.195	16646.06
775.53	16449.91
775.865	16420.75
776.2	16252.17
776.535	16318.61
776.87	16223.25
777.205	16206.52
777.539	16149.8
777.874	16129.91
778.209	15959.07
778.543	16001.78
778.878	15795.23
779.212	15872.52
779.547	15724.28
779.881	15807.44
780.215	15595.47
780.55	15741
780.884	15630.49
781.218	15536.94
781.552	15538.52
781.886	15407
782.22	15353.21
782.554	15338.75
782.888	15062.82
783.222	15082.26
783.556	15074.12
783.889	14999.1
784.223	14944.18
784.557	14901.7
784.89	14904.64
785.224	14850.4
785.557	14753.68
785.891	14644.76
786.224	14717.52
786.558	14612.21
786.891	14531.54
787.224	14538.77
787.557	14452.9
787.891	14433.46
788.224	14402.95
788.557	14360.92
788.89	14294.71
789.223	14284.09
789.556	14233.92
789.888	14103.53
790.221	14154.83
790.554	13953.7
790.887	14036.86
791.219	14008.16
791.552	13941.95
791.884	13845.68
792.217	13787.15
792.549	13718.23
792.882	13710.54
793.214	13678.68
793.546	13649.3
793.879	13565.69
794.211	13523.88
794.543	13616.99
794.875	13468.29
795.207	13505.13
795.539	13359.82
795.871	13325.92
796.203	13233.95
796.535	13235.75
796.867	13187.39
797.198	13172.03
797.53	13093.38
797.862	13043.67
798.193	13117.11
798.525	12973.39
798.856	12999.38
799.188	12842.54
799.519	12849.32
799.85	12761.19
800.182	12750.79
800.513	12775.2
800.844	12642.55
801.175	12737.91
801.506	12735.2
801.837	12585.15
802.168	12548.09
802.499	12511.93
802.83	12372.95
803.161	12471.48
803.491	12476.45
803.822	12445.94
804.153	12341.09
804.483	12281.2
804.814	12258.15
805.145	12201.2
805.475	12186.97
805.805	12146.74
806.136	12148.78
806.466	12070.36
806.796	12143.13
807.126	12009.57
807.457	11958.95
807.787	11981.1
808.117	11943.81
808.447	11912.62
808.777	11912.62
809.107	11866.75
809.436	11826.07
809.766	11797.6
810.096	11784.72
810.426	11734.1
810.755	11700.2
811.085	11619.75
811.414	11636.93
811.744	11527.32
812.073	11534.33
812.403	11523.48
812.732	11492.3
813.061	11471.96
813.39	11345.63
813.719	11403.03
814.049	11387.21
814.378	11369.14
814.707	11360.32
815.036	11330.49
815.365	11188.58
815.693	11156.94
816.022	11151.06
816.351	11133.44
816.68	10965.76
817.008	11083.27
817.337	11071.52
817.665	11013.67
817.994	11068.35
818.322	11040.11
818.651	10935.7
818.979	10871.75
819.307	11019.31
819.636	10904.52
819.964	10837.85
820.292	10871.07
820.62	10890.28
820.948	10848.25
821.276	10855.48
821.604	10867
821.932	10878.08
822.259	10838.75
822.587	10848.25
822.915	10816.83
823.243	10903.61
823.57	10744.07
823.898	10822.71
824.225	10780.23
824.553	10736.38
824.88	10801.02
825.207	10817.29
825.535	10752.43
825.862	10795.37
826.189	10745.42
826.516	10778.87
826.843	10737.74
827.17	10743.16
827.497	10799.66
827.824	10816.16
828.151	10847.57
828.478	10781.35
828.805	10813.9
829.131	10777.51
829.458	10779.77
829.785	10727.57
830.111	10742.03
830.438	10756.95
830.764	10756.04
831.09	10702.49
831.417	10737.74
831.743	10715.14
832.069	10777.06
832.395	10654.58
832.722	10802.15
833.048	10685.54
833.374	10768.93
833.7	10643.51
834.026	10694.13
834.351	10617.07
834.677	10635.14
835.003	10766.44
835.329	10655.03
835.654	10605.99
835.98	10645.09
836.306	10573.68
836.631	10493.45
836.956	10598.53
837.282	10565.32
837.607	10540.01
837.932	10424.98
838.258	10503.4
838.583	10448.71
838.908	10429.27
839.233	10427.24
839.558	10373
839.883	10352.44
840.208	10346.56
840.533	10332.78
840.858	10343.17
841.182	10338.2
841.507	10264.53
841.832	10309.5
842.156	10263.18
842.481	10265.44
842.805	10224.53
843.13	10196.96
843.454	10072.9
843.778	10135.72
844.103	10089.62
844.427	10077.19
844.751	10044.43
845.075	10100.92
845.399	10029.96
845.723	9970.3
846.047	9989.96
846.371	9912.23
846.695	9891.89
847.019	9825.22
847.343	9803.3
847.666	9723.08
847.99	9683.53
848.313	9677.66
848.637	9649.41
848.96	9597.66
849.284	9619.13
849.607	9468.17
849.931	9465.01
850.254	9490.99
850.577	9418.9
850.9	9322.86
851.223	9324.22
851.546	9229.31
851.869	9216.88
852.192	9277.89
852.515	9208.51
852.838	9243.99
853.161	9247.38
853.483	9066.6
853.806	9020.05
854.129	9047.62
854.451	9059.14
854.774	8990.67
855.096	8963.1
855.419	8922.19
855.741	8955.19
856.063	8857.56
856.385	8864.12
856.708	8827.28
857.03	8797.68
857.352	8817.56
857.674	8800.16
857.996	8723.56
858.318	8660.96
858.64	8669.77
858.961	8626.84
859.283	8644.01
859.605	8555.65
859.926	8574.63
860.248	8588.87
860.57	8570.57
860.891	8569.89
861.212	8586.38
861.534	8547.29
861.855	8430.46
862.176	8447.18
862.498	8479.27
862.819	8408.99
863.14	8390.46
863.461	8440.17
863.782	8317.46
864.103	8354.75
864.424	8311.14
864.745	8383
865.065	8330.12
865.386	8291.02
865.707	8300.06
866.027	8241.53
866.348	8246.28
866.668	8284.25
866.989	8201.54
867.309	8254.19
867.63	8208.54
867.95	8169.9
868.27	8205.15
868.59	8122.89
868.91	8168.54
869.23	8131.71
869.55	8094.42
869.87	8122.44
870.19	8151.37
870.51	8095.32
870.83	8093.52
871.15	8043.57
871.469	8029.34
871.789	8087.87
872.109	8032.95
872.428	7951.15
872.748	8014.87
873.067	7930.58
873.386	7960.41
873.706	7982.56
874.025	7923.58
874.344	7895.1
874.663	7964.25
874.982	7881.32
875.301	7932.16
875.62	7834.99
875.939	7853.75
876.258	7902.79
876.577	7812.17
876.896	7799.06
877.214	7819.62
877.533	7835.22
877.852	7783.69
878.17	7840.87
878.489	7705.05
878.807	7773.07
879.125	7738.27
879.444	7766.97
879.762	7696.24
880.08	7696.69
880.398	7655.11
880.716	7642.45
881.034	7683.13
881.352	7654.66
881.67	7639.74
881.988	7638.84
882.306	7591.16
882.624	7624.15
882.941	7547.32
883.259	7552.29
883.577	7524.04
883.894	7499.41
884.212	7542.34
884.529	7540.08
884.846	7504.38
885.164	7495.34
885.481	7425.28
885.798	7488.33
886.115	7385.51
886.432	7379.64
886.75	7390.94
887.067	7371.05
887.383	7358.62
887.7	7310.49
888.017	7273.42
888.334	7305.51
888.651	7277.49
888.967	7239.53
889.284	7193.65
889.6	7212.64
889.917	7173.31
890.233	7155.46
890.55	7130.38
890.866	7178.96
891.182	7116.59
891.498	7100.55
891.815	7065.07
892.131	7001.79
892.447	6984.17
892.763	6974
893.079	6952.08
893.395	6980.55
893.71	6969.93
894.026	6926.77
894.342	6897.62
894.657	6911.85
894.973	6886.99
895.289	6824.85
895.604	6802.48
895.92	6760.9
896.235	6710.5
896.55	6809.03
896.865	6752.08
897.181	6742.14
897.496	6711.63
897.811	6748.01
898.126	6663.72
898.441	6635.7
898.756	6640.67
899.071	6580.11
899.386	6522.94
899.7	6538.75
900.015	6532.2
900.33	6426.44
900.644	6467.57
900.959	6505.08
901.273	6500.79
901.588	6413.56
901.902	6327.01
902.216	6357.29
902.531	6352.32
902.845	6281.81
903.159	6297.63
903.473	6263.06
903.787	6222.83
904.101	6221.7
904.415	6217.86
904.729	6208.59
905.042	6179.44
905.356	6120.46
905.67	6160.91
905.984	6139.9
906.297	6135.6
906.611	6037.07
906.924	6020.58
907.237	5999.11
907.551	6014.93
907.864	5971.31
908.177	5966.11
908.491	5923.63
908.804	5949.17
909.117	5859.45
909.43	5873.01
909.743	5868.72
910.056	5827.59
910.368	5786.68
910.681	5803.41
910.994	5762.5
911.307	5717.76
911.619	5663.75
911.932	5694.94
912.244	5617.65
912.557	5638.89
912.869	5601.38
913.181	5626.69
913.494	5590.76
913.806	5549.18
914.118	5519.8
914.43	5492.68
914.742	5481.83
915.054	5464.66
915.366	5433.92
915.678	5427.6
915.99	5441.16
916.302	5343.98
916.613	5378.79
916.925	5300.82
917.236	5311.89
917.548	5237.55
917.859	5259.92
918.171	5275.51
918.482	5200.71
918.794	5225.79
919.105	5204.1
919.416	5150.54
919.727	5117.1
920.038	5124.33
920.349	5071.22
920.66	5068.51
920.971	5036.87
921.282	5012.24
921.593	5058.79
921.903	4996.42
922.214	5006.37
922.525	4965.24
922.835	4958.46
923.146	4939.02
923.456	4845.92
923.767	4887.27
924.077	4872.58
924.387	4828.52
924.697	4826.71
925.008	4768.41
925.318	4768.86
925.628	4742.19
925.938	4729.76
926.248	4727.5
926.558	4723.66
926.867	4682.08
927.177	4673.94
927.487	4637.34
927.796	4566.83
928.106	4565.93
928.416	4616.09
928.725	4561.41
929.034	4548.98
929.344	4577
929.653	4538.13
929.962	4494.74
930.271	4484.35
930.581	4466.49
930.89	4404.35
931.199	4369.77
931.508	4434.18
931.817	4407.74
932.125	4342.88
932.434	4365.48
932.743	4302.88
933.051	4287.51
933.36	4318.93
933.669	4275.76
933.977	4246.84
934.286	4205.93
934.594	4242.54
934.902	4211.81
935.21	4210.91
935.519	4177.01
935.827	4177.69
936.135	4125.26
936.443	4121.64
936.751	4086.16
937.059	4103.79
937.367	4078.71
937.674	4027.86
937.982	4077.35
938.29	4057.01
938.597	4035.77
938.905	3934.53
939.213	3983.12
939.52	3965.04
939.827	3934.08
940.135	3944.7
940.442	3881.88
940.749	3876
941.056	3853.4
941.363	3851.82
941.67	3855.89
941.977	3837.13
942.284	3810.01
942.591	3789.45
942.898	3767.3
943.205	3756.45
943.511	3736.12
943.818	3750.13
944.125	3708.32
944.431	3705.61
944.738	3719.39
945.044	3671.71
945.35	3618.61
945.657	3632.39
945.963	3634.88
946.269	3640.3
946.575	3630.13
946.881	3564.14
947.187	3575.89
947.493	3539.51
947.799	3514.88
948.105	3530.92
948.41	3542.68
948.716	3527.08
949.022	3494.31
949.327	3473.3
949.633	3422.9
949.938	3440.53
950.244	3439.85
950.549	3440.76
950.854	3358.73
951.16	3371.83
951.465	3345.39
951.77	3344.49
952.075	3344.26
952.38	3346.52
952.685	3282.34
952.99	3289.8
953.294	3308.33
953.599	3232.63
953.904	3265.62
954.209	3252.51
954.513	3222.91
954.818	3252.97
955.122	3201.67
955.426	3195.79
955.731	3173.65
956.035	3169.8
956.339	3167.54
956.643	3170.93
956.948	3116.7
957.252	3086.19
957.556	3155.11
957.86	3107.43
958.163	3093.2
958.467	3059.98
958.771	3061.56
959.075	3047.77
959.378	3036.02
959.682	3062.69
959.985	3012.52
960.289	3004.61
960.592	2980.43
960.896	2997.6
961.199	2969.58
961.502	2911.05
961.805	2911.28
962.108	2876.25
962.411	2891.84
962.714	2866.53
963.017	2876.93
963.32	2833.77
963.623	2876.48
963.926	2826.08
964.228	2812.98
964.531	2848.46
964.833	2843.48
965.136	2802.81
965.438	2800.1
965.741	2759.42
966.043	2749.7
966.345	2710.15
966.648	2752.41
966.95	2755.35
967.252	2688.69
967.554	2720.78
967.856	2697.95
968.158	2672.64
968.46	2662.92
968.761	2646.88
969.063	2635.58
969.365	2620.44
969.666	2622.47
969.968	2636.03
970.269	2622.25
970.571	2588.12
970.872	2599.2
971.174	2555.81
971.475	2582.25
971.776	2546.09
972.077	2562.14
972.378	2521.01
972.679	2544.74
972.98	2521.46
973.281	2487.34
973.582	2493.66
973.883	2464.29
974.183	2437.85
974.484	2433.33
974.785	2480.56
975.085	2417.96
975.386	2466.77
975.686	2422.93
975.986	2399.88
976.287	2391.29
976.587	2379.99
976.887	2398.98
977.187	2367.34
977.487	2351.29
977.787	2339.77
978.087	2313.55
978.387	2325.98
978.687	2322.14
978.987	2299.32
979.286	2306.32
979.586	2293.22
979.885	2288.47
980.185	2265.65
980.484	2260.9
980.784	2251.41
981.083	2235.14
981.382	2220
981.682	2219.55
981.981	2212.31
982.28	2201.69
982.579	2187
982.878	2204.63
983.177	2219.09
983.475	2181.58
983.774	2149.94
984.073	2123.05
984.372	2128.7
984.67	2127.35
984.969	2095.71
985.267	2125.09
985.566	2114.46
985.864	2120.34
986.162	2077.63
986.461	2063.17
986.759	2053.67
987.057	2083.28
987.355	2008.48
987.653	2041.25
987.951	2069.72
988.249	1984.3
988.547	2020.46
988.844	2001.02
989.142	2000.34
989.44	1965.54
989.737	1981.59
990.035	1972.77
990.332	1943.4
990.63	1973.45
990.927	1928.48
991.224	1937.07
991.521	1949.5
991.819	1918.54
992.116	1951.3
992.413	1926.9
992.71	1890.97
993.006	1895.26
993.303	1886.67
993.6	1868.14
993.897	1882.38
994.193	1853.68
994.49	1851.19
994.787	1864.98
995.083	1810.52
995.379	1820.91
995.676	1830.63
995.972	1828.82
996.268	1818.2
996.565	1816.39
996.861	1802.83
997.157	1770.74
997.453	1735.94
997.749	1748.6
998.044	1734.14
998.34	1756.28
998.636	1756.96
998.932	1747.69
999.227	1668.15
999.523	1688.03
999.818	1676.74
1000.114	1679.67
1000.409	1688.26
1000.704	1699.33
1001	1687.36
1001.295	1662.5
1001.59	1640.8
1001.885	1650.52
1002.18	1647.36
1002.475	1645.78
1002.77	1641.03
1003.065	1606.91
1003.359	1619.11
1003.654	1575.95
1003.949	1595.83
1004.243	1566
1004.538	1572.33
1004.832	1557.42
1005.127	1575.27
1005.421	1563.29
1005.715	1541.15
1006.009	1525.55
1006.304	1518.55
1006.598	1508.38
1006.892	1490.3
1007.186	1499.11
1007.48	1520.81
1007.773	1487.36
1008.067	1434.26
1008.361	1436.52
1008.655	1441.94
1008.948	1417.31
1009.242	1430.41
1009.535	1450.07
1009.829	1442.62
1010.122	1426.8
1010.415	1400.81
1010.708	1417.99
1011.001	1386.57
1011.295	1385.67
1011.588	1394.03
1011.881	1366.69
1012.173	1380.7
1012.466	1341.83
1012.759	1380.7
1013.052	1349.74
1013.344	1326.46
1013.637	1326.91
1013.93	1330.76
1014.222	1326.69
1014.514	1301.83
1014.807	1306.35
1015.099	1276.52
1015.391	1308.16
1015.683	1295.5
1015.976	1276.75
1016.268	1271.32
1016.56	1257.31
1016.851	1275.39
1017.143	1235.84
1017.435	1227.93
1017.727	1230.42
1018.018	1221.15
1018.31	1227.93
1018.602	1204.88
1018.893	1215.05
1019.185	1178.67
1019.476	1197.88
1019.767	1193.58
1020.058	1199.91
1020.35	1164.21
1020.641	1154.49
1020.932	1159.91
1021.223	1155.62
1021.514	1127.6
1021.804	1148.84
1022.095	1129.86
1022.386	1142.29
1022.677	1111.55
1022.967	1123.76
1023.258	1089.63
1023.548	1083.98
1023.839	1084.66
1024.129	1104.77
1024.419	1073.14
1024.709	1081.05
1025	1070.42
1025.29	1083.98
1025.58	1047.6
1025.87	1064.1
1026.16	1041.95
1026.449	1038.11
1026.739	1044.66
1027.029	1027.49
1027.319	1045.57
1027.608	992.46
1027.898	1006.7
1028.187	996.75
1028.477	1014.61
1028.766	960.14
1029.055	972.8
1029.344	967.38
1029.634	962.4
1029.923	978
1030.212	963.31
1030.501	928.96
1030.79	967.15
1031.078	936.87
1031.367	929.18
1031.656	920.6
1031.945	927.83
1032.233	889.86
1032.522	902.07
1032.81	917.43
1033.099	893.48
1033.387	879.92
1033.675	888.28
1033.963	886.02
1034.251	898.9
1034.54	873.59
1034.828	867.27
1035.116	857.32
1035.403	878.11
1035.691	881.5
1035.979	846.93
1036.267	837.66
1036.554	874.04
1036.842	816.65
1037.129	822.97
1037.417	830.43
1037.704	834.05
1037.992	831.11
1038.279	825.23
1038.566	841.96
1038.853	841.96
1039.14	841.96
