Data from breadboard_white_FLMS001491_00014.txt Node
Date: Wed Feb 08 10:47:20 GMT 2017
User: dcchb
Spectrometer: FLMS00149
Trigger mode: 0
Integration Time (sec): 2.000000E-2
Scans to average: 10
Electric dark correction enabled: true
Nonlinearity correction enabled: false
Boxcar width: 0
XAxis mode: Wavelengths
Number of Pixels in Spectrum: 2048
>>>>>Begin Spectral Data<<<<<
341.393	-14.66
341.776	-14.66
342.16	-14.66
342.543	-49.01
342.927	-63.47
343.31	-65.28
343.693	-62.57
344.077	-59.18
344.46	-58.5
344.843	-62.12
345.226	-49.69
345.61	-49.01
345.993	-18.28
346.376	7.94
346.759	10.88
347.142	29.18
347.525	41.16
347.908	47.48
348.291	68.95
348.674	100.82
349.057	118.22
349.44	121.38
349.823	115.96
350.206	157.76
350.588	227.37
350.971	236.63
351.354	243.86
351.737	259.23
352.119	266.91
352.502	273.02
352.884	284.09
353.267	317.99
353.65	325.67
354.032	316.18
354.414	325.22
354.797	329.96
355.179	327.25
355.562	355.5
355.944	365.22
356.326	359.11
356.709	351.43
357.091	355.5
357.473	377.42
357.855	367.7
358.238	386.01
358.62	363.86
359.002	365.22
359.384	376.29
359.766	375.16
360.148	374.71
360.53	368.15
360.912	357.53
361.294	351.88
361.676	363.18
362.057	365.67
362.439	363.63
362.821	374.03
363.203	389.62
363.584	359.34
363.966	358.66
364.348	368.15
364.729	372.45
365.111	354.14
365.493	368.83
365.874	348.04
366.256	358.21
366.637	372
367.019	351.43
367.4	365.22
367.781	364.76
368.163	358.66
368.544	352.79
368.925	355.5
369.306	374.48
369.688	367.48
370.069	351.43
370.45	374.03
370.831	369.96
371.212	380.36
371.593	381.71
371.974	359.79
372.355	374.03
372.736	359.34
373.117	366.35
373.498	381.26
373.879	364.31
374.26	381.26
374.641	355.05
375.021	360.02
375.402	367.93
375.783	376.06
376.163	397.53
376.544	393.01
376.925	384.2
377.305	392.33
377.686	415.16
378.066	410.41
378.447	373.13
378.827	388.04
379.208	404.09
379.588	415.61
379.968	427.36
380.349	424.42
380.729	421.49
381.109	412.22
381.489	423.52
381.87	427.36
382.25	426.91
382.63	440.02
383.01	434.59
383.39	435.27
383.77	447.93
384.15	454.71
384.53	449.51
384.91	450.64
385.29	467.59
385.67	442.05
386.049	465.78
386.429	457.19
386.809	475.04
387.189	459
387.568	483.86
387.948	472.56
388.328	482.5
388.707	488.38
389.087	475.72
389.466	499
389.846	514.59
390.225	536.29
390.605	511.65
390.984	531.54
391.363	529.96
391.743	531.54
392.122	539.22
392.501	520.69
392.881	564.99
393.26	566.57
393.639	565.44
394.018	593.46
394.397	590.75
394.776	605.44
395.155	609.96
395.534	591.43
395.913	603.63
396.292	595.27
396.671	635.27
397.05	637.53
397.429	653.34
397.808	639.56
398.186	660.58
398.565	692.67
398.944	645.21
399.323	662.16
399.701	699.9
400.08	679.56
400.458	735.15
400.837	722.72
401.215	734.7
401.594	749.39
401.972	781.25
402.351	774.02
402.729	786.45
403.107	784.19
403.486	810.85
403.864	822.15
404.242	822.83
404.62	851.53
404.999	852.21
405.377	861.25
405.755	894.92
406.133	892.21
406.511	924.52
406.889	919.55
407.267	923.39
407.645	955.48
408.023	1008.14
408.401	1018.53
408.779	1036.84
409.156	1068.93
409.534	1045.65
409.912	1096.5
410.29	1116.84
410.667	1136.04
411.045	1160
411.422	1180.56
411.8	1171.07
412.178	1208.36
412.555	1240.67
412.933	1246.32
413.31	1284.51
413.687	1309.15
414.065	1336.72
414.442	1337.85
414.819	1381.01
415.197	1386.21
415.574	1410.39
415.951	1450.39
416.328	1438.86
416.705	1484.73
417.082	1490.84
417.46	1513.21
417.837	1555.92
418.214	1594.34
418.591	1569.93
418.967	1587.11
419.344	1628.91
419.721	1659.42
420.098	1643.83
420.475	1671.62
420.852	1699.64
421.228	1718.4
421.605	1749.13
421.982	1780.32
422.358	1809.47
422.735	1826.19
423.111	1802.69
423.488	1840.88
423.864	1878.85
424.241	1885.63
424.617	1904.16
424.994	1958.85
425.37	1962.46
425.746	1986.87
426.123	2011.27
426.499	2034.1
426.875	2061.44
427.251	2099.63
427.627	2165.4
428.003	2164.72
428.379	2232.29
428.756	2253.08
429.132	2275
429.507	2315.67
429.883	2315.45
430.259	2346.63
430.635	2400.42
431.011	2401.32
431.387	2494.88
431.763	2510.24
432.138	2519.28
432.514	2570.81
432.89	2584.59
433.265	2644.25
433.641	2668.21
434.016	2731.93
434.392	2720.18
434.767	2826.62
435.143	2845.38
435.518	2825.26
435.894	2919.27
436.269	2953.62
436.644	3002.44
437.02	2964.24
437.395	2986.84
437.77	3079.72
438.145	3073.17
438.52	3134.86
438.895	3149.78
439.271	3175.31
439.646	3267.51
440.021	3304.57
440.395	3290.56
440.77	3251.69
441.145	3330.56
441.52	3413.72
441.895	3415.53
442.27	3422.09
442.645	3406.27
443.019	3459.37
443.394	3502.08
443.769	3540.27
444.143	3499.82
444.518	3553.83
444.892	3582.98
445.267	3578.69
445.641	3677.22
446.016	3716.31
446.39	3698.24
446.764	3764.45
447.139	3742.08
447.513	3761.96
447.887	3826.82
448.262	3843.99
448.636	3857.78
449.01	3900.26
449.384	3957.89
449.758	4010.32
450.132	4017.55
450.506	4038.79
450.88	4130.99
451.254	4074.72
451.628	4184.1
452.002	4199.24
452.376	4231.78
452.75	4302.74
453.123	4300.03
453.497	4385.45
453.871	4414.6
454.244	4512.68
454.618	4535.05
454.992	4636.52
455.365	4637.42
455.739	4747.25
456.112	4805.55
456.486	4844.19
456.859	4879.22
457.232	4978.88
457.606	4961.48
457.979	5057.52
458.352	5184.52
458.725	5191.98
459.099	5239.89
459.472	5377.06
459.845	5406.44
460.218	5467.68
460.591	5502.26
460.964	5558.3
461.337	5710.39
461.71	5738.86
462.083	5833.55
462.456	5877.84
462.829	5888.01
463.201	5979.76
463.574	6041.23
463.947	6138.17
464.32	6254.55
464.692	6307.21
465.065	6372.52
465.438	6422.01
465.81	6591.49
466.183	6593.75
466.555	6781.09
466.928	6802.34
467.3	6846.85
467.672	6959.62
468.045	7145.6
468.417	7127.75
468.789	7209.56
469.161	7353.73
469.534	7457.69
469.906	7662.2
470.278	7695.42
470.65	7748.98
471.022	7961.17
471.394	8012.47
471.766	8128.18
472.138	8248.4
472.51	8445.68
472.882	8491.1
473.253	8644.32
473.625	8805.22
473.997	8962.28
474.369	8961.15
474.74	9121.6
475.112	9307.81
475.484	9513.22
475.855	9588.7
476.227	9683.84
476.598	9997.05
476.97	10049.71
477.341	10272.3
477.713	10483.14
478.084	10496.48
478.455	10784.6
478.827	10936.24
479.198	11217.36
479.569	11175.33
479.94	11540.29
480.311	11671.59
480.682	11902.54
481.053	12143.66
481.424	12467.27
481.795	12466.59
482.166	12738.22
482.537	12853.25
482.908	13168.27
483.279	13194.26
483.65	13603.29
484.021	13858.19
484.391	13963.28
484.762	14119.43
485.133	14201.01
485.503	14460.89
485.874	14782.46
486.244	14938.84
486.615	15234.88
486.985	15422.9
487.356	15657.24
487.726	15768.65
488.097	16173.16
488.467	16141.75
488.837	16579.71
489.207	16734.73
489.578	16953.25
489.948	17060.14
490.318	17360.48
490.688	17332.68
491.058	17742.84
491.428	17932.89
491.798	18111.64
492.168	18492.2
492.538	18527.9
492.908	18823.26
493.278	19023.26
493.648	19168.56
494.017	19381.44
494.387	19578.72
494.757	19727.87
495.126	19964.48
495.496	20050.57
495.866	20180.06
496.235	20445.37
496.605	20505.48
496.974	20687.39
497.344	20865.92
497.713	21008.74
498.082	21159.02
498.452	21341.39
498.821	21613.47
499.19	21608.95
499.559	21800.58
499.928	21953.8
500.298	22155.15
500.667	22311.31
501.036	22400.8
501.405	22600.79
501.774	22665.65
502.143	22968.24
502.512	23050.04
502.88	23183.6
503.249	23364.16
503.618	23488.9
503.987	23608.9
504.356	23828.78
504.724	23971.83
505.093	23988.1
505.462	24206.85
505.83	24267.41
506.199	24578.82
506.567	24783.78
506.936	24804.12
507.304	25149.65
507.672	25255.64
508.041	25410.66
508.409	25572.24
508.777	25885.22
509.145	25982.4
509.514	25982.85
509.882	26238.21
510.25	26462.16
510.618	26570.4
510.986	26628.25
511.354	27009.71
511.722	27195.02
512.09	27395.24
512.458	27445.86
512.826	27647.21
513.193	27867.54
513.561	27990.25
513.929	28176.24
514.297	28533.29
514.664	28661.87
515.032	28692.61
515.4	29145.7
515.767	29208.07
516.135	29376.66
516.502	29272.7
516.869	29806.93
517.237	29878.34
517.604	29884.89
517.972	30329.85
518.339	30521.26
518.706	30624.08
519.073	30871.76
519.44	31023.85
519.808	31517.62
520.175	31344.51
520.542	31754.45
520.909	32004.16
521.276	32018.4
521.643	32451.6
522.009	32641.43
522.376	32878.03
522.743	33080.97
523.11	33399.38
523.477	33675.3
523.843	33930.89
524.21	34300.14
524.577	34560.25
524.943	34604.99
525.31	34924.99
525.676	35244.3
526.043	35350.74
526.409	35456.27
526.776	36104.39
527.142	36130.38
527.508	36353.2
527.874	36696.69
528.241	36685.39
528.607	36865.95
528.973	37303
529.339	37383.23
529.705	37667.29
530.071	37944.12
530.437	38077.9
530.803	38273.37
531.169	38513.59
531.535	38491.45
531.901	38731.67
532.267	38902.73
532.632	39163.97
532.998	39231.54
533.364	39552.43
533.73	39655.48
534.095	39963.5
534.461	39981.8
534.826	40236.94
535.192	40374.33
535.557	40766.87
535.923	40706.75
536.288	40882.8
536.653	41107.2
537.019	41091.38
537.384	41244.82
537.749	41491.14
538.114	41578.6
538.479	41683.23
538.845	41819.27
539.21	41829.66
539.575	42019.94
539.94	42112.59
540.305	42424
540.67	42470.1
541.034	42560.49
541.399	42861.27
541.764	42842.74
542.129	42930.42
542.494	43066.24
542.858	43197.54
543.223	43373.58
543.587	43747.35
543.952	43501.71
544.316	43722.49
544.681	43934.01
545.045	44117.96
545.41	44326.77
545.774	44307.56
546.138	44297.39
546.503	44491.74
546.867	44508.91
547.231	44806.99
547.595	44929.24
547.959	45166.98
548.324	45157.03
548.688	45213.08
549.052	45369
549.416	45442.45
549.779	45578.49
550.143	45772.84
550.507	46052.6
550.871	45935.77
551.235	46023.22
551.599	46446.49
551.962	46518.35
552.326	46596.54
552.689	46878.57
553.053	46659.14
553.417	46888.96
553.78	47377.31
554.143	47184.1
554.507	47478.33
554.87	47577.99
555.234	47922.38
555.597	47796.96
555.96	47938.43
556.323	48048.03
556.686	48210.06
557.05	48549.49
557.413	48506.32
557.776	48562.82
558.139	48956.93
558.502	49033.09
558.865	49049.13
559.228	49433.08
559.59	49557.14
559.953	49519.86
560.316	49872.62
560.679	49895.89
561.041	50170.01
561.404	50182.44
561.767	50504.01
562.129	50395.09
562.492	50746.94
562.854	50704.01
563.217	50786.49
563.579	51007.73
563.941	51162.98
564.304	51421.73
564.666	51499.47
565.028	51557.77
565.39	51671.66
565.753	51887.48
566.115	51896.97
566.477	52017.19
566.839	52174.25
567.201	52423.51
567.563	52419.44
567.925	52705.99
568.287	52623.28
568.648	52775.14
569.01	52874.57
569.372	53066.2
569.734	52971.74
570.095	53184.39
570.457	53309.59
570.819	53313.43
571.18	53332.64
571.542	53615.57
571.903	53535.8
572.265	53760.42
572.626	53786.41
572.987	53885.17
573.349	54027.31
573.71	54052.84
574.071	54184.37
574.432	54282.44
574.794	54422.55
575.155	54363.57
575.516	54314.31
575.877	54493.06
576.238	54467.97
576.599	54573.73
576.96	54613.06
577.32	54683.56
577.681	54739.61
578.042	54805.37
578.403	54834.74
578.763	54858.02
579.124	54900.96
579.485	54936.21
579.845	55051.46
580.206	54946.38
580.566	55021.18
580.927	55124.68
581.287	55207.16
581.648	55109.09
582.008	55196.09
582.368	55115.87
582.728	55221.85
583.089	55066.15
583.449	55166.49
583.809	55213.27
584.169	55223.21
584.529	55146.83
584.889	55371.68
585.249	55178.01
585.609	55145.47
585.969	55348.18
586.329	55245.58
586.688	55186.6
587.048	55302.08
587.408	55253.72
587.768	55265.69
588.127	55220.72
588.487	55166.26
588.846	55338.46
589.206	55205.58
589.565	55167.84
589.925	55295.98
590.284	55268.41
590.643	55246.49
591.003	55326.48
591.362	55352.47
591.721	55294.62
592.08	55313.83
592.44	55431.79
592.799	55405.13
593.158	55333.49
593.517	55300.04
593.876	55356.09
594.235	55315.64
594.593	55366.93
594.952	55389.98
595.311	55343.88
595.67	55343.88
596.029	55512.47
596.387	55501.85
596.746	55539.13
597.104	55453.94
597.463	55465.24
597.822	55625.46
598.18	55460.94
598.538	55458.23
598.897	55633.82
599.255	55417.55
599.613	55686.25
599.972	55542.3
600.33	55641.5
600.688	55542.07
601.046	55598.57
601.404	55730.09
601.762	55680.82
602.12	55792.01
602.478	55778.22
602.836	55903.87
603.194	55641.5
603.552	55774.61
603.91	55721.73
604.268	55805.57
604.625	55730.31
604.983	55876.07
605.341	55766.92
605.698	55920.14
606.056	55962.4
606.413	55961.49
606.771	55980.48
607.128	56011.89
607.485	55994.49
607.843	55980.93
608.2	56231.32
608.557	56204.88
608.914	56116.07
609.272	56177.31
609.629	56266.8
609.986	56373.46
610.343	56225.89
610.7	56412.1
611.057	56286.23
611.414	56258.66
611.771	56355.38
612.127	56457.07
612.484	56396.51
612.841	56538.2
613.198	56357.42
613.554	56387.02
613.911	56510.41
614.267	56611.42
614.624	56478.09
614.98	56539.11
615.337	56665.43
615.693	56595.38
616.05	56594.25
616.406	56742.94
616.762	56641.93
617.118	56634.47
617.475	56600.8
617.831	56748.82
618.187	56747.91
618.543	56793.11
618.899	56890.51
619.255	56843.73
619.611	56808.48
619.967	56925.76
620.323	56989.04
620.678	56838.76
621.034	56804.86
621.39	56800.57
621.746	56712.21
622.101	57063.16
622.457	56768.25
622.812	56942.71
623.168	56950.4
623.523	56896.16
623.879	57027
624.234	56796.73
624.589	56900
624.945	56962.37
625.3	56965.31
625.655	56952.66
626.01	56930.73
626.365	56961.69
626.72	56911.07
627.075	56889.61
627.43	56882.37
627.785	56818.65
628.14	56801.25
628.495	56848.03
628.85	56823.39
629.205	56723.28
629.559	56908.14
629.914	56690.06
630.269	56749.27
630.623	56646
630.978	56570.74
631.332	56742.27
631.687	56681.48
632.041	56611.2
632.396	56614.13
632.75	56507.69
633.104	56489.16
633.459	56431.99
633.813	56380.69
634.167	56354.93
634.521	56463.4
634.875	56377.98
635.229	56374.59
635.583	56231.32
635.937	56260.24
636.291	56210.3
636.645	56262.5
636.999	56126.91
637.352	56197.65
637.706	56016.86
638.06	56106.58
638.413	56058.89
638.767	55959.46
639.121	56030.19
639.474	55840.82
639.828	55916.3
640.181	55866.13
640.534	55843.98
640.888	55709.98
641.241	55699.13
641.594	55650.77
641.947	55709.98
642.301	55716.53
642.654	55686.02
643.007	55758.56
643.36	55599.02
643.713	55604.44
644.066	55658.23
644.419	55506.59
644.771	55284.68
645.124	55108.41
645.477	55061.63
645.83	54778.93
646.182	54634.75
646.535	54633.85
646.888	54606.73
647.24	54442.44
647.593	54527.41
647.945	54420.07
648.298	54266.4
648.65	54285.15
649.002	54164.03
649.355	54338.03
649.707	54264.14
650.059	54432.95
650.411	54726.95
650.763	54747.52
651.115	55016.66
651.467	54913.39
651.819	54899.6
652.171	54809.43
652.523	54764.69
652.875	54766.05
653.227	54650.79
653.578	54869.32
653.93	54721.08
654.282	54604.69
654.633	54549.33
654.985	54675.2
655.337	54603.34
655.688	54580.06
656.039	54636.33
656.391	54398.37
656.742	54418.03
657.094	54354.31
657.445	54514.3
657.796	54387.07
658.147	54363.34
658.498	54345.72
658.849	54398.15
659.2	54336.68
659.551	54288.77
659.902	54371.48
660.253	54303.01
660.604	54296.45
660.955	54145.72
661.306	54283.35
661.656	54189.34
662.007	54222.56
662.358	54198.15
662.708	54195.67
663.059	54100.07
663.409	53992.96
663.76	54184.59
664.11	54004.03
664.461	54038.38
664.811	54155.67
665.161	54071.37
665.511	53932.62
665.862	53920.64
666.212	54039.51
666.562	54049.23
666.912	53948.67
667.262	53908.89
667.612	53903.02
667.962	53974.2
668.312	53840.19
668.662	54022.11
669.011	53938.95
669.361	53845.17
669.711	53846.52
670.06	53816.92
670.41	53753.42
670.76	53653.08
671.109	53872.28
671.459	53686.3
671.808	53628.45
672.157	53689.01
672.507	53470.03
672.856	53472.29
673.205	53558.17
673.554	53635.45
673.904	53487.89
674.253	53606.53
674.602	53461.9
674.951	53047
675.3	52898.98
675.649	53413.77
675.998	53331.73
676.346	53303.03
676.695	53400.88
677.044	53205.18
677.393	53246.09
677.741	53371.05
678.09	53232.3
678.438	53131.06
678.787	53189.59
679.135	53171.51
679.484	52927
679.832	53119.08
680.181	52990.73
680.529	52953.21
680.877	52852.42
681.225	52844.97
681.573	53013.78
681.922	52744.63
682.27	52721.13
682.618	52747.57
682.966	52616.95
683.314	52691.07
683.661	52663.73
684.009	52429.16
684.357	52385.54
684.705	52333.34
685.053	52305.77
685.4	52177.87
685.748	52186
686.095	52110.75
686.443	52003.63
686.79	51958.44
687.138	52006.8
687.485	51918.89
687.832	51792.79
688.18	51842.51
688.527	51658.1
688.874	51619.46
689.221	51508.5
689.568	51316.65
689.915	51395.51
690.262	51356.64
690.609	51283.2
690.956	51065.35
691.303	50998.46
691.65	50894.06
691.997	50910.55
692.344	50648.41
692.69	50677.34
693.037	50737.23
693.383	50325.71
693.73	50468.31
694.077	50215.21
694.423	50292.04
694.769	50054.08
695.116	50016.79
695.462	50043.91
695.808	49811.15
696.155	49936.57
696.501	49568.44
696.847	49718.72
697.193	49350.14
697.539	49489.8
697.885	49252.74
698.231	49058.85
698.577	49054.11
698.923	48991.73
699.269	48750.61
699.614	48653.66
699.96	48612.99
700.306	48828.57
700.651	48583.16
700.997	48365.08
701.342	48310.62
701.688	48169.84
702.033	48057.52
702.379	47976.17
702.724	47986.79
703.069	47975.04
703.415	47494.37
703.76	47582.96
704.105	47471.55
704.45	47361.95
704.795	47186.13
705.14	46997.44
705.485	46976.19
705.83	46731.91
706.175	46829.76
706.52	46768.97
706.865	46525.58
707.209	46614.17
707.554	46394.51
707.899	46474.74
708.243	46249.43
708.588	46133.5
708.932	45925.37
709.277	45952.27
709.621	45956.79
709.966	45632.5
710.31	45566.51
710.654	45324.49
710.998	45442.68
711.342	45437.03
711.687	45318.38
712.031	45204.49
712.375	44984.83
712.719	45005.17
713.063	44918.17
713.407	45034.1
713.75	44684.28
714.094	44750.49
714.438	44392.99
714.782	44469.14
715.125	44467.56
715.469	44472.08
715.812	44164.06
716.156	44041.81
716.499	44058.53
716.843	44064.86
717.186	43767.69
717.53	43903.28
717.873	43982.6
718.216	43830.51
718.559	43668.71
718.902	43368.38
719.246	43449.28
719.589	43323.41
719.932	43175.84
720.275	43137.65
720.617	43089.52
720.96	42902.63
721.303	42932.46
721.646	43053.13
721.989	42695.4
722.331	42879.58
722.674	42559.14
723.016	42582.19
723.359	42504.9
723.701	42382.42
724.044	42185.36
724.386	42200.05
724.729	42345.13
725.071	42145.81
725.413	42031.69
725.755	41979.72
726.097	41817.46
726.439	41759.16
726.782	41714.19
727.124	41837.35
727.465	41612.27
727.807	41518.03
728.149	41313.74
728.491	41333.18
728.833	41310.35
729.175	41081.43
729.516	41067.87
729.858	41093.41
730.199	41018.38
730.541	41076.01
730.882	40852.06
731.224	40983.13
731.565	40810.03
731.906	40714.44
732.248	40853.19
732.589	40571.62
732.93	40290.04
733.271	40403.49
733.612	40518.28
733.953	40416.82
734.294	40229.48
734.635	40088.24
734.976	40003.27
735.317	39959.88
735.658	39941.12
735.999	39958.3
736.339	39827.68
736.68	39896.61
737.021	39688.25
737.361	39524.19
737.702	39621.13
738.042	39598.31
738.383	39396.28
738.723	39539.1
739.063	39274.02
739.404	39453.91
739.744	39233.35
740.084	39177.76
740.424	39174.37
740.764	39128.72
741.104	39142.28
741.444	38958.55
741.784	38757.65
742.124	38743.87
742.464	38658.67
742.804	38761.04
743.143	38497.1
743.483	38679.69
743.823	38435.18
744.162	38386.36
744.502	38507.04
744.841	38299.59
745.181	38352.47
745.52	38116.77
745.86	38110.89
746.199	38037.9
746.538	38052.81
746.877	37955.64
747.216	38088.52
747.556	37893.5
747.895	37845.81
748.234	37640.17
748.573	37584.12
748.911	37576.89
749.25	37419.84
749.589	37201.31
749.928	37391.59
750.267	37349.55
750.605	37199.28
750.944	37030.47
751.283	36888.32
751.621	36985.5
751.96	36803.81
752.298	36760.87
752.636	36753.19
752.975	36453.76
753.313	36511.16
753.651	36599.52
753.989	36270.26
754.327	36227.32
754.666	36084.28
755.004	36138.74
755.342	35988.01
755.679	35908.46
756.017	35772.2
756.355	35612.43
756.693	35673.67
757.031	35821.69
757.368	35438.87
757.706	35424.63
758.044	35304.86
758.381	35326.33
758.719	35085.21
759.056	35039.78
759.394	35007.92
759.731	34797.08
760.068	34684.54
760.405	34609.29
760.743	34435.28
761.08	34588.27
761.417	34324.32
761.754	34162.52
762.091	34227.6
762.428	34067.16
762.765	33769.99
763.102	33924.79
763.438	33720.5
763.775	33534.74
764.112	33608.18
764.449	33579.26
764.785	33379.26
765.122	33157.35
765.458	32962.78
765.795	32990.12
766.131	33047.97
766.467	32848.88
766.804	32707.87
767.14	32519.4
767.476	32431.94
767.812	32369.12
768.148	32482.34
768.485	32064.95
768.821	32025.4
769.157	31955.8
769.492	31757.16
769.828	31854.78
770.164	31567.11
770.5	31350.84
770.836	31309.26
771.171	31228.59
771.507	31062.26
771.842	30966.45
772.178	30992.89
772.513	30817.3
772.849	30675.15
773.184	30600.58
773.519	30647.13
773.855	30401.26
774.19	30355.84
774.525	30232.45
774.86	30234.26
775.195	30074.27
775.53	30040.59
775.865	29673.15
776.2	29493.94
776.535	29361.29
776.87	29327.39
777.205	29182.99
777.539	29100.96
777.874	29131.69
778.209	28823.9
778.543	28751.14
778.878	28578.26
779.212	28570.58
779.547	28519.96
779.881	28583.91
780.215	28297.59
780.55	28317.25
780.884	28180.53
781.218	28145.95
781.552	28128.55
781.886	27840.65
782.22	27708.23
782.554	27700.32
782.888	27229.59
783.222	27297.39
783.556	27208.13
783.889	27185.53
784.223	26977.62
784.557	26882.71
784.89	27036.38
785.224	26789.61
785.557	26630.29
785.891	26629.16
786.224	26648.37
786.558	26471.65
786.891	26247.02
787.224	26241.15
787.557	26075.5
787.891	25922.06
788.224	25915.73
788.557	25907.6
788.89	25728.17
789.223	25807.94
789.556	25594.38
789.888	25480.49
790.221	25320.27
790.554	25189.2
790.887	25257.44
791.219	25009.09
791.552	24968.86
791.884	24973.16
792.217	24871.46
792.549	24812.26
792.882	24626.73
793.214	24546.05
793.546	24588.31
793.879	24262.67
794.211	24254.76
794.543	24101.32
794.875	24156.23
795.207	24177.7
795.539	23973.86
795.871	23999.4
796.203	23826.52
796.535	23691.61
796.867	23555.34
797.198	23569.35
797.53	23533.19
797.862	23344.05
798.193	23383.82
798.525	23209.81
798.856	23303.37
799.188	23004.4
799.519	22902.02
799.85	22821.58
800.182	22811.63
800.513	22789.71
800.844	22525.99
801.175	22712.2
801.506	22558.53
801.837	22498.87
802.168	22472.66
802.499	22290.06
802.83	22287.13
803.161	22169.61
803.491	22196.28
803.822	22186.11
804.153	21968.72
804.483	21867.25
804.814	21805.1
805.145	21841.26
805.475	21777.99
805.805	21656.86
806.136	21737.08
806.466	21707.03
806.796	21592.45
807.126	21410.76
807.457	21359.01
807.787	21323.31
808.117	21189.3
808.447	21161.28
808.777	21138.46
809.107	21053.71
809.436	20969.19
809.766	20937.1
810.096	20873.6
810.426	20782.76
810.755	20760.61
811.085	20763.32
811.414	20592.48
811.744	20561.07
812.073	20486.95
812.403	20549.32
812.732	20314.07
813.061	20350.91
813.39	20206.05
813.719	20354.52
814.049	20166.73
814.378	20199.5
814.707	20194.98
815.036	20058.71
815.365	19973.51
815.693	19821.43
816.022	19877.25
816.351	19732.16
816.68	19650.81
817.008	19686.74
817.337	19514.09
817.665	19515.9
817.994	19585.95
818.322	19513.87
818.651	19394.55
818.979	19313.87
819.307	19409.69
819.636	19270.48
819.964	19182.8
820.292	19229.58
820.62	19258.28
820.948	19119.07
821.276	19204.04
821.604	19123.59
821.932	19182.12
822.259	19203.37
822.587	19017.16
822.915	19168.34
823.243	19133.99
823.57	19134.21
823.898	19095.12
824.225	19046.76
824.553	18967.67
824.88	19050.83
825.207	19007.66
825.535	18971.28
825.862	19050.83
826.189	18948
826.516	19219.86
826.843	19133.99
827.17	19031.17
827.497	19022.8
827.824	19005.4
828.151	19088.57
828.478	19044.95
828.805	19059.64
829.131	18918.4
829.458	18902.58
829.785	18786.88
830.111	18925.18
830.438	18983.94
830.764	18940.32
831.09	18899.19
831.417	18827.33
831.743	18949.59
832.069	18804.28
832.395	18864.17
832.722	18822.81
833.048	18808.35
833.374	18733.77
833.7	18770.38
834.026	18675.47
834.351	18717.05
834.677	18716.6
835.003	18773.77
835.329	18731.97
835.654	18637.05
835.98	18545.76
836.306	18630.95
836.631	18684.06
836.956	18645.87
837.282	18504.63
837.607	18506.43
837.932	18413.1
838.258	18468.24
838.583	18371.97
838.908	18276.61
839.233	18274.12
839.558	18207.46
839.883	18183.96
840.208	18182.83
840.533	18044.3
840.858	18129.5
841.182	18017.41
841.507	17995.71
841.832	18011.53
842.156	17940.8
842.481	17819.45
842.805	17903.96
843.13	17918.65
843.454	17788.94
843.778	17719.56
844.103	17651.99
844.427	17651.99
844.751	17678.43
845.075	17526.57
845.399	17609.06
845.723	17356.86
846.047	17470.98
846.371	17323.41
846.695	17322.74
847.019	17169.52
847.343	17075.96
847.666	16936.31
847.99	16855.18
848.313	16899.24
848.637	16819.02
848.96	16866.25
849.284	16759.81
849.607	16530.89
849.931	16573.83
850.254	16373.61
850.577	16377
850.9	16262.43
851.223	16140.85
851.546	16136.78
851.869	15954.19
852.192	16012.26
852.515	15964.13
852.838	15930
853.161	15734.08
853.483	15829.89
853.806	15614.53
854.129	15692.05
854.451	15641.2
854.774	15589.45
855.096	15496.12
855.419	15459.73
855.741	15404.37
856.063	15340.19
856.385	15253.86
856.708	15200.08
857.03	15198.95
857.352	15264.71
857.674	15162.57
857.996	15132.51
858.318	14943.59
858.64	15037.37
858.961	14949.47
859.283	14938.84
859.605	14906.53
859.926	14912.63
860.248	14886.87
860.57	14781.79
860.891	14698.62
861.212	14643.94
861.534	14606.65
861.855	14559.19
862.176	14569.59
862.498	14599.42
862.819	14551.51
863.14	14483.04
863.461	14373.89
863.782	14344.74
864.103	14465.18
864.424	14387.22
864.745	14316.71
865.065	14329.37
865.386	14272.65
865.707	14223.61
866.027	14252.99
866.348	14136.15
866.668	14176.38
866.989	14117.62
867.309	13992.2
867.63	14035.59
867.95	13976.61
868.27	13885.76
868.59	13943.62
868.91	13994.24
869.23	13878.08
869.55	13826.78
869.87	13914.92
870.19	13860
870.51	13807.8
870.83	13737.07
871.15	13717.18
871.469	13657.52
871.789	13724.64
872.109	13686.45
872.428	13575.72
872.748	13613.91
873.067	13585.43
873.386	13558.77
873.706	13597.86
874.025	13472.67
874.344	13460.47
874.663	13520.12
874.982	13454.36
875.301	13441.03
875.62	13384.99
875.939	13249.62
876.258	13303.41
876.577	13294.14
876.896	13300.47
877.214	13302.5
877.533	13296.18
877.852	13200.13
878.17	13218.89
878.489	13273.35
878.807	13267.93
879.125	13159.23
879.444	13134.37
879.762	13096.86
880.08	13074.03
880.398	13021.61
880.716	13029.74
881.034	12954.26
881.352	12961.5
881.67	12970.31
881.988	12895.96
882.306	12897.09
882.624	12879.46
882.941	12779.58
883.259	12833.14
883.577	12805.79
883.894	12762.63
884.212	12700.94
884.529	12723.31
884.846	12587.95
885.164	12608.74
885.481	12553.37
885.798	12555.86
886.115	12520.6
886.432	12463.88
886.75	12472.02
887.067	12470.66
887.383	12344.11
887.7	12366.71
888.017	12307.73
888.334	12414.84
888.651	12276.32
888.967	12300.95
889.284	12217.56
889.6	12181.18
889.917	12044.01
890.233	12123.55
890.55	12057.79
890.866	12097.79
891.182	12049.43
891.498	11999.71
891.815	11917.91
892.131	11893.73
892.447	11788.42
892.763	11793.39
893.079	11762.2
893.395	11735.99
893.71	11756.56
894.026	11629.55
894.342	11610.8
894.657	11577.8
894.973	11621.87
895.289	11597.46
895.604	11498.71
895.92	11419.16
896.235	11363.8
896.55	11417.13
896.865	11309.11
897.181	11328.32
897.496	11371.25
897.811	11251.03
898.126	11218.49
898.441	11128.32
898.756	11084.26
899.071	11019.4
899.386	11049.68
899.7	10968.78
900.015	10846.97
900.33	10832.96
900.644	10817.82
900.959	10835
901.273	10757.94
901.588	10716.13
901.902	10643.59
902.216	10693.08
902.531	10635.91
902.845	10581.9
903.159	10521.56
903.473	10548
903.787	10437.72
904.101	10346.42
904.415	10381.68
904.729	10338.29
905.042	10338.51
905.356	10237.95
905.67	10246.76
905.984	10161.57
906.297	10111.17
906.611	10090.61
906.924	10087.9
907.237	10038.18
907.551	10015.81
907.864	9949.6
908.177	9912.31
908.491	9898.75
908.804	9873.67
909.117	9789.15
909.43	9711.41
909.743	9709.6
910.056	9690.17
910.368	9639.1
910.681	9581.92
910.994	9570.85
911.307	9505.09
911.619	9386.22
911.932	9384.64
912.244	9326.56
912.557	9335.83
912.869	9266.23
913.181	9267.13
913.494	9286.56
913.806	9167.02
914.118	9169.5
914.43	9081.82
914.742	9136.74
915.054	9044.76
915.366	8994.82
915.678	8960.92
915.99	8869.85
916.302	8840.47
916.613	8744.43
916.925	8811.32
917.236	8747.59
917.548	8670.99
917.859	8757.54
918.171	8670.08
918.482	8606.13
918.794	8511.22
919.105	8499.47
919.416	8484.78
919.727	8393.25
920.038	8392.58
920.349	8292.92
920.66	8304.89
920.971	8314.61
921.282	8255.4
921.593	8232.81
921.903	8158.68
922.214	8154.84
922.525	8058.8
922.835	8122.53
923.146	8116.43
923.456	7983.77
923.767	7969.99
924.077	7996.65
924.387	7900.39
924.697	7861.29
925.008	7846.15
925.318	7837.11
925.628	7778.13
925.938	7770.22
926.248	7699.71
926.558	7675.08
926.867	7621.97
927.177	7541.07
927.487	7661.3
927.796	7608.87
928.106	7447.29
928.416	7497.68
928.725	7428.76
929.034	7376.11
929.344	7384.01
929.653	7468.53
929.962	7337.46
930.271	7239.84
930.581	7216.11
930.89	7153.96
931.199	7121.2
931.508	7138.37
931.817	7145.83
932.125	7095.21
932.434	7086.62
932.743	7063.57
933.051	7007.08
933.36	6918.94
933.669	6972.27
933.977	6892.28
934.286	6865.84
934.594	6876.46
934.902	6815.67
935.21	6860.19
935.519	6737.93
935.827	6678.27
936.135	6709.46
936.443	6647.76
936.751	6578.39
937.059	6590.82
937.367	6598.72
937.674	6557.37
937.982	6523.25
938.29	6461.55
938.597	6500.87
938.905	6431.95
939.213	6404.83
939.52	6381.56
939.827	6403.25
940.135	6317.38
940.442	6303.82
940.749	6259.98
941.056	6255.23
941.363	6169.13
941.67	6185.18
941.977	6164.84
942.284	6149.47
942.591	6077.83
942.898	6071.73
943.205	6059.98
943.511	5977.5
943.818	6019.31
944.125	5979.98
944.431	5959.19
944.738	5946.09
945.044	5906.31
945.35	5873.55
945.657	5847.33
945.963	5772.98
946.269	5735.7
946.575	5782.02
946.881	5714.23
947.187	5719.43
947.493	5689.6
947.799	5666.32
948.105	5634
948.41	5572.31
948.716	5643.5
949.022	5550.62
949.327	5551.07
949.633	5490.28
949.938	5498.87
950.244	5493.9
950.549	5425.65
950.854	5463.61
951.16	5380.68
951.465	5332.09
951.77	5286.44
952.075	5318.76
952.38	5339.1
952.685	5240.34
952.99	5215.03
953.294	5234.24
953.599	5209.16
953.904	5161.7
954.209	5172.32
954.513	5154.47
954.818	5099.78
955.122	5079.22
955.426	5096.84
955.731	5046.22
956.035	5017.07
956.339	5001.25
956.643	4962.16
956.948	4899.33
957.252	4888.71
957.556	4900.92
957.86	4866.34
958.163	4844.87
958.467	4797.87
958.771	4780.69
959.075	4759.68
959.378	4779.79
959.682	4759.68
959.985	4744.99
960.289	4689.4
960.592	4672.67
960.896	4682.62
961.199	4668.15
961.502	4621.15
961.805	4616.63
962.108	4557.65
962.411	4562.62
962.714	4502.51
963.017	4547.71
963.32	4470.19
963.623	4489.4
963.926	4426.35
964.228	4441.95
964.531	4401.95
964.833	4421.38
965.136	4356.75
965.438	4391.78
965.741	4325.34
966.043	4299.35
966.345	4303.64
966.648	4231.33
966.95	4213.02
967.252	4187.94
967.554	4224.32
967.856	4195.4
968.158	4164.66
968.46	4158.34
968.761	4145.91
969.063	4129.64
969.365	4130.54
969.666	4069.75
969.968	4106.59
970.269	3989.3
970.571	4041.05
970.872	4036.98
971.174	4008.06
971.475	3966.7
971.776	3973.26
972.077	3967.83
972.378	3919.47
972.679	3927.38
972.98	3902.98
973.281	3855.07
973.582	3842.41
973.883	3808.06
974.183	3829.08
974.484	3785.01
974.785	3770.78
975.085	3781.4
975.386	3797.89
975.686	3750.44
975.986	3712.47
976.287	3695.75
976.587	3631.8
976.887	3644.23
977.187	3672.25
977.487	3627.28
977.787	3640.16
978.087	3594.51
978.387	3551.8
978.687	3560.84
978.987	3571.01
979.286	3556.09
979.586	3498.69
979.885	3517.22
980.185	3489.43
980.484	3496.21
980.784	3466.6
981.083	3446.49
981.382	3444.91
981.682	3450.78
981.981	3420.05
982.28	3403.1
982.579	3363.56
982.878	3342.54
983.177	3350
983.475	3311.35
983.774	3319.49
984.073	3267.96
984.372	3282.88
984.67	3286.5
984.969	3244.46
985.267	3270
985.566	3216.89
985.864	3183.22
986.162	3173.28
986.461	3189.32
986.759	3168.31
987.057	3175.99
987.355	3139.61
987.653	3107.97
987.951	3146.16
988.249	3081.76
988.547	3059.38
988.844	3050.34
989.142	3021.64
989.44	3025.49
989.737	2988.42
990.035	2989.78
990.332	2981.87
990.63	2926.5
990.927	2931.25
991.224	2937.13
991.521	2931.25
991.819	2909.78
992.116	2897.35
992.413	2861.87
992.71	2843.57
993.006	2877.92
993.303	2856.68
993.6	2859.39
993.897	2830.46
994.193	2827.07
994.49	2794.76
994.787	2776.68
995.083	2776.9
995.379	2761.31
995.676	2728.77
995.972	2733.74
996.268	2684.03
996.565	2651.26
996.861	2691.93
997.157	2639.73
997.453	2625.04
997.749	2640.18
998.044	2654.42
998.34	2605.16
998.636	2579.62
998.932	2561.77
999.227	2530.13
999.523	2547.98
999.818	2530.13
1000.114	2494.2
1000.409	2524.03
1000.704	2455.56
1001	2479.29
1001.295	2479.74
1001.59	2456.23
1001.885	2418.72
1002.18	2428.66
1002.475	2417.14
1002.77	2397.03
1003.065	2398.16
1003.359	2368.78
1003.654	2349.12
1003.949	2341.44
1004.243	2307.31
1004.538	2347.54
1004.832	2300.31
1005.127	2286.75
1005.421	2263.25
1005.715	2279.52
1006.009	2268.67
1006.304	2223.02
1006.598	2233.19
1006.892	2202.68
1007.186	2196.35
1007.48	2195
1007.773	2177.37
1008.067	2154.1
1008.361	2152.97
1008.655	2134.89
1008.948	2116.58
1009.242	2112.29
1009.535	2113.42
1009.829	2084.72
1010.122	2080.2
1010.415	2057.83
1010.708	2038.62
1011.001	2042.46
1011.295	2016.47
1011.588	2023.48
1011.881	2007.66
1012.173	1992.97
1012.466	1991.16
1012.759	1972.63
1013.052	1954.78
1013.344	1947.77
1013.637	1914.78
1013.93	1932.63
1014.222	1936.47
1014.514	1906.87
1014.807	1891.73
1015.099	1893.99
1015.391	1855.57
1015.683	1874.1
1015.976	1818.29
1016.268	1806.08
1016.56	1837.04
1016.851	1783.71
1017.143	1795.46
1017.435	1782.58
1017.727	1747.33
1018.018	1759.98
1018.31	1715.46
1018.602	1716.82
1018.893	1720.21
1019.185	1733.32
1019.476	1733.77
1019.767	1705.52
1020.058	1674.33
1020.35	1630.95
1020.641	1626.43
1020.932	1636.6
1021.223	1611.29
1021.514	1626.88
1021.804	1607.22
1022.095	1594.34
1022.386	1615.8
1022.677	1596.82
1022.967	1563.6
1023.258	1591.4
1023.548	1536.71
1023.839	1517.28
1024.129	1532.64
1024.419	1519.54
1024.709	1506.43
1025	1500.1
1025.29	1477.28
1025.58	1483.83
1025.87	1470.72
1026.16	1435.92
1026.449	1453.1
1026.739	1451.29
1027.029	1423.49
1027.319	1410.61
1027.608	1421.91
1027.898	1387.79
1028.187	1395.92
1028.477	1387.56
1028.766	1388.01
1029.055	1315.02
1029.344	1354.34
1029.634	1355.7
1029.923	1343.95
1030.212	1304.85
1030.501	1338.52
1030.79	1317.73
1031.078	1291.07
1031.367	1268.92
1031.656	1258.75
1031.945	1263.95
1032.233	1258.07
1032.522	1248.36
1032.81	1236.83
1033.099	1237.28
1033.387	1245.19
1033.675	1239.54
1033.963	1205.19
1034.251	1192.99
1034.54	1187.34
1034.828	1164.52
1035.116	1171.52
1035.403	1180.79
1035.691	1168.81
1035.979	1167
1036.267	1155.48
1036.554	1110.06
1036.842	1127.46
1037.129	1134.24
1037.417	1129.49
1037.704	1109.38
1037.992	1100.56
1038.279	1087.68
1038.566	1088.14
1038.853	1088.14
1039.14	1088.14
