Data from breadboard_black_back_FLMS001491_00037.txt Node
Date: Wed Feb 08 10:50:18 GMT 2017
User: dcchb
Spectrometer: FLMS00149
Trigger mode: 0
Integration Time (sec): 2.000000E-2
Scans to average: 10
Electric dark correction enabled: true
Nonlinearity correction enabled: false
Boxcar width: 0
XAxis mode: Wavelengths
Number of Pixels in Spectrum: 2048
>>>>>Begin Spectral Data<<<<<
341.393	-22.65
341.776	-22.65
342.16	-22.65
342.543	-57.46
342.927	-64.01
343.31	-54.29
343.693	-59.49
344.077	-56.33
344.46	-54.07
344.843	-45.48
345.226	-40.28
345.61	-58.36
345.993	-30.34
346.376	6.27
346.759	-8.19
347.142	17.8
347.525	42.88
347.908	38.59
348.291	88.08
348.674	98.47
349.057	114.74
349.44	135.53
349.823	154.29
350.206	163.78
350.588	196.55
350.971	211.24
351.354	229.09
351.737	232.93
352.119	243.55
352.502	248.75
352.884	275.19
353.267	294.85
353.65	300.95
354.032	302.31
354.414	317.22
354.797	303.44
355.179	317.45
355.562	319.03
355.944	325.13
356.326	331.69
356.709	336.21
357.091	317
357.473	344.79
357.855	371.69
358.238	331.69
358.62	363.78
359.002	341.4
359.384	348.63
359.766	341.63
360.148	354.74
360.53	353.83
360.912	338.47
361.294	334.4
361.676	344.34
362.057	342.53
362.439	358.13
362.821	346.15
363.203	345.7
363.584	355.64
363.966	342.31
364.348	335.08
364.729	336.21
365.111	328.75
365.493	333.72
365.874	347.73
366.256	335.75
366.637	326.26
367.019	323.32
367.4	340.5
367.781	346.6
368.163	344.57
368.544	338.47
368.925	342.99
369.306	347.28
369.688	336.88
370.069	340.95
370.45	337.34
370.831	348.86
371.212	343.66
371.593	332.82
371.974	334.85
372.355	333.95
372.736	349.76
373.117	348.18
373.498	343.21
373.879	345.02
374.26	350.67
374.641	335.75
375.021	357.9
375.402	353.15
375.783	350.67
376.163	366.71
376.544	383.89
376.925	359.26
377.305	362.65
377.686	372.14
378.066	375.07
378.447	368.3
378.827	375.75
379.208	378.24
379.588	383.44
379.968	379.37
380.349	392.02
380.729	398.13
381.109	419.37
381.489	390.44
381.87	398.13
382.25	384.57
382.63	384.11
383.01	412.59
383.39	418.92
383.77	401.74
384.15	411.01
384.53	419.82
384.91	417.79
385.29	416.43
385.67	414.17
386.049	426.37
386.429	436.32
386.809	407.62
387.189	423.66
387.568	439.48
387.948	456.43
388.328	442.64
388.707	450.55
389.087	451.01
389.466	443.32
389.846	473.15
390.225	459.37
390.605	461.63
390.984	464.34
391.363	493.72
391.743	482.42
392.122	499.59
392.501	480.38
392.881	495.52
393.26	513.38
393.639	516.31
394.018	521.51
394.397	530.78
394.776	524.9
395.155	516.99
395.534	528.07
395.913	517.22
396.292	524.45
396.671	528.07
397.05	541.85
397.429	542.98
397.808	558.12
398.186	552.47
398.565	546.82
398.944	559.48
399.323	578.46
399.701	551.12
400.08	568.29
400.458	571.45
400.837	568.52
401.215	557.89
401.594	580.27
401.972	571.23
402.351	592.47
402.729	616.88
403.107	617.1
403.486	608.06
403.864	626.14
404.242	608.97
404.62	617.33
404.999	616.65
405.377	625.46
405.755	661.4
406.133	642.19
406.511	657.1
406.889	676.99
407.267	671.34
407.645	679.25
408.023	692.81
408.401	686.48
408.779	713.6
409.156	705.46
409.534	719.7
409.912	726.25
410.29	740.04
410.667	747.95
411.045	745.91
411.422	747.95
411.8	743.88
412.178	771.45
412.555	778.91
412.933	793.14
413.31	789.75
413.687	797.66
414.065	833.37
414.442	826.14
414.819	819.13
415.197	822.97
415.574	850.99
415.951	834.95
416.328	864.78
416.705	869.98
417.082	871.11
417.46	890.09
417.837	886.25
418.214	884.21
418.591	907.04
418.967	917.43
419.344	921.05
419.721	954.95
420.098	915.85
420.475	933.7
420.852	977.54
421.228	1004.44
421.605	972.12
421.982	991.1
422.358	998.56
422.735	978
423.111	1005.11
423.488	1021.16
423.864	1024.78
424.241	1028.84
424.617	1055.28
424.994	1080.37
425.37	1057.32
425.746	1077.66
426.123	1093.47
426.499	1081.72
426.875	1139.35
427.251	1137.77
427.627	1149.74
428.003	1161.27
428.379	1152
428.756	1183.42
429.132	1184.77
429.507	1227.71
429.883	1221.83
430.259	1234.49
430.635	1217.31
431.011	1268.38
431.387	1284.66
431.763	1328.95
432.138	1324.65
432.514	1340.93
432.89	1346.35
433.265	1366.91
433.641	1388.61
434.016	1396.52
434.392	1412.11
434.767	1445.56
435.143	1415.05
435.518	1468.61
435.894	1482.39
436.269	1472.9
436.644	1519.45
437.02	1533.46
437.395	1549.06
437.77	1545.67
438.145	1597.42
438.52	1595.16
438.895	1625.89
439.271	1606.91
439.646	1639.45
440.021	1638.54
440.395	1673.57
440.77	1668.6
441.145	1695.27
441.52	1713.34
441.895	1730.07
442.27	1731.2
442.645	1734.36
443.019	1776.85
443.394	1761.03
443.769	1777.75
444.143	1745.43
444.518	1773.23
444.892	1797.86
445.267	1838.77
445.641	1831.76
446.016	1871.76
446.39	1872.89
446.764	1878.99
447.139	1858.88
447.513	1901.59
447.887	1883.06
448.262	1901.59
448.636	1933.9
449.01	1971.87
449.384	1954.24
449.758	1954.47
450.132	2019.1
450.506	1994.92
450.88	2054.58
451.254	2035.6
451.628	2065.65
452.002	2098.65
452.376	2129.15
452.75	2121.24
453.123	2149.04
453.497	2161.24
453.871	2194.69
454.244	2248.47
454.618	2288.24
454.992	2285.08
455.365	2278.75
455.739	2335.7
456.112	2368.92
456.486	2415.25
456.859	2423.38
457.232	2436.49
457.606	2418.41
457.979	2472.65
458.352	2531.4
458.725	2570.5
459.099	2596.94
459.472	2645.3
459.845	2684.17
460.218	2700.89
460.591	2749.48
460.964	2696.14
461.337	2761.45
461.71	2813.2
462.083	2867.66
462.456	2880.55
462.829	2870.15
463.201	2906.31
463.574	2976.81
463.947	2999.41
464.32	3034.44
464.692	3048.68
465.065	3086.64
465.438	3142.01
465.81	3188.79
466.183	3252.06
466.555	3303.13
466.928	3304.72
467.3	3327.54
467.672	3403.92
468.045	3433.53
468.417	3498.38
468.789	3533.86
469.161	3544.26
469.534	3624.48
469.906	3645.72
470.278	3692.95
470.65	3757.13
471.022	3813.85
471.394	3877.36
471.766	3897.47
472.138	3976.56
472.51	4058.14
472.882	4090.46
473.253	4183.56
473.625	4206.61
473.997	4336.78
474.369	4381.07
474.74	4355.54
475.112	4431.01
475.484	4535.64
475.855	4608.86
476.227	4663.55
476.598	4767.95
476.97	4816.09
477.341	4909.42
477.713	4998.91
478.084	5083.65
478.455	5148.06
478.827	5223.31
479.198	5391.21
479.569	5370.42
479.94	5517.99
480.311	5541.72
480.682	5680.92
481.053	5801.15
481.424	5906.91
481.795	5971.76
482.166	6086.79
482.537	6100.8
482.908	6236.16
483.279	6282.26
483.65	6434.8
484.021	6535.36
484.391	6591.86
484.762	6654.01
485.133	6748.69
485.503	6848.8
485.874	7033.66
486.244	7042.24
486.615	7193.2
486.985	7237.72
487.356	7422.57
487.726	7511.84
488.097	7623.92
488.467	7649.23
488.837	7863.92
489.207	7878.15
489.578	8023.91
489.948	8131.71
490.318	8193.4
490.688	8248.09
491.058	8403.11
491.428	8541.64
491.798	8597.46
492.168	8755.65
492.538	8820.73
492.908	8898.47
493.278	9023.66
493.648	9054.62
494.017	9230.21
494.387	9310.89
494.757	9275.41
495.126	9487.15
495.496	9473.14
495.866	9540.26
496.235	9660.25
496.605	9742.96
496.974	9837.2
497.344	9912.9
497.713	9990.42
498.082	10075.16
498.452	10151.09
498.821	10198.77
499.19	10244.19
499.559	10442.61
499.928	10399.9
500.298	10485.77
500.667	10658.65
501.036	10577.52
501.405	10705.88
501.774	10751.3
502.143	10891.18
502.512	10910.84
502.88	11019.77
503.249	10974.57
503.618	11100.44
503.987	11149.25
504.356	11266.31
504.724	11321
505.093	11344.05
505.462	11485.07
505.83	11577.94
506.199	11667.43
506.567	11749.92
506.936	11791.05
507.304	11915.34
507.672	12017.93
508.041	12063.13
508.409	12245.95
508.777	12295.44
509.145	12297.25
509.514	12323.01
509.882	12479.39
510.25	12508.77
510.618	12678.03
510.986	12726.61
511.354	12905.37
511.722	12979.94
512.09	13034.18
512.458	13120.05
512.826	13157.34
513.193	13205.7
513.561	13376.99
513.929	13417.44
514.297	13510.1
514.664	13629.64
515.032	13676.87
515.4	13841.39
515.767	13936.53
516.135	14014.72
516.502	14011.33
516.869	14271.88
517.237	14343.75
517.604	14295.16
517.972	14507.36
518.339	14525.89
518.706	14596.62
519.073	14728.37
519.44	14854.24
519.808	15006.33
520.175	15072.54
520.542	15253.1
520.909	15326.55
521.276	15348.69
521.643	15567.9
522.009	15679.98
522.376	15691.73
522.743	15879.98
523.11	15984.83
523.477	16242.45
523.843	16141.67
524.21	16428.89
524.577	16543.92
524.943	16660.07
525.31	16691.71
525.676	16895.54
526.043	16997.69
526.409	17132.83
526.776	17342.09
527.142	17318.13
527.508	17472.03
527.874	17611.23
528.241	17746.82
528.607	17810.55
528.973	17919.47
529.339	18046.25
529.705	18151.33
530.071	18399.23
530.437	18409.18
530.803	18475.84
531.169	18638.1
531.535	18728.04
531.901	18717.87
532.267	18822.95
532.632	19032.89
532.998	19055.04
533.364	19137.97
533.73	19149.95
534.095	19324.41
534.461	19412.09
534.826	19518.75
535.192	19626.32
535.557	19783.83
535.923	19749.93
536.288	19828.12
536.653	19986.99
537.019	20002.36
537.384	20045.52
537.749	20137.95
538.114	20332.52
538.479	20188.57
538.845	20414.1
539.21	20433.76
539.575	20495.68
539.94	20530.93
540.305	20687.99
540.67	20672.39
541.034	20796.46
541.399	20955.55
541.764	20950.13
542.129	20974.99
542.494	21042.55
542.858	21119.61
543.223	21174.75
543.587	21370.68
543.952	21321.42
544.316	21522.09
544.681	21556.44
545.045	21542.88
545.41	21748.3
545.774	21896.99
546.138	21833.49
546.503	21779.26
546.867	21987.39
547.231	22083.2
547.595	22125.92
547.959	22238.91
548.324	22172.47
548.688	22266.7
549.052	22471.22
549.416	22510.31
549.779	22596.86
550.143	22579.91
550.507	22836.86
550.871	22749.4
551.235	22870.53
551.599	23018.77
551.962	23108.94
552.326	23131.09
552.689	23372.66
553.053	23148.94
553.417	23317.3
553.78	23644.52
554.143	23426.9
554.507	23691.07
554.87	23760.45
555.234	24101.46
555.597	23840.45
555.96	23965.42
556.323	24206.76
556.686	24159.76
557.05	24279.31
557.413	24416.02
557.776	24349.13
558.139	24576.47
558.502	24671.84
558.865	24673.19
559.228	24967.65
559.59	25014.43
559.953	24985.95
560.316	25339.39
560.679	25334.64
561.041	25496.22
561.404	25633.85
561.767	25694.18
562.129	25605.37
562.492	25953.84
562.854	25986.15
563.217	26026.38
563.579	26127.62
563.941	26349.99
564.304	26422.07
564.666	26648.73
565.028	26683.08
565.39	26656.19
565.753	26841.5
566.115	27021.61
566.477	27116.74
566.839	27165.1
567.201	27347.47
567.563	27331.88
567.925	27553.8
568.287	27722.6
568.648	27730.29
569.01	27858.87
569.372	28048.47
569.734	28015.48
570.095	28184.51
570.457	28149.49
570.819	28370.05
571.18	28228.35
571.542	28413.66
571.903	28618.17
572.265	28657.72
572.626	28742.01
572.987	28703.6
573.349	28878.05
573.71	29007.09
574.071	29012.29
574.432	29067.88
574.794	29270.36
575.155	29328.21
575.516	29314.2
575.877	29394.2
576.238	29420.86
576.599	29640.29
576.96	29706.51
577.32	29547.87
577.681	29731.37
578.042	29705.83
578.403	29746.96
578.763	29775.88
579.124	29925.26
579.485	30033.5
579.845	30001.64
580.206	29981.3
580.566	30043.9
580.927	30185.59
581.287	30168.64
581.648	30124.35
582.008	30210
582.368	30257
582.728	30212.03
583.089	30199.6
583.449	30141.75
583.809	30221.3
584.169	30408.86
584.529	30243.67
584.889	30550.33
585.249	30354.63
585.609	30319.15
585.969	30429.88
586.329	30268.53
586.688	30309.2
587.048	30363.44
587.408	30378.13
587.768	30278.02
588.127	30332.48
588.487	30263.78
588.846	30492.48
589.206	30395.53
589.565	30436.43
589.925	30538.58
590.284	30364.79
590.643	30502.87
591.003	30446.37
591.362	30755.07
591.721	30582.19
592.08	30516.43
592.44	30694.73
592.799	30617.67
593.158	30699.48
593.517	30579.25
593.876	30676.65
594.235	30508.52
594.593	30777.67
594.952	30737.89
595.311	30636.88
595.67	30793.03
596.029	30853.37
596.387	30848.17
596.746	30916.64
597.104	30757.55
597.463	30826.03
597.822	30868.51
598.18	30755.52
598.538	30768.17
598.897	30950.77
599.255	30737.21
599.613	31237.54
599.972	30931.33
600.33	31027.83
600.688	30938.79
601.046	31119.8
601.404	31173.81
601.762	31112.8
602.12	31273.25
602.478	31272.57
602.836	31103.76
603.194	31051.56
603.552	31241.38
603.91	31085.68
604.268	31142.18
604.625	31218.56
604.983	31366.12
605.341	31254.49
605.698	31345.56
606.056	31664.2
606.413	31384.66
606.771	31532
607.128	31556.63
607.485	31389.85
607.843	31455.16
608.2	31734.93
608.557	31662.16
608.914	31654.03
609.272	31786.9
609.629	31829.84
609.986	31970.63
610.343	31774.93
610.7	32056.73
611.057	31905.09
611.414	31914.36
611.771	31848.37
612.127	32052.89
612.484	32115.26
612.841	32105.31
613.198	31991.87
613.554	32140.79
613.911	32178.53
614.267	32221.24
614.624	32170.85
614.98	32322.94
615.337	32459.65
615.693	32318.42
616.05	32320.45
616.406	32540.1
616.762	32389.83
617.118	32454.01
617.475	32444.97
617.831	32400
618.187	32469.15
618.543	32626.2
618.899	32761.34
619.255	32700.55
619.611	32530.84
619.967	32750.95
620.323	32834.33
620.678	32670.72
621.034	32617.62
621.39	32673.43
621.746	32590.95
622.101	32892.64
622.457	32616.94
622.812	32715.47
623.168	32865.52
623.523	32820.32
623.879	32862.81
624.234	32578.75
624.589	32802.02
624.945	32800.89
625.3	32832.98
625.655	32869.59
626.01	32708.69
626.365	32808.8
626.72	32677.95
627.075	32793.88
627.43	32730.16
627.785	32729.7
628.14	32775.35
628.495	32761.57
628.85	32741
629.205	32584.62
629.559	32853.77
629.914	32674.34
630.269	32755.92
630.623	32626.43
630.978	32545.75
631.332	32708.91
631.687	32820.55
632.041	32537.85
632.396	32437.06
632.75	32500.11
633.104	32505.3
633.459	32361.13
633.813	32436.38
634.167	32313.67
634.521	32295.37
634.875	32332.65
635.229	32338.75
635.583	32114.35
635.937	32186.44
636.291	32113.45
636.645	32025.54
636.999	32067.12
637.352	32052.21
637.706	31897.86
638.06	32141.7
638.413	31971.76
638.767	31850.41
639.121	31961.36
639.474	31820.58
639.828	31706.23
640.181	31782.16
640.534	31837.52
640.888	31677.53
641.241	31586.68
641.594	31643.18
641.947	31636.4
642.301	31557.98
642.654	31611.32
643.007	31531.32
643.36	31418.78
643.713	31317.09
644.066	31474.37
644.419	31345.56
644.771	31287.03
645.124	31039.58
645.477	30812.69
645.83	30689.53
646.182	30477.56
646.535	30266.49
646.888	30359.15
647.24	30104.01
647.593	30363.66
647.945	30209.77
648.298	30138.36
648.65	30017.69
649.002	29864.02
649.355	30159.38
649.707	29998.02
650.059	30279.83
650.411	30620.16
650.763	30538.35
651.115	30925.01
651.467	30788.51
651.819	30671.45
652.171	30626.71
652.523	30589.42
652.875	30550.78
653.227	30322.08
653.578	30653.83
653.93	30550.1
654.282	30389.65
654.633	30307.17
654.985	30491.8
655.337	30418.8
655.688	30481.4
656.039	30491.12
656.391	30102.2
656.742	30213.61
657.094	30353.95
657.445	30317.34
657.796	30304.46
658.147	30130.68
658.498	30210.67
658.849	30126.16
659.2	30222.88
659.551	30077.34
659.902	30346.04
660.253	30158.7
660.604	30326.15
660.955	30007.06
661.306	30137
661.656	30146.5
662.007	30150.56
662.358	29979.04
662.708	30027.85
663.059	29964.35
663.409	29831.02
663.76	30091.36
664.11	29948.53
664.461	29976.56
664.811	29923.22
665.161	30004.35
665.511	29805.94
665.862	29959.16
666.212	29901.3
666.562	29996.44
666.912	29848.88
667.262	29717.35
667.612	29850.46
667.962	29805.04
668.312	29829.67
668.662	29967.29
669.011	29937.01
669.361	29756.45
669.711	29807.52
670.06	29752.83
670.41	29584.7
670.76	29657.69
671.109	29610.92
671.459	29571.14
671.808	29681.65
672.157	29547.87
672.507	29491.82
672.856	29434.2
673.205	29493.86
673.554	29520.07
673.904	29323.69
674.253	29655.66
674.602	29496.34
674.951	29088.67
675.3	28986.07
675.649	29336.8
675.998	29253.86
676.346	29367.31
676.695	29339.51
677.044	29152.85
677.393	29257.03
677.741	29256.58
678.09	29180.87
678.438	29144.49
678.787	29234.66
679.135	29043.93
679.484	29104.94
679.832	29158.95
680.181	28856.13
680.529	28998.05
680.877	28927.54
681.225	28886.87
681.573	29015.68
681.922	28859.07
682.27	28669.92
682.618	28789.92
682.966	28749.92
683.314	28682.81
683.661	28579.53
684.009	28418.63
684.357	28489.36
684.705	28445.3
685.053	28427.44
685.4	28444.85
685.748	28118.75
686.095	28279.65
686.443	28035.36
686.79	28074.91
687.138	28077.4
687.485	28149.71
687.832	27912.88
688.18	27980.68
688.527	27919.89
688.874	27853.45
689.221	27725.99
689.568	27763.28
689.915	27574.59
690.262	27635.38
690.609	27523.29
690.956	27443.74
691.303	27540.01
691.65	27367.59
691.997	27248.72
692.344	27128.95
692.69	27149.06
693.037	27205.56
693.383	26855.28
693.73	26970.76
694.077	26761.05
694.423	26816.19
694.769	26759.92
695.116	26597.44
695.462	26674.95
695.808	26453.71
696.155	26650.99
696.501	26377.56
696.847	26295.75
697.193	26182.31
697.539	26393.15
697.885	26091.46
698.231	25949.32
698.577	25977.57
698.923	25965.14
699.269	25907.06
699.614	25793.62
699.96	25663
700.306	25647.63
700.651	25557.24
700.997	25506.62
701.342	25523.79
701.688	25329.45
702.033	25420.74
702.379	25404.02
702.724	25271.82
703.069	25180.3
703.415	24964.26
703.76	25013.07
704.105	24936.46
704.45	24887.42
704.795	24773.3
705.14	24739.63
705.485	24865.96
705.83	24516.36
706.175	24653.76
706.52	24452.18
706.865	24448.11
707.209	24462.8
707.554	24440.43
707.899	24393.2
708.243	24234.11
708.588	24189.36
708.932	24112.98
709.277	24032.08
709.621	24059.2
709.966	23847.68
710.31	23902.59
710.654	23706.21
710.998	23787.11
711.342	23805.42
711.687	23709.15
712.031	23577.85
712.375	23539.66
712.719	23584.86
713.063	23567.23
713.407	23668.93
713.75	23470.29
714.094	23464.64
714.438	23315.26
714.782	23311.42
715.125	23183.74
715.469	23202.95
715.812	23057.64
716.156	23017.19
716.499	23016.97
716.843	23058.55
717.186	22788.27
717.53	22986.68
717.873	22912.79
718.216	22796.41
718.559	22668.05
718.902	22580.82
719.246	22663.75
719.589	22586.69
719.932	22521.16
720.275	22474.61
720.617	22552.12
720.96	22423.99
721.303	22436.87
721.646	22445.68
721.989	22197.33
722.331	22431.44
722.674	22167.5
723.016	22258.34
723.359	22208.63
723.701	22190.09
724.044	22162.98
724.386	21991.46
724.729	22036.88
725.071	21925.47
725.413	21962.3
725.755	21974.73
726.097	21869.88
726.439	21780.16
726.782	21751.69
727.124	21882.98
727.465	21696.32
727.807	21708.75
728.149	21707.4
728.491	21499.27
728.833	21615.19
729.175	21590.79
729.516	21523.9
729.858	21481.64
730.199	21558.7
730.541	21457.68
730.882	21331.59
731.224	21404.8
731.565	21209.56
731.906	21320.06
732.248	21326.16
732.589	21173.62
732.93	21161.87
733.271	21104.02
733.612	21156.68
733.953	21170.23
734.294	21024.93
734.635	20989.45
734.976	20999.62
735.317	20958.71
735.658	20887.53
735.999	20885.95
736.339	20835.33
736.68	20836.23
737.021	20826.97
737.361	20702.68
737.702	20792.39
738.042	20718.49
738.383	20571.83
738.723	20680.98
739.063	20596.69
739.404	20521.44
739.744	20606.63
740.084	20544.49
740.424	20458.39
740.764	20413.87
741.104	20463.59
741.444	20253.87
741.784	20317.83
742.124	20324.61
742.464	20318.05
742.804	20337.49
743.143	20239.86
743.483	20304.95
743.823	20138.85
744.162	20114.22
744.502	20213.2
744.841	20085.29
745.181	20163.26
745.52	19985.18
745.86	20061.34
746.199	20021.11
746.538	19827.22
746.877	20036.93
747.216	19990.83
747.556	19890.04
747.895	19900.44
748.234	19664.06
748.573	19691.4
748.911	19653.66
749.25	19727.79
749.589	19517.62
749.928	19601.46
750.267	19598.98
750.605	19488.24
750.944	19402.15
751.283	19423.16
751.621	19427.46
751.96	19276.05
752.298	19197.18
752.636	19347.68
752.975	19210.74
753.313	19134.58
753.651	19224.75
753.989	19040.35
754.327	19098.42
754.666	19019.33
755.004	18993.57
755.342	18975.94
755.679	18951.08
756.017	18777.3
756.355	18878.32
756.693	18711.54
757.031	18785.44
757.368	18693.69
757.706	18676.74
758.044	18589.06
758.381	18503.64
758.719	18478.78
759.056	18500.7
759.394	18391.1
759.731	18371.21
760.068	18295.06
760.405	18328.05
760.743	18297.77
761.08	18208.05
761.417	18088.73
761.754	18139.35
762.091	18027.49
762.428	17985.91
762.765	17871.79
763.102	17922.86
763.438	17782.07
763.775	17677.9
764.112	17726.26
764.449	17700.95
764.785	17579.59
765.122	17429.32
765.458	17435.42
765.795	17288.53
766.131	17385.02
766.467	17217.12
766.804	17342.99
767.14	17165.82
767.476	17098.48
767.812	17026.84
768.148	17091.47
768.485	16936.45
768.821	16864.58
769.157	16785.94
769.492	16850.12
769.828	16726.28
770.164	16506.4
770.5	16599.28
770.836	16580.52
771.171	16489.68
771.507	16440.87
771.842	16293.75
772.178	16327.65
772.513	16227.99
772.849	16254.43
773.184	16146.64
773.519	16123.14
773.855	16055.34
774.19	15968.79
774.525	16041.33
774.86	15961.11
775.195	15854.44
775.53	15763.14
775.865	15675.92
776.2	15631.4
776.535	15531.96
776.87	15492.19
777.205	15475.92
777.539	15413.78
777.874	15422.59
778.209	15262.82
778.543	15274.34
778.878	15206.32
779.212	15225.76
779.547	14978.98
779.881	15065.54
780.215	15010.4
780.55	14942.83
780.884	14883.39
781.218	14907.57
781.552	14857.41
781.886	14720.69
782.22	14677.07
782.554	14621.25
782.888	14469.62
783.222	14446.34
783.556	14479.56
783.889	14339
784.223	14221.94
784.557	14341.94
784.89	14326.35
785.224	14244.77
785.557	14087.71
785.891	14096.75
786.224	14080.93
786.558	14037.31
786.891	13856.75
787.224	13867.15
787.557	13808.85
787.891	13725.91
788.224	13736.76
788.557	13810.2
788.89	13684.78
789.223	13659.02
789.556	13588.96
789.888	13504.67
790.221	13540.83
790.554	13395.3
790.887	13434.62
791.219	13385.13
791.552	13310.33
791.884	13252.48
792.217	13268.52
792.549	13175.19
792.882	13090.22
793.214	13041.18
793.546	13032.37
793.879	12960.96
794.211	12875.76
794.543	12919.6
794.875	12792.83
795.207	12914.41
795.539	12788.31
795.871	12820.17
796.203	12684.58
796.535	12638.03
796.867	12593.96
797.198	12622.44
797.53	12539.27
797.862	12471.93
798.193	12540.4
798.525	12429
798.856	12427.41
799.188	12328.43
799.519	12220.41
799.85	12233.97
800.182	12312.61
800.513	12173.41
800.844	12076.24
801.175	12135.44
801.506	12135.44
801.837	12075.56
802.168	12063.58
802.499	11924.6
802.83	11981.55
803.161	11859.97
803.491	11822.01
803.822	11813.87
804.153	11816.58
804.483	11670.15
804.814	11666.53
805.145	11656.36
805.475	11613.65
805.805	11636.47
806.136	11629.47
806.466	11671.73
806.796	11575.23
807.126	11530.26
807.457	11449.81
807.787	11410.49
808.117	11457.5
808.447	11278.52
808.777	11321
809.107	11338.4
809.436	11245.98
809.766	11215.92
810.096	11198.97
810.426	11147.22
810.755	11191.29
811.085	11067.9
811.414	11128.92
811.744	10967.56
812.073	11020.9
812.403	11021.57
812.732	10979.32
813.061	11012.99
813.39	10896.83
813.719	10903.16
814.049	10902.26
814.378	10789.26
814.707	10752.43
815.036	10834.01
815.365	10720.34
815.693	10619.1
816.022	10662.49
816.351	10608.03
816.68	10585.65
817.008	10586.78
817.337	10463.85
817.665	10478.31
817.994	10518.09
818.322	10520.57
818.651	10458.88
818.979	10435.15
819.307	10493.45
819.636	10451.19
819.964	10341.59
820.292	10296.62
820.62	10406.68
820.948	10301.59
821.276	10413.91
821.604	10332.55
821.932	10349.95
822.259	10433.34
822.587	10374.36
822.915	10357.86
823.243	10301.14
823.57	10314.7
823.898	10234.93
824.225	10342.27
824.553	10299.11
824.88	10274.48
825.207	10271.54
825.535	10274.93
825.862	10331.65
826.189	10293.46
826.516	10287.81
826.843	10372.33
827.17	10311.76
827.497	10357.64
827.824	10296.62
828.151	10290.29
828.478	10347.69
828.805	10420.23
829.131	10253.01
829.458	10284.64
829.785	10198.55
830.111	10211.65
830.438	10314.7
830.764	10211.43
831.09	10243.52
831.417	10230.41
831.743	10283.06
832.069	10245.1
832.395	10160.58
832.722	10228.38
833.048	10206.23
833.374	10272.22
833.7	10178.66
834.026	10163.07
834.351	10190.41
834.677	10201.71
835.003	10104.99
835.329	10170.07
835.654	10210.52
835.98	10059.79
836.306	10178.66
836.631	10085.1
836.956	10103.18
837.282	10080.58
837.607	10001.04
837.932	10041.71
838.258	9937.76
838.583	10006.01
838.908	9953.58
839.233	10012.79
839.558	9965.78
839.883	9939.34
840.208	9893.69
840.533	9835.39
840.858	9897.31
841.182	9844.2
841.507	9820.93
841.832	9750.87
842.156	9767.82
842.481	9846.69
842.805	9746.13
843.13	9731.89
843.454	9690.76
843.778	9638.11
844.103	9633.36
844.427	9658.67
844.751	9656.41
845.075	9613.93
845.399	9608.5
845.723	9523.99
846.047	9549.75
846.371	9389.3
846.695	9470.65
847.019	9422.07
847.343	9381.39
847.666	9293.71
847.99	9239.7
848.313	9214.62
848.637	9216.2
848.96	9208.51
849.284	9118.57
849.607	9066.6
849.931	9087.61
850.254	9039.71
850.577	8991.57
850.9	8881.74
851.223	8898.47
851.546	8868.18
851.869	8864.34
852.192	8852.82
852.515	8764.68
852.838	8766.04
853.161	8798.58
853.483	8695.99
853.806	8663.44
854.129	8622.09
854.451	8587.74
854.774	8551.58
855.096	8561.98
855.419	8525.6
855.741	8551.13
856.063	8467.74
856.385	8429.55
856.708	8408.08
857.03	8408.76
857.352	8425.94
857.674	8355.2
857.996	8251.03
858.318	8253.74
858.64	8267.97
858.961	8264.13
859.283	8313.62
859.605	8175.77
859.926	8284.47
860.248	8239.5
860.57	8144.14
860.891	8153.63
861.212	8085.61
861.534	8057.13
861.855	8043.57
862.176	8110.69
862.498	8093.74
862.819	8069.11
863.14	8026.85
863.461	8082.89
863.782	8002.9
864.103	7988.89
864.424	7956.12
864.745	8004.03
865.065	7949.79
865.386	7868.44
865.707	7894.65
866.027	7910.92
866.348	7905.27
866.668	7914.54
866.989	7822.34
867.309	7819.17
867.63	7824.6
867.95	7775.11
868.27	7755.67
868.59	7776.46
868.91	7739.4
869.23	7736.69
869.55	7750.47
869.87	7811.26
870.19	7704.6
870.51	7687.2
870.83	7660.31
871.15	7712.51
871.469	7768.33
871.789	7673.87
872.109	7686.52
872.428	7608.11
872.748	7649.23
873.067	7623.47
873.386	7561.78
873.706	7580.99
874.025	7543.47
874.344	7551.84
874.663	7582.79
874.982	7486.3
875.301	7573.53
875.62	7482.23
875.939	7465.74
876.258	7497.83
876.577	7446.08
876.896	7514.55
877.214	7453.98
877.533	7471.61
877.852	7450.37
878.17	7399.97
878.489	7437.04
878.807	7388.9
879.125	7371.95
879.444	7353.87
879.762	7392.74
880.08	7342.58
880.398	7399.07
880.716	7306.64
881.034	7300.77
881.352	7302.12
881.67	7226.19
881.988	7282.46
882.306	7259.19
882.624	7187.55
882.941	7188.46
883.259	7185.29
883.577	7152.52
883.894	7164.27
884.212	7079.31
884.529	7149.59
884.846	7111.85
885.164	7099.87
885.481	7054.67
885.798	7082.92
886.115	7081.11
886.432	7021.91
886.75	7009.48
887.067	7070.27
887.383	6992.98
887.7	7034.33
888.017	6954.79
888.334	6949.37
888.651	6948.24
888.967	6951.63
889.284	6913.43
889.6	6820.56
889.917	6785.53
890.233	6827.79
890.55	6800.67
890.866	6778.07
891.182	6822.81
891.498	6748.24
891.815	6754.34
892.131	6663.27
892.447	6701.46
892.763	6637.28
893.079	6642.03
893.395	6614.01
893.71	6644.74
894.026	6583.95
894.342	6591.18
894.657	6576.27
894.973	6596.83
895.289	6518.19
895.604	6540.34
895.92	6475.48
896.235	6461.69
896.55	6481.58
896.865	6448.59
897.181	6431.86
897.496	6396.84
897.811	6352.32
898.126	6363.84
898.441	6349.83
898.756	6317.97
899.071	6278.87
899.386	6258.76
899.7	6220.12
900.015	6197.07
900.33	6219.89
900.644	6154.36
900.959	6146.22
901.273	6148.03
901.588	6113.68
901.902	6124.53
902.216	6055.38
902.531	6061.25
902.845	6049.05
903.159	5986.9
903.473	5953.91
903.787	5947.36
904.101	5943.52
904.415	5878.66
904.729	5884.31
905.042	5897.64
905.356	5875.72
905.67	5830.52
905.984	5844.54
906.297	5861.94
906.611	5748.49
906.924	5742.84
907.237	5715.73
907.551	5678.89
907.864	5707.82
908.177	5675.05
908.491	5688.61
908.804	5649.74
909.117	5586.01
909.43	5565.22
909.743	5560.25
910.056	5514.37
910.368	5518.44
910.681	5485.67
910.994	5423.3
911.307	5445.22
911.619	5445.22
911.932	5441.16
912.244	5390.54
912.557	5374.49
912.869	5336.75
913.181	5346.24
913.494	5334.94
913.806	5343.76
914.118	5251.78
914.43	5240.26
914.742	5203.87
915.054	5183.76
915.366	5220.15
915.678	5194.38
915.99	5121.84
916.302	5118.68
916.613	5101.5
916.925	5042.07
917.236	5072.8
917.548	5016.99
917.859	5044.33
918.171	5012.47
918.482	4950.77
918.794	4943.99
919.105	4954.62
919.416	4956.65
919.727	4906.71
920.038	4897.67
920.349	4836.43
920.66	4851.34
920.971	4839.36
921.282	4856.76
921.593	4797.56
921.903	4732.02
922.214	4750.1
922.525	4758.91
922.835	4708.75
923.146	4693.61
923.456	4671.91
923.767	4634.4
924.077	4635.3
924.387	4598.01
924.697	4631.91
925.008	4591.91
925.318	4564.34
925.628	4548.75
925.938	4532.93
926.248	4510.33
926.558	4492.48
926.867	4466.49
927.177	4443.89
927.487	4350.11
927.796	4348.08
928.106	4430.79
928.416	4393.73
928.725	4383.11
929.034	4320.96
929.344	4263.33
929.653	4293.62
929.962	4264.01
930.271	4240.74
930.581	4248.87
930.89	4222.88
931.199	4193.73
931.508	4210.45
931.817	4159.16
932.125	4168.42
932.434	4172.26
932.743	4151.25
933.051	4095.66
933.36	4051.36
933.669	4097.69
933.977	4044.81
934.286	4060.63
934.594	4052.49
934.902	4043
935.21	3966.39
935.519	3999.39
935.827	4000.52
936.135	3945.15
936.443	3931.37
936.751	3916.45
937.059	3945.38
937.367	3856.79
937.674	3897.47
937.982	3893.85
938.29	3851.82
938.597	3858.15
938.905	3808.88
939.213	3761.65
939.52	3749
939.827	3772.27
940.135	3749.45
940.442	3725.5
940.749	3729.56
941.056	3702.45
941.363	3649.34
941.67	3650.69
941.977	3652.73
942.284	3661.32
942.591	3652.05
942.898	3609.11
943.205	3573.63
943.511	3596.01
943.818	3577.7
944.125	3549.91
944.431	3554.43
944.738	3489.8
945.044	3551.26
945.35	3455.9
945.657	3439.18
945.963	3438.95
946.269	3431.27
946.575	3437.37
946.881	3446.41
947.187	3406.63
947.493	3418.16
947.799	3374.09
948.105	3363.02
948.41	3387.88
948.716	3367.31
949.022	3270.37
949.327	3327.54
949.633	3259.52
949.938	3289.57
950.244	3273.3
950.549	3246.86
950.854	3159.63
951.16	3256.13
951.465	3226.53
951.77	3178.84
952.075	3200.99
952.38	3199.63
952.685	3150.14
952.99	3145.17
953.294	3126.41
953.599	3115.79
953.904	3121.22
954.209	3078.28
954.513	3055.46
954.818	3057.04
955.122	3047.32
955.426	3026.08
955.731	3045.51
956.035	3054.78
956.339	2980.2
956.643	2970.71
956.948	2987.66
957.252	2962.8
957.556	2951.28
957.86	2946.08
958.163	2928.45
958.467	2884.84
958.771	2908.12
959.075	2932.3
959.378	2911.05
959.682	2849.13
959.985	2856.14
960.289	2860.66
960.592	2857.5
960.896	2803.49
961.199	2791.28
961.502	2814.56
961.805	2802.58
962.108	2782.47
962.411	2769.14
962.714	2729.82
963.017	2783.15
963.32	2707.22
963.623	2733.88
963.926	2736.14
964.228	2701.12
964.531	2662.25
964.833	2680.33
965.136	2658.63
965.438	2644.62
965.741	2639.87
966.043	2635.13
966.345	2617.73
966.648	2619.08
966.95	2585.64
967.252	2585.64
967.554	2597.39
967.856	2582.02
968.158	2530.27
968.46	2531.63
968.761	2553.1
969.063	2540.44
969.365	2514
969.666	2510.16
969.968	2493.21
970.269	2494.57
970.571	2464.74
970.872	2474.45
971.174	2445.08
971.475	2447.34
971.776	2448.47
972.077	2419.54
972.378	2408.47
972.679	2419.99
972.98	2418.41
973.281	2386.1
973.582	2388.13
973.883	2353.55
974.183	2349.94
974.484	2368.92
974.785	2346.1
975.085	2326.66
975.386	2321.01
975.686	2328.92
975.986	2292.09
976.287	2309.26
976.587	2309.94
976.887	2318.75
977.187	2283.27
977.487	2258.87
977.787	2254.8
978.087	2262.93
978.387	2267.45
978.687	2245.31
978.987	2210.73
979.286	2181.36
979.586	2201.92
979.885	2180.23
980.185	2167.12
980.484	2166.21
980.784	2146.1
981.083	2152.66
981.382	2153.11
981.682	2124.63
981.981	2112.2
982.28	2131.64
982.579	2084.86
982.878	2107.68
983.177	2099.1
983.475	2046.67
983.774	2064.07
984.073	2046.22
984.372	2053.67
984.67	2022.72
984.969	2048.03
985.267	2044.86
985.566	2031.98
985.864	2016.16
986.162	1985.2
986.461	1962.38
986.759	1957.86
987.057	1966.67
987.355	1944.75
987.653	1967.58
987.951	1958.08
988.249	1923.06
988.547	1937.52
988.844	1928.03
989.142	1904.75
989.44	1883.96
989.737	1926.9
990.035	1857.97
990.332	1890.06
990.63	1878.09
990.927	1871.98
991.224	1853.45
991.521	1872.66
991.819	1831.76
992.116	1821.36
992.413	1845.77
992.71	1830.63
993.006	1798.54
993.303	1822.49
993.6	1786.79
993.897	1794.47
994.193	1771.65
994.49	1770.07
994.787	1739.33
995.083	1776.62
995.379	1750.41
995.676	1731.88
995.972	1725.1
996.268	1722.38
996.565	1703.4
996.861	1695.72
997.157	1702.27
997.453	1697.75
997.749	1704.08
998.044	1656.17
998.34	1661.59
998.636	1669.73
998.932	1673.57
999.227	1639.67
999.523	1645.55
999.818	1630.18
1000.114	1640.35
1000.409	1610.52
1000.704	1622.95
1001	1595.61
1001.295	1570.75
1001.59	1584.76
1001.885	1587.7
1002.18	1552.9
1002.475	1556.74
1002.77	1560.81
1003.065	1539.11
1003.359	1542.28
1003.654	1504.99
1003.949	1536.17
1004.243	1496.4
1004.538	1521.49
1004.832	1514.25
1005.127	1507.02
1005.421	1467.02
1005.715	1494.14
1006.009	1485.55
1006.304	1460.47
1006.598	1453.01
1006.892	1442.17
1007.186	1439.23
1007.48	1440.13
1007.773	1423.41
1008.067	1388.38
1008.361	1376.18
1008.655	1392.45
1008.948	1403.07
1009.242	1390.64
1009.535	1366.69
1009.829	1352.45
1010.122	1373.92
1010.415	1339.12
1010.708	1335.5
1011.001	1356.74
1011.295	1313.81
1011.588	1328.27
1011.881	1328.27
1012.173	1297.54
1012.466	1319.23
1012.759	1291.66
1013.052	1315.39
1013.344	1280.14
1013.637	1286.46
1013.93	1282.17
1014.222	1273.13
1014.514	1258.22
1014.807	1250.53
1015.099	1251.44
1015.391	1227.03
1015.683	1256.18
1015.976	1217.76
1016.268	1189.74
1016.56	1221.38
1016.851	1215.96
1017.143	1221.61
1017.435	1199.69
1017.727	1187.03
1018.018	1190.65
1018.31	1179.8
1018.602	1160.36
1018.893	1159.46
1019.185	1155.85
1019.476	1141.16
1019.767	1152.91
1020.058	1140.25
1020.35	1118.56
1020.641	1087.82
1020.932	1084.66
1021.223	1116.07
1021.514	1089.41
1021.804	1104.32
1022.095	1070.65
1022.386	1069.75
1022.677	1088.73
1022.967	1092.12
1023.258	1070.42
1023.548	1055.28
1023.839	1056.41
1024.129	1053.25
1024.419	1020.93
1024.709	1046.92
1025	1023.42
1025.29	987.26
1025.58	1027.94
1025.87	1013.25
1026.16	976.19
1026.449	978.45
1026.739	967.83
1027.029	1001.27
1027.319	991.78
1027.608	956.3
1027.898	959.47
1028.187	940.03
1028.477	960.82
1028.766	938.68
1029.055	933.7
1029.344	929.64
1029.634	938.68
1029.923	928.05
1030.212	923.99
1030.501	923.08
1030.79	923.99
1031.078	919.02
1031.367	882.86
1031.656	876.3
1031.945	864.33
1032.233	878.11
1032.522	886.7
1032.81	874.95
1033.099	864.1
1033.387	866.36
1033.675	835.18
1033.963	858.23
1034.251	848.73
1034.54	852.8
1034.828	846.25
1035.116	841.28
1035.403	829.07
1035.691	816.42
1035.979	833.59
1036.267	818.91
1036.554	809.41
1036.842	797.21
1037.129	815.06
1037.417	802.41
1037.704	799.7
1037.992	784.1
1038.279	805.12
1038.566	766.48
1038.853	766.48
1039.14	766.48
