Data from breadboard_white_FLMS001491_00079.txt Node
Date: Wed Feb 08 10:48:15 GMT 2017
User: dcchb
Spectrometer: FLMS00149
Trigger mode: 0
Integration Time (sec): 2.000000E-2
Scans to average: 10
Electric dark correction enabled: true
Nonlinearity correction enabled: false
Boxcar width: 0
XAxis mode: Wavelengths
Number of Pixels in Spectrum: 2048
>>>>>Begin Spectral Data<<<<<
341.393	-7.29
341.776	-7.29
342.16	-7.29
342.543	-70.34
342.927	-68.53
343.31	-68.98
343.693	-66.72
344.077	-61.3
344.46	-55.42
344.843	-46.16
345.226	-59.94
345.61	-39.15
345.993	-1.64
346.376	-10.68
346.759	16.67
347.142	19.38
347.525	40.62
347.908	66.16
348.291	80.62
348.674	83.78
349.057	102.77
349.44	136.21
349.823	130.79
350.206	148.87
350.588	216.21
350.971	227.73
351.354	230.45
351.737	245.36
352.119	254.63
352.502	273.61
352.884	288.07
353.267	292.37
353.65	296.66
354.032	312.48
354.414	307.73
354.797	321.07
355.179	321.74
355.562	338.47
355.944	341.18
356.326	338.92
356.709	349.76
357.091	343.44
357.473	359.03
357.855	341.86
358.238	363.1
358.62	339.14
359.002	354.06
359.384	346.6
359.766	359.26
360.148	366.04
360.53	343.44
360.912	345.25
361.294	361.52
361.676	360.61
362.057	355.41
362.439	345.02
362.821	344.12
363.203	342.76
363.584	347.05
363.966	338.24
364.348	339.37
364.729	345.92
365.111	356.77
365.493	350.89
365.874	342.08
366.256	337.11
366.637	358.35
367.019	335.08
367.4	325.13
367.781	337.56
368.163	338.47
368.544	331.23
368.925	342.76
369.306	358.58
369.688	333.72
370.069	320.61
370.45	330.33
370.831	331.69
371.212	339.37
371.593	342.31
371.974	354.74
372.355	353.61
372.736	339.82
373.117	321.74
373.498	364
373.879	356.09
374.26	335.3
374.641	352.48
375.021	352.48
375.402	338.92
375.783	337.56
376.163	347.28
376.544	369.2
376.925	367.39
377.305	357
377.686	360.16
378.066	380.5
378.447	374.4
378.827	361.06
379.208	368.3
379.588	373.72
379.968	380.5
380.349	370.33
380.729	355.19
381.109	385.02
381.489	380.27
381.87	383.44
382.25	389.76
382.63	383.44
383.01	394.96
383.39	394.74
383.77	413.27
384.15	393.38
384.53	401.74
384.91	397
385.29	431.34
385.67	419.37
386.049	436.32
386.429	409.65
386.809	424.79
387.189	431.8
387.568	428.18
387.948	425.24
388.328	421.85
388.707	454.62
389.087	444.9
389.466	434.51
389.846	466.6
390.225	460.04
390.605	468.63
390.984	447.62
391.363	441.06
391.743	462.98
392.122	483.32
392.501	501.17
392.881	512.02
393.26	497.78
393.639	484.68
394.018	519.48
394.397	530.33
394.776	529.87
395.155	528.52
395.534	541.62
395.913	546.6
396.292	563.32
396.671	560.15
397.05	554.05
397.429	569.87
397.808	582.3
398.186	582.08
398.565	570.32
398.944	587.95
399.323	589.98
399.701	611.23
400.08	599.7
400.458	623.43
400.837	618.91
401.215	646.25
401.594	659.14
401.972	661.62
402.351	668.4
402.729	672.69
403.107	688.96
403.486	739.59
403.864	696.2
404.242	735.97
404.62	730.09
404.999	727.38
405.377	745.69
405.755	770.09
406.133	762.18
406.511	797.44
406.889	776.65
407.267	808.51
407.645	830.2
408.023	837.44
408.401	857.55
408.779	892.35
409.156	916.3
409.534	886.02
409.912	920.37
410.29	937.77
410.667	952.46
411.045	947.49
411.422	1006.92
411.8	1003.31
412.178	1024.32
412.555	1052.8
412.933	1061.38
413.31	1070.42
413.687	1100.93
414.065	1108.16
414.442	1127.37
414.819	1176.86
415.197	1164.21
415.574	1215.73
415.951	1207.6
416.328	1231.1
416.705	1224.32
417.082	1255.5
417.46	1261.38
417.837	1300.47
418.214	1300.93
418.591	1319.23
418.967	1309.97
419.344	1369.63
419.721	1384.09
420.098	1379.79
420.475	1396.74
420.852	1430.41
421.228	1426.8
421.605	1458.21
421.982	1459.79
422.358	1507.25
422.735	1493.46
423.111	1514.25
423.488	1529.17
423.864	1548.38
424.241	1597.87
424.617	1611.43
424.994	1590.64
425.37	1632.67
425.746	1624.08
426.123	1659.11
426.499	1702.05
426.875	1693.23
427.251	1747.92
427.627	1748.82
428.003	1781.59
428.379	1813.23
428.756	1835.6
429.132	1851.65
429.507	1907.46
429.883	1912.89
430.259	1973
430.635	1994.69
431.011	1977.52
431.387	2028.82
431.763	2067.69
432.138	2120.11
432.514	2118.08
432.89	2150.17
433.265	2188.36
433.641	2208.47
434.016	2234.69
434.392	2305.42
434.767	2313.55
435.143	2336.38
435.518	2373.67
435.894	2364.18
436.269	2423.38
436.644	2489.82
437.02	2472.42
437.395	2491.86
437.77	2518.3
438.145	2573.21
438.52	2576.6
438.895	2612.53
439.271	2609.82
439.646	2685.52
440.021	2708.57
440.395	2669.25
440.77	2697.27
441.145	2739.76
441.52	2828.12
441.895	2794.22
442.27	2853.88
442.645	2829.47
443.019	2864.05
443.394	2910.83
443.769	2882.35
444.143	2904.95
444.518	2979.3
444.892	2948.79
445.267	2989.24
445.641	3009.58
446.016	3039.19
446.39	3121.44
446.764	3079.18
447.139	3086.87
447.513	3122.8
447.887	3159.86
448.262	3175
448.636	3201.22
449.01	3224.04
449.384	3291.38
449.758	3292.96
450.132	3356.69
450.506	3330.03
450.88	3391.27
451.254	3347.65
451.628	3447.31
452.002	3467.65
452.376	3532.05
452.75	3538.38
453.123	3533.64
453.497	3631.49
453.871	3623.58
454.244	3745.16
454.618	3753.97
454.992	3816.11
455.365	3812.27
455.739	3941.31
456.112	3966.84
456.486	3984.7
456.859	4073.06
457.232	4129.33
457.606	4111.02
457.979	4161.42
458.352	4287.74
458.725	4332.48
459.099	4365.93
459.472	4395.99
459.845	4487.06
460.218	4529.77
460.591	4584.91
460.964	4558.47
461.337	4731.8
461.71	4728.18
462.083	4833.26
462.456	4850.66
462.829	4858.35
463.201	4956.88
463.574	4959.81
463.947	5106.7
464.32	5218.34
464.692	5228.28
465.065	5262.18
465.438	5336.75
465.81	5424.89
466.183	5475.96
466.555	5587.14
466.928	5683.64
467.3	5676.18
467.672	5733.58
468.045	5914.14
468.417	5869.17
468.789	5983.74
469.161	6047.92
469.534	6158.65
469.906	6307.35
470.278	6327.23
470.65	6440.23
471.022	6537.4
471.394	6637.51
471.766	6709.82
472.138	6762.7
472.51	6924.96
472.882	7013.32
473.253	7099.64
473.625	7244.72
473.997	7421.9
474.369	7457.6
474.74	7531.27
475.112	7757.48
475.484	7890.58
475.855	7963.35
476.227	7990.92
476.598	8247.64
476.97	8375.77
477.341	8516.56
477.713	8654.63
478.084	8699.15
478.455	8964
478.827	8996.09
479.198	9248.29
479.569	9259.81
479.94	9546.81
480.311	9612.35
480.682	9872
481.053	10057.98
481.424	10299.79
481.795	10367.13
482.166	10493.9
482.537	10615.03
482.908	10874.91
483.279	11089.37
483.65	11132.53
484.021	11425.41
484.391	11600.54
484.762	11675.34
485.133	11795.34
485.503	11979.52
485.874	12290.69
486.244	12366.62
486.615	12620.4
486.985	12771.13
487.356	13008.19
487.726	13141.29
488.097	13379.48
488.467	13435.97
488.837	13722.97
489.207	13870.54
489.578	14040.03
489.948	14244.99
490.318	14439.34
490.688	14401.82
491.058	14819.44
491.428	14947.8
491.798	15087.68
492.168	15319.54
492.538	15415.81
492.908	15653.54
493.278	15844.5
493.648	15869.81
494.017	16181.21
494.387	16309.8
494.757	16344.6
495.126	16618.94
495.496	16702.78
495.866	16783.68
496.235	16979.16
496.605	17197.68
496.974	17283.78
497.344	17483.33
497.713	17629.76
498.082	17618.69
498.452	17826.82
498.821	18035.63
499.19	18073.37
499.559	18203.08
499.928	18365.56
500.298	18485.79
500.667	18754.7
501.036	18755.38
501.405	18929.16
501.774	19064.75
502.143	19095.94
502.512	19267.69
502.88	19532.99
503.249	19449.83
503.618	19678.52
503.987	19735.47
504.356	19847.78
504.724	20057.95
505.093	20155.8
505.462	20289.58
505.83	20456.58
506.199	20571.38
506.567	20919.39
506.936	20841.66
507.304	21074.87
507.672	21203.91
508.041	21315.32
508.409	21524.8
508.777	21692.03
509.145	21861.52
509.514	21869.88
509.882	22185.35
510.25	22189.64
510.618	22414.95
510.986	22465.12
511.354	22710.53
511.722	22886.35
512.09	23154.36
512.458	23178.54
512.826	23418.99
513.193	23477.07
513.561	23646.33
513.929	23739.66
514.297	23981.23
514.664	24132.64
515.032	24266.65
515.4	24438.4
515.767	24556.59
516.135	24792.29
516.502	24714.77
516.869	25169.68
517.237	25210.58
517.604	25241.31
517.972	25572.15
518.339	25848.08
518.706	25895.99
519.073	26014.4
519.44	26330.1
519.808	26542.75
520.175	26543.65
520.542	26910.87
520.909	27104.32
521.276	27142.96
521.643	27410.07
522.009	27593.34
522.376	27770.96
522.743	27973.67
523.11	28261.12
523.477	28615.24
523.843	28675.57
524.21	29065.17
524.577	29285.5
524.943	29359.17
525.31	29509.22
525.676	29874.19
526.043	30031.7
526.409	30179.04
526.776	30483.66
527.142	30564.11
527.508	30781.06
527.874	31023.08
528.241	30986.47
528.607	31288.84
528.973	31623.52
529.339	31587.14
529.705	31959.33
530.071	32303.5
530.437	32342.6
530.803	32529.94
531.169	32789.59
531.535	32795.69
531.901	32851.74
532.267	33115.23
532.632	33371.5
532.998	33461.66
533.364	33588.21
533.73	33860.3
534.095	34063.91
534.461	34143.45
534.826	34333.5
535.192	34495.08
535.557	34782.98
535.923	34719.48
536.288	34856.88
536.653	35128.06
537.019	35112.69
537.384	35138.23
537.749	35410.99
538.114	35462.97
538.479	35697.08
538.845	35853.92
539.21	35866.12
539.575	35984.53
539.94	35987.02
540.305	36273.34
540.67	36314.69
541.034	36481.24
541.399	36666.1
541.764	36702.26
542.129	36869.03
542.494	36958.07
542.858	37199.19
543.223	37149.93
543.587	37394.44
543.952	37295.91
544.316	37420.88
544.681	37627.88
545.045	37753.3
545.41	38097.92
545.774	38146.06
546.138	38067.42
546.503	38276.45
546.867	38238.71
547.231	38629.21
547.595	38614.75
547.959	38745.59
548.324	38899.94
548.688	38811.13
549.052	39052.48
549.416	39106.49
549.779	39289.31
550.143	39303.54
550.507	39702.18
550.871	39535.63
551.235	39835.73
551.599	39970.87
551.962	40166.35
552.326	40245.66
552.689	40452.67
553.053	40339
553.417	40357.53
553.78	41049.26
554.143	40842.03
554.507	40965.42
554.87	41195.47
555.234	41477.95
555.597	41312.3
555.96	41590.71
556.323	41749.58
556.686	41836.13
557.05	42013.08
557.413	42222.34
557.776	42219.62
558.139	42522.22
558.502	42697.8
558.865	42750.23
559.228	43131.01
559.59	43208.75
559.953	43300.95
560.316	43713.37
560.679	43613.49
561.041	43994.49
561.404	44138.44
561.767	44357.42
562.129	44234.49
562.492	44725.32
562.854	44632.89
563.217	44712.21
563.579	44887.35
563.941	45197.4
564.304	45348.58
564.666	45547.9
565.028	45679.65
565.39	45919.87
565.753	46035.8
566.115	46169.58
566.477	46400.31
566.839	46478.95
567.201	46653.86
567.563	46773.4
567.925	47002.1
568.287	47007.52
568.648	47148.08
569.01	47322.09
569.372	47547.62
569.734	47329.09
570.095	47719.14
570.457	47779.03
570.819	47806.6
571.18	47845.69
571.542	48141.95
571.903	48143.08
572.265	48352.8
572.626	48554.15
572.987	48554.37
573.349	48637.99
573.71	48716.4
574.071	48902.39
574.432	48945.32
574.794	49207.24
575.155	49232.55
575.516	49136.28
575.877	49395.71
576.238	49410.17
576.599	49440.68
576.96	49578.98
577.32	49635.93
577.681	49712.53
578.042	49788.92
578.403	49876.82
578.763	49798.86
579.124	49899.87
579.485	50117.72
579.845	50115.24
580.206	50053.54
580.566	50123.6
580.927	50148.46
581.287	50356.81
581.648	50181
582.008	50260.99
582.368	50291.28
582.728	50317.04
583.089	50147.78
583.449	50202.47
583.809	50284.95
584.169	50342.8
584.529	50188.91
584.889	50597.03
585.249	50279.3
585.609	50205.18
585.969	50451.05
586.329	50357.72
586.688	50400.65
587.048	50295.57
587.408	50322.01
587.768	50314.78
588.127	50369.47
588.487	50315.68
588.846	50603.81
589.206	50347.77
589.565	50367.21
589.925	50525.85
590.284	50463.93
590.643	50390.71
591.003	50536.02
591.362	50564.04
591.721	50411.95
592.08	50474.55
592.44	50657.82
592.799	50532.4
593.158	50569.46
593.517	50642.91
593.876	50595.45
594.235	50430.26
594.593	50572.17
594.952	50705.73
595.311	50620.31
595.67	50606.3
596.029	50775.56
596.387	50893.29
596.746	50887.19
597.104	50769.46
597.463	50729.68
597.822	50925.61
598.18	50837.7
598.538	50757.7
598.897	50888.1
599.255	50657.59
599.613	51187.98
599.972	50881.09
600.33	50942.78
600.688	50793.18
601.046	50989.11
601.404	51069.56
601.762	51102.78
602.12	51107.07
602.478	51141.2
602.836	51227.3
603.194	51087.41
603.552	51209.44
603.91	51108.2
604.268	51247.18
604.625	51155.21
604.983	51319.72
605.341	51112.95
605.698	51345.71
606.056	51410.8
606.413	51183.91
606.771	51537.35
607.128	51408.31
607.485	51378.25
607.843	51384.36
608.2	51545.03
608.557	51580.06
608.914	51630.45
609.272	51677.68
609.629	51718.13
609.986	51818.92
610.343	51641.52
610.7	51863.44
611.057	51801.07
611.414	51766.49
611.771	51866.6
612.127	51971.46
612.484	51961.74
612.841	52025.92
613.198	51926.04
613.554	52013.49
613.911	52151.34
614.267	52166.48
614.624	52053.94
614.98	52182.98
615.337	52301.62
615.693	52218.68
616.05	52219.59
616.406	52427.04
616.762	52286.48
617.118	52276.99
617.475	52292.81
617.831	52368.51
618.187	52472.01
618.543	52390.43
618.899	52638.11
619.255	52597.88
619.611	52439.47
619.967	52540.71
620.323	52662.29
620.678	52586.13
621.034	52538.68
621.39	52502.07
621.746	52478.11
622.101	52780.25
622.457	52571.67
622.812	52661.84
623.168	52693.93
623.523	52650.76
623.879	52651.44
624.234	52599.24
624.589	52702.51
624.945	52671.33
625.3	52637.43
625.655	52622.29
626.01	52644.43
626.365	52635.62
626.72	52661.61
627.075	52582.06
627.43	52459.58
627.785	52429.75
628.14	52508.85
628.495	52612.35
628.85	52544.1
629.205	52396.76
629.559	52614.83
629.914	52386.81
630.269	52495.96
630.623	52328.51
630.978	52332.8
631.332	52333.26
631.687	52497.32
632.041	52272.92
632.396	52301.85
632.75	52180.94
633.104	52320.38
633.459	52127.84
633.813	52191.11
634.167	52153.37
634.521	52103.21
634.875	52158.8
635.229	52022.98
635.583	51922.42
635.937	51938.69
636.291	51968.52
636.645	51875.42
636.999	51730.79
637.352	51857.56
637.706	51657.12
638.06	51814.17
638.413	51839.48
638.767	51609.43
639.121	51645.82
639.474	51539.38
639.828	51507.29
640.181	51533.5
640.534	51503.45
640.888	51371.02
641.241	51270.69
641.594	51333.28
641.947	51399.72
642.301	51280.4
642.654	51352.72
643.007	51258.71
643.36	51156.79
643.713	51115.21
644.066	51205.83
644.419	51021.65
644.771	50844.93
645.124	50672.06
645.477	50504.6
645.83	50315.46
646.182	50072.07
646.535	50010.38
646.888	49884.28
647.24	49672.99
647.593	49883.6
647.945	49654.23
648.298	49676.83
648.65	49529.49
649.002	49496.5
649.355	49630.28
649.707	49594.12
650.059	49747.34
650.411	50184.16
650.763	50181.45
651.115	50503.47
651.467	50411.73
651.819	50338.28
652.171	50191.84
652.523	50161.56
652.875	50111.85
653.227	50017.84
653.578	50174.9
653.93	50125.18
654.282	49945.75
654.633	49907.11
654.985	49941.46
655.337	49912.76
655.688	49969.93
656.039	50003.15
656.391	49799.76
656.742	49781.91
657.094	49826.2
657.445	49947.78
657.796	49733.55
658.147	49743.27
658.498	49696.26
658.849	49698.3
659.2	49655.14
659.551	49494.46
659.902	49689.03
660.253	49552.99
660.604	49643.16
660.955	49397.29
661.306	49555.25
661.656	49504.63
662.007	49586.89
662.358	49516.38
662.708	49368.59
663.059	49412.2
663.409	49151.87
663.76	49395.25
664.11	49366.1
664.461	49370.62
664.811	49393.9
665.161	49385.31
665.511	49221.47
665.862	49355.93
666.212	49526.32
666.562	49364.75
666.912	49233.68
667.262	49283.62
667.612	49209.95
667.962	49203.85
668.312	49095.83
668.662	49408.81
669.011	49240.91
669.361	49201.81
669.711	49083.85
670.06	49088.6
670.41	49020.8
670.76	49039.11
671.109	49120.46
671.459	49009.05
671.808	49043.85
672.157	49066
672.507	48806.12
672.856	48829.39
673.205	48925.89
673.554	48878.43
673.904	48808.38
674.253	48925.44
674.602	48767.93
674.951	48286.81
675.3	48108.51
675.649	48619
675.998	48597.54
676.346	48563.86
676.695	48742.84
677.044	48273.48
677.393	48536.75
677.741	48651.55
678.09	48382.85
678.438	48415.17
678.787	48418.11
679.135	48423.3
679.484	48166.36
679.832	48248.62
680.181	48205.91
680.529	48288.39
680.877	48097.44
681.225	48070.77
681.573	48321.38
681.922	48012.92
682.27	47885.69
682.618	47944.67
682.966	47755.98
683.314	47932.24
683.661	47738.35
684.009	47563.44
684.357	47395.53
684.705	47287.51
685.053	47271.24
685.4	47209.32
685.748	47153.28
686.095	47031.25
686.443	46941.99
686.79	46944.25
687.138	46936.11
687.485	46924.13
687.832	46720.3
688.18	46718.04
688.527	46513.52
688.874	46503.81
689.221	46425.62
689.568	46252.06
689.915	46200.76
690.262	46225.62
690.609	46086.42
690.956	46050.48
691.303	46008.68
691.65	45730.94
691.997	45854.11
692.344	45527.79
692.69	45532.31
693.037	45461.12
693.383	45155.59
693.73	45335.93
694.077	45102.94
694.423	45101.13
694.769	44949.72
695.116	44742.72
695.462	44745.43
695.808	44662.72
696.155	44676.73
696.501	44374.14
696.847	44383.64
697.193	44119.91
697.539	44217.09
697.885	43857.77
698.231	43725.35
698.577	43761.05
698.923	43699.36
699.269	43416.2
699.614	43277
699.96	43191.8
700.306	43349.31
700.651	42951.13
700.997	42883.34
701.342	42792.94
701.688	42825.48
702.033	42670.01
702.379	42599.95
702.724	42549.11
703.069	42603.8
703.415	42117.93
703.76	42166.29
704.105	42147.54
704.45	42068.89
704.795	41788
705.14	41616.02
705.485	41633.65
705.83	41471.17
706.175	41580.09
706.52	41485.86
706.865	41255.58
707.209	41176.04
707.554	41036.38
707.899	41048.58
708.243	40823.05
708.588	40841.36
708.932	40521.14
709.277	40593
709.621	40708.7
709.966	40301.93
710.31	40444.08
710.654	40023.3
710.998	40129.96
711.342	40161.37
711.687	39922.51
712.031	39748.05
712.375	39691.78
712.719	39751.89
713.063	39679.13
713.407	39682.29
713.75	39396.87
714.094	39390.32
714.438	39230.78
714.782	39200.49
715.125	39152.36
715.469	39176.99
715.812	38993.95
716.156	38730.22
716.499	38757.57
716.843	38825.82
717.186	38571.58
717.53	38691.13
717.873	38665.59
718.216	38528.65
718.559	38375.88
718.902	38163.01
719.246	38311.48
719.589	38119.85
719.932	38043.91
720.275	38077.59
720.617	37984.93
720.96	37965.72
721.303	37973.18
721.646	37806.63
721.989	37512.86
722.331	37678.5
722.674	37538.39
723.016	37493.42
723.359	37456.81
723.701	37400.77
724.044	37174.33
724.386	36970.95
724.729	37227.67
725.071	37014.79
725.413	37041.68
725.755	36852.99
726.097	36753.78
726.439	36680.33
726.782	36836.49
727.124	36856.83
727.465	36566.67
727.807	36503.84
728.149	36417.97
728.491	36438.08
728.833	36471.98
729.175	36333.45
729.516	36271.31
729.858	36241.93
730.199	36296.39
730.541	36140.24
730.882	35979.11
731.224	36147.69
731.565	35740.25
731.906	35896.17
732.248	35842.39
732.589	35608.72
732.93	35543.87
733.271	35691.43
733.612	35680.81
733.953	35800.58
734.294	35536.18
734.635	35446.02
734.976	35489.18
735.317	35328.51
735.658	35356.98
735.999	35338.68
736.339	35085.57
736.68	35170.77
737.021	34954.28
737.361	34724.23
737.702	34994.96
738.042	34943.88
738.383	34688.3
738.723	34838.12
739.063	34618.92
739.404	34771.46
739.744	34630.9
740.084	34542.54
740.424	34539.6
740.764	34368.08
741.104	34533.27
741.444	34284.47
741.784	34226.39
742.124	34308.65
742.464	34175.99
742.804	34320.85
743.143	34086.05
743.483	33930.58
743.823	33932.16
744.162	33888.09
744.502	33890.13
744.841	33734.2
745.181	33892.61
745.52	33759.28
745.86	33736.01
746.199	33679.74
746.538	33530.14
746.877	33472.28
747.216	33510.93
747.556	33404.49
747.895	33345.73
748.234	33336.92
748.573	33213.99
748.911	33098.73
749.25	33085.18
749.589	32944.84
749.928	32981
750.267	33051.05
750.605	32766.54
750.944	32791.62
751.283	32543.49
751.621	32616.26
751.96	32481.35
752.298	32514.57
752.636	32454.46
752.975	32224.63
753.313	32222.15
753.651	32227.57
753.989	32115.48
754.327	32105.77
754.666	31840.01
755.004	31999.33
755.342	31964.07
755.679	31766.57
756.017	31725.66
756.355	31575.16
756.693	31527.93
757.031	31558.44
757.368	31204.55
757.706	31307.59
758.044	31197.32
758.381	31150.99
758.719	31015.4
759.056	30926.59
759.394	30907.15
759.731	30761.85
760.068	30660.61
760.405	30519.14
760.743	30484.79
761.08	30522.3
761.417	30231.46
761.754	30362.53
762.091	30384.68
762.428	30050.45
762.765	29839.61
763.102	29963.9
763.438	29731.14
763.775	29788.09
764.112	29593.52
764.449	29669.9
764.785	29493.18
765.122	29244.37
765.458	29205.73
765.795	29080.31
766.131	29107.88
766.467	28938.62
766.804	28800.09
767.14	28702.69
767.476	28753.09
767.812	28557.84
768.148	28413.43
768.485	28439.65
768.821	28198.98
769.157	28183.16
769.492	28060.67
769.828	28149.26
770.164	27862.49
770.5	27779.78
770.836	27812.55
771.171	27557.41
771.507	27488.03
771.842	27339.79
772.178	27345.21
772.513	27175.73
772.849	27165.1
773.184	27132.79
773.519	26925.56
773.855	26818
774.19	26751.56
774.525	26648.73
774.86	26716.08
775.195	26588.85
775.53	26465.91
775.865	26270.44
776.2	26142.76
776.535	26065.25
776.87	25983.89
777.205	25810.56
777.539	25680.17
777.874	25689.66
778.209	25554.75
778.543	25497.35
778.878	25314.98
779.212	25348.66
779.547	25227.75
779.881	25217.13
780.215	25079.96
780.55	25188.21
780.884	24891.04
781.218	24764.26
781.552	24791.16
781.886	24645.62
782.22	24463.93
782.554	24385.97
782.888	24258.74
783.222	23998.18
783.556	24061.46
783.889	23994.79
784.223	23862.14
784.557	23843.16
784.89	23774.01
785.224	23774.01
785.557	23603.16
785.891	23456.95
786.224	23449.04
786.558	23357.75
786.891	23107.58
787.224	23080.92
787.557	23014.03
787.891	22959.79
788.224	23000.47
788.557	22951.66
788.89	22875.27
789.223	22809.06
789.556	22535.85
789.888	22597.77
790.221	22501.72
790.554	22301.73
790.887	22391.45
791.219	22098.57
791.552	22156.42
791.884	21975.18
792.217	22001.62
792.549	21860.84
792.882	21702.65
793.214	21594.4
793.546	21748.3
793.879	21397.12
794.211	21465.37
794.543	21473.28
794.875	21344.92
795.207	21348.76
795.539	21360.96
795.871	21244.36
796.203	21061.31
796.535	21014.08
796.867	20912.16
797.198	20939.73
797.53	20905.83
797.862	20798.27
798.193	20700.42
798.525	20686.18
798.856	20606.41
799.188	20454.77
799.519	20363.7
799.85	20272.18
800.182	20353.08
800.513	20236.02
800.844	20150.15
801.175	20166.87
801.506	20135.46
801.837	19977.72
802.168	19920.78
802.499	19904.28
802.83	19837.61
803.161	19665.87
803.491	19643.49
803.822	19620.22
804.153	19534.57
804.483	19351.98
804.814	19309.27
805.145	19351.07
805.475	19278.08
805.805	19198.76
806.136	19236.05
806.466	19166.45
806.796	19164.64
807.126	19018.2
807.457	18870.18
807.787	18954.02
808.117	18833.57
808.447	18838.09
808.777	18756.06
809.107	18754.25
809.436	18636.74
809.766	18568.04
810.096	18568.27
810.426	18452.11
810.755	18496.41
811.085	18425.9
811.414	18393.58
811.744	18189.52
812.073	18304.32
812.403	18233.81
812.732	18078.11
813.061	18065.01
813.39	18021.62
813.719	17943.2
814.049	18030.2
814.378	17970.77
814.707	17838.57
815.036	17864.11
815.365	17791.11
815.693	17656.65
816.022	17644
816.351	17549.31
816.68	17453.95
817.008	17469.54
817.337	17378.02
817.665	17384.8
817.994	17503.66
818.322	17322.65
818.651	17232.03
818.979	17132.37
819.307	17386.38
819.636	17117.23
819.964	17100.06
820.292	17191.36
820.62	17148.87
820.948	17053.05
821.276	17079.04
821.604	17144.35
821.932	17116.78
822.259	17088.76
822.587	17049.44
822.915	17006.5
823.243	16995.88
823.57	16991.81
823.898	17063.45
824.225	17032.49
824.553	16971.02
824.88	16908.65
825.207	17011.02
825.535	17001.53
825.862	16943.45
826.189	16951.36
826.516	17028.42
826.843	17019.83
827.17	17074.3
827.497	17050.79
827.824	16975.54
828.151	17012.6
828.478	17025.94
828.805	16996.78
829.131	16974.19
829.458	16889.89
829.785	16848.99
830.111	16747.75
830.438	16893.96
830.764	16823.46
831.09	16798.82
831.417	16650.13
831.743	16891.93
832.069	16842.89
832.395	16793.17
832.722	16909.33
833.048	16721.99
833.374	16699.84
833.7	16711.37
834.026	16697.58
834.351	16728.77
834.677	16707.75
835.003	16682.67
835.329	16722.67
835.654	16658.26
835.98	16518.15
836.306	16649.22
836.631	16550.69
836.956	16494.2
837.282	16576.91
837.607	16460.3
837.932	16344.37
838.258	16498.72
838.583	16477.7
838.908	16268.44
839.233	16317.71
839.558	16421.66
839.883	16255.34
840.208	16142.8
840.533	16157.71
840.858	16100.09
841.182	16117.26
841.507	16108.67
841.832	16077.03
842.156	16017.83
842.481	15986.42
842.805	15968.34
843.13	15888.57
843.454	15896.47
843.778	15838.4
844.103	15757.04
844.427	15741.22
844.751	15670.72
845.075	15685.41
845.399	15647.67
845.723	15551.17
846.047	15549.59
846.371	15531.29
846.695	15366.55
847.019	15355.7
847.343	15222.82
847.666	15139.21
847.99	15166.1
848.313	15041.36
848.637	14969.95
848.96	15004.07
849.284	14994.58
849.607	14836.62
849.931	14832.55
850.254	14714.36
850.577	14727.92
850.9	14512.1
851.223	14485.66
851.546	14401.82
851.869	14323.86
852.192	14357.53
852.515	14256.52
852.838	14160.02
853.161	14115.28
853.483	14105.34
853.806	14054.72
854.129	14010.2
854.451	14018.11
854.774	13926.58
855.096	13830.99
855.419	13816.98
855.741	13826.02
856.063	13744.21
856.385	13728.4
856.708	13682.07
857.03	13658.34
857.352	13563.2
857.674	13604.11
857.996	13516.2
858.318	13425.81
858.64	13439.59
858.961	13386.26
859.283	13364.56
859.605	13328.41
859.926	13374.06
860.248	13328.63
860.57	13244.79
860.891	13198.92
861.212	13168.41
861.534	13167.28
861.855	13109.2
862.176	13123.67
862.498	13015.42
862.819	13029.21
863.14	12984.23
863.461	12930.45
863.782	12936.55
864.103	12940.39
864.424	12960.05
864.745	12937.46
865.065	12774.75
865.386	12873.05
865.707	12739.27
866.027	12754.41
866.348	12723.68
866.668	12688.65
866.989	12655.66
867.309	12551.48
867.63	12572.95
867.95	12523.91
868.27	12490.01
868.59	12495.43
868.91	12399.17
869.23	12437.81
869.55	12398.94
869.87	12452.72
870.19	12383.8
870.51	12443.68
870.83	12364.14
871.15	12245.72
871.469	12311.03
871.789	12291.37
872.109	12241.43
872.428	12204.37
872.748	12236.91
873.067	12231.71
873.386	12201.2
873.706	12229
874.025	12153.3
874.344	12128.21
874.663	12122.34
874.982	12142
875.301	12068.55
875.62	11976.13
875.939	12001.66
876.258	11996.92
876.577	11967.09
876.896	11954.43
877.214	11909.69
877.533	11899.52
877.852	11916.24
878.17	11870.82
878.489	11901.55
878.807	11839.41
879.125	11812.97
879.444	11881.44
879.762	11732.52
880.08	11809.35
880.398	11732.29
880.716	11728.9
881.034	11695.91
881.352	11689.13
881.67	11597.15
881.988	11639.19
882.306	11521.22
882.624	11517.38
882.941	11445.52
883.259	11459.53
883.577	11455.24
883.894	11420.21
884.212	11475.12
884.529	11467.21
884.846	11389.93
885.164	11342.7
885.481	11354.22
885.798	11342.7
886.115	11300.21
886.432	11315.35
886.75	11224.51
887.067	11281.23
887.383	11165.98
887.7	11240.55
888.017	11116.26
888.334	11197.84
888.651	11106.09
888.967	11131.4
889.284	10984.97
889.6	11079.43
889.917	10920.79
890.233	10980.9
890.55	10863.39
890.866	10930.96
891.182	10905.87
891.498	10848.92
891.815	10784.52
892.131	10752.88
892.447	10699.1
892.763	10676.27
893.079	10638.99
893.395	10576.61
893.71	10549.27
894.026	10523.28
894.342	10481.02
894.657	10421.82
894.973	10409.39
895.289	10443.96
895.604	10453.91
895.92	10334.14
896.235	10276.96
896.55	10330.75
896.865	10237.19
897.181	10247.13
897.496	10160.35
897.811	10121.71
898.126	10067.7
898.441	10107.47
898.756	9948.38
899.071	10015.95
899.386	9923.3
899.7	9902.96
900.015	9887.82
900.33	9839.46
900.644	9778.44
900.959	9811.44
901.273	9761.49
901.588	9715.17
901.902	9669.52
902.216	9626.58
902.531	9675.4
902.845	9538.22
903.159	9503.87
903.473	9550.43
903.787	9506.59
904.101	9386.14
904.415	9380.71
904.729	9404.89
905.042	9314.73
905.356	9279.93
905.67	9318.57
905.984	9271.11
906.297	9201.06
906.611	9149.53
906.924	9154.51
907.237	9107.05
907.551	9065.92
907.864	8965.36
908.177	8991.35
908.491	9000.61
908.804	8906.15
909.117	8849.88
909.43	8762.42
909.743	8778.02
910.056	8777.11
910.368	8766.27
910.681	8707.74
910.994	8665.03
911.307	8650.56
911.619	8577.12
911.932	8533.73
912.244	8435.2
912.557	8535.54
912.869	8461.19
913.181	8397.91
913.494	8392.27
913.806	8319.05
914.118	8352.49
914.43	8289.22
914.742	8274.08
915.054	8178.49
915.366	8132.16
915.678	8167.19
915.99	8098.04
916.302	8027.53
916.613	7983.01
916.925	8031.14
917.236	7998.38
917.548	7982.56
917.859	7932.16
918.171	7899.17
918.482	7799.74
918.794	7783.69
919.105	7833.86
919.416	7724.26
919.727	7750.7
920.038	7693.75
920.349	7605.39
920.66	7584.83
920.971	7648.1
921.282	7611.27
921.593	7500.76
921.903	7459.86
922.214	7364.27
922.525	7401.78
922.835	7350.94
923.146	7336.7
923.456	7383.7
923.767	7306.19
924.077	7331.28
924.387	7259.64
924.697	7189.58
925.008	7098.97
925.318	7107.1
925.628	7116.59
925.938	7072.75
926.248	7015.58
926.558	6976.26
926.867	6946.88
927.177	6935.58
927.487	6938.29
927.796	6782.82
928.106	6832.08
928.416	6843.38
928.725	6819.65
929.034	6843.15
929.344	6726.77
929.653	6820.33
929.962	6679.77
930.271	6611.97
930.581	6576.27
930.89	6619.2
931.199	6526.78
931.508	6545.08
931.817	6545.53
932.125	6497.4
932.434	6478.87
932.743	6436.61
933.051	6460.79
933.36	6360.45
933.669	6336.95
933.977	6359.78
934.286	6365.2
934.594	6300.12
934.902	6222.38
935.21	6157.75
935.519	6176.96
935.827	6163.4
936.135	6180.35
936.443	6082.04
936.751	6011.54
937.059	6089.5
937.367	6009.5
937.674	5964.31
937.982	5939.67
938.29	5939
938.597	5929.96
938.905	5902.84
939.213	5870.52
939.52	5851.77
939.827	5887.02
940.135	5781.71
940.442	5806.8
940.749	5728.15
941.056	5754.82
941.363	5609.29
941.67	5666.46
941.977	5628.5
942.284	5597.99
942.591	5600.25
942.898	5565.67
943.205	5568.38
943.511	5548.05
943.818	5502.4
944.125	5479.57
944.431	5470.53
944.738	5405.9
945.044	5414.72
945.35	5432.34
945.657	5359.35
945.963	5350.76
946.269	5296.3
946.575	5296.3
946.881	5301.5
947.187	5281.61
947.493	5183.08
947.799	5235.96
948.105	5192.8
948.41	5143.31
948.716	5130.66
949.022	5120.94
949.327	5073.26
949.633	5044.1
949.938	5065.57
950.244	5052.92
950.549	4971.79
950.854	4940.83
951.16	4977.89
951.465	4919.14
951.77	4950.32
952.075	4910.55
952.38	4866.48
952.685	4878.46
952.99	4841.17
953.294	4780.83
953.599	4847.5
953.904	4780.38
954.209	4715.3
954.513	4746.26
954.818	4713.04
955.122	4669.88
955.426	4671.23
955.731	4637.34
956.035	4632.36
956.339	4581.07
956.643	4600.05
956.948	4522.99
957.252	4568.18
957.556	4527.06
957.86	4480.5
958.163	4476.66
958.467	4444.8
958.771	4414.52
959.075	4403.9
959.378	4397.79
959.682	4438.7
959.985	4411.58
960.289	4363.22
960.592	4323.45
960.896	4295.65
961.199	4301.07
961.502	4257.23
961.805	4248.87
962.108	4226.5
962.411	4195.09
962.714	4205.71
963.017	4175.65
963.32	4166.16
963.623	4132.94
963.926	4089.33
964.228	4082.1
964.531	4097.69
964.833	4087.52
965.136	4042.1
965.438	4019.95
965.741	4020.85
966.043	3993.28
966.345	3947.86
966.648	3973.4
966.95	3967.3
967.252	3946.73
967.554	3928.88
967.856	3867.41
968.158	3852.95
968.46	3885.49
968.761	3843.23
969.063	3851.59
969.365	3821.31
969.666	3798.26
969.968	3767.3
970.269	3745.16
970.571	3757.36
970.872	3689.56
971.174	3671.94
971.475	3708.09
971.776	3698.83
972.077	3694.54
972.378	3640.53
972.679	3583.8
972.98	3658.6
973.281	3595.1
973.582	3588.55
973.883	3610.7
974.183	3541.09
974.484	3530.47
974.785	3514.88
975.085	3491.15
975.386	3532.96
975.686	3489.34
975.986	3501.09
976.287	3471.94
976.587	3476.46
976.887	3449.8
977.187	3423.13
977.487	3424.26
977.787	3370.02
978.087	3383.13
978.387	3319.18
978.687	3347.43
978.987	3319.63
979.286	3296.13
979.586	3282.57
979.885	3259.97
980.185	3273.08
980.484	3233.53
980.784	3276.24
981.083	3220.65
981.382	3205.96
981.682	3179.97
981.981	3156.47
982.28	3148.34
982.579	3136.81
982.878	3110.14
983.177	3129.8
983.475	3110.37
983.774	3092.52
984.073	3064.72
984.372	3043.03
984.67	3018.17
984.969	2991.5
985.267	3026.53
985.566	2978.4
985.864	3007.55
986.162	2965.74
986.461	2956.93
986.759	2961
987.057	2919.19
987.355	2913.09
987.653	2895.46
987.951	2879.19
988.249	2861.11
988.547	2875.12
988.844	2833.77
989.142	2845.52
989.44	2810.27
989.737	2855.24
990.035	2810.27
990.332	2810.04
990.63	2752.64
990.927	2770.27
991.224	2742.02
991.521	2745.86
991.819	2728.01
992.116	2718.29
992.413	2713.09
992.71	2692.75
993.006	2697.27
993.303	2659.08
993.6	2656.37
993.897	2679.42
994.193	2650.04
994.49	2611.4
994.787	2561.91
995.083	2566.43
995.379	2564.85
995.676	2548.13
995.972	2570.27
996.268	2538.18
996.565	2494.57
996.861	2515.58
997.157	2468.35
997.453	2480.78
997.749	2455.47
998.044	2440.78
998.34	2427.45
998.636	2413.44
998.932	2438.75
999.227	2402.37
999.523	2387.23
999.818	2342.03
1000.114	2347.45
1000.409	2335.25
1000.704	2342.25
1001	2346.55
1001.295	2302.48
1001.59	2315.14
1001.885	2297.96
1002.18	2266.55
1002.475	2267.45
1002.77	2265.87
1003.065	2280.11
1003.359	2248.25
1003.654	2193.78
1003.949	2212.31
1004.243	2206.67
1004.538	2177.74
1004.832	2189.94
1005.127	2131.64
1005.421	2135.93
1005.715	2110.17
1006.009	2109.94
1006.304	2104.52
1006.598	2059.55
1006.892	2093.67
1007.186	2081.7
1007.48	2100.45
1007.773	2073.56
1008.067	2069.27
1008.361	2011.64
1008.655	2015.71
1008.948	2005.31
1009.242	2004.64
1009.535	1994.24
1009.829	2011.64
1010.122	1930.74
1010.415	1933.68
1010.708	1923.28
1011.001	1916.28
1011.295	1913.57
1011.588	1936.84
1011.881	1888.26
1012.173	1853
1012.466	1874.47
1012.759	1887.8
1013.052	1852.78
1013.344	1825.21
1013.637	1800.57
1013.93	1809.16
1014.222	1806.45
1014.514	1787.92
1014.807	1798.77
1015.099	1725.32
1015.391	1731.88
1015.683	1731.42
1015.976	1731.42
1016.268	1715.83
1016.56	1689.39
1016.851	1699.11
1017.143	1679.9
1017.435	1686
1017.727	1685.32
1018.018	1645.78
1018.31	1675.61
1018.602	1632.67
1018.893	1618.21
1019.185	1631.31
1019.476	1635.15
1019.767	1619.56
1020.058	1579.79
1020.35	1595.38
1020.641	1557.87
1020.932	1554.48
1021.223	1547.7
1021.514	1510.86
1021.804	1519.23
1022.095	1530.98
1022.386	1501.82
1022.677	1488.27
1022.967	1468.61
1023.258	1461.6
1023.548	1467.48
1023.839	1469.28
1024.129	1463.86
1024.419	1433.13
1024.709	1413.01
1025	1411.43
1025.29	1420.25
1025.58	1398.55
1025.87	1372.11
1026.16	1369.63
1026.449	1399
1026.739	1342.96
1027.029	1382.51
1027.319	1347.48
1027.608	1327.37
1027.898	1323.98
1028.187	1346.57
1028.477	1294.15
1028.766	1300.93
1029.055	1302.51
1029.344	1277.42
1029.634	1290.53
1029.923	1278.78
1030.212	1257.76
1030.501	1252.11
1030.79	1245.79
1031.078	1258.67
1031.367	1242.17
1031.656	1212.57
1031.945	1184.77
1032.233	1206.92
1032.522	1177.99
1032.81	1203.75
1033.099	1192.23
1033.387	1168.73
1033.675	1168.05
1033.963	1161.49
1034.251	1150.65
1034.54	1139.57
1034.828	1141.61
1035.116	1134.6
1035.403	1118.11
1035.691	1116.98
1035.979	1101.16
1036.267	1084.21
1036.554	1108.16
1036.842	1081.72
1037.129	1069.52
1037.417	1066.36
1037.704	1041.5
1037.992	1035.4
1038.279	1047.15
1038.566	1041.05
1038.853	1041.05
1039.14	1041.05
