Data from breadboard_white_FLMS001491_00073.txt Node
Date: Wed Feb 08 10:48:14 GMT 2017
User: dcchb
Spectrometer: FLMS00149
Trigger mode: 0
Integration Time (sec): 2.000000E-2
Scans to average: 10
Electric dark correction enabled: true
Nonlinearity correction enabled: false
Boxcar width: 0
XAxis mode: Wavelengths
Number of Pixels in Spectrum: 2048
>>>>>Begin Spectral Data<<<<<
341.393	-3.79
341.776	-3.79
342.16	-3.79
342.543	-65.93
342.927	-69.09
343.31	-41.52
343.693	-63.44
344.077	-54.63
344.46	-69.32
344.843	-70
345.226	-42.65
345.61	-40.62
345.993	-24.58
346.376	0.96
346.759	10
347.142	4.12
347.525	51.58
347.908	56.1
348.291	94.74
348.674	90.68
349.057	98.58
349.44	119.38
349.823	141.3
350.206	160.96
350.588	190.11
350.971	192.59
351.354	221.75
351.737	236.43
352.119	252.25
352.502	248.86
352.884	259.94
353.267	287.05
353.65	293.83
354.032	309.65
354.414	311.46
354.797	325.02
355.179	320.73
355.562	336.77
355.944	318.92
356.326	332.03
356.709	342.19
357.091	360.27
357.473	354.17
357.855	357.11
358.238	341.52
358.62	359.6
359.002	339.48
359.384	336.77
359.766	366.6
360.148	343.55
360.53	361.4
360.912	356.88
361.294	336.54
361.676	355.53
362.057	368.41
362.439	328.41
362.821	341.52
363.203	350.56
363.584	354.4
363.966	333.38
364.348	346.26
364.729	337.9
365.111	332.93
365.493	348.52
365.874	320.73
366.256	317.11
366.637	320.05
367.019	329.77
367.4	328.86
367.781	334.51
368.163	329.54
368.544	322.99
368.925	341.74
369.306	324.12
369.688	319.14
370.069	325.7
370.45	327.73
370.831	332.03
371.212	348.75
371.593	345.81
371.974	347.17
372.355	342.42
372.736	331.8
373.117	337.22
373.498	315.3
373.879	331.12
374.26	344.68
374.641	345.58
375.021	318.92
375.402	345.13
375.783	332.03
376.163	373.15
376.544	375.64
376.925	353.72
377.305	361.4
377.686	369.54
378.066	378.35
378.447	374.74
378.827	370.44
379.208	376.09
379.588	351.01
379.968	371.35
380.349	380.16
380.729	364.11
381.109	383.1
381.489	372.25
381.87	410.22
382.25	394.62
382.63	408.18
383.01	397.56
383.39	377.67
383.77	398.92
384.15	402.53
384.53	410.67
384.91	418.58
385.29	428.75
385.67	417.9
386.049	403.66
386.429	428.52
386.809	420.84
387.189	433.27
387.568	425.58
387.948	441.63
388.328	418.8
388.707	434.62
389.087	449.99
389.466	447.73
389.846	458.35
390.225	470.33
390.605	471
390.984	463.32
391.363	475.3
391.743	496.77
392.122	493.15
392.501	485.24
392.881	483.89
393.26	479.14
393.639	501.96
394.018	514.17
394.397	497.9
394.776	520.72
395.155	531.12
395.534	547.39
395.913	528.4
396.292	534.96
396.671	550.32
397.05	562.98
397.429	573.6
397.808	579.7
398.186	572.7
398.565	581.06
398.944	566.82
399.323	603.2
399.701	592.36
400.08	594.62
400.458	629.87
400.837	611.34
401.215	622.41
401.594	639.36
401.972	659.7
402.351	647.5
402.729	689.3
403.107	663.09
403.486	702.41
403.864	686.59
404.242	725.69
404.62	728.62
404.999	729.53
405.377	752.13
405.755	741.28
406.133	779.92
406.511	792.35
406.889	803.2
407.267	816.76
407.645	867.38
408.023	860.37
408.401	855.18
408.779	849.98
409.156	872.12
409.534	898.11
409.912	923.2
410.29	964.32
410.667	970.88
411.045	983.08
411.422	1006.13
411.8	1019.24
412.178	1046.13
412.555	1047.26
412.933	1039.35
413.31	1066.92
413.687	1073.93
414.065	1131.1
414.442	1147.14
414.819	1155.51
415.197	1160.48
415.574	1188.73
415.951	1202.51
416.328	1201.38
416.705	1240.48
417.082	1273.24
417.46	1282.51
417.837	1290.64
418.214	1311.89
418.591	1329.97
418.967	1333.58
419.344	1347.37
419.721	1374.03
420.098	1391.88
420.475	1392.11
420.852	1390.08
421.228	1444.99
421.605	1436.63
421.982	1452.9
422.358	1471.43
422.735	1506.46
423.111	1539.45
423.488	1541.48
423.864	1560.47
424.241	1589.39
424.617	1581.48
424.994	1635.72
425.37	1632.1
425.746	1639.34
426.123	1690.18
426.499	1664.19
426.875	1666.68
427.251	1735.38
427.627	1798.43
428.003	1777.64
428.379	1823.96
428.756	1837.52
429.132	1873.91
429.507	1882.49
429.883	1892.44
430.259	1917.52
430.635	1963.39
431.011	1995.48
431.387	2037.52
431.763	2079.78
432.138	2059.21
432.514	2115.26
432.89	2097.63
433.265	2173.56
433.641	2202.94
434.016	2213.11
434.392	2280.22
434.767	2287.68
435.143	2311.86
435.518	2351.41
435.894	2362.25
436.269	2414.91
436.644	2425.08
437.02	2492.19
437.395	2468.47
437.77	2474.57
438.145	2573.1
438.52	2606.54
438.895	2618.52
439.271	2628.46
439.646	2667.56
440.021	2702.36
440.395	2728.8
440.77	2670.04
441.145	2701.91
441.52	2769.93
441.895	2751.4
442.27	2801.34
442.645	2806.54
443.019	2849.25
443.394	2863.26
443.769	2914.33
444.143	2854.44
444.518	2943.03
444.892	2908.23
445.267	2969.92
445.641	3006.08
446.016	3053.54
446.39	3067.77
446.764	3084.27
447.139	3063.03
447.513	3135.34
447.887	3159.07
448.262	3166.98
448.636	3190.26
449.01	3234.77
449.384	3272.96
449.758	3265.28
450.132	3352.06
450.506	3332.17
450.88	3352.51
451.254	3389.35
451.628	3401.32
452.002	3451.72
452.376	3512.73
452.75	3543.01
453.123	3575.56
453.497	3638.83
453.871	3647.42
454.244	3753.18
454.618	3757.7
454.992	3790.47
455.365	3850.12
455.739	3947.98
456.112	3958.37
456.486	4021.42
456.859	3997.24
457.232	4123.79
457.606	4083.56
457.979	4173.28
458.352	4291.92
458.725	4292.15
459.099	4282.2
459.472	4400.39
459.845	4497.34
460.218	4513.38
460.591	4548.86
460.964	4572.14
461.337	4668.63
461.71	4769.87
462.083	4816.43
462.456	4824.11
462.829	4829.99
463.201	5017.78
463.574	4983.88
463.947	5048.29
464.32	5159.24
464.692	5234.04
465.065	5278.34
465.438	5338.9
465.81	5397.43
466.183	5473.36
466.555	5616.86
466.928	5625.67
467.3	5624.99
467.672	5711.77
468.045	5862.28
468.417	5903.63
468.789	5931.65
469.161	6019.33
469.534	6108.37
469.906	6277.63
470.278	6289.16
470.65	6379.78
471.022	6533.9
471.394	6604.63
471.766	6714.91
472.138	6804.17
472.51	6906.32
472.882	6987.44
473.253	7124.61
473.625	7229.7
473.997	7378.85
474.369	7437.6
474.74	7508.33
475.112	7683.7
475.484	7806.4
475.855	7946.74
476.227	8058.15
476.598	8243.46
476.97	8298.14
477.341	8523.67
477.713	8593.95
478.084	8638.02
478.455	8937.45
478.827	9001.4
479.198	9299.92
479.569	9248.85
479.94	9560.94
480.311	9646.13
480.682	9848.84
481.053	10087.25
481.424	10306
481.795	10351.87
482.166	10513.9
482.537	10687.23
482.908	10873.44
483.279	11006.32
483.65	11191.4
484.021	11447.67
484.391	11472.75
484.762	11665.06
485.133	11782.8
485.503	11938.5
485.874	12254.65
486.244	12337.59
486.615	12646.5
486.985	12767.18
487.356	12992.71
487.726	13074.29
488.097	13400.16
488.467	13405.58
488.837	13700.94
489.207	13869.07
489.578	14018.44
489.948	14214.6
490.318	14433.8
490.688	14456.63
491.058	14819.33
491.428	14909.49
491.798	15097.51
492.168	15319.88
492.538	15451.63
492.908	15634.67
493.278	15800.77
493.648	15872.63
494.017	16095.9
494.387	16253.64
494.757	16372.06
495.126	16557.59
495.496	16612.05
495.866	16641.43
496.235	16998.48
496.605	17125.03
496.974	17191.92
497.344	17403.89
497.713	17522.99
498.082	17705.81
498.452	17876.65
498.821	17967.49
499.19	18000.26
499.559	18315.51
499.928	18290.42
500.298	18463.75
500.667	18689.28
501.036	18629.17
501.405	19056.05
501.774	19035.94
502.143	19084.3
502.512	19238.19
502.88	19491.75
503.249	19433.22
503.618	19640.44
503.987	19843.83
504.356	19880.21
504.724	19967.67
505.093	20115.91
505.462	20250.15
505.83	20390.93
506.199	20556.13
506.567	20787.08
506.936	20770.58
507.304	21094.64
507.672	21168.09
508.041	21399.27
508.409	21450.79
508.777	21612.82
509.145	21825.92
509.514	21857.11
509.882	22078.8
510.25	22130.32
510.618	22401.5
510.986	22440.6
511.354	22714.26
511.722	22830.42
512.09	23041.48
512.458	23038.77
512.826	23338.88
513.193	23420.23
513.561	23556.5
513.929	23746.78
514.297	23906.09
514.664	24139.76
515.032	24265.41
515.4	24380.88
515.767	24576.36
516.135	24803.25
516.502	24622.91
516.869	25141.77
517.237	25170.24
517.604	25241.2
517.972	25581.53
518.339	25662.21
518.706	25844.35
519.073	25954.18
519.44	26118.92
519.808	26438.91
520.175	26545.35
520.542	26906.24
520.909	27032.79
521.276	27182.39
521.643	27381.03
522.009	27511.2
522.376	27767.69
522.743	27957.74
523.11	28182.82
523.477	28476.6
523.843	28669.81
524.21	28989.35
524.577	29205.62
524.943	29304.82
525.31	29499.17
525.676	29818.71
526.043	29905.48
526.409	30179.6
526.776	30382.53
527.142	30444.91
527.508	30669.98
527.874	30932.58
528.241	31127.15
528.607	31213.47
528.973	31553.35
529.339	31590.19
529.705	31986.56
530.071	32170.96
530.437	32342.03
530.803	32527.34
531.169	32621.8
531.535	32641.01
531.901	32857.95
532.267	33088.45
532.632	33329.58
532.998	33378.39
533.364	33723.69
533.73	33773.63
534.095	33935.21
534.461	34157.8
534.826	34327.74
535.192	34475.99
535.557	34713.04
535.923	34711.23
536.288	34818.12
536.653	35040.04
537.019	34951
537.384	35121.39
537.749	35375.4
538.114	35531.33
538.479	35592.79
538.845	35709.85
539.21	35760.02
539.575	35859.9
539.94	36068.26
540.305	36262.15
540.67	36264.87
541.034	36398.65
541.399	36540.56
541.764	36650.84
542.129	36859.88
542.494	36903.94
542.858	37076.82
543.223	37124.5
543.587	37470.26
543.952	37371.28
544.316	37611.5
544.681	37438.17
545.045	37678.61
545.41	37932.39
545.774	37948.66
546.138	38084.25
546.503	37984.37
546.867	38251.93
547.231	38404.24
547.595	38647.85
547.959	38677.68
548.324	38728.76
548.688	38901.86
549.052	39063.21
549.416	38973.27
549.779	39180.72
550.143	39249.19
550.507	39659.35
550.871	39641.5
551.235	39558.79
551.599	39989.29
551.962	40060.47
552.326	40215.04
552.689	40527.58
553.053	40257.76
553.417	40391.99
553.78	40896.61
554.143	40637.18
554.507	41121.91
554.87	41060.9
555.234	41430.61
555.597	41295.47
555.96	41580.66
556.323	41678.28
556.686	41773.65
557.05	42057.48
557.413	42192.17
557.776	42379.28
558.139	42457.25
558.502	42628.77
558.865	42739.27
559.228	43097.45
559.59	43162.09
559.953	43169.32
560.316	43644.78
560.679	43661.51
561.041	43905.34
561.404	44093.36
561.767	44239.8
562.129	44233.92
562.492	44755.26
562.854	44602.27
563.217	44669.16
563.579	44845.21
563.941	45110.96
564.304	45105.54
564.666	45589.59
565.028	45662.36
565.39	45646.09
565.753	46017.6
566.115	46155.23
566.477	46273.42
566.839	46454.88
567.201	46618.94
567.563	46678.38
567.925	46945.26
568.287	46955.43
568.648	46971.7
569.01	47291.47
569.372	47382.31
569.734	47401.3
570.095	47584.12
570.457	47730.78
570.819	47839.48
571.18	47792.92
571.542	48159.47
571.903	48093.26
572.265	48273.59
572.626	48508.84
572.987	48534.6
573.349	48507.03
573.71	48803.52
574.071	48765.78
574.432	48803.97
574.794	49297.29
575.155	49161.93
575.516	49123.51
575.877	49397.85
576.238	49436.5
576.599	49463.39
576.96	49533.44
577.32	49484.86
577.681	49675.59
578.042	49709.94
578.403	49751.74
578.763	49794.91
579.124	49745.87
579.485	49921.46
579.845	50026.76
580.206	50091.85
580.566	50068.57
580.927	50040.77
581.287	50263.14
581.648	50073.99
582.008	50377.49
582.368	50192.86
582.728	50310.15
583.089	50232.86
583.449	50256.14
583.809	50238.74
584.169	50326.87
584.529	50105.18
584.889	50446.87
585.249	50179.3
585.609	50094.56
585.969	50408.67
586.329	50327.77
586.688	50283.25
587.048	50401.44
587.408	50216.59
587.768	50266.53
588.127	50235.57
588.487	50312.41
588.846	50526.86
589.206	50210.94
589.565	50227.66
589.925	50457.26
590.284	50339.52
590.643	50422.69
591.003	50411.61
591.362	50620.87
591.721	50495.23
592.08	50325.29
592.44	50613.64
592.799	50554.66
593.158	50443.93
593.517	50545.17
593.876	50506.3
594.235	50434.44
594.593	50585.85
594.952	50647.09
595.311	50415.68
595.67	50599.18
596.029	50835.1
596.387	50727.08
596.746	50830.13
597.104	50648.22
597.463	50636.92
597.822	50767.76
598.18	50683.02
598.538	50645.96
598.897	50876.68
599.255	50655.45
599.613	51097.02
599.972	50858.15
600.33	50918.72
600.688	50803.24
601.046	50854.76
601.404	51012.05
601.762	51073.29
602.12	51065.15
602.478	51086.85
602.836	51177.92
603.194	50960.07
603.552	51072.16
603.91	50864.93
604.268	51186.73
604.625	51064.7
604.983	51265.15
605.341	51067.64
605.698	51271.7
606.056	51250.46
606.413	51232.38
606.771	51375.2
607.128	51499.49
607.485	51317.35
607.843	51401.87
608.2	51566.61
608.557	51515.76
608.914	51402.55
609.272	51700.39
609.629	51709.43
609.986	51835.98
610.343	51547.63
610.7	51787.62
611.057	51795.76
611.414	51772.25
611.771	51827.85
612.127	51886.15
612.484	51841.41
612.841	52009.08
613.198	51855.87
613.554	51862.87
613.911	52076.43
614.267	52135.63
614.624	52077.11
614.98	52219.47
615.337	52430.09
615.693	52209.08
616.05	52174.05
616.406	52315.74
616.762	52235.52
617.118	52170.21
617.475	52308.29
617.831	52408.4
618.187	52351.9
618.543	52424.67
618.899	52591.44
619.255	52461.28
619.611	52363.2
619.967	52582.4
620.323	52560.26
620.678	52502.86
621.034	52458.11
621.39	52522.97
621.746	52372.69
622.101	52765.45
622.457	52495.63
622.812	52548.73
623.168	52621.95
623.523	52554.38
623.879	52715.96
624.234	52487.94
624.589	52673.47
624.945	52682.97
625.3	52718.22
625.655	52611.1
626.01	52597.32
626.365	52588.96
626.72	52588.28
627.075	52574.27
627.43	52490.65
627.785	52522.74
628.14	52529.52
628.495	52498.79
628.85	52451.78
629.205	52428.96
629.559	52518.22
629.914	52415.18
630.269	52475.51
630.623	52290.66
630.978	52260.83
631.332	52407.94
631.687	52459.47
632.041	52266.7
632.396	52378.34
632.75	52113.71
633.104	52270.32
633.459	52119.14
633.813	51975.64
634.167	52065.81
634.521	52073.72
634.875	52196.42
635.229	52028.52
635.583	51935.64
635.937	51951.91
636.291	51726.38
636.645	51804.57
636.999	51681.86
637.352	51747.62
637.706	51550.57
638.06	51777.9
638.413	51726.61
638.767	51691.35
639.121	51605.03
639.474	51412.04
639.828	51394.64
640.181	51605.03
640.534	51435.31
640.888	51288.43
641.241	51270.12
641.594	51352.38
641.947	51308.09
642.301	51248.88
642.654	51231.7
643.007	51255.66
643.36	51135.44
643.713	50969.79
644.066	51079.39
644.419	50980.64
644.771	50812.73
645.124	50539.52
645.477	50548.56
645.83	50304.72
646.182	50054.33
646.535	49902.02
646.888	49932.3
647.24	49699.31
647.593	49901.12
647.945	49740.44
648.298	49473.56
648.65	49501.35
649.002	49399.66
649.355	49552.2
649.707	49582.48
650.059	49840.33
650.411	50139.53
650.763	50095.24
651.115	50482.57
651.467	50225.18
651.819	50396.25
652.171	50172.75
652.523	50094.11
652.875	50087.33
653.227	49918.52
653.578	50218.17
653.93	50014.56
654.282	49888.46
654.633	49684.4
654.985	49858.63
655.337	49851.18
655.688	49891.17
656.039	50098.63
656.391	49728.01
656.742	49848.92
657.094	49843.49
657.445	49891.63
657.796	49625.19
658.147	49694.57
658.498	49608.24
658.849	49755.36
659.2	49656.15
659.551	49576.38
659.902	49753.78
660.253	49573.22
660.604	49596.94
660.955	49342.49
661.306	49501.13
661.656	49461.13
662.007	49543.61
662.358	49465.65
662.708	49440.79
663.059	49337.97
663.409	49231.3
663.76	49445.31
664.11	49262.94
664.461	49362.37
664.811	49300.91
665.161	49288.93
665.511	49242.83
665.862	49318.08
666.212	49293.45
666.562	49367.12
666.912	49297.07
667.262	49177.97
667.612	49146.33
667.962	49146.33
668.312	49089.84
668.662	49286.67
669.011	49192.89
669.361	49062.72
669.711	49169.61
670.06	49014.81
670.41	49054.81
670.76	48982.95
671.109	49067.24
671.459	49034.47
671.808	48969.39
672.157	48979.33
672.507	48641.94
672.856	48681.71
673.205	48881.94
673.554	48893.46
673.904	48816.17
674.253	48871.31
674.602	48643.75
674.951	48153.82
675.3	48003.31
675.649	48600.36
675.998	48545.9
676.346	48531.66
676.695	48589.29
677.044	48299.13
677.393	48501.15
677.741	48516.07
678.09	48374.38
678.438	48292.35
678.787	48261.61
679.135	48342.97
679.484	48092.58
679.832	48214.83
680.181	48094.61
680.529	48142.52
680.877	48000.15
681.225	48048.96
681.573	48185
681.922	47888.51
682.27	47717.22
682.618	47842.87
682.966	47610.1
683.314	47779.37
683.661	47631.35
684.009	47402.43
684.357	47363.78
684.705	47128.08
685.053	47291.92
685.4	47223
685.748	47044.24
686.095	46981.65
686.443	46885.83
686.79	46780.3
687.138	46814.42
687.485	46757.25
687.832	46598.61
688.18	46707.53
688.527	46493.52
688.874	46468.21
689.221	46311.83
689.568	46301.89
689.915	46244.49
690.262	46211.04
690.609	45905.97
690.956	45876.82
691.303	45800.21
691.65	45711.4
691.997	45733.09
692.344	45505.75
692.69	45348.47
693.037	45473.21
693.383	45023.05
693.73	45204.74
694.077	44952.77
694.423	44977.18
694.769	44940.57
695.116	44830.52
695.462	44759.33
695.808	44568.38
696.155	44565.66
696.501	44290.42
696.847	44343.75
697.193	43944.89
697.539	44092.23
697.885	43808.85
698.231	43653.37
698.577	43673.03
698.923	43631.68
699.269	43422.19
699.614	43236.66
699.96	43071.01
700.306	43199.6
700.651	42933.84
700.997	42782.43
701.342	42970
701.688	42757.35
702.033	42700.4
702.379	42619.5
702.724	42454.08
703.069	42528.43
703.415	42106.07
703.76	42232.84
704.105	42102
704.45	42026.75
704.795	41796.47
705.14	41695.23
705.485	41675.34
705.83	41352.42
706.175	41326.43
706.52	41277.84
706.865	41196.26
707.209	41131.63
707.554	41001.92
707.899	41085.98
708.243	40780.68
708.588	40828.36
708.932	40647.8
709.277	40467.24
709.621	40455.49
709.966	40300.47
710.31	40341.37
710.654	39937.09
710.998	39974.82
711.342	40134.59
711.687	39916.3
712.031	39698.45
712.375	39679.92
712.719	39677.88
713.063	39486.93
713.407	39674.04
713.75	39407.16
714.094	39260.04
714.438	39092.36
714.782	39325.8
715.125	39168.29
715.469	39163.55
715.812	39033.15
716.156	38653.73
716.499	38758.36
716.843	38780.51
717.186	38595.88
717.53	38694.63
717.873	38638.59
718.216	38472.49
718.559	38422.55
718.902	38217.36
719.246	38076.12
719.589	38070.92
719.932	38070.24
720.275	37983.69
720.617	37855.11
720.96	37839.74
721.303	37905.73
721.646	37821.21
721.989	37565.4
722.331	37743.02
722.674	37497.6
723.016	37463.48
723.359	37415.57
723.701	37471.16
724.044	37085.64
724.386	37012.19
724.729	37136.03
725.071	36942.14
725.413	36963.38
725.755	36888.8
726.097	36716.15
726.439	36556.61
726.782	36653.78
727.124	36685.42
727.465	36470.96
727.807	36572.65
728.149	36407.23
728.491	36468.93
728.833	36464.63
729.175	36153
729.516	36201.36
729.858	36189.16
730.199	36233.91
730.541	36117.52
730.882	36044.31
731.224	36172.66
731.565	35823.52
731.906	35760.92
732.248	35876.63
732.589	35673.69
732.93	35663.53
733.271	35721.83
733.612	35674.37
733.953	35654.49
734.294	35456.07
734.635	35332.69
734.976	35323.87
735.317	35168.85
735.658	35233.48
735.999	35202.29
736.339	34979.25
736.68	35047.27
737.021	35062.86
737.361	34904.9
737.702	35012.24
738.042	34922.53
738.383	34841.17
738.723	34824.45
739.063	34702.42
739.404	34758.69
739.744	34671.46
740.084	34468.3
740.424	34592.14
740.764	34314.63
741.104	34478.25
741.444	34308.08
741.784	34217.69
742.124	34195.54
742.464	34024.92
742.804	34179.5
743.143	34020.86
743.483	34038.71
743.823	33786.29
744.162	33852.05
744.502	33887.08
744.841	33599.17
745.181	33737.93
745.52	33613.18
745.86	33669.91
746.199	33568.44
746.538	33445.28
746.877	33486.18
747.216	33488.44
747.556	33468.33
747.895	33406.18
748.234	33160.77
748.573	33140.2
748.911	33108.79
749.25	33044.61
749.589	32890.49
749.928	32888.68
750.267	32956.48
750.605	32748.12
750.944	32751.74
751.283	32457.28
751.621	32650.95
751.96	32320.56
752.298	32491.63
752.636	32282.15
752.975	32196.95
753.313	32192.2
753.651	32187.46
753.989	31988.37
754.327	31868.15
754.666	31701.6
755.004	31879.67
755.342	31913.12
755.679	31701.6
756.017	31670.41
756.355	31632.45
756.693	31394.26
757.031	31676.51
757.368	31189.52
757.706	31246.01
758.044	31215.28
758.381	31086.47
758.719	31013.93
759.056	30905.23
759.394	30775.07
759.731	30666.14
760.068	30587.5
760.405	30534.85
760.743	30370.78
761.08	30469.31
761.417	30235.65
761.754	30208.3
762.091	30127.4
762.428	30141.18
762.765	29840.18
763.102	30042.88
763.438	29806.05
763.775	29641.54
764.112	29554.31
764.449	29482.67
764.785	29453.97
765.122	29155.67
765.458	29110.25
765.795	29113.64
766.131	29072.29
766.467	28995.23
766.804	28796.36
767.14	28592.75
767.476	28694.67
767.812	28556.59
768.148	28573.32
768.485	28457.61
768.821	28256.71
769.157	28234.79
769.492	28143.05
769.828	28060.11
770.164	27887.23
770.5	27885.2
770.836	27674.36
771.171	27520.24
771.507	27501.48
771.842	27241.37
772.178	27356.4
772.513	27129.51
772.849	27144.88
773.184	26978.1
773.519	26942.17
773.855	26846.36
774.19	26722.29
774.525	26627.83
774.86	26573.6
775.195	26556.65
775.53	26553.71
775.865	26235.75
776.2	26104.23
776.535	25963.89
776.87	25988.3
777.205	25717.12
777.539	25678.25
777.874	25836.21
778.209	25472.83
778.543	25444.59
778.878	25323.01
779.212	25237.58
779.547	25153.29
779.881	25313.97
780.215	25034.43
780.55	24982.22
780.884	24800.76
781.218	24723.93
781.552	24736.36
781.886	24573.42
782.22	24497.04
782.554	24401.67
782.888	24227.44
783.222	24146.77
783.556	23971.18
783.889	23966.21
784.223	23807.79
784.557	23849.37
784.89	23833.78
785.224	23615.71
785.557	23645.54
785.891	23548.14
786.224	23452.1
786.558	23373
786.891	23139.79
787.224	23049.17
787.557	23040.81
787.891	23043.52
788.224	22930.98
788.557	22777.54
788.89	22854.82
789.223	22763.53
789.556	22556.07
789.888	22519.24
790.221	22483.08
790.554	22278.57
790.887	22248.51
791.219	22274.95
791.552	22071.57
791.884	22058.69
792.217	22019.14
792.549	21833.38
792.882	21793.16
793.214	21615.53
793.546	21731.69
793.879	21523.78
794.211	21418.25
794.543	21511.36
794.875	21478.14
795.207	21436.55
795.539	21228.42
795.871	21189.56
796.203	21069.33
796.535	20987.08
796.867	20900.07
797.198	20912.5
797.53	20792.73
797.862	20747.76
798.193	20741.88
798.525	20567.2
798.856	20643.81
799.188	20382.12
799.519	20402.91
799.85	20250.15
800.182	20340.76
800.513	20140.32
800.844	20084.27
801.175	20105.52
801.506	20189.36
801.837	19945.75
802.168	20021.9
802.499	19912.3
802.83	19754.79
803.161	19654.23
803.491	19651.97
803.822	19563.16
804.153	19475.25
804.483	19348.47
804.814	19310.06
805.145	19289.72
805.475	19275.48
805.805	19195.26
806.136	19250.85
806.466	19255.37
806.796	19161.13
807.126	19013.57
807.457	18947.81
807.787	18947.58
808.117	18924.08
808.447	18763.86
808.777	18778.32
809.107	18718.66
809.436	18510.08
809.766	18682.73
810.096	18531.09
810.426	18456.52
810.755	18496.97
811.085	18457.65
811.414	18440.48
811.744	18189.41
812.073	18213.59
812.403	18165
812.732	18076.87
813.061	18166.13
813.39	17993.48
813.719	17943.54
814.049	18078.68
814.378	17927.04
814.707	17819.25
815.036	17839.59
815.365	17677.56
815.693	17573.61
816.022	17626.26
816.351	17561.63
816.68	17445.93
817.008	17544.45
817.337	17277.57
817.665	17324.35
817.994	17361.18
818.322	17335.19
818.651	17295.42
818.979	17097.01
819.307	17257.68
819.636	17185.14
819.964	17086.84
820.292	17122.09
820.62	17149.44
820.948	17045.71
821.276	17115.09
821.604	17008.65
821.932	17118.48
822.259	17081.87
822.587	17056.56
822.915	16946.5
823.243	17025.37
823.57	16895.88
823.898	16864.25
824.225	16911.93
824.553	16935.66
824.88	16981.53
825.207	16971.36
825.535	16982.66
825.862	16878.48
826.189	16815.89
826.516	16977.24
826.843	17041.64
827.17	17020.17
827.497	17026.73
827.824	16941.76
828.151	17022.21
828.478	16969.1
828.805	17040.06
829.131	16928.65
829.458	16756.68
829.785	16734.76
830.111	16800.52
830.438	16860.86
830.764	16819.5
831.09	16805.26
831.417	16729.33
831.743	16877.13
832.069	16838.03
832.395	16690.69
832.722	16774.98
833.048	16772.72
833.374	16793.06
833.7	16740.18
834.026	16655.21
834.351	16744.7
834.677	16702.44
835.003	16636.68
835.329	16623.8
835.654	16670.35
835.98	16588.09
836.306	16572.95
836.631	16419.74
836.956	16576.34
837.282	16497.25
837.607	16475.1
837.932	16382.9
838.258	16383.81
838.583	16327.08
838.908	16258.61
839.233	16336.8
839.558	16228.33
839.883	16191.5
840.208	16147.43
840.533	16128.45
840.858	16083.93
841.182	16065.4
841.507	16119.18
841.832	16080.99
842.156	16050.93
842.481	15900.66
842.805	16000.31
843.13	15857.27
843.454	15793.54
843.778	15776.82
844.103	15818.17
844.427	15661.57
844.751	15776.82
845.075	15668.12
845.399	15652.3
845.723	15531.4
846.047	15585.41
846.371	15424.96
846.695	15458.18
847.019	15329.37
847.343	15310.61
847.666	15128.92
847.99	15073.78
848.313	15132.31
848.637	14997.18
848.96	14975.48
849.284	14939.1
849.607	14817.75
849.931	14825.88
850.254	14705.21
850.577	14601.48
850.9	14530.75
851.223	14551.99
851.546	14385.44
851.869	14276.07
852.192	14385.89
852.515	14277.2
852.838	14132.79
853.161	14117.88
853.483	14108.84
853.806	14028.84
854.129	14033.59
854.451	13881.5
854.774	13891.67
855.096	13778.23
855.419	13843.76
855.741	13830.65
856.063	13686.93
856.385	13755.63
856.708	13660.94
857.03	13662.75
857.352	13608.74
857.674	13490.32
857.996	13406.94
858.318	13463.43
858.64	13423.21
858.961	13362.87
859.283	13286.03
859.605	13277.9
859.926	13352.25
860.248	13323.32
860.57	13212.82
860.891	13222.99
861.212	13138.24
861.534	13130.78
861.855	13072.71
862.176	13041.75
862.498	13072.26
862.819	13010.56
863.14	12975.76
863.461	12892.15
863.782	12835.88
864.103	12899.6
864.424	12894.41
864.745	12947.51
865.065	12819.38
865.386	12794.3
865.707	12770.34
866.027	12738.25
866.348	12723.79
866.668	12663.68
866.989	12639.27
867.309	12507.3
867.63	12642.66
867.95	12540.07
868.27	12444.02
868.59	12450.35
868.91	12453.97
869.23	12428.2
869.55	12337.36
869.87	12444.93
870.19	12427.53
870.51	12405.15
870.83	12401.09
871.15	12270.47
871.469	12305.04
871.789	12314.08
872.109	12365.38
872.428	12178.72
872.748	12258.94
873.067	12257.81
873.386	12212.84
873.706	12200.64
874.025	12119.74
874.344	12028.44
874.663	12107.31
874.982	11994.32
875.301	12072.28
875.62	12050.36
875.939	11898.95
876.258	12025.28
876.577	11931.27
876.896	11933.08
877.214	11899.86
877.533	11877.94
877.852	11928.1
878.17	11867.32
878.489	11931.04
878.807	11866.86
879.125	11755.45
879.444	11833.87
879.762	11687.21
880.08	11722.01
880.398	11717.26
880.716	11806.98
881.034	11676.59
881.352	11654.67
881.67	11677.04
881.988	11629.58
882.306	11629.81
882.624	11551.17
882.941	11543.48
883.259	11585.06
883.577	11432.07
883.894	11391.85
884.212	11423.94
884.529	11408.8
884.846	11351.4
885.164	11436.37
885.481	11288.35
885.798	11440.66
886.115	11338.06
886.432	11242.47
886.75	11211.51
887.067	11227.11
887.383	11155.7
887.7	11233.43
888.017	11133.32
888.334	11128.35
888.651	11059.65
888.967	11078.86
889.284	10991.63
889.6	10998.64
889.917	10941.69
890.233	10951.86
890.55	10868.47
890.866	10856.27
891.182	10929.03
891.498	10769.49
891.815	10748.7
892.131	10733.33
892.447	10735.59
892.763	10596.39
893.079	10682.26
893.395	10571.08
893.71	10598.87
894.026	10475.71
894.342	10445.21
894.657	10432.32
894.973	10429.61
895.289	10422.38
895.604	10424.19
895.92	10310.75
896.235	10253.35
896.55	10278.43
896.865	10306.23
897.181	10236.4
897.496	10173.57
897.811	10173.12
898.126	10126.8
898.441	10098.1
898.756	10016.29
899.071	9928.16
899.386	9917.76
899.7	9983.3
900.015	9869.85
900.33	9704.89
900.644	9768.39
900.959	9801.15
901.273	9772.45
901.588	9656.75
901.902	9675.06
902.216	9629.63
902.531	9631.67
902.845	9581.05
903.159	9499.69
903.473	9471.45
903.787	9495.63
904.101	9390.09
904.415	9377.66
904.729	9435.74
905.042	9357.55
905.356	9286.37
905.67	9264.67
905.984	9312.81
906.297	9200.49
906.611	9129.99
906.924	9086.15
907.237	9137.22
907.551	9039.82
907.864	9000.72
908.177	8975.19
908.491	8935.19
908.804	8897.68
909.117	8856.55
909.43	8797.11
909.743	8822.2
910.056	8758.24
910.368	8761.41
910.681	8703.78
910.994	8672.82
911.307	8603.67
911.619	8525.93
911.932	8566.38
912.244	8493.62
912.557	8542.66
912.869	8464.69
913.181	8362.1
913.494	8378.37
913.806	8281.42
914.118	8297.01
914.43	8236.68
914.742	8225.15
915.054	8176.11
915.366	8160.75
915.678	8184.93
915.99	8110.58
916.302	8085.72
916.613	7931.37
916.925	7998.04
917.236	7956.68
917.548	7943.12
917.859	7944.03
918.171	7896.57
918.482	7856.57
918.794	7808.66
919.105	7782.9
919.416	7808.89
919.727	7714.88
920.038	7643.92
920.349	7689.35
920.66	7616.58
920.971	7618.61
921.282	7584.94
921.593	7498.62
921.903	7453.87
922.214	7409.81
922.525	7380.88
922.835	7370.48
923.146	7362.35
923.456	7317.15
923.767	7302.69
924.077	7263.59
924.387	7278.74
924.697	7222.01
925.008	7198.29
925.318	7171.39
925.628	7078.29
925.938	7107.21
926.248	6996.93
926.558	6950.83
926.867	6954
927.177	6917.39
927.487	6866.32
927.796	6846.2
928.106	6882.36
928.416	6851.18
928.725	6808.01
929.034	6744.29
929.344	6741.57
929.653	6747
929.962	6644.63
930.271	6604.85
930.581	6621.13
930.89	6599.66
931.199	6589.94
931.508	6554.91
931.817	6482.6
932.125	6457.29
932.434	6484.18
932.743	6454.12
933.051	6433.11
933.36	6392.88
933.669	6347.23
933.977	6311.08
934.286	6275.37
934.594	6274.69
934.902	6249.84
935.21	6161.25
935.519	6150.86
935.827	6127.8
936.135	6111.08
936.443	6081.48
936.751	6056.85
937.059	6011.65
937.367	6007.13
937.674	6034.7
937.982	5962.61
938.29	5893.69
938.597	5938.66
938.905	5882.39
939.213	5842.16
939.52	5803.07
939.827	5857.53
940.135	5759.68
940.442	5803.75
940.749	5765.55
941.056	5712.22
941.363	5640.59
941.67	5659.57
941.977	5609.4
942.284	5566.24
942.591	5571.21
942.898	5620.02
943.205	5604.43
943.511	5535.96
943.818	5467.26
944.125	5443.53
944.431	5414.83
944.738	5454.83
945.044	5448.73
945.35	5364.89
945.657	5378.9
945.963	5355.62
946.269	5333.93
946.575	5350.65
946.881	5207.15
947.187	5265
947.493	5220.71
947.799	5221.84
948.105	5155.4
948.41	5128.06
948.716	5135.74
949.022	5152.92
949.327	5075.18
949.633	5039.02
949.938	5040.38
950.244	5027.95
950.549	4974.16
950.854	4958.8
951.16	4966.48
951.465	4930.55
951.77	4942.3
952.075	4888.52
952.38	4854.84
952.685	4841.74
952.99	4811.68
953.294	4836.54
953.599	4721.29
953.904	4741.63
954.209	4714.96
954.513	4740.72
954.818	4695.07
955.122	4684.45
955.426	4686.49
955.731	4649.88
956.035	4586.38
956.339	4600.39
956.643	4623.44
956.948	4544.57
957.252	4547.73
957.556	4474.97
957.86	4476.1
958.163	4456.44
958.467	4413.95
958.771	4445.59
959.075	4427.96
959.378	4374.18
959.682	4382.09
959.985	4326.27
960.289	4324.91
960.592	4278.59
960.896	4296.67
961.199	4316.55
961.502	4260.96
961.805	4246.72
962.108	4198.14
962.411	4146.61
962.714	4171.47
963.017	4163.11
963.32	4169.89
963.623	4162.21
963.926	4082.21
964.228	4073.62
964.531	4122.43
964.833	4085.15
965.136	4049.44
965.438	3999.5
965.741	3998.37
966.043	3979.39
966.345	3972.38
966.648	3947.3
966.95	3955.43
967.252	3934.19
967.554	3895.1
967.856	3920.41
968.158	3887.19
968.46	3870.69
968.761	3865.49
969.063	3814.87
969.365	3810.13
969.666	3764.93
969.968	3747.75
970.269	3707.98
970.571	3714.54
970.872	3707.3
971.174	3707.76
971.475	3682.67
971.776	3693.97
972.077	3677.93
972.378	3675.21
972.679	3647.64
972.98	3621.88
973.281	3579.4
973.582	3569
973.883	3580.98
974.183	3580.98
974.484	3562.45
974.785	3516.57
975.085	3548.66
975.386	3507.31
975.686	3473.64
975.986	3439.74
976.287	3461.21
976.587	3405.16
976.887	3379.18
977.187	3434.54
977.487	3392.06
977.787	3316.58
978.087	3360.87
978.387	3336.01
978.687	3318.16
978.987	3298.95
979.286	3296.24
979.586	3266.64
979.885	3257.15
980.185	3242.68
980.484	3227.99
980.784	3250.14
981.083	3187.32
981.382	3165.62
981.682	3190.03
981.981	3152.74
982.28	3156.81
982.579	3120.2
982.878	3147.32
983.177	3099.18
983.475	3094.44
983.774	3077.26
984.073	3051.95
984.372	3022.35
984.67	3039.3
984.969	3029.81
985.267	3053.99
985.566	3001.33
985.864	3012.18
986.162	3000.43
986.461	2966.31
986.759	2962.24
987.057	2945.06
987.355	2938.74
987.653	2894.44
987.951	2899.19
988.249	2897.38
988.547	2869.59
988.844	2840.66
989.142	2825.29
989.44	2866.65
989.737	2813.09
990.035	2810.15
990.332	2811.96
990.63	2751.62
990.927	2767.89
991.224	2741
991.521	2731.51
991.819	2731.51
992.116	2725.18
992.413	2726.09
992.71	2669.82
993.006	2650.38
993.303	2637.73
993.6	2642.25
993.897	2623.94
994.193	2592.76
994.49	2612.42
994.787	2617.39
995.083	2554.34
995.379	2551.85
995.676	2524.28
995.972	2504.4
996.268	2542.59
996.565	2502.59
996.861	2508.69
997.157	2496.49
997.453	2465.53
997.749	2468.47
998.044	2470.5
998.34	2432.08
998.636	2417.39
998.932	2385.3
999.227	2410.84
999.523	2414.46
999.818	2364.74
1000.114	2351.41
1000.409	2352.99
1000.704	2319.54
1001	2322.48
1001.295	2319.54
1001.59	2282.26
1001.885	2288.58
1002.18	2262.82
1002.475	2253.56
1002.77	2268.47
1003.065	2209.49
1003.359	2238.19
1003.654	2182.82
1003.949	2206.33
1004.243	2173.33
1004.538	2190.73
1004.832	2159.32
1005.127	2178.3
1005.421	2134.69
1005.715	2157.97
1006.009	2130.17
1006.304	2096.27
1006.598	2104.86
1006.892	2060.34
1007.186	2080.68
1007.48	2071.19
1007.773	2063.05
1008.067	2064.18
1008.361	2037.29
1008.655	1966.11
1008.948	2014.92
1009.242	1977.86
1009.535	1960
1009.829	1960.46
1010.122	1937.18
1010.415	1951.42
1010.708	1920.01
1011.001	1918.65
1011.295	1923.85
1011.588	1894.02
1011.881	1897.18
1012.173	1873.23
1012.466	1862.15
1012.759	1866.45
1013.052	1854.47
1013.344	1825.09
1013.637	1807.01
1013.93	1833.23
1014.222	1795.49
1014.514	1765.89
1014.807	1740.8
1015.099	1763.63
1015.391	1776.05
1015.683	1760.91
1015.976	1727.47
1016.268	1720.69
1016.56	1708.71
1016.851	1691.99
1017.143	1684.08
1017.435	1672.55
1017.727	1669.84
1018.018	1673.23
1018.31	1646.57
1018.602	1644.98
1018.893	1615.38
1019.185	1604.76
1019.476	1615.38
1019.767	1623.74
1020.058	1578.77
1020.35	1584.87
1020.641	1575.16
1020.932	1548.26
1021.223	1532.67
1021.514	1551.65
1021.804	1536.29
1022.095	1508.27
1022.386	1504.42
1022.677	1474.37
1022.967	1487.02
1023.258	1480.7
1023.548	1443.86
1023.839	1484.09
1024.129	1470.53
1024.419	1426.23
1024.709	1439.11
1025	1404.99
1025.29	1410.41
1025.58	1426.01
1025.87	1405.22
1026.16	1407.03
1026.449	1373.13
1026.739	1357.31
1027.029	1346.46
1027.319	1333.81
1027.608	1346.91
1027.898	1336.74
1028.187	1354.15
1028.477	1312.79
1028.766	1332.45
1029.055	1278.89
1029.344	1298.78
1029.634	1292.23
1029.923	1250.65
1030.212	1280.47
1030.501	1249.74
1030.79	1250.87
1031.078	1251.55
1031.367	1224.66
1031.656	1226.01
1031.945	1200.7
1032.233	1182.4
1032.522	1174.71
1032.81	1184.43
1033.099	1166.35
1033.387	1168.61
1033.675	1161.38
1033.963	1132.46
1034.251	1149.4
1034.54	1147.82
1034.828	1125.45
1035.116	1120.48
1035.403	1126.81
1035.691	1108.95
1035.979	1093.14
1036.267	1125
1036.554	1098.33
1036.842	1101.72
1037.129	1082.06
1037.417	1062.4
1037.704	1065.34
1037.992	1080.03
1038.279	1060.82
1038.566	1041.84
1038.853	1041.84
1039.14	1041.84
