Data from breadboard_black_back_FLMS001491_00004.txt Node
Date: Wed Feb 08 10:49:51 GMT 2017
User: dcchb
Spectrometer: FLMS00149
Trigger mode: 0
Integration Time (sec): 2.000000E-2
Scans to average: 10
Electric dark correction enabled: true
Nonlinearity correction enabled: false
Boxcar width: 0
XAxis mode: Wavelengths
Number of Pixels in Spectrum: 2048
>>>>>Begin Spectral Data<<<<<
341.393	-23.53
341.776	-23.53
342.16	-23.53
342.543	-54.94
342.927	-56.3
343.31	-42.74
343.693	-63.3
344.077	-61.72
344.46	-65.56
344.843	-47.71
345.226	-45.22
345.61	-46.35
345.993	-14.49
346.376	-3.19
346.759	-7.71
347.142	22.57
347.525	38.16
347.908	51.27
348.291	86.07
348.674	98.5
349.057	101.44
349.44	103.7
349.823	159.06
350.206	162.45
350.588	226.18
350.971	223.92
351.354	222.56
351.737	231.38
352.119	260.98
352.502	245.84
352.884	273.64
353.267	300.3
353.65	288.55
354.032	295.78
354.414	302.56
354.797	319.96
355.179	317.48
355.562	322.22
355.944	318.38
356.326	326.97
356.709	355.89
357.091	344.14
357.473	320.42
357.855	353.41
358.238	351.15
358.62	329
359.002	352.96
359.384	345.05
359.766	362.9
360.148	345.95
360.53	349.34
360.912	359.96
361.294	331.49
361.676	336.69
362.057	339.62
362.439	330.81
362.821	361.54
363.203	331.94
363.584	322.22
363.966	336.46
364.348	327.42
364.729	339.85
365.111	355.89
365.493	338.04
365.874	332.84
366.256	338.72
366.637	336.91
367.019	335.33
367.4	348.89
367.781	338.72
368.163	333.52
368.544	328.32
368.925	357.25
369.306	355.89
369.688	334.88
370.069	335.78
370.45	333.52
370.831	348.66
371.212	349.79
371.593	357.48
371.974	357.02
372.355	340.98
372.736	345.27
373.117	353.86
373.498	354.31
373.879	339.17
374.26	350.47
374.641	343.92
375.021	366.74
375.402	355.44
375.783	352.28
376.163	382.79
376.544	387.31
376.925	365.84
377.305	371.94
377.686	375.33
378.066	368.55
378.447	372.62
378.827	378.49
379.208	388.89
379.588	380.07
379.968	379.17
380.349	380.75
380.729	380.3
381.109	391.37
381.489	406.29
381.87	375.33
382.25	416.91
382.63	406.06
383.01	398.61
383.39	399.06
383.77	396.35
384.15	406.06
384.53	421.88
384.91	431.37
385.29	414.42
385.67	414.42
386.049	435.89
386.429	431.6
386.809	437.25
387.189	450.58
387.568	440.64
387.948	455.78
388.328	461.2
388.707	443.8
389.087	457.59
389.466	489
389.846	459.85
390.225	460.07
390.605	461.65
390.984	458.94
391.363	481.99
391.743	483.8
392.122	482.44
392.501	476.57
392.881	505.04
393.26	488.32
393.639	504.59
394.018	501.88
394.397	515.66
394.776	506.63
395.155	514.08
395.534	534.42
395.913	526.96
396.292	546.4
396.671	529.9
397.05	517.92
397.429	534.19
397.808	564.7
398.186	531.71
398.565	547.98
398.944	566.96
399.323	550.92
399.701	566.96
400.08	556.34
400.458	568.54
400.837	573.06
401.215	578.04
401.594	573.52
401.972	596.57
402.351	590.24
402.729	621.2
403.107	597.24
403.486	613.29
403.864	610.8
404.242	589.79
404.62	625.72
404.999	617.36
405.377	663.46
405.755	669.33
406.133	627.75
406.511	665.94
406.889	660.52
407.267	660.29
407.645	661.42
408.023	692.83
408.401	689.45
408.779	681.08
409.156	694.42
409.534	716.34
409.912	710.01
410.29	743.91
410.667	743.46
411.045	755.43
411.422	735.55
411.8	781.42
412.178	781.42
412.555	778.48
412.933	784.36
413.31	802.44
413.687	849.21
414.065	806.5
414.442	814.41
414.819	842.66
415.197	843.11
415.574	839.27
415.951	854.19
416.328	863
416.705	879.72
417.082	878.82
417.46	901.42
417.837	898.71
418.214	912.94
418.591	919.04
418.967	940.06
419.344	940.74
419.721	931.7
420.098	966.73
420.475	956.1
420.852	977.12
421.228	995.88
421.605	980.96
421.982	993.62
422.358	1028.65
422.735	1014.86
423.111	1013.05
423.488	1056.22
423.864	1052.15
424.241	1066.38
424.617	1075.65
424.994	1041.98
425.37	1054.63
425.746	1088.3
426.123	1104.12
426.499	1092.6
426.875	1142.99
427.251	1154.97
427.627	1156.33
428.003	1152.03
428.379	1192.71
428.756	1170.56
429.132	1222.76
429.507	1211.92
429.883	1256.44
430.259	1276.1
430.635	1268.41
431.011	1255.53
431.387	1323.78
431.763	1343.67
432.138	1319.94
432.514	1363.55
432.89	1368.52
433.265	1410.78
433.641	1387.96
434.016	1398.35
434.392	1442.42
434.767	1453.49
435.143	1453.94
435.518	1470.89
435.894	1531.68
436.269	1496.43
436.644	1531
437.02	1561.74
437.395	1534.62
437.77	1568.52
438.145	1578.69
438.52	1612.13
438.895	1635.18
439.271	1635.18
439.646	1689.19
440.021	1662.07
440.395	1681.96
440.77	1674.05
441.145	1702.53
441.52	1731
441.895	1731
442.27	1750.89
442.645	1748.17
443.019	1773.03
443.394	1788.4
443.769	1801.05
444.143	1788.4
444.518	1825.46
444.892	1837.66
445.267	1825.69
445.641	1867.27
446.016	1845.8
446.39	1917.89
446.764	1882.18
447.139	1873.14
447.513	1903.2
447.887	1923.31
448.262	1942.75
448.636	1955.4
449.01	1963.99
449.384	1978.45
449.758	2037.21
450.132	2022.07
450.506	2060.93
450.88	2026.59
451.254	2040.14
451.628	2078.56
452.002	2130.09
452.376	2164.89
452.75	2153.59
453.123	2177.09
453.497	2226.58
453.871	2203.98
454.244	2276.97
454.618	2244.43
454.992	2317.65
455.365	2304.77
455.739	2349.97
456.112	2395.39
456.486	2417.54
456.859	2455.27
457.232	2493.47
457.606	2500.7
457.979	2494.37
458.352	2536.63
458.725	2575.05
459.099	2638.77
459.472	2688.71
459.845	2658.43
460.218	2685.55
460.591	2724.87
460.964	2760.13
461.337	2793.12
461.71	2831.31
462.083	2907.24
462.456	2930.06
462.829	2937.97
463.201	3031.53
463.574	3003.96
463.947	3034.69
464.32	3114.47
464.692	3088.93
465.065	3130.74
465.438	3180
465.81	3211.19
466.183	3255.25
466.555	3375.02
466.928	3339.32
467.3	3372.31
467.672	3402.14
468.045	3521.91
468.417	3490.73
468.789	3540.67
469.161	3603.49
469.534	3657.28
469.906	3731.17
470.278	3750.61
470.65	3827.67
471.022	3863.37
471.394	3937.04
471.766	4005.06
472.138	4020.21
472.51	4109.92
472.882	4178.84
473.253	4206.64
473.625	4229.92
473.997	4359.41
474.369	4400.08
474.74	4434.88
475.112	4454.32
475.484	4615.9
475.855	4650.7
476.227	4684.59
476.598	4835.55
476.97	4833.97
477.341	4943.34
477.713	5062.66
478.084	5056.79
478.455	5233.51
478.827	5209.78
479.198	5458.13
479.569	5398.93
479.94	5533.16
480.311	5618.81
480.682	5741.52
481.053	5860.83
481.424	5921.85
481.795	6019.47
482.166	6157.78
482.537	6188.28
482.908	6348.05
483.279	6369.97
483.65	6497.2
484.021	6648.16
484.391	6736.29
484.762	6752.79
485.133	6863.75
485.503	6900.36
485.874	7121.82
486.244	7196.17
486.615	7302.38
486.985	7439.1
487.356	7507.57
487.726	7567.23
488.097	7755.02
488.467	7775.36
488.837	7963.6
489.207	8007.44
489.578	8138.29
489.948	8200.89
490.318	8323.37
490.688	8338.51
491.058	8470.26
491.428	8622.8
491.798	8674.32
492.168	8867.54
492.538	8870.92
492.908	8972.62
493.278	9135.1
493.648	9150.92
494.017	9265.94
494.387	9392.95
494.757	9449.44
495.126	9524.24
495.496	9605.14
495.866	9665.71
496.235	9770.11
496.605	9862.09
496.974	9902.54
497.344	10031.12
497.713	10106.82
498.082	10260.49
498.452	10295.75
498.821	10368.51
499.19	10305.24
499.559	10478.11
499.928	10555.17
500.298	10535.29
500.667	10742.29
501.036	10736.41
501.405	10860.25
501.774	10803.98
502.143	10938.44
502.512	10992.45
502.88	11161.03
503.249	11120.81
503.618	11183.18
503.987	11317.87
504.356	11377.75
504.724	11416.39
505.093	11497.52
505.462	11583.62
505.83	11716.05
506.199	11741.13
506.567	11876.95
506.936	11998.3
507.304	12069.26
507.672	12189.26
508.041	12146.09
508.409	12321
508.777	12431.51
509.145	12516.25
509.514	12536.59
509.882	12615.46
510.25	12729.13
510.618	12769.58
510.986	12841.67
511.354	12978.39
511.722	13130.47
512.09	13230.36
512.458	13208.44
512.826	13414.31
513.193	13342.67
513.561	13477.36
513.929	13523.68
514.297	13722.1
514.664	13869.44
515.032	13915.31
515.4	14024.01
515.767	14101.75
516.135	14140.62
516.502	14127.51
516.869	14417.22
517.237	14380.61
517.604	14490.44
517.972	14758.45
518.339	14861.5
518.706	14842.29
519.073	14970.2
519.44	14962.52
519.808	15237.31
520.175	15178.78
520.542	15350.53
520.909	15462.16
521.276	15514.82
521.643	15708.94
522.009	15821.48
522.376	15839.33
522.743	16053.11
523.11	16247.91
523.477	16293.78
523.843	16542.36
524.21	16600.44
524.577	16763.37
524.943	16877.27
525.31	16898.51
525.676	17015.12
526.043	17198.62
526.409	17284.94
526.776	17552.73
527.142	17411.72
527.508	17710.92
527.874	17836.34
528.241	17864.13
528.607	17964.02
528.973	18234.75
529.339	18151.13
529.705	18385.03
530.071	18531.01
530.437	18628.63
530.803	18747.28
531.169	18853.49
531.535	18809.65
531.901	18975.52
532.267	19075.18
532.632	19264.1
532.998	19250.99
533.364	19366.02
533.73	19490.98
534.095	19587.25
534.461	19668.61
534.826	19715.39
535.192	19814.37
535.557	19932.78
535.923	19953.12
536.288	20112.89
536.653	20126.45
537.019	20084.64
537.384	20321.25
537.749	20425.42
538.114	20470.62
538.479	20519.43
538.845	20709.26
539.21	20575.93
539.575	20678.52
539.94	20747
540.305	20912.64
540.67	20872.42
541.034	21017.95
541.399	21142.69
541.764	21165.97
542.129	21238.74
542.494	21311.73
542.858	21463.59
543.223	21456.36
543.587	21583.81
543.952	21520.31
544.316	21692.28
544.681	21684.6
545.045	21794.65
545.41	21935.21
545.774	22010.92
546.138	21975.89
546.503	22154.19
546.867	22167.52
547.231	22391.7
547.595	22384.92
547.959	22451.58
548.324	22494.75
548.688	22535.88
549.052	22617
549.416	22711.69
549.779	22745.36
550.143	22837.56
550.507	22955.75
550.871	23139.48
551.235	23055.86
551.599	23242.75
551.962	23240.72
552.326	23429.86
552.689	23563.65
553.053	23338.12
553.417	23523.65
553.78	23695.62
554.143	23654.49
554.507	23943.07
554.87	23976.06
555.234	24165.66
555.597	24062.84
555.96	24257.64
556.323	24223.97
556.686	24317.98
557.05	24628.48
557.413	24541.7
557.776	24713.67
558.139	24812.88
558.502	24980.11
558.865	24981.01
559.228	25148.24
559.59	25319.53
559.953	25319.53
560.316	25640.2
560.679	25552.75
561.041	25773.98
561.404	25928.1
561.767	26037.25
562.129	25891.27
562.492	26204.48
562.854	26189.79
563.217	26209.9
563.579	26447.19
563.941	26487.41
564.304	26691.25
564.666	26848.31
565.028	26910.68
565.39	27037.45
565.753	27107.28
566.115	27336.65
566.477	27358.35
566.839	27420.49
567.201	27577.55
567.563	27586.59
567.925	27877.2
568.287	27821.39
568.648	27869.52
569.01	28158.1
569.372	28266.35
569.734	28165.11
570.095	28348.38
570.457	28393.58
570.819	28636.28
571.18	28599.9
571.542	28734.13
571.903	28677.86
572.265	29019.32
572.626	28890.74
572.987	29090.51
573.349	29185.65
573.71	29291.4
574.071	29393.78
574.432	29416.15
574.794	29520.1
575.155	29652.07
575.516	29516.48
575.877	29632.86
576.238	29816.81
576.599	29795.35
576.96	29871.05
577.32	29908.11
577.681	29998.28
578.042	30008.22
578.403	30119.18
578.763	30071.27
579.124	30079.41
579.485	30276.46
579.845	30388.33
580.206	30239.18
580.566	30370.92
580.927	30349.91
581.287	30504.93
581.648	30356.01
582.008	30472.84
582.368	30359.4
582.728	30510.36
583.089	30454.09
583.449	30456.12
583.809	30464.48
584.169	30588.32
584.529	30560.07
584.889	30810.46
585.249	30537.93
585.609	30493.18
585.969	30766.85
586.329	30556.91
586.688	30624.48
587.048	30602.33
587.408	30583.12
587.768	30636.68
588.127	30536.8
588.487	30464.71
588.846	30785.6
589.206	30640.97
589.565	30623.8
589.925	30895.43
590.284	30758.03
590.643	30727.07
591.003	30871.7
591.362	30857.92
591.721	30783.57
592.08	30832.16
592.44	30925.71
592.799	30969.78
593.158	30849.56
593.517	30883.23
593.876	30972.94
594.235	30870.12
594.593	30802.1
594.952	31014.3
595.311	30864.7
595.67	30888.65
596.029	31174.29
596.387	31130.9
596.746	31234.18
597.104	31036.67
597.463	31005.26
597.822	31222.65
598.18	31049.55
598.538	31057.91
598.897	31245.03
599.255	30988.08
599.613	31426.94
599.972	31203.9
600.33	31280.96
600.688	31132.71
601.046	31271.24
601.404	31546.71
601.762	31401.18
602.12	31400.05
602.478	31494.51
602.836	31582.19
603.194	31472.14
603.552	31481.86
603.91	31356.89
604.268	31538.13
604.625	31489.09
604.983	31591.23
605.341	31438.69
605.698	31562.31
606.056	31669.87
606.413	31599.37
606.771	31753.94
607.128	31836.87
607.485	31740.83
607.843	31769.98
608.2	31926.36
608.557	32011.79
608.914	31943.54
609.272	31994.16
609.629	32222.85
609.986	32197.54
610.343	32042.29
610.7	32222.18
611.057	32238.45
611.414	32043.87
611.771	32239.8
612.127	32363.41
612.484	32201.61
612.841	32434.15
613.198	32280.7
613.554	32377.88
613.911	32579.45
614.267	32502.85
614.624	32484.99
614.98	32574.71
615.337	32746.68
615.693	32710.3
616.05	32579.91
616.406	32800.69
616.762	32622.84
617.118	32556.86
617.475	32671.2
617.831	32824.87
618.187	32861.71
618.543	32930.41
618.899	32912.78
619.255	32912.78
619.611	32823.97
619.967	33104.41
620.323	33116.39
620.678	32862.38
621.034	32936.05
621.39	32957.3
621.746	32910.97
622.101	33119.78
622.457	32870.52
622.812	33056.05
623.168	33263.5
623.523	32916.85
623.879	33244.97
624.234	32988.26
624.589	33037.07
624.945	33130.85
625.3	33113.45
625.655	33061.25
626.01	33172.21
626.365	33059.67
626.72	33145.09
627.075	33048.14
627.43	32976.05
627.785	33084.75
628.14	33057.41
628.495	33010.63
628.85	32952.55
629.205	33114.58
629.559	32997.75
629.914	32880.24
630.269	32897.19
630.623	32884.98
630.978	32866.45
631.332	32948.03
631.687	32947.81
632.041	32830.75
632.396	32708.26
632.75	32716.17
633.104	32826.68
633.459	32545.33
633.813	32550.75
634.167	32572.22
634.521	32541.71
634.875	32613.58
635.229	32555.05
635.583	32371.32
635.937	32348.27
636.291	32402.96
636.645	32455.39
636.999	32341.95
637.352	32492.45
637.706	32190.31
638.06	32346.69
638.413	32158.9
638.767	32122.74
639.121	32211.78
639.474	32036.64
639.828	32062.41
640.181	32012.46
640.534	32129.52
640.888	31800.72
641.241	31646.82
641.594	31888.85
641.947	31961.17
642.301	31779.48
642.654	31799.36
643.007	31788.97
643.36	31818.34
643.713	31591.46
644.066	31812.24
644.419	31623.1
644.771	31434.17
645.124	31099.72
645.477	31122.54
645.83	30869.44
646.182	30667.19
646.535	30624.93
646.888	30669.67
647.24	30492.5
647.593	30622.67
647.945	30429.45
648.298	30362.34
648.65	30402.79
649.002	30194.88
649.355	30428.78
649.707	30347.65
650.059	30538.15
650.411	30738.6
650.763	30777.47
651.115	31247.96
651.467	31140.4
651.819	31049.32
652.171	31015.65
652.523	30903.11
652.875	30799.84
653.227	30685.94
653.578	30955.77
653.93	30834.87
654.282	30646.4
654.633	30662.67
654.985	30642.56
655.337	30660.86
655.688	30600.52
656.039	30847.52
656.391	30457.7
656.742	30573.63
657.094	30562.78
657.445	30740.86
657.796	30658.37
658.147	30503.8
658.498	30412.28
658.849	30400.75
659.2	30426.29
659.551	30314.43
659.902	30565.95
660.253	30469.68
660.604	30408.21
660.955	30160.76
661.306	30516.91
661.656	30236.69
662.007	30346.52
662.358	30258.39
662.708	30295.9
663.059	30324.6
663.409	30075.34
663.76	30325.73
664.11	30271.94
664.461	30163.47
664.811	30311.94
665.161	29960.99
665.511	30112.4
665.862	30067.2
666.212	30276.69
666.562	30240.98
666.912	30163.92
667.262	30138.61
667.612	30068.56
667.962	30104.04
668.312	30020.65
668.662	30229.46
669.011	30047.32
669.361	29989.01
669.711	29995.57
670.06	29998.28
670.41	29944.5
670.76	29844.84
671.109	29990.6
671.459	29818.85
671.808	29855.68
672.157	29943.59
672.507	29754.9
672.856	29675.58
673.205	29718.51
673.554	29901.33
673.904	29806.87
674.253	29818.17
674.602	29656.59
674.951	29318.75
675.3	29099.09
675.649	29544.28
675.998	29583.37
676.346	29658.85
676.695	29739.98
677.044	29498.41
677.393	29538.86
677.741	29591.28
678.09	29548.8
678.438	29395.58
678.787	29414.79
679.135	29436.94
679.484	29237.17
679.832	29385.41
680.181	29139.77
680.529	29221.58
680.877	29209.15
681.225	29103.84
681.573	29305.19
681.922	29154.69
682.27	28955.82
682.618	29032.43
682.966	28920.79
683.314	29157.4
683.661	28867.69
684.009	28737.07
684.357	28712.89
684.705	28600.35
685.053	28743.4
685.4	28545.21
685.748	28613.68
686.095	28463.86
686.443	28302.28
686.79	28384.08
687.138	28346.12
687.485	28361.71
687.832	28332.56
688.18	28275.61
688.527	28119.91
688.874	28186.58
689.221	28039.91
689.568	27969.63
689.915	27956.52
690.262	27869.3
690.609	27865.23
690.956	27808.51
691.303	27676.31
691.65	27568.29
691.997	27456.65
692.344	27416.43
692.69	27412.13
693.037	27328.97
693.383	27097.79
693.73	27260.95
694.077	27138.92
694.423	27064.12
694.769	27070.22
695.116	26904.35
695.462	26909.09
695.808	26838.14
696.155	26891.02
696.501	26710.68
696.847	26589.33
697.193	26476.79
697.539	26487.41
697.885	26410.8
698.231	26240.19
698.577	26289.22
698.923	26196.35
699.269	26029.12
699.614	25848.11
699.96	25924.71
700.306	25905.96
700.651	25853.53
700.997	25721.33
701.342	25669.13
701.688	25667.32
702.033	25486.53
702.379	25479.98
702.724	25450.15
703.069	25458.29
703.415	25169.25
703.76	25288.12
704.105	25244.05
704.45	25173.32
704.795	25024.17
705.14	24929.03
705.485	25015.36
705.83	24891.29
706.175	24755.71
706.52	24710.06
706.865	24651.53
707.209	24623.96
707.554	24474.81
707.899	24619.66
708.243	24443.17
708.588	24356.85
708.932	24334.25
709.277	24261.93
709.621	24309.62
709.966	24190.3
710.31	24119.79
710.654	23931.32
710.998	24066.01
711.342	24079.11
711.687	23925.67
712.031	23804.09
712.375	23713.25
712.719	23814.49
713.063	23871.21
713.407	23844.32
713.75	23806.13
714.094	23612.23
714.438	23538.56
714.782	23542.63
715.125	23336.53
715.469	23488.39
715.812	23352.13
716.156	23195.75
716.499	23149.87
716.843	23342.18
717.186	23189.19
717.53	23287.72
717.873	23140.83
718.216	23077.78
718.559	22978.8
718.902	22778.13
719.246	22881.86
719.589	22856.09
719.932	22788.75
720.275	22810.22
720.617	22730.45
720.96	22747.85
721.303	22697
721.646	22642.54
721.989	22593.5
722.331	22630.79
722.674	22560.28
723.016	22538.59
723.359	22516.22
723.701	22490.91
724.044	22300.85
724.386	22350.12
724.729	22365.71
725.071	22228.54
725.413	22189.9
725.755	22174.53
726.097	22131.59
726.439	22040.3
726.782	22022.22
727.124	22076
727.465	21977.02
727.807	21971.15
728.149	21940.64
728.491	21829.23
728.833	21851.83
729.175	21790.81
729.516	21728.89
729.858	21705.84
730.199	21845.27
730.541	21809.79
730.882	21594.21
731.224	21681.44
731.565	21542.91
731.906	21498.39
732.248	21575
732.589	21504.04
732.93	21365.96
733.271	21436.24
733.612	21331.61
733.953	21353.99
734.294	21319.64
734.635	21226.98
734.976	21304.72
735.317	21176.36
735.658	21126.42
735.999	21285.29
736.339	21071.06
736.68	21138.17
737.021	21020.89
737.361	20896.6
737.702	21030.61
738.042	21065.63
738.383	20902.02
738.723	20977.73
739.063	20717.39
739.404	20923.26
739.744	20748.58
740.084	20685.08
740.424	20765.08
740.764	20688.69
741.104	20748.13
741.444	20584.06
741.784	20643.95
742.124	20617.51
742.464	20523.73
742.804	20635.81
743.143	20510.84
743.483	20465.42
743.823	20362.83
744.162	20375.03
744.502	20436.04
744.841	20325.31
745.181	20338.87
745.52	20166.22
745.86	20196.05
746.199	20257.07
746.538	20129.39
746.877	20125.09
747.216	20188.82
747.556	20012.33
747.895	20133.68
748.234	19944.08
748.573	20000.58
748.911	19963.97
749.25	19833.12
749.589	19817.76
749.928	19846.91
750.267	19888.71
750.605	19707.02
750.944	19702.96
751.283	19546.12
751.621	19564.43
751.96	19549.74
752.298	19587.71
752.636	19594.94
752.975	19405.11
753.313	19367.6
753.651	19470.19
753.989	19298.22
754.327	19196.76
754.666	19188.17
755.004	19245.57
755.342	19154.27
755.679	19145.01
756.017	19033.14
756.355	19102.52
756.693	18880.61
757.031	18999.02
757.368	18786.37
757.706	18880.83
758.044	18796.31
758.381	18797.44
758.719	18836.99
759.056	18745.47
759.394	18638.58
759.731	18521.52
760.068	18532.59
760.405	18392.26
760.743	18382.77
761.08	18459.15
761.417	18246.95
761.754	18361.52
762.091	18244.46
762.428	18129.89
762.765	17959.27
763.102	18117.69
763.438	17997.24
763.775	17987.07
764.112	17953.85
764.449	17987.97
764.785	17744.82
765.122	17662.56
765.458	17664.37
765.795	17669.79
766.131	17626.17
766.467	17550.47
766.804	17370.59
767.14	17383.92
767.476	17340.98
767.812	17333.75
768.148	17392.51
768.485	17192.06
768.821	17087.21
769.157	17168.33
769.492	16948.68
769.828	17054.89
770.164	16929.7
770.5	16901.9
770.836	16727.89
771.171	16736.93
771.507	16642.92
771.842	16607.22
772.178	16574.9
772.513	16468.01
772.849	16439.31
773.184	16332.65
773.519	16363.61
773.855	16169.94
774.19	16215.14
774.525	16133.33
774.86	16134.46
775.195	16193.67
775.53	15995.48
775.865	15925.2
776.2	15783.74
776.535	15714.36
776.87	15746.68
777.205	15657.19
777.539	15584.19
777.874	15560.01
778.209	15402.73
778.543	15448.38
778.878	15332
779.212	15334.71
779.547	15272.56
779.881	15403.86
780.215	15168.16
780.55	15313.47
780.884	15128.61
781.218	14974.95
781.552	15005.68
781.886	15037.09
782.22	14913.7
782.554	14799.36
782.888	14682.07
783.222	14689.3
783.556	14560.49
783.889	14586.71
784.223	14484.11
784.557	14518.01
784.89	14501.74
785.224	14373.38
785.557	14306.04
785.891	14314.85
786.224	14207.28
786.558	14263.33
786.891	14115.76
787.224	14055.2
787.557	14062.65
787.891	14018.36
788.224	13972.03
788.557	13910.79
788.89	13846.39
789.223	13793.73
789.556	13772.94
789.888	13831.7
790.221	13677.13
790.554	13546.51
790.887	13574.53
791.219	13567.52
791.552	13511.93
791.884	13419.28
792.217	13387.19
792.549	13369.11
792.882	13273.75
793.214	13202.11
793.546	13238.72
793.879	13146.52
794.211	13115.79
794.543	13134.32
794.875	13026.97
795.207	13064.26
795.539	12934.32
795.871	13000.31
796.203	12877.15
796.535	12844.61
796.867	12779.75
797.198	12699.07
797.53	12714.67
797.862	12620.2
798.193	12724.16
798.525	12631.73
798.856	12656.59
799.188	12469.93
799.519	12452.53
799.85	12339.99
800.182	12386.99
800.513	12407.56
800.844	12188.35
801.175	12360.1
801.506	12296.6
801.837	12208.01
802.168	12158.97
802.499	12184.96
802.83	12023.38
803.161	12061.12
803.491	12052.54
803.822	12001.24
804.153	11915.59
804.483	11954.91
804.814	11779.32
805.145	11780
805.475	11795.59
805.805	11760.34
806.136	11711.98
806.466	11731.41
806.796	11714.69
807.126	11617.52
807.457	11564.64
807.787	11559.22
808.117	11494.13
808.447	11523.96
808.777	11550.18
809.107	11483.74
809.436	11464.08
809.766	11415.26
810.096	11340.01
810.426	11311.99
810.755	11347.02
811.085	11280.58
811.414	11350.63
811.744	11142.28
812.073	11181.15
812.403	11223.63
812.732	11145.67
813.061	11128.72
813.39	11057.99
813.719	11046.46
814.049	11085.78
814.378	10952.45
814.707	10988.61
815.036	11022.05
815.365	10874.26
815.693	10851.66
816.022	10796.52
816.351	10794.26
816.68	10692.8
817.008	10752.91
817.337	10658.67
817.665	10659.8
817.994	10679.46
818.322	10638.11
818.651	10630.43
818.979	10564.67
819.307	10626.13
819.636	10585
819.964	10523.31
820.292	10532.12
820.62	10525.57
820.948	10454.61
821.276	10547.94
821.604	10492.58
821.932	10545.23
822.259	10568.28
822.587	10524.89
822.915	10465.69
823.243	10491
823.57	10395.18
823.898	10436.08
824.225	10467.27
824.553	10428.17
824.88	10464.33
825.207	10479.02
825.535	10427.49
825.862	10466.14
826.189	10368.96
826.516	10422.07
826.843	10525.57
827.17	10465.91
827.497	10491
827.824	10492.58
828.151	10475.63
828.478	10468.85
828.805	10452.58
829.131	10405.35
829.458	10425.91
829.785	10447.83
830.111	10394.27
830.438	10462.97
830.764	10396.99
831.09	10448.74
831.417	10374.61
831.743	10431.79
832.069	10465.46
832.395	10373.94
832.722	10416.65
833.048	10412.35
833.374	10429.75
833.7	10392.01
834.026	10352.92
834.351	10366.93
834.677	10424.78
835.003	10326.48
835.329	10340.26
835.654	10301.17
835.98	10309.08
836.306	10292.36
836.631	10244.67
836.956	10258.01
837.282	10263.88
837.607	10204
837.932	10157.22
838.258	10181.62
838.583	10133.26
838.908	10055.3
839.233	10213.04
839.558	10082.19
839.883	10084.45
840.208	10044.23
840.533	10051.01
840.858	9994.51
841.182	10035.64
841.507	9964
841.832	9940.28
842.156	9919.94
842.481	9915.19
842.805	9898.69
843.13	9818.7
843.454	9906.6
843.778	9814.85
844.103	9782.31
844.427	9725.37
844.751	9770.11
845.075	9804.01
845.399	9746.16
845.723	9640.17
846.047	9681.75
846.371	9615.31
846.695	9569.44
847.019	9555.65
847.343	9492.83
847.666	9512.04
847.99	9402.21
848.313	9406.28
848.637	9303.91
848.96	9348.88
849.284	9257.58
849.607	9268.88
849.931	9272.5
850.254	9181.2
850.577	9103.01
850.9	9103.24
851.223	9086.06
851.546	8970.13
851.869	8956.57
852.192	9039.28
852.515	8909.12
852.838	8808.55
853.161	8874.54
853.483	8845.16
853.806	8812.62
854.129	8773.07
854.451	8755
854.774	8728.78
855.096	8682.46
855.419	8669.35
855.741	8633.19
856.063	8577.37
856.385	8545.28
856.708	8496.25
857.03	8547.54
857.352	8527.66
857.674	8459.41
857.996	8448.34
858.318	8452.86
858.64	8461.22
858.961	8385.06
859.283	8399.98
859.605	8331.05
859.926	8372.41
860.248	8339.41
860.57	8258.06
860.891	8288.57
861.212	8209.7
861.534	8227.33
861.855	8216.48
862.176	8218.74
862.498	8162.24
862.819	8128.8
863.14	8133.32
863.461	8145.97
863.782	8081.12
864.103	8125.41
864.424	8090.15
864.745	8098.06
865.065	8023.49
865.386	8013.55
865.707	8030.5
866.027	8054.45
866.348	8039.53
866.668	7968.12
866.989	8006.09
867.309	7978.07
867.63	7975.13
867.95	7931.29
868.27	7880.44
868.59	7894.91
868.91	7932.19
869.23	7850.16
869.55	7845.19
869.87	7851.52
870.19	7842.93
870.51	7810.84
870.83	7868.47
871.15	7818.3
871.469	7752.31
871.789	7806.09
872.109	7789.82
872.428	7691.75
872.748	7716.61
873.067	7721.58
873.386	7663.73
873.706	7680.67
874.025	7696.04
874.344	7655.36
874.663	7629.83
874.982	7662.37
875.301	7606.1
875.62	7621.69
875.939	7638.19
876.258	7592.54
876.577	7627.79
876.896	7554.8
877.214	7550.06
877.533	7564.97
877.852	7496.05
878.17	7533.11
878.489	7547.57
878.807	7513.45
879.125	7465.09
879.444	7452.43
879.762	7386.44
880.08	7448.82
880.398	7418.53
880.716	7454.47
881.034	7420.57
881.352	7431.87
881.67	7399.78
881.988	7425.54
882.306	7352.55
882.624	7367.46
882.941	7269.16
883.259	7268.48
883.577	7239.33
883.894	7282.27
884.212	7290.18
884.529	7278.42
884.846	7223.74
885.164	7244.3
885.481	7208.14
885.798	7162.5
886.115	7126.34
886.432	7118.2
886.75	7179.9
887.067	7151.87
887.383	7066.45
887.7	7085.21
888.017	7040.92
888.334	7051.76
888.651	7088.15
888.967	7087.69
889.284	6983.06
889.6	6942.39
889.917	6911.88
890.233	6932.67
890.55	6861.94
890.866	6920.47
891.182	6887.93
891.498	6819
891.815	6869.62
892.131	6823.97
892.447	6815.84
892.763	6775.16
893.079	6749.17
893.395	6765.9
893.71	6738.1
894.026	6714.15
894.342	6720.47
894.657	6629.63
894.973	6677.99
895.289	6613.81
895.604	6643.64
895.92	6598.44
896.235	6505.11
896.55	6510.76
896.865	6577.43
897.181	6509.86
897.496	6541.72
897.811	6439.12
898.126	6386.7
898.441	6435.06
898.756	6447.49
899.071	6371.1
899.386	6398
899.7	6374.04
900.015	6323.2
900.33	6282.52
900.644	6313.48
900.959	6294.72
901.273	6261.28
901.588	6168.4
901.902	6160.26
902.216	6207.72
902.531	6113.71
902.845	6089.3
903.159	6083.2
903.473	6079.36
903.787	6004.11
904.101	6015.41
904.415	6055.63
904.729	5998.01
905.042	6011.34
905.356	5939.25
905.67	5903.32
905.984	5920.49
906.297	5836.65
906.611	5860.83
906.924	5865.13
907.237	5842.3
907.551	5800.5
907.864	5746.26
908.177	5801.4
908.491	5788.29
908.804	5736.09
909.117	5677.34
909.43	5657.22
909.743	5671.69
910.056	5656.55
910.368	5626.94
910.681	5575.64
910.994	5593.5
911.307	5523.67
911.619	5487.51
911.932	5508.53
912.244	5484.8
912.557	5439.15
912.869	5415.42
913.181	5457.91
913.494	5342.2
913.806	5400.73
914.118	5351.02
914.43	5372.71
914.742	5353.96
915.054	5306.27
915.366	5304.69
915.678	5268.31
915.99	5228.53
916.302	5176.78
916.613	5187.86
916.925	5179.5
917.236	5193.96
917.548	5137.24
917.859	5168.42
918.171	5100.63
918.482	5060.63
918.794	5045.71
919.105	5056.11
919.416	5012.27
919.727	4998.26
920.038	4987.64
920.349	4974.98
920.66	4958.71
920.971	4896.34
921.282	4851.14
921.593	4841.2
921.903	4813.86
922.214	4785.16
922.525	4818.6
922.835	4817.02
923.146	4770.47
923.456	4751.49
923.767	4698.83
924.077	4702.67
924.387	4746.06
924.697	4666.29
925.008	4653.18
925.318	4625.61
925.628	4597.59
925.938	4630.13
926.248	4553.52
926.558	4516.46
926.867	4516.69
927.177	4545.16
927.487	4516.24
927.796	4475.79
928.106	4477.14
928.416	4460.87
928.725	4442.11
929.034	4409.8
929.344	4395.34
929.653	4383.13
929.962	4357.6
930.271	4300.65
930.581	4335.9
930.89	4264.72
931.199	4271.5
931.508	4281.44
931.817	4231.5
932.125	4228.34
932.434	4276.47
932.743	4196.47
933.051	4162.8
933.36	4171.39
933.669	4150.37
933.977	4145.63
934.286	4092.29
934.594	4097.72
934.902	4024.05
935.21	4047.1
935.519	4046.19
935.827	4054.1
936.135	4000.77
936.443	4005.52
936.751	3989.7
937.059	3975.69
937.367	3963.03
937.674	3957.16
937.982	3931.85
938.29	3916.48
938.597	3889.36
938.905	3880.32
939.213	3830.83
939.52	3834.22
939.827	3800.1
940.135	3807.1
940.442	3801.45
940.749	3819.98
941.056	3809.59
941.363	3754.68
941.67	3714.68
941.977	3714.68
942.284	3714.68
942.591	3688.24
942.898	3659.31
943.205	3666.32
943.511	3632.19
943.818	3640.78
944.125	3623.38
944.431	3567.79
944.738	3604.4
945.044	3519.88
945.35	3522.14
945.657	3512.65
945.963	3531.86
946.269	3484.17
946.575	3491.63
946.881	3469.03
947.187	3447.79
947.493	3420.9
947.799	3419.77
948.105	3429.71
948.41	3364.86
948.716	3396.49
949.022	3403.95
949.327	3363.73
949.633	3341.58
949.938	3368.92
950.244	3336.83
950.549	3297.06
950.854	3308.36
951.16	3277.85
951.465	3262.94
951.77	3292.54
952.075	3273.56
952.38	3270.85
952.685	3205.09
952.99	3167.8
953.294	3159.44
953.599	3190.4
953.904	3121.92
954.209	3109.27
954.513	3165.09
954.818	3137.52
955.122	3144.75
955.426	3124.18
955.731	3083.73
956.035	3076.28
956.339	3029.72
956.643	3036.05
956.948	3039.21
957.252	3000.8
957.556	3005.99
957.86	2995.37
958.163	2983.62
958.467	2964.87
958.771	2948.37
959.075	2954.7
959.378	2976.84
959.682	2911.08
959.985	2867.02
960.289	2908.6
960.592	2876.96
960.896	2855.04
961.199	2843.29
961.502	2849.39
961.805	2847.13
962.108	2841.7
962.411	2821.59
962.714	2805.1
963.017	2828.37
963.32	2790.18
963.623	2788.15
963.926	2740.24
964.228	2758.09
964.531	2707.25
964.833	2688.71
965.136	2721.71
965.438	2697.75
965.741	2710.41
966.043	2692.56
966.345	2657.75
966.648	2638.09
966.95	2687.81
967.252	2636.06
967.554	2629.73
967.856	2662.73
968.158	2581.6
968.46	2609.39
968.761	2569.17
969.063	2593.58
969.365	2516.52
969.666	2569.62
969.968	2556.97
970.269	2551.54
970.571	2487.59
970.872	2485.78
971.174	2497.53
971.475	2488.04
971.776	2479.23
972.077	2449.17
972.378	2462.73
972.679	2450.3
972.98	2462.05
973.281	2455.05
973.582	2446.69
973.883	2393.13
974.183	2379.8
974.484	2396.52
974.785	2379.8
975.085	2369.63
975.386	2371.89
975.686	2382.51
975.986	2365.33
976.287	2339.8
976.587	2328.5
976.887	2312
977.187	2310.19
977.487	2304.77
977.787	2260.48
978.087	2278.78
978.387	2286.24
978.687	2291.89
978.987	2285.56
979.286	2235.39
979.586	2224.77
979.885	2213.7
980.185	2230.42
980.484	2190.87
980.784	2218.9
981.083	2172.57
981.382	2180.93
981.682	2167.82
981.981	2157.43
982.28	2152.68
982.579	2146.58
982.878	2135.06
983.177	2137.09
983.475	2132.35
983.774	2103.19
984.073	2095.06
984.372	2078.11
984.67	2080.14
984.969	2041.05
985.267	2055.28
985.566	2037.43
985.864	2059.35
986.162	2030.88
986.461	2037.43
986.759	2003.99
987.057	2015.74
987.355	2015.51
987.653	2006.25
987.951	1958.34
988.249	1970.99
988.547	1981.61
988.844	1962.63
989.142	1982.29
989.44	1936.87
989.737	1927.38
990.035	1961.28
990.332	1937.32
990.63	1905.46
990.927	1909.53
991.224	1891
991.521	1879.92
991.819	1877.21
992.116	1855.97
992.413	1836.08
992.71	1845.35
993.006	1821.84
993.303	1828.4
993.6	1863.65
993.897	1831.56
994.193	1796.53
994.49	1811.9
994.787	1798.12
995.083	1783.65
995.379	1761.06
995.676	1770.77
995.972	1768.06
996.268	1743.65
996.565	1749.76
996.861	1717.89
997.157	1738.46
997.453	1724.9
997.749	1701.85
998.044	1717.67
998.34	1707.27
998.636	1660.27
998.932	1658.23
999.227	1696.88
999.523	1661.62
999.818	1658.69
1000.114	1652.13
1000.409	1673.83
1000.704	1624.11
1001	1621.4
1001.295	1591.34
1001.59	1623.66
1001.885	1626.37
1002.18	1622.75
1002.475	1606.94
1002.77	1583.43
1003.065	1560.38
1003.359	1557.9
1003.654	1584.79
1003.949	1536.65
1004.243	1544.56
1004.538	1523.1
1004.832	1538.91
1005.127	1505.47
1005.421	1497.56
1005.715	1489.2
1006.009	1475.64
1006.304	1502.76
1006.598	1466.15
1006.892	1444.45
1007.186	1455.53
1007.48	1458.46
1007.773	1439.26
1008.067	1445.81
1008.361	1438.58
1008.655	1427.05
1008.948	1415.08
1009.242	1409.65
1009.535	1392.93
1009.829	1389.54
1010.122	1375.75
1010.415	1349.31
1010.708	1381.86
1011.001	1396.77
1011.295	1354.51
1011.588	1354.74
1011.881	1343.44
1012.173	1335.98
1012.466	1341.41
1012.759	1330.78
1013.052	1316.55
1013.344	1315.64
1013.637	1291.92
1013.93	1276.77
1014.222	1271.58
1014.514	1291.01
1014.807	1282.2
1015.099	1271.35
1015.391	1255.53
1015.683	1269.09
1015.976	1266.15
1016.268	1228.19
1016.56	1260.5
1016.851	1229.54
1017.143	1221.63
1017.435	1170.79
1017.727	1200.17
1018.018	1203.1
1018.31	1191.35
1018.602	1182.31
1018.893	1186.61
1019.185	1195.87
1019.476	1167.85
1019.767	1135.31
1020.058	1143.9
1020.35	1150.22
1020.641	1173.05
1020.932	1108.19
1021.223	1133.05
1021.514	1116.55
1021.804	1096.67
1022.095	1119.49
1022.386	1065.93
1022.677	1074.52
1022.967	1088.3
1023.258	1072.03
1023.548	1056.44
1023.839	1067.74
1024.129	1065.25
1024.419	1046.72
1024.709	1036.55
1025	1060.06
1025.29	1013.05
1025.58	1021.41
1025.87	1028.19
1026.16	1018.02
1026.449	1008.31
1026.739	989.78
1027.029	1015.76
1027.319	1007.4
1027.608	1000.17
1027.898	976.67
1028.187	975.99
1028.477	957.23
1028.766	944.13
1029.055	971.25
1029.344	964.92
1029.634	935.31
1029.923	953.62
1030.212	932.6
1030.501	937.8
1030.79	936.22
1031.078	921.08
1031.367	914.07
1031.656	896.9
1031.945	902.32
1032.233	895.09
1032.522	894.86
1032.81	909.33
1033.099	871.36
1033.387	879.5
1033.675	874.53
1033.963	865.03
1034.251	861.19
1034.54	878.82
1034.828	832.49
1035.116	859.61
1035.403	842.66
1035.691	827.07
1035.979	842.21
1036.267	821.19
1036.554	828.65
1036.842	831.36
1037.129	819.61
1037.417	810.57
1037.704	802.89
1037.992	779.16
1038.279	811.48
1038.566	796.79
1038.853	796.79
1039.14	796.79
