Data from breadboard_white_FLMS001491_00045.txt Node
Date: Wed Feb 08 10:47:46 GMT 2017
User: dcchb
Spectrometer: FLMS00149
Trigger mode: 0
Integration Time (sec): 2.000000E-2
Scans to average: 10
Electric dark correction enabled: true
Nonlinearity correction enabled: false
Boxcar width: 0
XAxis mode: Wavelengths
Number of Pixels in Spectrum: 2048
>>>>>Begin Spectral Data<<<<<
341.393	-3.01
341.776	-3.01
342.16	-3.01
342.543	-67.64
342.927	-70.35
343.31	-65.83
343.693	-53.63
344.077	-60.63
344.46	-65.61
344.843	-62.22
345.226	-48.43
345.61	-28.77
345.993	-17.02
346.376	8.06
346.759	12.58
347.142	37.67
347.525	33.6
347.908	52.81
348.291	74.73
348.674	82.87
349.057	99.81
349.44	121.51
349.823	123.54
350.206	157.67
350.588	207.61
350.971	216.87
351.354	221.84
351.737	234.73
352.119	249.41
352.502	292.58
352.884	270.43
353.267	309.98
353.65	296.87
354.032	326.93
354.414	316.76
354.797	309.07
355.179	340.49
355.562	325.34
355.944	325.12
356.326	340.71
356.709	363.76
357.091	356.08
357.473	372.35
357.855	350.43
358.238	352.91
358.62	344.33
359.002	361.73
359.384	345.46
359.766	364.21
360.148	354.27
360.53	370.54
360.912	353.14
361.294	367.38
361.676	371.9
362.057	352.69
362.439	365.57
362.821	350.2
363.203	348.85
363.584	349.3
363.966	351.56
364.348	353.14
364.729	348.17
365.111	355.17
365.493	348.62
365.874	329.86
366.256	334.61
366.637	325.34
367.019	353.37
367.4	349.3
367.781	345.91
368.163	358.79
368.544	324.21
368.925	343.2
369.306	359.92
369.688	333.93
370.069	333.03
370.45	329.86
370.831	344.33
371.212	324.44
371.593	354.04
371.974	347.94
372.355	354.72
372.736	350.43
373.117	366.25
373.498	356.53
373.879	355.17
374.26	352.24
374.641	352.24
375.021	345.01
375.402	352.46
375.783	355.85
376.163	384.78
376.544	362.86
376.925	368.06
377.305	370.99
377.686	353.59
378.066	381.61
378.447	367.6
378.827	379.81
379.208	387.72
379.588	377.32
379.968	370.77
380.349	385.91
380.729	366.93
381.109	366.47
381.489	382.97
381.87	405.34
382.25	393.37
382.63	402.63
383.01	411.9
383.39	396.08
383.77	392.46
384.15	410.77
384.53	404.44
384.91	414.83
385.29	415.74
385.67	427.71
386.049	418.22
386.429	442.4
386.809	435.85
387.189	423.87
387.568	430.88
387.948	455.28
388.328	464.1
388.707	435.17
389.087	438.79
389.466	439.01
389.846	449.41
390.225	488.96
390.605	465.23
390.984	472.01
391.363	470.65
391.743	486.7
392.122	505.9
392.501	509.07
392.881	500.03
393.26	509.97
393.639	486.7
394.018	517.2
394.397	507.71
394.776	521.5
395.155	547.71
395.534	548.39
395.913	527.15
396.292	559.46
396.671	554.04
397.05	575.51
397.429	580.93
397.808	582.29
398.186	609.86
398.565	593.81
398.944	596.98
399.323	616.86
399.701	614.83
400.08	622.51
400.458	637.65
400.837	634.94
401.215	664.54
401.594	673.81
401.972	693.47
402.351	684.66
402.729	707.26
403.107	710.42
403.486	711.55
403.864	729.4
404.242	729.18
404.62	750.64
404.999	763.98
405.377	758.78
405.755	781.15
406.133	812.79
406.511	789.06
406.889	839.91
407.267	841.26
407.645	869.74
408.023	877.87
408.401	884.65
408.779	922.84
409.156	935.27
409.534	937.31
409.912	975.72
410.29	974.59
410.667	999.45
411.045	1012.78
411.422	1053.69
411.8	1072.67
412.178	1067.02
412.555	1083.06
412.933	1113.8
413.31	1126.45
413.687	1157.19
414.065	1172.1
414.442	1170.97
414.819	1218.43
415.197	1208.03
415.574	1263.62
415.951	1273.79
416.328	1306.11
416.705	1281.25
417.082	1334.36
417.46	1353.11
417.837	1354.7
418.214	1403.73
418.591	1400.57
418.967	1405.32
419.344	1429.5
419.721	1435.82
420.098	1480.12
420.475	1489.61
420.852	1502.71
421.228	1523.51
421.605	1539.55
421.982	1580.45
422.358	1588.14
422.735	1609.6
423.111	1604.63
423.488	1640.34
423.864	1672.2
424.241	1672.43
424.617	1683.05
424.994	1679.43
425.37	1769.83
425.746	1754.01
426.123	1794.01
426.499	1810.73
426.875	1827.68
427.251	1842.59
427.627	1912.65
428.003	1914.91
428.379	1921.01
428.756	1947.9
429.132	1978.63
429.507	2019.76
429.883	2052.08
430.259	2078.97
430.635	2058.63
431.011	2114.68
431.387	2167.33
431.763	2221.11
432.138	2194.9
432.514	2238.51
432.89	2265.41
433.265	2339.3
433.641	2343.14
434.016	2300.43
434.392	2403.71
434.767	2485.51
435.143	2436.48
435.518	2499.07
435.894	2546.08
436.269	2573.42
436.644	2579.97
437.02	2633.08
437.395	2658.39
437.77	2719.63
438.145	2734.09
438.52	2765.51
438.895	2744.72
439.271	2785.17
439.646	2831.72
440.021	2869.23
440.395	2885.05
440.77	2864.71
441.145	2892.06
441.52	2944.26
441.895	2913.53
442.27	2996.69
442.645	3022.45
443.019	3085.5
443.394	3047.98
443.769	3111.71
444.143	3074.2
444.518	3121.66
444.892	3128.89
445.267	3159.39
445.641	3201.65
446.016	3212.05
446.39	3251.6
446.764	3247.75
447.139	3261.54
447.513	3271.71
447.887	3332.95
448.262	3324.36
448.636	3360.29
449.01	3437.13
449.384	3450.46
449.758	3514.41
450.132	3536.56
450.506	3536.33
450.88	3562.32
451.254	3590.12
451.628	3654.75
452.002	3680.51
452.376	3727.29
452.75	3761.19
453.123	3777.91
453.497	3832.82
453.871	3890.45
454.244	3951.01
454.618	3959.15
454.992	4032.37
455.365	4034.4
455.739	4156.43
456.112	4190.33
456.486	4187.84
456.859	4256.99
457.232	4346.26
457.606	4327.5
457.979	4433.26
458.352	4460.38
458.725	4544.44
459.099	4571.56
459.472	4656.3
459.845	4746.47
460.218	4799.13
460.591	4848.39
460.964	4855.17
461.337	5000.25
461.71	5052.23
462.083	5109.85
462.456	5121.15
462.829	5215.84
463.201	5191.66
463.574	5250.19
463.947	5325.67
464.32	5410.18
464.692	5524.98
465.065	5522.72
465.438	5644.98
465.81	5717.29
466.183	5758.87
466.555	5904.18
466.928	5946.44
467.3	5986.21
467.672	6063.72
468.045	6206.32
468.417	6250.39
468.789	6265.98
469.161	6390.95
469.534	6455.35
469.906	6624.84
470.278	6669.36
470.65	6804.04
471.022	6905.51
471.394	6983.7
471.766	7043.59
472.138	7187.09
472.51	7331.94
472.882	7438.38
473.253	7510.24
473.625	7612.61
473.997	7767.63
474.369	7871.59
474.74	7994.52
475.112	8084.69
475.484	8219.37
475.855	8375.3
476.227	8498.69
476.598	8666.59
476.97	8812.13
477.341	8949.52
477.713	9067.94
478.084	9167.15
478.455	9407.14
478.827	9435.84
479.198	9746.57
479.569	9771.65
479.94	10062.49
480.311	10148.36
480.682	10363.72
481.053	10572.53
481.424	10830.38
481.795	10834.45
482.166	11041.22
482.537	11277.6
482.908	11488.44
483.279	11526.18
483.65	11805.95
484.021	12008.88
484.391	12175.43
484.762	12290
485.133	12455.42
485.503	12529.54
485.874	12893.6
486.244	12949.42
486.615	13241.84
486.985	13308.51
487.356	13590.08
487.726	13802.28
488.097	14016.96
488.467	14035.72
488.837	14393.68
489.207	14521.36
489.578	14796.83
489.948	14957.05
490.318	15173.32
490.688	15253.54
491.058	15567.88
491.428	15758.16
491.798	15826.86
492.168	16149.79
492.538	16196.34
492.908	16411.7
493.278	16596.1
493.648	16602.2
494.017	16959.26
494.387	16941.86
494.757	17234.28
495.126	17423.65
495.496	17431.11
495.866	17592.24
496.235	17774.6
496.605	17892.79
496.974	18012.34
497.344	18320.8
497.713	18312.22
498.082	18504.98
498.452	18776.61
498.821	18975.48
499.19	18855.7
499.559	19134.79
499.928	19265.64
500.298	19419.76
500.667	19640.77
501.036	19565.06
501.405	19825.62
501.774	19830.37
502.143	20149.23
502.512	20078.95
502.88	20388.77
503.249	20395.1
503.618	20660.86
503.987	20681.87
504.356	20855.2
504.724	20936.1
505.093	21027.85
505.462	21132.26
505.83	21280.27
506.199	21576.31
506.567	21693.14
506.936	21765.91
507.304	22057.2
507.672	22144.21
508.041	22242.51
508.409	22507.81
508.777	22562.27
509.145	22825.77
509.514	22797.52
509.882	23040.45
510.25	23049.04
510.618	23293.55
510.986	23364.51
511.354	23644.96
511.722	23896.48
512.09	24123.36
512.458	24051.27
512.826	24377.14
513.193	24400.87
513.561	24626.17
513.929	24732.61
514.297	25018.25
514.664	25197.91
515.032	25235.65
515.4	25522.42
515.767	25701.4
516.135	25923.99
516.502	25742.53
516.869	26170.54
517.237	26389.97
517.604	26382.06
517.972	26692.56
518.339	26829.96
518.706	27000.12
519.073	27116.96
519.44	27365.31
519.808	27683.27
520.175	27548.13
520.542	28011.85
520.909	28177.95
521.276	28212.07
521.643	28584.04
522.009	28810.7
522.376	29011.14
522.743	29121.42
523.11	29364.58
523.477	29734.97
523.843	29835.08
524.21	30267.16
524.577	30529.75
524.943	30495.85
525.31	30787.82
525.676	31019.68
526.043	31216.74
526.409	31368.37
526.776	31739.43
527.142	31789.83
527.508	31993.89
527.874	32263.71
528.241	32436.14
528.607	32700.31
528.973	32829.12
529.339	32954.09
529.705	33372.16
530.071	33584.58
530.437	33691.7
530.803	33947.96
531.169	34077.45
531.535	34039.03
531.901	34327.61
532.267	34309.54
532.632	34811.44
532.998	34748.85
533.364	35063.41
533.73	35096.41
534.095	35548.83
534.461	35580.24
534.826	35782.72
535.192	35935.26
535.557	36169.83
535.923	36133.22
536.288	36394.9
536.653	36417.95
537.019	36443.72
537.384	36681.9
537.749	36776.59
538.114	37001.67
538.479	37099.07
538.845	37240.98
539.21	37271.94
539.575	37623.57
539.94	37617.47
540.305	37850.01
540.67	37701.54
541.034	37898.59
541.399	38202.31
541.764	38329.54
542.129	38250.68
542.494	38496.32
542.858	38533.38
543.223	38517.33
543.587	38940.6
543.952	38927.95
544.316	39164.55
544.681	39065.57
545.045	39402.74
545.41	39438.44
545.774	39506.91
546.138	39610.41
546.503	39688.38
546.867	39917.75
547.231	40169.27
547.595	40103.51
547.959	40240.68
548.324	40314.8
548.688	40560.9
549.052	40683.15
549.416	40779.2
549.779	40826.65
550.143	40983.71
550.507	41256.47
550.871	41242.23
551.235	41291.95
551.599	41750.24
551.962	41834.31
552.326	41850.58
552.689	42258.03
553.053	42046.06
553.417	42243.34
553.78	42617.34
554.143	42502.54
554.507	42736.88
554.87	42981.85
555.234	43200.38
555.597	42968.97
555.96	43368.96
556.323	43523.3
556.686	43561.27
557.05	43941.37
557.413	43866.57
557.776	44130.29
558.139	44339.1
558.502	44433.56
558.865	44550.4
559.228	44764.85
559.59	44900.22
559.953	45042.81
560.316	45442.8
560.679	45341.34
561.041	45659.97
561.404	45917.82
561.767	46137.47
562.129	45997.36
562.492	46487.29
562.854	46352.83
563.217	46465.15
563.579	46607.29
563.941	46999.15
564.304	47072.82
564.666	47255.41
565.028	47404.56
565.39	47583.09
565.753	47782.18
566.115	47833.25
566.477	48030.08
566.839	47997.09
567.201	48407.24
567.563	48469.84
567.925	48656.05
568.287	48697.41
568.648	48778.31
569.01	49083.16
569.372	49235.7
569.734	49197.51
570.095	49495.8
570.457	49650.6
570.819	49657.61
571.18	49576.03
571.542	49827.55
571.903	49900.09
572.265	50152.06
572.626	50234.54
572.987	50197.93
573.349	50270.25
573.71	50449.9
574.071	50586.4
574.432	50648.09
574.794	50809.21
575.155	50893.96
575.516	50791.81
575.877	50967.18
576.238	50994.29
576.599	51141.86
576.96	51323.33
577.32	51237.9
577.681	51257.11
578.042	51424.57
578.403	51433.15
578.763	51473.38
579.124	51396.32
579.485	51647.61
579.845	51728.06
580.206	51662.07
580.566	51645.8
580.927	51670.89
581.287	51851.45
581.648	51705.91
582.008	51848.74
582.368	51796.99
582.728	51970.09
583.089	51814.84
583.449	51846.7
583.809	51978.9
584.169	51834.95
584.529	51876.76
584.889	52157.65
585.249	51998.56
585.609	51919.92
585.969	52137.32
586.329	51919.02
586.688	52022.29
587.048	51983.87
587.408	52001.5
587.768	52014.61
588.127	51898.23
588.487	51905.91
588.846	52153.36
589.206	51888.28
589.565	51929.41
589.925	52062.52
590.284	51909.75
590.643	52074.72
591.003	52149.07
591.362	52225.9
591.721	52162.85
592.08	52230.65
592.44	52318.33
592.799	52211.21
593.158	52075.4
593.517	52156.07
593.876	52267.93
594.235	52159.46
594.593	52191.78
594.952	52290.76
595.311	52065.23
595.67	52336.18
596.029	52427.25
596.387	52356.29
596.746	52436.06
597.104	52307.25
597.463	52213.7
597.822	52440.58
598.18	52331.89
598.538	52333.24
598.897	52442.17
599.255	52302.51
599.613	52674.25
599.972	52564.65
600.33	52674.48
600.688	52460.92
601.046	52629.28
601.404	52638.55
601.762	52652.33
602.12	52820.24
602.478	52751.99
602.836	52759.9
603.194	52679.45
603.552	52687.13
603.91	52642.61
604.268	52798.99
604.625	52748.37
604.983	52824.98
605.341	52712.89
605.698	52961.7
606.056	52951.08
606.413	52882.83
606.771	53082.15
607.128	53083.28
607.485	52895.04
607.843	52999.21
608.2	53141.58
608.557	53264.07
608.914	53116.27
609.272	53327.57
609.629	53288.7
609.986	53368.24
610.343	53244.18
610.7	53516.71
611.057	53364.63
611.414	53362.37
611.771	53460.44
612.127	53520.56
612.484	53488.01
612.841	53505.64
613.198	53452.76
613.554	53415.47
613.911	53688.91
614.267	53702.02
614.624	53683.26
614.98	53732.53
615.337	53848.01
615.693	53809.81
616.05	53709.7
616.406	53951.28
616.762	53806.42
617.118	53843.71
617.475	53806.2
617.831	53934.1
618.187	53878.06
618.543	54014.55
618.899	54225.85
619.255	54051.62
619.611	53970.26
619.967	54074.44
620.323	54186.08
620.678	54030.6
621.034	54030.6
621.39	54086.42
621.746	54016.81
622.101	54328.22
622.457	54074.67
622.812	54178.17
623.168	54268.78
623.523	54256.58
623.879	54314.66
624.234	54080.99
624.589	54244.15
624.945	54215.68
625.3	54269.69
625.655	54170.03
626.01	54199.63
626.365	54179.75
626.72	54211.16
627.075	54126.87
627.43	54135.46
627.785	54042.8
628.14	54114.44
628.495	54075.12
628.85	54057.27
629.205	53951.73
629.559	54204.38
629.914	54039.86
630.269	54029.24
630.623	53904.05
630.978	53896.59
631.332	54056.14
631.687	54092.97
632.041	53883.48
632.396	53906.08
632.75	53769.82
633.104	53886.65
633.459	53771.17
633.813	53720.32
634.167	53717.39
634.521	53721
634.875	53617.95
635.229	53598.52
635.583	53528.24
635.937	53485.3
636.291	53491.63
636.645	53608.46
636.999	53494.12
637.352	53436.26
637.706	53252.54
638.06	53423.84
638.413	53333.89
638.767	53260.45
639.121	53272.43
639.474	52986.11
639.828	53191.3
640.181	53177.29
640.534	53108.14
640.888	52952.21
641.241	52921.7
641.594	52893.68
641.947	53013
642.301	52993.79
642.654	52933.45
643.007	52971.19
643.36	52806.9
643.713	52764.42
644.066	52928.03
644.419	52741.37
644.771	52581.37
645.124	52281.72
645.477	52223.41
645.83	51910.65
646.182	51808.06
646.535	51733.48
646.888	51752.24
647.24	51493.49
647.593	51738.23
647.945	51507.95
648.298	51396.09
648.65	51386.15
649.002	51189.32
649.355	51536.88
649.707	51406.71
650.059	51593.38
650.411	51833.14
650.763	51976.19
651.115	52126.69
651.467	52053.25
651.819	52043.53
652.171	51960.15
652.523	51909.52
652.875	51839.02
653.227	51731.9
653.578	51928.96
653.93	51834.05
654.282	51680.83
654.633	51659.81
654.985	51743.65
655.337	51664.33
655.688	51751.56
656.039	51858.68
656.391	51558.8
656.742	51661.85
657.094	51553.15
657.445	51666.14
657.796	51617.1
658.147	51581.62
658.498	51557.9
658.849	51599.93
659.2	51563.32
659.551	51444.45
659.902	51539.59
660.253	51429.99
660.604	51550.44
660.955	51313.83
661.306	51408.75
661.656	51406.94
662.007	51383.44
662.358	51318.13
662.708	51336.88
663.059	51238.13
663.409	51110.45
663.76	51252.59
664.11	51336.21
664.461	51345.7
664.811	51310.22
665.161	51211.46
665.511	51152.93
665.862	51186.83
666.212	51267.51
666.562	51228.86
666.912	51178.92
667.262	51005.59
667.612	51088.53
667.962	51145.25
668.312	50950.68
668.662	51185.25
669.011	51077
669.361	51061.41
669.711	51062.99
670.06	50903.22
670.41	50991.13
670.76	50855.77
671.109	50971.47
671.459	50927.63
671.808	50873.17
672.157	50879.27
672.507	50629.33
672.856	50687.41
673.205	50823.23
673.554	50829.78
673.904	50694.19
674.253	50855.54
674.602	50676.34
674.951	50214.88
675.3	50011.04
675.649	50579.16
675.998	50535.32
676.346	50600.18
676.695	50617.81
677.044	50336.68
677.393	50472.95
677.741	50570.13
678.09	50265.95
678.438	50294.88
678.787	50374.2
679.135	50213.07
679.484	50087.88
679.832	50255.33
680.181	50020.76
680.529	50204.26
680.877	49999.52
681.225	50002
681.573	50110.25
681.922	50026.41
682.27	49778.73
682.618	49741.67
682.966	49737.6
683.314	49768.11
683.661	49738.28
684.009	49512.53
684.357	49404.05
684.705	49397.27
685.053	49519.31
685.4	49395.92
685.748	49183.49
686.095	49039.09
686.443	49018.98
686.79	48823.96
687.138	49063.05
687.485	48914.35
687.832	48869.83
688.18	48860.79
688.527	48655.83
688.874	48515.04
689.221	48589.84
689.568	48387.13
689.915	48285.21
690.262	48267.81
690.609	48174.03
690.956	47947.82
691.303	47988.95
691.65	47849.52
691.997	47905.34
692.344	47560.49
692.69	47521.39
693.037	47656.08
693.383	47270.1
693.73	47377.44
694.077	47185.13
694.423	47106.26
694.769	46974.06
695.116	46951.69
695.462	46844.57
695.808	46816.1
696.155	46708.76
696.501	46550.57
696.847	46534.98
697.193	46172.95
697.539	46337.92
697.885	45955.56
698.231	45786.52
698.577	45999.4
698.923	45735.68
699.269	45614.55
699.614	45431.5
699.96	45346.08
700.306	45419.75
700.651	45126.65
700.997	45019.08
701.342	44959.88
701.688	44914.91
702.033	44816.15
702.379	44775.93
702.724	44767.34
703.069	44692.54
703.415	44349.27
703.76	44311.76
704.105	44271.53
704.45	44208.94
704.795	44034.25
705.14	43738.67
705.485	43808.5
705.83	43634.49
706.175	43707.71
706.52	43513.59
706.865	43270.43
707.209	43402.86
707.554	43206.02
707.899	43272.01
708.243	42907.05
708.588	42907.95
708.932	42629.99
709.277	42739.82
709.621	42719.71
709.966	42370.79
710.31	42530.56
710.654	42223.23
710.998	42298.03
711.342	42320.17
711.687	42152.72
712.031	41820.98
712.375	41817.13
712.719	41827.53
713.063	41738.94
713.407	41828.21
713.75	41554.32
714.094	41529.91
714.438	41376.24
714.782	41477.93
715.125	41190.48
715.469	41259.18
715.812	41112.97
716.156	40757.5
716.499	40891.74
716.843	40931.73
717.186	40639.99
717.53	40814
717.873	40850.38
718.216	40611.06
718.559	40515.47
718.902	40257.18
719.246	40444.06
719.589	40315.03
719.932	40115.94
720.275	40255.82
720.617	39982.83
720.96	39955.71
721.303	39916.39
721.646	39943.51
721.989	39582.62
722.331	39835.27
722.674	39600.24
723.016	39522.96
723.359	39603.18
723.701	39505.78
724.044	39210.2
724.386	39113.03
724.729	39329.97
725.071	39136.53
725.413	39130.65
725.755	39089.07
726.097	38964.55
726.439	38763.88
726.782	38674.39
727.124	38980.83
727.465	38715.97
727.807	38551.91
728.149	38583.77
728.491	38407.73
728.833	38322.54
729.175	38256.1
729.516	38240.96
729.858	38327.74
730.199	38158.25
730.541	38055.88
730.882	38067.4
731.224	38088.87
731.565	37861.98
731.906	37790.8
732.248	37799.16
732.589	37519.39
732.93	37566.4
733.271	37502.22
733.612	37600.97
733.953	37527.76
734.294	37307.65
734.635	37339.96
734.976	37390.13
735.317	37160.08
735.658	37191.95
735.999	37191.27
736.339	37078.5
736.68	37130.25
737.021	36944.04
737.361	36754.9
737.702	36943.82
738.042	36861.56
738.383	36719.87
738.723	36833.54
739.063	36447.78
739.404	36757.38
739.744	36637.61
740.084	36499.76
740.424	36506.31
740.764	36311.29
741.104	36429.03
741.444	36189.03
741.784	35959.89
742.124	36123.05
742.464	36077.85
742.804	36157.85
743.143	35980.23
743.483	35839.44
743.823	35796.28
744.162	35700.01
744.502	35669.5
744.841	35515.83
745.181	35776.39
745.52	35448.26
745.86	35568.03
746.199	35367.59
746.538	35413.91
746.877	35432.22
747.216	35395.38
747.556	35297.08
747.895	35232.68
748.234	35015.51
748.573	34990.87
748.911	34857.77
749.25	34980.93
749.589	34736.64
749.928	34658.91
750.267	34705.91
750.605	34570.32
750.944	34566.93
751.283	34410.32
751.621	34431.11
751.96	34243.55
752.298	34250.55
752.636	34304.56
752.975	34034.97
753.313	34024.12
753.651	34116.77
753.989	33864.8
754.327	33758.82
754.666	33663
755.004	33609.22
755.342	33567.63
755.679	33449.22
756.017	33386.4
756.355	33418.03
756.693	33256.23
757.031	33320.41
757.368	33041.77
757.706	32990.02
758.044	32895.34
758.381	32935.33
758.719	32832.96
759.056	32803.13
759.394	32631.16
759.731	32435.46
760.068	32414.9
760.405	32115.92
760.743	32192.53
761.08	32201.34
761.417	32023.72
761.754	31985.08
762.091	31947.11
762.428	31889.03
762.765	31576.05
763.102	31712.54
763.438	31519.55
763.775	31230.75
764.112	31377.18
764.449	31242.05
764.785	31127.92
765.122	30935.16
765.458	30906.01
765.795	30822.4
766.131	30830.08
766.467	30631.44
766.804	30529.3
767.14	30281.85
767.476	30341.28
767.812	30139.7
768.148	30271.9
768.485	30029.65
768.821	29763.21
769.157	29847.28
769.492	29863.78
769.828	29642.54
770.164	29523.67
770.5	29292.72
770.836	29364.81
771.171	29138.6
771.507	29091.59
771.842	29032.84
772.178	28952.16
772.513	28873.75
772.849	28681.89
773.184	28617.03
773.519	28548.56
773.855	28380.88
774.19	28289.13
774.525	28173.65
774.86	28243.25
775.195	28142.92
775.53	27923.71
775.865	27869.71
776.2	27537.74
776.535	27440.34
776.87	27426.1
777.205	27361.92
777.539	27166.22
777.874	27359.44
778.209	26928.26
778.543	26961.93
778.878	26785.67
779.212	26790.86
779.547	26562.62
779.881	26685.33
780.215	26416.64
780.55	26507.93
780.884	26335.73
781.218	26256.87
781.552	26163.99
781.886	26085.8
782.22	25966.03
782.554	25794.28
782.888	25614.62
783.222	25476.55
783.556	25547.28
783.889	25270
784.223	25142.55
784.557	25133.73
784.89	25221.19
785.224	25143.9
785.557	24945.04
785.891	24861.2
786.224	24855.1
786.558	24795.66
786.891	24508.44
787.224	24464.37
787.557	24378.5
787.891	24401.55
788.224	24221.89
788.557	24321.32
788.89	24236.58
789.223	24133.53
789.556	24034.33
789.888	23825.29
790.221	23794.33
790.554	23570.84
790.887	23631.62
791.219	23557.5
791.552	23428.92
791.884	23339.88
792.217	23363.38
792.549	23137.85
792.882	23130.39
793.214	22953.22
793.546	22939.89
793.879	22779.22
794.211	22727.24
794.543	22781.03
794.875	22743.29
795.207	22673.91
795.539	22502.61
795.871	22465.55
796.203	22258.33
796.535	22132
796.867	22182.4
797.198	22053.59
797.53	22099.91
797.862	21944.44
798.193	21972.01
798.525	21828.51
798.856	21832.12
799.188	21696.76
799.519	21508.29
799.85	21466.48
800.182	21513.26
800.513	21431
800.844	21267.17
801.175	21306.04
801.506	21268.52
801.837	21055.42
802.168	21068.98
802.499	20979.72
802.83	20850.45
803.161	20818.59
803.491	20837.57
803.822	20708.09
804.153	20680.74
804.483	20544.93
804.814	20514.19
805.145	20562.33
805.475	20542.89
805.805	20240.08
806.136	20440.75
806.466	20272.39
806.796	20363.46
807.126	20104.71
807.457	20124.6
807.787	20067.65
808.117	19955.11
808.447	19986.07
808.777	19927.77
809.107	19916.92
809.436	19755.12
809.766	19723.7
810.096	19633.09
810.426	19655.01
810.755	19535.01
811.085	19584.05
811.414	19477.38
811.744	19251.63
812.073	19314.22
812.403	19292.98
812.732	19122.36
813.061	19194.23
813.39	19065.19
813.719	18949.71
814.049	19108.58
814.378	19016.15
814.707	18933.67
815.036	18860.22
815.365	18802.15
815.693	18643.73
816.022	18605.77
816.351	18531.65
816.68	18434.7
817.008	18519.89
817.337	18405.77
817.665	18325.55
817.994	18334.14
818.322	18305.66
818.651	18183.41
818.979	18160.36
819.307	18232.67
819.636	18151.77
819.964	18026.12
820.292	18194.93
820.62	18160.81
820.948	17988.61
821.276	18093.24
821.604	18020.02
821.932	18069.74
822.259	18057.08
822.587	17979.34
822.915	17894.37
823.243	18025.67
823.57	17905.67
823.898	17902.51
824.225	17895.05
824.553	17864.54
824.88	17924.66
825.207	17950.19
825.535	17921.49
825.862	17979.34
826.189	17836.52
826.516	17912.45
826.843	17942.51
827.17	18010.76
827.497	17889.85
827.824	17974.6
828.151	17957.88
828.478	17942.51
828.805	17975.28
829.131	17868.61
829.458	17862.51
829.785	17758.11
830.111	17800.14
830.438	17951.32
830.764	17875.17
831.09	17822.74
831.417	17710.2
831.743	17921.72
832.069	17837.65
832.395	17753.13
832.722	17874.26
833.048	17756.3
833.374	17827.94
833.7	17639.69
834.026	17739.35
834.351	17658.45
834.677	17704.77
835.003	17677.66
835.329	17706.13
835.654	17602.4
835.98	17487.61
836.306	17469.53
836.631	17468.85
836.956	17490.77
837.282	17462.3
837.607	17528.28
837.932	17293.49
838.258	17323.77
838.583	17318.57
838.908	17148.86
839.233	17254.62
839.558	17236.54
839.883	17138.01
840.208	17081.51
840.533	17161.74
840.858	17065.7
841.182	17170.78
841.507	17133.49
841.832	17009.2
842.156	16936.21
842.481	16991.8
842.805	16862.99
843.13	16879.26
843.454	16861.18
843.778	16768.53
844.103	16776.89
844.427	16602.43
844.751	16555.65
845.075	16618.48
845.399	16579.61
845.723	16520.62
846.047	16466.39
846.371	16264.81
846.695	16325.6
847.019	16211.48
847.343	16123.8
847.666	15999.73
847.99	15958.83
848.313	16043.58
848.637	15884.94
848.96	15863.92
849.284	15680.87
849.607	15649.01
849.931	15581.67
850.254	15510.93
850.577	15409.24
850.9	15302.13
851.223	15359.3
851.546	15286.08
851.869	15117.27
852.192	15289.7
852.515	15104.84
852.838	15107.1
853.161	15006.77
853.483	14980.55
853.806	14974.22
854.129	14908.01
854.451	14832.08
854.774	14689.26
855.096	14752.54
855.419	14686.77
855.741	14609.71
856.063	14484.07
856.385	14513.67
856.708	14420.34
857.03	14454.01
857.352	14419.44
857.674	14403.39
857.996	14260.12
858.318	14168.37
858.64	14261.93
858.961	14033.91
859.283	14109.84
859.605	14015.38
859.926	14097.41
860.248	14033.01
860.57	13916.85
860.891	14005.44
861.212	13973.12
861.534	13829.4
861.855	13800.92
862.176	13845.89
862.498	13804.54
862.819	13758.21
863.14	13719.79
863.461	13678.67
863.782	13696.74
864.103	13545.11
864.424	13496.75
864.745	13557.76
865.065	13500.59
865.386	13464.66
865.707	13480.7
866.027	13491.78
866.348	13382.4
866.668	13405.9
866.989	13359.8
867.309	13254.27
867.63	13288.17
867.95	13228.73
868.27	13163.65
868.59	13204.78
868.91	13212.46
869.23	13146.93
869.55	13051.34
869.87	13200.71
870.19	13109.64
870.51	13157.32
870.83	13120.04
871.15	12970.66
871.469	12980.61
871.789	13019.93
872.109	12951.23
872.428	12904
872.748	12864
873.067	12894.73
873.386	12915.75
873.706	12891.12
874.025	12800.5
874.344	12759.14
874.663	12816.54
874.982	12723.21
875.301	12707.62
875.62	12703.55
875.939	12649.99
876.258	12678.47
876.577	12604.57
876.896	12599.82
877.214	12606.83
877.533	12593.72
877.852	12684.12
878.17	12588.75
878.489	12462.43
878.807	12520.5
879.125	12466.04
879.444	12542.2
879.762	12402.77
880.08	12541.97
880.398	12421.3
880.716	12374.29
881.034	12315.31
881.352	12373.62
881.67	12329.1
881.988	12295.2
882.306	12311.92
882.624	12190.34
882.941	12260.85
883.259	12154.41
883.577	12154.19
883.894	12164.13
884.212	12106.5
884.529	12111.7
884.846	12066.28
885.164	12002.78
885.481	11999.84
885.798	11967.98
886.115	11942.89
886.432	11981.31
886.75	11888.2
887.067	11931.82
887.383	11783.8
887.7	11882.1
888.017	11720.07
888.334	11758.94
888.651	11679.17
888.967	11738.6
889.284	11646.85
889.6	11582.45
889.917	11493.41
890.233	11580.87
890.55	11527.31
890.866	11459.06
891.182	11401.21
891.498	11375
891.815	11405.05
892.131	11358.95
892.447	11314.66
892.763	11284.38
893.079	11223.82
893.395	11177.94
893.71	11195.79
894.026	11106.3
894.342	11105.63
894.657	10987.44
894.973	11024.5
895.289	11033.76
895.604	10921.22
895.92	10988.12
896.235	10877.38
896.55	10811.85
896.865	10810.72
897.181	10758.97
897.496	10733.66
897.811	10679.87
898.126	10691.4
898.441	10665.86
898.756	10624.06
899.071	10547.22
899.386	10508.81
899.7	10451.18
900.015	10436.27
900.33	10379.54
900.644	10358.08
900.959	10328.25
901.273	10291.64
901.588	10291.64
901.902	10135.26
902.216	10200.79
902.531	10149.94
902.845	10065.43
903.159	9983.4
903.473	10052.09
903.787	9950.18
904.101	9930.97
904.415	9860.46
904.729	9836.28
905.042	9753.12
905.356	9813
905.67	9804.19
905.984	9764.64
906.297	9688.49
906.611	9669.05
906.924	9667.25
907.237	9555.84
907.551	9494.37
907.864	9477.65
908.177	9406.46
908.491	9439.68
908.804	9351.55
909.117	9337.09
909.43	9271.78
909.743	9298.44
910.056	9265.22
910.368	9201.72
910.681	9151.33
910.994	9147.26
911.307	9093.02
911.619	8981.39
911.932	9020.94
912.244	8950.65
912.557	8896.87
912.869	8919.69
913.181	8893.48
913.494	8806.48
913.806	8779.59
914.118	8771
914.43	8734.84
914.742	8727.16
915.054	8639.48
915.366	8628.86
915.678	8609.87
915.99	8534.62
916.302	8443.32
916.613	8433.38
916.925	8375.75
917.236	8316.55
917.548	8342.99
917.859	8321.07
918.171	8258.92
918.482	8249.2
918.794	8244.46
919.105	8252.37
919.416	8101.86
919.727	8180.96
920.038	8086.72
920.349	8058.02
920.66	7966.73
920.971	7952.71
921.282	7893.28
921.593	7948.19
921.903	7826.16
922.214	7817.35
922.525	7783
922.835	7760.63
923.146	7711.14
923.456	7695.32
923.767	7665.04
924.077	7678.15
924.387	7599.73
924.697	7553.18
925.008	7600.41
925.318	7508.66
925.628	7411.94
925.938	7481.54
926.248	7409.45
926.558	7334.65
926.867	7356.35
927.177	7265.28
927.487	7261.66
927.796	7179.18
928.106	7214.88
928.416	7164.94
928.725	7100.31
929.034	7100.76
929.344	7129.46
929.653	7032.51
929.962	7030.25
930.271	7012.63
930.581	6958.62
930.89	6893.76
931.199	6880.88
931.508	6860.54
931.817	6884.72
932.125	6838.85
932.434	6773.31
932.743	6759.53
933.051	6777.38
933.36	6697.15
933.669	6649.25
933.977	6678.62
934.286	6580.32
934.594	6618.51
934.902	6534.67
935.21	6570.15
935.519	6475.92
935.827	6436.14
936.135	6429.82
936.443	6372.64
936.751	6404.28
937.059	6381.91
937.367	6307.33
937.674	6336.03
937.982	6259.88
938.29	6272.31
938.597	6244.28
938.905	6170.61
939.213	6182.82
939.52	6149.37
939.827	6101.01
940.135	6116.6
940.442	6029.15
940.749	6022.6
941.056	6042.48
941.363	5963.16
941.67	5953.45
941.977	5894.69
942.284	5893.79
942.591	5845.2
942.898	5844.07
943.205	5823.73
943.511	5796.16
943.818	5784.64
944.125	5727.46
944.431	5734.47
944.738	5696.95
945.044	5715.26
945.35	5663.06
945.657	5595.49
945.963	5607.47
946.269	5554.59
946.575	5586.68
946.881	5509.62
947.187	5529.28
947.493	5466.23
947.799	5457.41
948.105	5399.11
948.41	5400.01
948.716	5419
949.022	5404.31
949.327	5346.46
949.633	5314.14
949.938	5314.59
950.244	5317.53
950.549	5270.07
950.854	5195.27
951.16	5222.62
951.465	5193.47
951.77	5198.44
952.075	5179
952.38	5102.39
952.685	5149.85
952.99	5072.79
953.294	5034.6
953.599	5004.77
953.904	4973.36
954.209	4974.04
954.513	4990.76
954.818	4950.76
955.122	4863.76
955.426	4850.88
955.731	4912.12
956.035	4849.75
956.339	4780.37
956.643	4851.55
956.948	4733.36
957.252	4759.8
957.556	4738.79
957.86	4657.89
958.163	4746.25
958.467	4671.9
958.771	4695.17
959.075	4637.32
959.378	4577.21
959.682	4590.54
959.985	4586.48
960.289	4513.26
960.592	4529.53
960.896	4561.17
961.199	4470.77
961.502	4455.86
961.805	4480.72
962.108	4431.68
962.411	4447.5
962.714	4351.91
963.017	4361.4
963.32	4353.71
963.623	4325.47
963.926	4313.26
964.228	4278.01
964.531	4294.51
964.833	4272.36
965.136	4227.61
965.438	4266.26
965.741	4237.11
966.043	4193.49
966.345	4169.99
966.648	4161.85
966.95	4085.02
967.252	4103.32
967.554	4085.25
967.856	4107.39
968.158	4040.5
968.46	4031.46
968.761	4037.56
969.063	3991.46
969.365	3976.32
969.666	3946.72
969.968	3931.35
970.269	3947.17
970.571	3925.48
970.872	3869.88
971.174	3877.57
971.475	3852.26
971.776	3851.81
972.077	3820.62
972.378	3777.91
972.679	3822.88
972.98	3754.86
973.281	3752.83
973.582	3730.45
973.883	3721.19
974.183	3736.55
974.484	3703.11
974.785	3665.37
975.085	3638.7
975.386	3639.83
975.686	3651.13
975.986	3606.61
976.287	3640.51
976.587	3555.54
976.887	3597.35
977.187	3518.03
977.487	3538.82
977.787	3541.08
978.087	3485.94
978.387	3481.87
978.687	3465.15
978.987	3458.14
979.286	3452.04
979.586	3455.43
979.885	3402.55
980.185	3398.94
980.484	3371.37
980.784	3358.94
981.083	3365.49
981.382	3322.1
981.682	3334.3
981.981	3289.79
982.28	3302.22
982.579	3261.31
982.878	3280.07
983.177	3228.55
983.475	3233.52
983.774	3203.01
984.073	3167.3
984.372	3175.67
984.67	3205.72
984.969	3192.16
985.267	3158.26
985.566	3105.16
985.864	3110.36
986.162	3097.48
986.461	3073.29
986.759	3072.62
987.057	3036.23
987.355	3022
987.653	3033.07
987.951	3023.58
988.249	2993.07
988.547	2968.21
988.844	2946.74
989.142	2981.77
989.44	2958.72
989.737	2951.26
990.035	2931.6
990.332	2909.91
990.63	2872.85
990.927	2882.57
991.224	2864.49
991.521	2858.16
991.819	2826.3
992.116	2807.77
992.413	2790.82
992.71	2779.29
993.006	2775.68
993.303	2759.86
993.6	2770.25
993.897	2716.02
994.193	2774.77
994.49	2692.29
994.787	2705.85
995.083	2707.88
995.379	2657.03
995.676	2629.92
995.972	2670.59
996.268	2592.86
996.565	2598.28
996.861	2596.02
997.157	2620.2
997.453	2555.57
997.749	2594.89
998.044	2548.34
998.34	2545.17
998.636	2527.55
998.932	2519.19
999.227	2490.71
999.523	2484.84
999.818	2476.02
1000.114	2467.21
1000.409	2435.12
1000.704	2453.65
1001	2403.26
1001.295	2391.5
1001.59	2362.81
1001.885	2398.06
1002.18	2352.41
1002.475	2311.51
1002.77	2324.39
1003.065	2331.17
1003.359	2302.24
1003.654	2295.69
1003.949	2295.24
1004.243	2264.05
1004.538	2248.91
1004.832	2249.81
1005.127	2229.93
1005.421	2240.1
1005.715	2243.71
1006.009	2169.59
1006.304	2199.87
1006.598	2201
1006.892	2127.33
1007.186	2123.04
1007.48	2130.72
1007.773	2072.87
1008.067	2112.87
1008.361	2075.58
1008.655	2084.17
1008.948	2083.26
1009.242	2058.18
1009.535	2039.2
1009.829	2038.97
1010.122	1999.65
1010.415	2019.54
1010.708	1992.87
1011.001	1961.23
1011.295	1977.96
1011.588	1965.3
1011.881	1912.87
1012.173	1938.64
1012.466	1914.68
1012.759	1960.1
1013.052	1896.6
1013.344	1901.57
1013.637	1860.67
1013.93	1888.92
1014.222	1848.24
1014.514	1844.63
1014.807	1834.46
1015.099	1826.32
1015.391	1818.41
1015.683	1794.91
1015.976	1825.64
1016.268	1771.63
1016.56	1758.3
1016.851	1758.75
1017.143	1751.3
1017.435	1740.45
1017.727	1744.97
1018.018	1697.06
1018.31	1705.65
1018.602	1711.97
1018.893	1667.23
1019.185	1673.33
1019.476	1636.95
1019.767	1647.8
1020.058	1657.74
1020.35	1624.75
1020.641	1627.91
1020.932	1615.93
1021.223	1574.8
1021.514	1550.85
1021.804	1579.1
1022.095	1569.38
1022.386	1555.82
1022.677	1548.59
1022.967	1557.4
1023.258	1529.83
1023.548	1509.95
1023.839	1523.28
1024.129	1489.83
1024.419	1506.33
1024.709	1468.37
1025	1489.16
1025.29	1456.16
1025.58	1463.17
1025.87	1466.11
1026.16	1415.94
1026.449	1407.58
1026.739	1412.77
1027.029	1395.6
1027.319	1385.88
1027.608	1389.95
1027.898	1362.38
1028.187	1361.02
1028.477	1364.87
1028.766	1329.16
1029.055	1329.39
1029.344	1334.36
1029.634	1332.55
1029.923	1321.7
1030.212	1300.46
1030.501	1256.17
1030.79	1271.76
1031.078	1259.78
1031.367	1271.08
1031.656	1256.39
1031.945	1232.67
1032.233	1253.68
1032.522	1220.24
1032.81	1221.59
1033.099	1211.65
1033.387	1219.33
1033.675	1208.03
1033.963	1196.96
1034.251	1206
1034.54	1182.72
1034.828	1148.6
1035.116	1177.07
1035.403	1147.47
1035.691	1157.64
1035.979	1137.75
1036.267	1138.43
1036.554	1087.81
1036.842	1089.62
1037.129	1104.76
1037.417	1087.36
1037.704	1067.02
1037.992	1076.06
1038.279	1074.25
1038.566	1077.19
1038.853	1077.19
1039.14	1077.19
