Data from breadboard_white_FLMS001491_00039.txt Node
Date: Wed Feb 08 10:47:39 GMT 2017
User: dcchb
Spectrometer: FLMS00149
Trigger mode: 0
Integration Time (sec): 2.000000E-2
Scans to average: 10
Electric dark correction enabled: true
Nonlinearity correction enabled: false
Boxcar width: 0
XAxis mode: Wavelengths
Number of Pixels in Spectrum: 2048
>>>>>Begin Spectral Data<<<<<
341.393	-15.9
341.776	-15.9
342.16	-15.9
342.543	-47.09
342.927	-52.51
343.31	-64.94
343.693	-57.71
344.077	-66.52
344.46	-80.31
344.843	-51.38
345.226	-42.34
345.61	-48.22
345.993	-30.59
346.376	-0.99
346.759	3.08
347.142	37.65
347.525	53.93
347.908	69.97
348.291	71.1
348.674	92.34
349.057	114.94
349.44	123.53
349.823	156.52
350.206	157.88
350.588	215.05
350.971	220.93
351.354	238.78
351.737	226.12
352.119	242.85
352.502	289.63
352.884	285.56
353.267	300.47
353.65	296.63
354.032	304.99
354.414	328.49
354.797	335.05
355.179	325.56
355.562	321.71
355.944	337.31
356.326	319.91
356.709	358.32
357.091	337.08
357.473	358.55
357.855	352.9
358.238	344.76
358.62	352.45
359.002	343.64
359.384	350.87
359.766	365.1
360.148	355.39
360.53	366.69
360.912	357.65
361.294	368.49
361.676	363.97
362.057	343.64
362.439	336.18
362.821	337.08
363.203	355.16
363.584	344.09
363.966	333.47
364.348	340.25
364.729	348.61
365.111	330.3
365.493	327.36
365.874	331.88
366.256	332.11
366.637	335.27
367.019	312.9
367.4	346.8
367.781	337.31
368.163	330.75
368.544	348.83
368.925	333.01
369.306	350.87
369.688	334.37
370.069	345.22
370.45	335.73
370.831	347.7
371.212	345.44
371.593	365.33
371.974	328.27
372.355	329.4
372.736	332.11
373.117	349.74
373.498	350.64
373.879	355.39
374.26	331.66
374.641	357.87
375.021	335.95
375.402	362.84
375.783	349.96
376.163	348.61
376.544	352.67
376.925	376.63
377.305	357.65
377.686	373.46
378.066	356.97
378.447	349.28
378.827	373.01
379.208	371.66
379.588	364.43
379.968	359.91
380.349	366.91
380.729	366.23
381.109	392.9
381.489	365.78
381.87	380.92
382.25	393.8
382.63	387.7
383.01	388.15
383.39	383.63
383.77	389.96
384.15	381.15
384.53	398.1
384.91	392.45
385.29	415.27
385.67	413.46
386.049	400.81
386.429	409.62
386.809	410.53
387.189	392.67
387.568	415.05
387.948	420.92
388.328	413.92
388.707	397.87
389.087	446.91
389.466	444.65
389.846	425.89
390.225	434.93
390.605	427.93
390.984	438.1
391.363	455.5
391.743	454.37
392.122	487.59
392.501	475.16
392.881	481.26
393.26	474.25
393.639	483.29
394.018	467.25
394.397	510.41
394.776	488.26
395.155	493.69
395.534	511.09
395.913	520.58
396.292	517.87
396.671	525.55
397.05	538.21
397.429	529.84
397.808	545.89
398.186	548.6
398.565	554.7
398.944	562.61
399.323	577.08
399.701	560.58
400.08	570.07
400.458	598.54
400.837	609.39
401.215	615.72
401.594	621.14
401.972	633.12
402.351	638.09
402.729	640.8
403.107	635.83
403.486	675.38
403.864	664.53
404.242	656.4
404.62	691.2
404.999	675.6
405.377	710.86
405.755	722.38
406.133	726.22
406.511	738.88
406.889	737.97
407.267	760.57
407.645	779.56
408.023	797.63
408.401	801.48
408.779	860.68
409.156	847.35
409.534	836.05
409.912	869.95
410.29	870.63
410.667	892.32
411.045	907.69
411.422	923.73
411.8	924.86
412.178	961.02
412.555	976.39
412.933	980.23
413.31	989.95
413.687	1032.43
414.065	1055.71
414.442	1071.07
414.819	1043.05
415.197	1078.53
415.574	1116.72
415.951	1123.05
416.328	1142.94
416.705	1161.24
417.082	1194.69
417.46	1191.75
417.837	1194.23
418.214	1224.97
418.591	1218.19
418.967	1247.11
419.344	1275.14
419.721	1311.29
420.098	1283.95
420.475	1288.92
420.852	1303.16
421.228	1342.48
421.605	1368.47
421.982	1368.92
422.358	1402.36
422.735	1407.11
423.111	1417.96
423.488	1419.31
423.864	1446.66
424.241	1461.57
424.617	1496.15
424.994	1512.87
425.37	1478.07
425.746	1503.15
426.123	1547.9
426.499	1577.27
426.875	1574.34
427.251	1625.18
427.627	1664.96
428.003	1662.24
428.379	1690.49
428.756	1682.81
429.132	1685.29
429.507	1726.2
429.883	1760.77
430.259	1815.23
430.635	1826.53
431.011	1811.62
431.387	1909.24
431.763	1925.97
432.138	1934.55
432.514	1951.28
432.89	1949.24
433.265	2028.56
433.641	2025.85
434.016	2066.53
434.392	2068.79
434.767	2151.95
435.143	2125.28
435.518	2133.19
435.894	2209.57
436.269	2210.25
436.644	2223.81
437.02	2283.02
437.395	2261.1
437.77	2298.16
438.145	2360.31
438.52	2344.94
438.895	2397.14
439.271	2395.56
439.646	2446.4
440.021	2462.22
440.395	2470.36
440.77	2455.9
441.145	2479.17
441.52	2550.36
441.895	2562.56
442.27	2543.8
442.645	2567.53
443.019	2630.35
443.394	2610.92
443.769	2625.61
444.143	2645.95
444.518	2690.92
444.892	2648.21
445.267	2738.15
445.641	2772.05
446.016	2768.43
446.39	2793.06
446.764	2784.25
447.139	2790.35
447.513	2783.57
447.887	2843.46
448.262	2873.51
448.636	2904.92
449.01	2924.58
449.384	2956.45
449.758	2952.15
450.132	3019.04
450.506	3031.25
450.88	3043
451.254	3019.04
451.628	3101.98
452.002	3106.95
452.376	3128.19
452.75	3179.49
453.123	3216.55
453.497	3268.98
453.871	3284.12
454.244	3330.45
454.618	3395.31
454.992	3406.38
455.365	3442.76
455.739	3538.35
456.112	3560.95
456.486	3563.21
456.859	3584.68
457.232	3670.1
457.606	3682.76
457.979	3739.7
458.352	3812.24
458.725	3859.47
459.099	3866.03
459.472	3953.71
459.845	3989.64
460.218	4037.55
460.591	4077.77
460.964	4017.66
461.337	4161.39
461.71	4225.57
462.083	4313.7
462.456	4299.46
462.829	4332.68
463.201	4412.23
463.574	4409.97
463.947	4499.46
464.32	4633.92
464.692	4609.74
465.065	4690.64
465.438	4754.37
465.81	4816.74
466.183	4833.23
466.555	4945.1
466.928	4968.37
467.3	4950.07
467.672	5122.04
468.045	5154.13
468.417	5184.19
468.789	5224.86
469.161	5357.51
469.534	5450.17
469.906	5519.77
470.278	5529.26
470.65	5622.59
471.022	5727.22
471.394	5848.35
471.766	5917.27
472.138	6006.99
472.51	6118.85
472.882	6165.18
473.253	6260.09
473.625	6333.08
473.997	6492.4
474.369	6525.17
474.74	6640.19
475.112	6748.89
475.484	6776.46
475.855	6948.21
476.227	7030.69
476.598	7188.88
476.97	7287.18
477.341	7387.74
477.713	7505.93
478.084	7559.26
478.455	7823.89
478.827	7868.41
479.198	8139.36
479.569	8094.17
479.94	8345.01
480.311	8423.2
480.682	8596.07
481.053	8792.23
481.424	8888.72
481.795	9013.46
482.166	9118.32
482.537	9294.36
482.908	9457.97
483.279	9590.4
483.65	9714.91
484.021	9949.71
484.391	10100.67
484.762	10129.14
485.133	10207.56
485.503	10371.62
485.874	10632.63
486.244	10731.38
486.615	10909.01
486.985	10989
487.356	11243.24
487.726	11295.89
488.097	11564.13
488.467	11633.06
488.837	11883.67
489.207	12066.26
489.578	12144.68
489.948	12268.29
490.318	12526.37
490.688	12544.9
491.058	12647.04
491.428	12904.66
491.798	12995.96
492.168	13271.43
492.538	13270.53
492.908	13429.84
493.278	13613.79
493.648	13629.16
494.017	13889.72
494.387	13990.06
494.757	14015.37
495.126	14228.02
495.496	14269.6
495.866	14362.48
496.235	14618.06
496.605	14638.85
496.974	14821.45
497.344	14845.17
497.713	15071.61
498.082	15081.1
498.452	15284.03
498.821	15470.02
499.19	15445.84
499.559	15671.82
499.928	15820.06
500.298	15853.28
500.667	16105.48
501.036	16037.46
501.405	16268.19
501.774	16231.13
502.143	16417.34
502.512	16451.23
502.88	16552.02
503.249	16693.04
503.618	16856.2
503.987	16922.41
504.356	17050.31
504.724	17094.16
505.093	17207.37
505.462	17328.05
505.83	17418.89
506.199	17676.06
506.567	17832.67
506.936	17871.76
507.304	18033.79
507.672	18162.15
508.041	18250.51
508.409	18387.91
508.777	18485.08
509.145	18622.7
509.514	18640.78
509.882	18850.49
510.25	18892.75
510.618	19066.08
510.986	19098.62
511.354	19415.9
511.722	19447.09
512.09	19660.19
512.458	19668.32
512.826	19860.86
513.193	19892.05
513.561	20085.04
513.929	20214.3
514.297	20381.3
514.664	20512.14
515.032	20661.07
515.4	20792.81
515.767	21009.53
516.135	21041.17
516.502	21044.56
516.869	21409.3
517.237	21511.44
517.604	21552.12
517.972	21732
518.339	22007.7
518.706	21974.93
519.073	22154.36
519.44	22290.18
519.808	22458.99
520.175	22515.71
520.542	22879.09
520.909	23033.21
521.276	23053.77
521.643	23233.65
522.009	23500.77
522.376	23651.5
522.743	23918.38
523.11	24052.84
523.477	24239.96
523.843	24207.41
524.21	24620.28
524.577	24838.13
524.943	25002.87
525.31	25086.04
525.676	25337.1
526.043	25410.77
526.409	25551.79
526.776	25835.39
527.142	25959.68
527.508	26021.83
527.874	26348.15
528.241	26477.64
528.607	26490.07
528.973	26862.71
529.339	26864.97
529.705	27062.03
530.071	27382.92
530.437	27476.48
530.803	27494.79
531.169	27845.74
531.535	27785.85
531.901	27988.56
532.267	28154.43
532.632	28260.19
532.998	28351.26
533.364	28530.46
533.73	28631.48
534.095	28814.3
534.461	28961.64
534.826	29090
535.192	29257.23
535.557	29398.92
535.923	29387.84
536.288	29537.67
536.653	29671
537.019	29676.2
537.384	29936.3
537.749	29994.83
538.114	29979.24
538.479	30139.24
538.845	30289.97
539.21	30451.54
539.575	30487.48
539.94	30593.24
540.305	30846.56
540.67	30662.84
541.034	30816.05
541.399	30957.75
541.764	31132.43
542.129	31312.31
542.494	31270.96
542.858	31499.88
543.223	31488.35
543.587	31740.32
543.952	31630.27
544.316	31823.03
544.681	31736.93
545.045	32059.19
545.41	32194.32
545.774	32309.35
546.138	32253.3
546.503	32265.28
546.867	32426.63
547.231	32749.79
547.595	32714.76
547.959	32837.02
548.324	32837.47
548.688	32987.52
549.052	33100.51
549.416	33140.29
549.779	33323.78
550.143	33378.92
550.507	33656.43
550.871	33703.89
551.235	33732.14
551.599	34038.57
551.962	34038.57
552.326	34103.65
552.689	34415.06
553.053	34167.15
553.417	34301.16
553.78	34896.85
554.143	34663.18
554.507	34933.23
554.87	34990.41
555.234	35326.67
555.597	35090.29
555.96	35350.85
556.323	35476.04
556.686	35543.61
557.05	35825.41
557.413	35926.2
557.776	36009.82
558.139	36197.83
558.502	36241.22
558.865	36445.06
559.228	36857.03
559.59	36859.74
559.953	36857.93
560.316	37330.01
560.679	37269.44
561.041	37388.99
561.404	37665.37
561.767	37888.18
562.129	37844.12
562.492	38182.19
562.854	38218.12
563.217	38176.99
563.579	38345.35
563.941	38620.59
564.304	38738.11
564.666	39030.3
565.028	39221.48
565.39	39283.85
565.753	39511.42
566.115	39522.04
566.477	39711.87
566.839	39807.68
567.201	40033.44
567.563	40145.53
567.925	40391.85
568.287	40509.81
568.648	40421.68
569.01	40838.62
569.372	40860.31
569.734	40884.72
570.095	41115.67
570.457	41307.98
570.819	41403.57
571.18	41395.66
571.542	41611.93
571.903	41590.46
572.265	41777.57
572.626	41836.78
572.987	41879.27
573.349	42121.52
573.71	42187.05
574.071	42255.08
574.432	42327.84
574.794	42728.51
575.155	42678.34
575.516	42698.23
575.877	42818.45
576.238	42760.37
576.599	43037.88
576.96	42998.33
577.32	42971.67
577.681	43195.84
578.042	43256.18
578.403	43269.51
578.763	43311.32
579.124	43407.81
579.485	43510.41
579.845	43557.41
580.206	43614.59
580.566	43746.79
580.927	43662.04
581.287	43801.25
581.648	43579.79
582.008	43913.11
582.368	43676.28
582.728	43843.28
583.089	43732.78
583.449	43840.8
583.809	43883.06
584.169	43909.5
584.529	43807.35
584.889	44231.07
585.249	43884.19
585.609	43846.67
585.969	43974.58
586.329	43810.74
586.688	43977.74
587.048	43951.98
587.408	43949.04
587.768	43914.01
588.127	43992.2
588.487	43787.69
588.846	44186.1
589.206	43855.94
589.565	43969.61
589.925	44198.75
590.284	43902.72
590.643	43902.04
591.003	44148.36
591.362	44209.37
591.721	44090.96
592.08	44142.94
592.44	44274.46
592.799	44163.27
593.158	44081.02
593.517	44127.57
593.876	44097.96
594.235	44087.57
594.593	44178.64
594.952	44211.18
595.311	44019.1
595.67	44323.72
596.029	44437.16
596.387	44521.68
596.746	44532.53
597.104	44237.17
597.463	44292.76
597.822	44517.16
598.18	44347.45
598.538	44360.1
598.897	44440.1
599.255	44098.42
599.613	44814.1
599.972	44462.93
600.33	44527.11
600.688	44353.55
601.046	44524.39
601.404	44821.34
601.762	44769.13
602.12	44793.09
602.478	44857.94
602.836	44841.9
603.194	44678.74
603.552	44808.23
603.91	44722.81
604.268	44896.81
604.625	44743.6
604.983	44967.55
605.341	44826.08
605.698	45068.56
606.056	44983.14
606.413	44987.66
606.771	45146.98
607.128	45264.26
607.485	45050.26
607.843	45027.66
608.2	45305.16
608.557	45464.93
608.914	45207.77
609.272	45486.18
609.629	45407.31
609.986	45746.28
610.343	45461.77
610.7	45859.5
611.057	45626.29
611.414	45557.59
611.771	45717.81
612.127	45736.79
612.484	45684.14
612.841	45896.34
613.198	45653.63
613.554	45751.48
613.911	45962.32
614.267	46054.52
614.624	45929.78
614.98	46006.84
615.337	46084.35
615.693	46109.89
616.05	46058.59
616.406	46313.95
616.762	46108.76
617.118	46242.99
617.475	46193.28
617.831	46288.19
618.187	46383.33
618.543	46214.97
618.899	46596.43
619.255	46339.49
619.611	46258.81
619.967	46548.97
620.323	46582.65
620.678	46481.86
621.034	46401.86
621.39	46490.44
621.746	46355.76
622.101	46809.53
622.457	46456.32
622.812	46553.95
623.168	46572.25
623.523	46482.08
623.879	46633.04
624.234	46452.03
624.589	46593.72
624.945	46599.82
625.3	46727.27
625.655	46568.18
626.01	46612.25
626.365	46667.16
626.72	46571.35
627.075	46495.42
627.43	46552.36
627.785	46493.16
628.14	46539.26
628.495	46547.17
628.85	46473.5
629.205	46265.82
629.559	46636.88
629.914	46374.29
630.269	46285.48
630.623	46201.41
630.978	46205.25
631.332	46258.13
631.687	46295.2
632.041	46188.08
632.396	46210.68
632.75	46098.36
633.104	46132.04
633.459	45960.06
633.813	45887.3
634.167	45814.3
634.521	45931.36
634.875	45766.17
635.229	45786.73
635.583	45624.03
635.937	45594.2
636.291	45692.5
636.645	45695.21
636.999	45602.78
637.352	45640.98
637.706	45339.06
638.06	45634.2
638.413	45391.04
638.767	45272.4
639.121	45319.63
639.474	45048.9
639.828	45136.81
640.181	45091.61
640.534	45152.85
640.888	45016.13
641.241	44863.59
641.594	44767.1
641.947	45043.25
642.301	44873.99
642.654	44760.32
643.007	44729.13
643.36	44801
643.713	44655.69
644.066	44756.48
644.419	44615.01
644.771	44228.36
645.124	43970.28
645.477	43899.33
645.83	43591.31
646.182	43434.25
646.535	43234.71
646.888	43234.94
647.24	43023.42
647.593	43212.79
647.945	43106.8
648.298	42968.28
648.65	42862.97
649.002	42824.33
649.355	42977.99
649.707	42851.22
650.059	43009.41
650.411	43427.02
650.763	43426.12
651.115	43934.35
651.467	43751.76
651.819	43639.22
652.171	43517.19
652.523	43451.2
652.875	43476.51
653.227	43263.18
653.578	43581.37
653.93	43401.71
654.282	43290.3
654.633	43216.63
654.985	43315.39
655.337	43174.15
655.688	43260.47
656.039	43387.25
656.391	42914.04
656.742	43202.4
657.094	43071.1
657.445	43220.93
657.796	43004.21
658.147	42925.57
658.498	43074.49
658.849	42992.91
659.2	42933.7
659.551	42843.31
659.902	42938.9
660.253	42905.91
660.604	43000.37
660.955	42787.49
661.306	42829.98
661.656	42828.39
662.007	42717.89
662.358	42792.46
662.708	42736.42
663.059	42676.31
663.409	42406.03
663.76	42852.12
664.11	42761.95
664.461	42615.07
664.811	42622.3
665.161	42614.39
665.511	42504.79
665.862	42448.52
666.212	42709.3
666.562	42706.14
666.912	42550.21
667.262	42510.21
667.612	42459.14
667.962	42591.11
668.312	42320.84
668.662	42547.95
669.011	42451.23
669.361	42400.38
669.711	42483.77
670.06	42268.63
670.41	42286.94
670.76	42166.04
671.109	42303.44
671.459	42218.01
671.808	42046.04
672.157	42293.72
672.507	41918.14
672.856	41977.79
673.205	41862.77
673.554	42091.24
673.904	41919.27
674.253	41975.99
674.602	41988.87
674.951	41219.85
675.3	41142.56
675.649	41703.45
675.998	41632.72
676.346	41706.16
676.695	41835.43
677.044	41605.15
677.393	41583.91
677.741	41665.26
678.09	41576.22
678.438	41477.24
678.787	41515.66
679.135	41477.47
679.484	41283.12
679.832	41398.37
680.181	41159.28
680.529	41177.59
680.877	41105.05
681.225	40992.74
681.573	41407.41
681.922	41066.18
682.27	40903.02
682.618	40803.59
682.966	40861.67
683.314	40865.96
683.661	40748.9
684.009	40439.98
684.357	40312.98
684.705	40335.13
685.053	40342.58
685.4	40344.39
685.748	40185.53
686.095	40192.76
686.443	39996.6
686.79	39868.47
687.138	39916.83
687.485	39866.66
687.832	39849.26
688.18	39788.02
688.527	39612.43
688.874	39530.4
689.221	39564.3
689.568	39304.19
689.915	39282.72
690.262	39404.08
690.609	39190.98
690.956	38990.53
691.303	39101.71
691.65	38922.28
691.997	38887.71
692.344	38666.7
692.69	38691.55
693.037	38646.81
693.383	38327.95
693.73	38518.45
694.077	38129.31
694.423	38212.02
694.769	38051.12
695.116	37913.72
695.462	37813.38
695.808	37719.15
696.155	37898.81
696.501	37598.7
696.847	37612.94
697.193	37337.69
697.539	37554.63
697.885	37093.4
698.231	37020.18
698.577	36922.56
698.923	36962.56
699.269	36860.19
699.614	36565.51
699.96	36521.21
700.306	36445.74
700.651	36294.1
700.997	36258.62
701.342	36245.29
701.688	36121
702.033	35982.47
702.379	35975.47
702.724	35838.52
703.069	35981.34
703.415	35605.98
703.76	35493.67
704.105	35493.67
704.45	35370.28
704.795	35138.65
705.14	35034.7
705.485	35083.06
705.83	34925.32
706.175	35056.85
706.52	34897.75
706.865	34768.27
707.209	34740.24
707.554	34575.5
707.899	34763.29
708.243	34441.72
708.588	34384.55
708.932	34032.69
709.277	34287.38
709.621	34159.92
709.966	33915.86
710.31	34042.86
710.654	33661.18
710.998	33774.62
711.342	33790.21
711.687	33646.04
712.031	33598.81
712.375	33328.53
712.719	33358.81
713.063	33335.31
713.407	33472.93
713.75	33227.97
714.094	33156.11
714.438	33049.67
714.782	33171.25
715.125	32858.26
715.469	32925.15
715.812	32752.27
716.156	32597.25
716.499	32614.42
716.843	32704.82
717.186	32387.76
717.53	32609
717.873	32567.19
718.216	32363.58
718.559	32238.39
718.902	32082.69
719.246	32196.81
719.589	31985.51
719.932	31858.74
720.275	31964.5
720.617	31974.67
720.96	31889.02
721.303	31784.62
721.646	31852.86
721.989	31650.83
722.331	31667.11
722.674	31498.75
723.016	31600.67
723.359	31412.87
723.701	31527.9
724.044	31324.52
724.386	31025.54
724.729	31258.08
725.071	31152.99
725.413	31170.85
725.755	31117.97
726.097	30929.72
726.439	30838.43
726.782	30758.43
727.124	30953
727.465	30746
727.807	30630.52
728.149	30526.12
728.491	30568.15
728.833	30522.5
729.175	30398.89
729.516	30470.07
729.858	30342.17
730.199	30300.81
730.541	30320.93
730.882	30150.31
731.224	30149.4
731.565	30195.28
731.906	30172.68
732.248	30137.43
732.589	29961.84
732.93	29756.65
733.271	29769.53
733.612	29821.96
733.953	29798.23
734.294	29706.03
734.635	29619.25
734.976	29621.06
735.317	29545.81
735.658	29557.33
735.999	29487.73
736.339	29501.51
736.68	29551.91
737.021	29410.22
737.361	29163.89
737.702	29326.15
738.042	29198.7
738.383	29104.46
738.723	29200.05
739.063	29002.09
739.404	29108.08
739.744	29075.99
740.084	28895.65
740.424	28825.15
740.764	28735.43
741.104	28840.96
741.444	28613.4
741.784	28550.35
742.124	28558.03
742.464	28592.61
742.804	28509.67
743.143	28397.36
743.483	28465.16
743.823	28234.2
744.162	28247.31
744.502	28321.2
744.841	28197.14
745.181	28256.12
745.52	28146.07
745.86	28173.41
746.199	28117.59
746.538	28070.59
746.877	28072.85
747.216	28039.63
747.556	27821.78
747.895	27886.64
748.234	27681.67
748.573	27721.22
748.911	27601.68
749.25	27645.52
749.589	27401.68
749.928	27488.01
750.267	27582.47
750.605	27414.11
750.944	27292.76
751.283	27227
751.621	27257.05
751.96	27087.34
752.298	26990.84
752.636	27001.01
752.975	26806.22
753.313	26698.2
753.651	26999.21
753.989	26749.04
754.327	26674.24
754.666	26660.68
755.004	26516.05
755.342	26667.69
755.679	26420.46
756.017	26249.39
756.355	26388.15
756.693	26222.05
757.031	26246
757.368	26134.14
757.706	26066.35
758.044	25921.72
758.381	25961.27
758.719	25857.09
759.056	25851.21
759.394	25755.85
759.731	25566.02
760.068	25590.43
760.405	25553.59
760.743	25354.05
761.08	25461.39
761.417	25243.77
761.754	25201.96
762.091	25140.95
762.428	24976.21
762.765	24822.54
763.102	25039.03
763.438	24914.51
763.775	24701.86
764.112	24693.96
764.449	24645.37
764.785	24462.1
765.122	24338.03
765.458	24249
765.795	24311.37
766.131	24215.78
766.467	24154.76
766.804	24051.49
767.14	23945.95
767.476	23895.33
767.812	23886.97
768.148	23908.89
768.485	23570.59
768.821	23372.18
769.157	23406.53
769.492	23387.32
769.828	23365.63
770.164	23093.32
770.5	23105.07
770.836	23077.95
771.171	22889.71
771.507	22844.29
771.842	22825.76
772.178	22625.54
772.513	22760.67
772.849	22627.12
773.184	22482.71
773.519	22383.73
773.855	22348.03
774.19	22144.87
774.525	22089.28
774.86	22059
775.195	22162.04
775.53	21954.14
775.865	21926.34
776.2	21715.05
776.535	21675.05
776.87	21499.24
777.205	21440.03
777.539	21313.71
777.874	21449.52
778.209	21270.54
778.543	21186.93
778.878	20928.63
779.212	21077.33
779.547	20929.76
779.881	20929.99
780.215	20841.18
780.55	20775.87
780.884	20730.67
781.218	20539.26
781.552	20634.17
781.886	20531.13
782.22	20353.5
782.554	20273.73
782.888	20081.65
783.222	20042.55
783.556	20075.32
783.889	20017.69
784.223	19841.65
784.557	19762.79
784.89	19720.3
785.224	19699.28
785.557	19564.15
785.891	19509.23
786.224	19552.62
786.558	19467.2
786.891	19285.74
787.224	19170.94
787.557	19144.95
787.891	19066.31
788.224	19172.74
788.557	19070.15
788.89	19049.58
789.223	18947.44
789.556	18710.38
789.888	18720.55
790.221	18700.21
790.554	18456.83
790.887	18595.58
791.219	18386.55
791.552	18440.33
791.884	18274.91
792.217	18271.53
792.549	18283.73
792.882	18027.69
793.214	17978.2
793.546	18065.65
793.879	17908.82
794.211	17776.4
794.543	17897.07
794.875	17815.04
795.207	17742.95
795.539	17643.29
795.871	17660.69
796.203	17520.36
796.535	17429.29
796.867	17403.75
797.198	17424.54
797.53	17362.62
797.862	17277.2
798.193	17230.87
798.525	17152.01
798.856	17101.61
799.188	16957.44
799.519	16940.26
799.85	16754.95
800.182	16810.77
800.513	16750.21
800.844	16648.74
801.175	16612.81
801.506	16580.5
801.837	16486.71
802.168	16545.24
802.499	16509.76
802.83	16404.23
803.161	16326.49
803.491	16276.32
803.822	16240.62
804.153	16133.95
804.483	16065.03
804.814	15987.97
805.145	16013.05
805.475	16050.34
805.805	15863
806.136	15823
806.466	15898.71
806.796	15766.51
807.126	15700.29
807.457	15588.43
807.787	15669.33
808.117	15543.91
808.447	15522.22
808.777	15584.36
809.107	15493.97
809.436	15460.07
809.766	15469.11
810.096	15331.26
810.426	15292.62
810.755	15310.47
811.085	15205.84
811.414	15207.2
811.744	15065.06
812.073	15093.76
812.403	15164.49
812.732	15014.44
813.061	15019.86
813.39	14842.69
813.719	14922.23
814.049	14912.29
814.378	14849.47
814.707	14801.56
815.036	14752.07
815.365	14601.57
815.693	14627.1
816.022	14679.76
816.351	14605.86
816.68	14359.54
817.008	14485.86
817.337	14407.22
817.665	14321.12
817.994	14451.06
818.322	14393.44
818.651	14142.82
818.979	14233.21
819.307	14293.32
819.636	14229.82
819.964	14064.18
820.292	14142.14
820.62	14110.73
820.948	14039.77
821.276	14127.45
821.604	14057.85
821.932	14134.68
822.259	14082.03
822.587	14063.95
822.915	13966.55
823.243	14084.97
823.57	13963.62
823.898	14122.93
824.225	13922.71
824.553	13890.85
824.88	14006.78
825.207	13994.58
825.535	13962.71
825.862	14011.52
826.189	13963.39
826.516	14025.08
826.843	13982.15
827.17	14040.68
827.497	14078.87
827.824	14034.12
828.151	14117.51
828.478	14032.31
828.805	14030.73
829.131	14038.42
829.458	14008.81
829.785	13866.9
830.111	13953.45
830.438	14041.81
830.764	13909.15
831.09	13997.29
831.417	13833.68
831.743	13914.58
832.069	13910.51
832.395	13876.61
832.722	13877.06
833.048	13826.67
833.374	13867.12
833.7	13873.45
834.026	13781.25
834.351	13812.43
834.677	13793.45
835.003	13794.81
835.329	13810.63
835.654	13714.81
835.98	13623.29
836.306	13728.82
836.631	13623.96
836.956	13643.17
837.282	13670.06
837.607	13525.44
837.932	13563.17
838.258	13578.32
838.583	13532.44
838.908	13474.36
839.233	13485.66
839.558	13467.13
839.883	13394.37
840.208	13340.36
840.533	13357.3
840.858	13304.42
841.182	13382.39
841.507	13327.47
841.832	13279.57
842.156	13278.21
842.481	13235.27
842.805	13147.59
843.13	13133.36
843.454	13128.61
843.778	12975.85
844.103	13059.01
844.427	13048.16
844.751	12997.99
845.075	12951.89
845.399	12878.22
845.723	12851.33
846.047	12805.23
846.371	12638.23
846.695	12772.23
847.019	12588.96
847.343	12572.92
847.666	12519.81
847.99	12481.85
848.313	12503.09
848.637	12363.88
848.96	12398.23
849.284	12397.56
849.607	12245.92
849.931	12179.03
850.254	12130.9
850.577	12034.4
850.9	11983.33
851.223	11934.29
851.546	11830.56
851.869	11877.57
852.192	11881.64
852.515	11702.66
852.838	11652.72
853.161	11704.69
853.483	11650.68
853.806	11512.83
854.129	11513.96
854.451	11563.68
854.774	11484.13
855.096	11512.38
855.419	11445.26
855.741	11391.25
856.063	11369.11
856.385	11339.96
856.708	11259.73
857.03	11134.09
857.352	11255.21
857.674	11087.99
857.996	11094.31
858.318	11058.61
858.64	11049.57
858.961	11018.83
859.283	11034.43
859.605	10932.96
859.926	10944.94
860.248	10862.23
860.57	10794.21
860.891	10851.38
861.212	10792.4
861.534	10803.47
861.855	10756.92
862.176	10775.9
862.498	10739.07
862.819	10785.39
863.14	10658.62
863.461	10664.04
863.782	10614.78
864.103	10608.9
864.424	10594.21
864.745	10602.12
865.065	10545.63
865.386	10481.9
865.707	10478.74
866.027	10471.96
866.348	10452.75
866.668	10466.98
866.989	10396.7
867.309	10301.11
867.63	10364.84
867.95	10293.43
868.27	10268.8
868.59	10304.05
868.91	10280.77
869.23	10244.39
869.55	10222.25
869.87	10247.33
870.19	10258.4
870.51	10208.01
870.83	10208.69
871.15	10112.19
871.469	10121.91
871.789	10102.7
872.109	10109.93
872.428	10069.48
872.748	10108.12
873.067	10026.32
873.386	10055.47
873.706	10016.38
874.025	9988.58
874.344	9984.51
874.663	9986.09
874.982	9930.73
875.301	9927.56
875.62	9808.7
875.939	9797.62
876.258	9859.99
876.577	9841.46
876.896	9822.93
877.214	9794.01
877.533	9792.88
877.852	9865.64
878.17	9752.2
878.489	9766.66
878.807	9765.31
879.125	9717.17
879.444	9743.39
879.762	9703.61
880.08	9700.45
880.398	9602.83
880.716	9624.52
881.034	9581.81
881.352	9643.96
881.67	9587.91
881.988	9610.06
882.306	9483.96
882.624	9523.05
882.941	9422.72
883.259	9417.29
883.577	9416.39
883.894	9447.35
884.212	9351.53
884.529	9422.72
884.846	9402.83
885.164	9278.54
885.481	9312.21
885.798	9308.15
886.115	9274.93
886.432	9267.24
886.75	9203.52
887.067	9280.58
887.383	9131.88
887.7	9244.87
888.017	9147.02
888.334	9146.79
888.651	9153.12
888.967	9084.65
889.284	9036.97
889.6	9052.11
889.917	9042.62
890.233	8977.53
890.55	8966.46
890.866	8942.28
891.182	8863.64
891.498	8857.54
891.815	8810.31
892.131	8821.6
892.447	8764.66
892.763	8767.37
893.079	8713.81
893.395	8664.77
893.71	8638.11
894.026	8638.11
894.342	8627.26
894.657	8574.83
894.973	8525.57
895.289	8558.79
895.604	8510.88
895.92	8454.38
896.235	8433.14
896.55	8467.72
896.865	8519.01
897.181	8362.86
897.496	8433.37
897.811	8319.24
898.126	8284.9
898.441	8228.85
898.756	8213.03
899.071	8194.95
899.386	8182.07
899.7	8207.61
900.015	8103.88
900.33	7996.99
900.644	8066.14
900.959	8017.56
901.273	8042.19
901.588	7913.83
901.902	7904.79
902.216	7868.41
902.531	7894.17
902.845	7882.42
903.159	7852.82
903.473	7773.04
903.787	7778.69
904.101	7790.22
904.415	7708.19
904.729	7750.67
905.042	7632.48
905.356	7566.5
905.67	7588.42
905.984	7609.66
906.297	7607.62
906.611	7458.7
906.924	7558.36
907.237	7495.54
907.551	7414.41
907.864	7430.68
908.177	7333.06
908.491	7377.8
908.804	7336.45
909.117	7285.37
909.43	7219.84
909.743	7192.72
910.056	7193.17
910.368	7198.82
910.681	7111.82
910.994	7089.67
911.307	7039.5
911.619	6963.8
911.932	7046.96
912.244	6919.28
912.557	6874.76
912.869	6936
913.181	6933.97
913.494	6837.7
913.806	6809.91
914.118	6813.75
914.43	6730.59
914.742	6799.51
915.054	6722.68
915.366	6711.6
915.678	6721.77
915.99	6643.58
916.302	6597.93
916.613	6528.11
916.925	6510.93
917.236	6519.74
917.548	6474.77
917.859	6509.57
918.171	6491.27
918.482	6441.55
918.794	6388.67
919.105	6350.48
919.416	6325.62
919.727	6296.92
920.038	6291.95
920.349	6294.44
920.66	6242.01
920.971	6245.17
921.282	6139.87
921.593	6110.49
921.903	6093.09
922.214	6035.01
922.525	6072.52
922.835	6036.37
923.146	5989.14
923.456	5963.37
923.767	5932.19
924.077	5952.75
924.387	5920.66
924.697	5898.07
925.008	5870.04
925.318	5832.76
925.628	5820.55
925.938	5799.31
926.248	5748.24
926.558	5788.24
926.867	5740.56
927.177	5684.29
927.487	5681.8
927.796	5595.47
928.106	5594.34
928.416	5595.7
928.725	5594.12
929.034	5491.3
929.344	5528.36
929.653	5487.45
929.962	5415.59
930.271	5488.81
930.581	5402.49
930.89	5395.71
931.199	5362.26
931.508	5358.19
931.817	5356.16
932.125	5324.3
932.434	5372.66
932.743	5277.29
933.051	5249.04
933.36	5193.23
933.669	5177.63
933.977	5139.44
934.286	5156.62
934.594	5139.67
934.902	5087.69
935.21	5105.09
935.519	5077.3
935.827	5021.25
936.135	5030.74
936.443	4979.22
936.751	4946.45
937.059	4998.43
937.367	4927.7
937.674	4888.83
937.982	4885.66
938.29	4878.43
938.597	4842.05
938.905	4808.38
939.213	4790.75
939.52	4797.3
939.827	4827.58
940.135	4754.59
940.442	4704.65
940.749	4729.96
941.056	4734.25
941.363	4652.45
941.67	4609.29
941.977	4636.18
942.284	4608.16
942.591	4645.67
942.898	4543.75
943.205	4554.82
943.511	4530.64
943.818	4527.93
944.125	4493.36
944.431	4491.32
944.738	4453.36
945.044	4429.18
945.35	4435.28
945.657	4390.31
945.963	4380.82
946.269	4335.62
946.575	4362.96
946.881	4377.2
947.187	4305.79
947.493	4294.94
947.799	4285
948.105	4245.91
948.41	4248.39
948.716	4234.38
949.022	4186.47
949.327	4201.16
949.633	4166.81
949.938	4097.89
950.244	4159.13
950.549	4165.23
950.854	4097.89
951.16	4078.9
951.465	4054.5
951.77	4057.21
952.075	4039.13
952.38	3972.47
952.685	4035.52
952.99	4009.98
953.294	3932.69
953.599	3939.7
953.904	3920.72
954.209	3878.46
954.513	3906.71
954.818	3868.06
955.122	3853.83
955.426	3833.03
955.731	3802.08
956.035	3774.51
956.339	3755.97
956.643	3776.09
956.948	3773.38
957.252	3733.83
957.556	3702.87
957.86	3642.53
958.163	3678.01
958.467	3695.64
958.771	3661.29
959.075	3694.96
959.378	3602.53
959.682	3625.36
959.985	3587.17
960.289	3561.4
960.592	3559.82
960.896	3518.92
961.199	3521.63
961.502	3495.19
961.805	3464.46
962.108	3471.01
962.411	3477.34
962.714	3438.69
963.017	3423.33
963.32	3423.78
963.623	3407.51
963.926	3391.01
964.228	3403.22
964.531	3337
964.833	3355.08
965.136	3352.14
965.438	3325.7
965.741	3302.2
966.043	3263.56
966.345	3279.15
966.648	3261.98
966.95	3243.22
967.252	3205.71
967.554	3212.49
967.856	3173.62
968.158	3194.41
968.46	3178.81
968.761	3144.24
969.063	3130.45
969.365	3108.08
969.666	3104.69
969.968	3090.68
970.269	3102.21
970.571	3082.55
970.872	3052.72
971.174	3041.19
971.475	3031.02
971.776	2981.08
972.077	3001.42
972.378	2992.38
972.679	2990.57
972.98	3016.33
973.281	2953.96
973.582	2951.25
973.883	2930.69
974.183	2917.13
974.484	2882.55
974.785	2918.71
975.085	2908.99
975.386	2899.27
975.686	2857.47
975.986	2858.82
976.287	2863.79
976.587	2790.35
976.887	2779.5
977.187	2813.85
977.487	2769.11
977.787	2756.9
978.087	2751.03
978.387	2724.59
978.687	2780.86
978.987	2708.32
979.286	2680.07
979.586	2699.51
979.885	2693.18
980.185	2684.59
980.484	2630.58
980.784	2648.21
981.083	2612.73
981.382	2640.52
981.682	2668.77
981.981	2579.73
982.28	2589.9
982.579	2541.32
982.878	2606.63
983.177	2573.63
983.475	2582.67
983.774	2536.57
984.073	2521.43
984.372	2499.28
984.67	2510.58
984.969	2513.07
985.267	2506.52
985.566	2471.94
985.864	2447.53
986.162	2460.42
986.461	2429
986.759	2411.6
987.057	2410.02
987.355	2391.49
987.653	2402.11
987.951	2398.5
988.249	2373.86
988.547	2376.8
988.844	2353.3
989.142	2372.28
989.44	2290.25
989.737	2313.98
990.035	2288.89
990.332	2292.74
990.63	2296.58
990.927	2241.89
991.224	2273.53
991.521	2251.83
991.819	2235.79
992.116	2236.92
992.413	2258.84
992.71	2219.97
993.006	2215.9
993.303	2184.94
993.6	2220.65
993.897	2154.43
994.193	2153.08
994.49	2156.47
994.787	2172.06
995.083	2137.71
995.379	2132.29
995.676	2085.06
995.972	2081.89
996.268	2082.57
996.565	2076.02
996.861	2072.86
997.157	2060.65
997.453	2042.8
997.749	2002.8
998.044	2034.66
998.34	1989.24
998.636	2007.09
998.932	2008.22
999.227	1991.73
999.523	1959.41
999.818	1965.74
1000.114	1960.77
1000.409	1975
1000.704	1917.38
1001	1909.47
1001.295	1885.97
1001.59	1898.62
1001.885	1871.73
1002.18	1853.65
1002.475	1906.98
1002.77	1873.76
1003.065	1847.55
1003.359	1836.7
1003.654	1854.1
1003.949	1841.9
1004.243	1810.04
1004.538	1809.81
1004.832	1798.51
1005.127	1775.01
1005.421	1778.17
1005.715	1743.82
1006.009	1749.25
1006.304	1747.21
1006.598	1732.98
1006.892	1718.97
1007.186	1707.89
1007.48	1728.91
1007.773	1684.39
1008.067	1694.56
1008.361	1683.26
1008.655	1648.91
1008.948	1652.53
1009.242	1675.13
1009.535	1627.22
1009.829	1639.42
1010.122	1631.74
1010.415	1613.66
1010.708	1636.48
1011.001	1595.35
1011.295	1596.26
1011.588	1608.23
1011.881	1550.61
1012.173	1593.09
1012.466	1547.9
1012.759	1567.56
1013.052	1523.49
1013.344	1522.14
1013.637	1525.75
1013.93	1500.89
1014.222	1532.3
1014.514	1498.41
1014.807	1489.14
1015.099	1446.43
1015.391	1445.3
1015.683	1457.96
1015.976	1473.77
1016.268	1438.52
1016.56	1437.62
1016.851	1419.54
1017.143	1426.09
1017.435	1396.71
1017.727	1397.17
1018.018	1398.07
1018.31	1384.29
1018.602	1385.19
1018.893	1370.95
1019.185	1351.97
1019.476	1366.21
1019.767	1335.47
1020.058	1328.02
1020.35	1349.48
1020.641	1300.45
1020.932	1291.86
1021.223	1306.55
1021.514	1290.73
1021.804	1283.27
1022.095	1274.46
1022.386	1274.23
1022.677	1235.59
1022.967	1262.71
1023.258	1225.65
1023.548	1220
1023.839	1244.4
1024.129	1228.58
1024.419	1209.83
1024.709	1186.1
1025	1192.88
1025.29	1167.79
1025.58	1173.9
1025.87	1185.42
1026.16	1143.16
1026.449	1161.01
1026.739	1150.62
1027.029	1152.65
1027.319	1177.29
1027.608	1124.41
1027.898	1142.71
1028.187	1083.73
1028.477	1117.63
1028.766	1119.21
1029.055	1072.66
1029.344	1067.46
1029.634	1082.15
1029.923	1086.21
1030.212	1070.85
1030.501	1067.68
1030.79	1057.74
1031.078	1058.87
1031.367	1066.55
1031.656	1027.23
1031.945	1015.03
1032.233	1035.14
1032.522	1005.76
1032.81	1016.61
1033.099	1027.23
1033.387	1015.03
1033.675	989.27
1033.963	965.31
1034.251	992.88
1034.54	981.58
1034.828	944.07
1035.116	941.36
1035.403	964.18
1035.691	942.26
1035.979	933.68
1036.267	938.2
1036.554	927.12
1036.842	933.68
1037.129	944.52
1037.417	906.78
1037.704	918.99
1037.992	935.26
1038.279	893
1038.566	900
1038.853	900
1039.14	900
