Data from breadboard_black_back_FLMS001491_00097.txt Node
Date: Wed Feb 08 10:51:12 GMT 2017
User: dcchb
Spectrometer: FLMS00149
Trigger mode: 0
Integration Time (sec): 2.000000E-2
Scans to average: 10
Electric dark correction enabled: true
Nonlinearity correction enabled: false
Boxcar width: 0
XAxis mode: Wavelengths
Number of Pixels in Spectrum: 2048
>>>>>Begin Spectral Data<<<<<
341.393	-4.75
341.776	-4.75
342.16	-4.75
342.543	-73.22
342.927	-57.4
343.31	-75.25
343.693	-75.48
344.077	-54.24
344.46	-49.72
344.843	-48.36
345.226	-39.32
345.61	-29.6
345.993	-9.72
346.376	-9.94
346.759	11.98
347.142	11.98
347.525	36.84
347.908	31.86
348.291	80.9
348.674	104.18
349.057	113.9
349.44	106.66
349.823	142.82
350.206	167.68
350.588	191.63
350.971	215.36
351.354	218.3
351.737	243.38
352.119	272.54
352.502	269.82
352.884	284.06
353.267	299.2
353.65	298.75
354.032	296.72
354.414	317.51
354.797	311.4
355.179	329.93
355.562	321.8
355.944	324.74
356.326	337.17
356.709	323.38
357.091	347.56
357.473	344.62
357.855	337.17
358.238	339.2
358.62	332.65
359.002	332.19
359.384	360.44
359.766	360.67
360.148	346.88
360.53	336.49
360.912	334.91
361.294	345.75
361.676	345.3
362.057	334.45
362.439	351.18
362.821	333.32
363.203	326.32
363.584	325.64
363.966	350.05
364.348	323.83
364.729	341.23
365.111	340.56
365.493	340.1
365.874	332.42
366.256	335.58
366.637	335.58
367.019	307.56
367.4	341.23
367.781	318.18
368.163	324.06
368.544	344.17
368.925	322.7
369.306	319.09
369.688	302.14
370.069	331.06
370.45	322.7
370.831	366.09
371.212	335.13
371.593	348.01
371.974	337.84
372.355	330.39
372.736	336.04
373.117	350.95
373.498	337.17
373.879	343.04
374.26	352.31
374.641	326.32
375.021	341.69
375.402	362.02
375.783	368.58
376.163	360.89
376.544	374
376.925	342.82
377.305	341.23
377.686	358.86
378.066	357.5
378.447	374.91
378.827	348.47
379.208	369.48
379.588	388.24
379.968	366.54
380.349	394.34
380.729	364.06
381.109	393.89
381.489	380.55
381.87	389.14
382.25	380.33
382.63	379.2
383.01	362.48
383.39	396.83
383.77	377.62
384.15	405.19
384.53	389.82
384.91	398.41
385.29	418.52
385.67	429.59
386.049	414.68
386.429	421.01
386.809	403.83
387.189	414.9
387.568	412.42
387.948	431.85
388.328	406.32
388.707	421.23
389.087	421.46
389.466	429.59
389.846	428.69
390.225	455.36
390.605	440.67
390.984	444.73
391.363	431.18
391.743	453.55
392.122	433.66
392.501	470.72
392.881	442.25
393.26	452.42
393.639	467.11
394.018	457.84
394.397	479.99
394.776	477.05
395.155	481.34
395.534	489.25
395.913	504.39
396.292	479.08
396.671	515.69
397.05	503.26
397.429	509.82
397.808	514.11
398.186	500.1
398.565	506.65
398.944	536.71
399.323	524.96
399.701	534.9
400.08	520.44
400.458	551.62
400.837	543.49
401.215	541.45
401.594	521.79
401.972	545.97
402.351	550.72
402.729	530.61
403.107	571.28
403.486	583.04
403.864	571.51
404.242	560.21
404.62	584.84
404.999	600.89
405.377	596.37
405.755	589.36
406.133	607.67
406.511	608.8
406.889	625.52
407.267	592.53
407.645	616.03
408.023	621.68
408.401	647.67
408.779	620.55
409.156	632.75
409.534	651.96
409.912	650.38
410.29	663.71
410.667	663.71
411.045	681.34
411.422	674.33
411.8	690.83
412.178	714.78
412.555	717.95
412.933	702.35
413.31	719.08
413.687	709.13
414.065	716.37
414.442	747.55
414.819	758.62
415.197	743.03
415.574	773.09
415.951	788.68
416.328	769.47
416.705	799.08
417.082	785.06
417.46	814.22
417.837	797.49
418.214	821.22
418.591	825.52
418.967	824.39
419.344	840.88
419.721	834.1
420.098	851.5
420.475	845.18
420.852	872.97
421.228	866.19
421.605	867.1
421.982	871.62
422.358	868.68
422.735	889.92
423.111	887.43
423.488	925.63
423.864	935.34
424.241	943.48
424.617	938.96
424.994	965.62
425.37	983.02
425.746	977.6
426.123	981.9
426.499	1006.08
426.875	995.23
427.251	1010.82
427.627	1039.29
428.003	1044.04
428.379	1042.23
428.756	1056.02
429.132	1062.12
429.507	1067.32
429.883	1114.32
430.259	1129.91
430.635	1106.64
431.011	1110.25
431.387	1121.78
431.763	1165.62
432.138	1170.36
432.514	1187.31
432.89	1201.55
433.265	1210.36
433.641	1240.42
434.016	1231.83
434.392	1263.24
434.767	1267.31
435.143	1273.19
435.518	1302.56
435.894	1313.19
436.269	1332.39
436.644	1345.28
437.02	1348.67
437.395	1361.77
437.77	1375.11
438.145	1394.77
438.52	1406.52
438.895	1428.21
439.271	1400.19
439.646	1452.17
440.021	1456.46
440.395	1452.62
440.77	1475.67
441.145	1470.92
441.52	1523.35
441.895	1529.68
442.27	1531.71
442.645	1527.64
443.019	1559.96
443.394	1543.24
443.769	1575.55
444.143	1552.28
444.518	1587.75
444.892	1569.45
445.267	1597.47
445.641	1586.4
446.016	1620.3
446.39	1624.82
446.764	1652.39
447.139	1655.78
447.513	1692.61
447.887	1679.5
448.262	1675.66
448.636	1696.68
449.01	1751.37
449.384	1735.55
449.758	1731.25
450.132	1780.52
450.506	1781.87
450.88	1802.66
451.254	1791.59
451.628	1815.77
452.002	1845.38
452.376	1848.99
452.75	1912.49
453.123	1871.36
453.497	1910.91
453.871	1955.2
454.244	1951.81
454.618	1980.29
454.992	1993.17
455.365	2011.92
455.739	2075.43
456.112	2075.88
456.486	2136.89
456.859	2123.79
457.232	2181.19
457.606	2175.99
457.979	2189.55
458.352	2245.14
458.725	2228.87
459.099	2302.31
459.472	2300.28
459.845	2311.8
460.218	2356.77
460.591	2380.95
460.964	2423.44
461.337	2450.33
461.71	2478.13
462.083	2519.48
462.456	2530.1
462.829	2542.53
463.201	2566.71
463.574	2630.44
463.947	2658.24
464.32	2653.49
464.692	2677.22
465.065	2762.87
465.438	2773.71
465.81	2827.27
466.183	2861.62
466.555	2886.03
466.928	2905.69
467.3	2945.23
467.672	2960.37
468.045	3045.57
468.417	3048.73
468.789	3069.98
469.161	3130.31
469.534	3166.92
469.906	3230.2
470.278	3232.68
470.65	3277.88
471.022	3319.46
471.394	3393.58
471.766	3472
472.138	3522.17
472.51	3558.78
472.882	3604.2
473.253	3637.64
473.625	3689.39
473.997	3765.78
474.369	3759.68
474.74	3816.17
475.112	3914.7
475.484	3954.7
475.855	3989.27
476.227	4057.52
476.598	4173.45
476.97	4225.65
477.341	4247.35
477.713	4325.08
478.084	4381.13
478.455	4519.88
478.827	4555.13
479.198	4683.04
479.569	4679.2
479.94	4852.98
480.311	4832.19
480.682	4957.84
481.053	5061.79
481.424	5131.39
481.795	5210.26
482.166	5276.47
482.537	5377.49
482.908	5502.45
483.279	5540.42
483.65	5589.23
484.021	5727.76
484.391	5801.88
484.762	5836.68
485.133	5943.35
485.503	5993.97
485.874	6156.45
486.244	6189.67
486.615	6273.28
486.985	6403.45
487.356	6370
487.726	6528.42
488.097	6616.32
488.467	6680.05
488.837	6907.16
489.207	6952.13
489.578	7007.27
489.948	7081.17
490.318	7201.62
490.688	7245.69
491.058	7352.35
491.428	7437.54
491.798	7569.74
492.168	7713.02
492.538	7758.21
492.908	7732
493.278	7908.49
493.648	7942.39
494.017	7981.94
494.387	8068.94
494.757	8200.46
495.126	8279.78
495.496	8225.77
495.866	8379.67
496.235	8470.29
496.605	8503.28
496.974	8661.02
497.344	8690.39
497.713	8670.96
498.082	8803.84
498.452	8962.93
498.821	8891.74
499.19	8977.39
499.559	9033.43
499.928	9168.12
500.298	9224.16
500.667	9271.39
501.036	9285.18
501.405	9402.01
501.774	9350.94
502.143	9558.17
502.512	9559.97
502.88	9655.34
503.249	9697.37
503.618	9664.83
503.987	9777.6
504.356	9894.2
504.724	9969
505.093	10027.08
505.462	10081.09
505.83	10183.24
506.199	10268.66
506.567	10392.5
506.936	10419.39
507.304	10486.96
507.672	10548.42
508.041	10613.28
508.409	10641.98
508.777	10767.4
509.145	10887.85
509.514	10824.35
509.882	10989.09
510.25	11017.11
510.618	11152.48
510.986	11154.28
511.354	11388.18
511.722	11425.69
512.09	11518.12
512.458	11499.58
512.826	11641.28
513.193	11622.29
513.561	11733.7
513.929	11860.48
514.297	12001.72
514.664	12034.94
515.032	12102.51
515.4	12231.09
515.767	12316.51
516.135	12407.81
516.502	12292.56
516.869	12563.96
517.237	12576.17
517.604	12713.11
517.972	12784.52
518.339	12878.31
518.706	12963.73
519.073	13056.15
519.44	13090.73
519.808	13210.27
520.175	13277.84
520.542	13379.76
520.909	13463.15
521.276	13534.33
521.643	13741.56
522.009	13721.22
522.376	13961.89
522.743	13979.52
523.11	14103.36
523.477	14229.46
523.843	14293.41
524.21	14535.89
524.577	14585.38
524.943	14703.12
525.31	14713.06
525.676	14886.61
526.043	15055.88
526.409	15104.91
526.776	15349.88
527.142	15316.21
527.508	15379.48
527.874	15568.63
528.241	15628.29
528.607	15785.57
528.973	15911.67
529.339	15965.91
529.705	16037.32
530.071	16149.18
530.437	16155.06
530.803	16374.48
531.169	16493.8
531.535	16519.79
531.901	16480.24
532.267	16708.26
532.632	16868.03
532.998	16824.64
533.364	16995.71
533.73	16960.23
534.095	17131.07
534.461	17198.19
534.826	17323.84
535.192	17374.01
535.557	17513.44
535.923	17593.21
536.288	17574.45
536.653	17640.44
537.019	17640.67
537.384	17786.2
537.749	17929.92
538.114	17948.68
538.479	18068.9
538.845	18167.21
539.21	18133.99
539.575	18158.62
539.94	18301.89
540.305	18418.72
540.67	18332.85
541.034	18534.65
541.399	18548.66
541.764	18505.73
542.129	18706.85
542.494	18766.51
542.858	18780.75
543.223	18815.55
543.587	18919.5
543.952	18957.24
544.316	19056.9
544.681	19060.29
545.045	19248.31
545.41	19323.11
545.774	19348.87
546.138	19394.97
546.503	19527.85
546.867	19492.37
547.231	19668.18
547.595	19742.98
547.959	19789.31
548.324	19848.97
548.688	19836.54
549.052	19945.69
549.416	19995.18
549.779	19982.98
550.143	20158.57
550.507	20262.97
550.871	20280.37
551.235	20284.44
551.599	20407.82
551.962	20538.89
552.326	20622.73
552.689	20818.66
553.053	20761.49
553.417	20764.2
553.78	21088.94
554.143	20992.22
554.507	21180.01
554.87	21196.5
555.234	21415.26
555.597	21279.44
555.96	21384.75
556.323	21369.83
556.686	21561.01
557.05	21675.36
557.413	21803.49
557.776	21818.18
558.139	21928.91
558.502	21977.95
558.865	22095.24
559.228	22268.12
559.59	22373.42
559.953	22428.79
560.316	22640.53
560.679	22705.39
561.041	22778.38
561.404	22871.26
561.767	22956.68
562.129	22941.54
562.492	23301.53
562.854	23160.07
563.217	23321.42
563.579	23394.64
563.941	23547.18
564.304	23660.62
564.666	23823.1
565.028	23728.64
565.39	23817.9
565.753	24073.49
566.115	24151.68
566.477	24245.24
566.839	24289.53
567.201	24542.86
567.563	24522.29
567.925	24633.48
568.287	24599.58
568.648	24758.9
569.01	24946.91
569.372	25023.3
569.734	25075.5
570.095	25237.3
570.457	25276.62
570.819	25354.36
571.18	25282.73
571.542	25531.53
571.903	25641.13
572.265	25610.85
572.626	25655.37
572.987	25830.96
573.349	25985.31
573.71	25924.74
574.071	26133.1
574.432	26178.52
574.794	26328.8
575.155	26335.35
575.516	26324.73
575.877	26465.74
576.238	26491.73
576.599	26618.74
576.96	26600.66
577.32	26508.46
577.681	26597.94
578.042	26819.41
578.403	26818.96
578.763	26841.33
579.124	26868.67
579.485	26890.59
579.845	27013.75
580.206	27011.27
580.566	26994.09
580.927	27040.19
581.287	27069.34
581.648	27030.7
582.008	27251.03
582.368	27105.05
582.728	27192.05
583.089	27169.68
583.449	27322.45
583.809	27379.62
584.169	27368.77
584.529	27339.62
584.889	27362.67
585.249	27254.42
585.609	27149.57
585.969	27446.51
586.329	27334.42
586.688	27451.26
587.048	27292.84
587.408	27292.16
587.768	27486.51
588.127	27323.35
588.487	27329.45
588.846	27506.4
589.206	27356.79
589.565	27426.17
589.925	27615.32
590.284	27381.88
590.643	27577.13
591.003	27594.75
591.362	27616.45
591.721	27564.92
592.08	27643.79
592.44	27711.81
592.799	27652.38
593.158	27573.51
593.517	27669.55
593.876	27710.23
594.235	27663.45
594.593	27758.59
594.952	27689.22
595.311	27576.45
595.67	27695.54
596.029	27881.53
596.387	27835.43
596.746	27861.87
597.104	27799.04
597.463	27819.38
597.822	27917.46
598.18	27832.71
598.538	27791.81
598.897	27992.71
599.255	27780.96
599.613	28097.34
599.972	28013.5
600.33	28061.18
600.688	27921.75
601.046	28151.8
601.404	28236.77
601.762	28153.84
602.12	28276.77
602.478	28361.29
602.836	28262.08
603.194	28133.72
603.552	28168.52
603.91	28205.59
604.268	28324.23
604.625	28296.66
604.983	28401.29
605.341	28379.14
605.698	28464.34
606.056	28507.5
606.413	28480.16
606.771	28574.39
607.128	28638.57
607.485	28576.88
607.843	28599.93
608.2	28636.99
608.557	28806.25
608.914	28796.98
609.272	28794.5
609.629	28852.35
609.986	28977.54
610.343	28818.45
610.7	28934.15
611.057	28936.87
611.414	28913.82
611.771	28975.51
612.127	29184.54
612.484	29180.93
612.841	29201.04
613.198	29002.85
613.554	29039.69
613.911	29200.59
614.267	29206.69
614.624	29177.76
614.98	29345.67
615.337	29587.47
615.693	29326.91
616.05	29379.34
616.406	29524.42
616.762	29408.04
617.118	29428.6
617.475	29417.98
617.831	29467.93
618.187	29562.61
618.543	29490.75
618.899	29798.99
619.255	29597.41
619.611	29739.11
619.967	29621.37
620.323	29761.93
620.678	29634.48
621.034	29656.62
621.39	29635.15
621.746	29756.96
622.101	29986.56
622.457	29678.54
622.812	29815.26
623.168	29921.7
623.523	29967.12
623.879	30061.36
624.234	29762.16
624.589	29895.94
624.945	29790.4
625.3	29913.11
625.655	29870.18
626.01	29806.9
626.365	29920.57
626.72	29991.75
627.075	30028.14
627.43	29741.82
627.785	29875.82
628.14	29791.31
628.495	29882.38
628.85	29707.24
629.205	29710.63
629.559	29956.73
629.914	29754.25
630.269	29724.42
630.623	29661.14
630.978	29620.24
631.332	29758.99
631.687	29853.45
632.041	29725.32
632.396	29733.23
632.75	29510.41
633.104	29610.07
633.459	29555.83
633.813	29507.7
634.167	29475.16
634.521	29493.91
634.875	29521.26
635.229	29385.67
635.583	29312.45
635.937	29391.32
636.291	29328.95
636.645	29314.48
636.999	29231.55
637.352	29265.45
637.706	29225.45
638.06	29386.12
638.413	29133.25
638.767	29165.56
639.121	29227.93
639.474	29066.13
639.828	29136.64
640.181	29175.73
640.534	29043.3
640.888	28910.43
641.241	28858.22
641.594	28858
641.947	28863.65
642.301	28870.2
642.654	28751.33
643.007	28886.92
643.36	28754.72
643.713	28799.47
644.066	28926.02
644.419	28709.53
644.771	28568.51
645.124	28330.78
645.477	28169.2
645.83	27951.81
646.182	27877.01
646.535	27751.36
646.888	27754.75
647.24	27644.7
647.593	27702.32
647.945	27667.75
648.298	27405.61
648.65	27531.25
649.002	27394.31
649.355	27595.21
649.707	27427.75
650.059	27718.82
650.411	28057.12
650.763	27960.62
651.115	28198.81
651.467	28159.03
651.819	28171.24
652.171	28062.54
652.523	28088.3
652.875	27986.61
653.227	27825.03
653.578	28107.51
653.93	28029.09
654.282	27891.47
654.633	27768.31
654.985	27909.32
655.337	27790.23
655.688	27894.63
656.039	28015.53
656.391	27736.45
656.742	27731.25
657.094	27680.85
657.445	27859.61
657.796	27792.72
658.147	27714.07
658.498	27707.29
658.849	27801.75
659.2	27833.62
659.551	27602.89
659.902	27716.56
660.253	27677.69
660.604	27722.89
660.955	27539.39
661.306	27709.78
661.656	27662.55
662.007	27607.41
662.358	27570.12
662.708	27560.86
663.059	27659.39
663.409	27383.46
663.76	27620.52
664.11	27582.55
664.461	27520.41
664.811	27509.56
665.161	27582.78
665.511	27450.13
665.862	27485.15
666.212	27561.76
666.562	27583.91
666.912	27505.04
667.262	27432.05
667.612	27492.84
667.962	27469.11
668.312	27420.07
668.662	27568.09
669.011	27491.71
669.361	27351.82
669.711	27467.07
670.06	27213.75
670.41	27279.28
670.76	27425.72
671.109	27320.41
671.459	27330.81
671.808	27196.57
672.157	27367.42
672.507	27105.95
672.856	27315.67
673.205	27143.92
673.554	27298.27
673.904	27182.79
674.253	27371.48
674.602	27206.97
674.951	26814.21
675.3	26749.35
675.649	27078.38
675.998	26967.2
676.346	26989.8
676.695	27057.37
677.044	26802.46
677.393	26940.53
677.741	26952.51
678.09	26897.6
678.438	26888.11
678.787	26969.69
679.135	26913.19
679.484	26719.75
679.832	26938.5
680.181	26647.21
680.529	26778.73
680.877	26781.89
681.225	26648.56
681.573	26741.9
681.922	26574.44
682.27	26551.17
682.618	26599.3
682.966	26484.05
683.314	26479.98
683.661	26430.72
684.009	26298.07
684.357	26386.88
684.705	26170.84
685.053	26328.35
685.4	26303.49
685.748	26099.88
686.095	26051.29
686.443	26001.58
686.79	25940.79
687.138	26028.02
687.485	25878.19
687.832	25870.73
688.18	25891.07
688.527	25760
688.874	25702.38
689.221	25698.53
689.568	25599.33
689.915	25514.58
690.262	25477.97
690.609	25462.83
690.956	25402.04
691.303	25300.58
691.65	25157.08
691.997	25230.98
692.344	25066.01
692.69	25056.97
693.037	24991.21
693.383	24955.28
693.73	25036.63
694.077	24801.61
694.423	24821.49
694.769	24774.72
695.116	24637.09
695.462	24609.52
695.808	24539.02
696.155	24646.81
696.501	24390.09
696.847	24419.7
697.193	24172.7
697.539	24346.7
697.885	24031.91
698.231	23915.76
698.577	24065.36
698.923	24021.29
699.269	23904.23
699.614	23744.69
699.96	23807.74
700.306	23821.07
700.651	23597.8
700.997	23687.51
701.342	23446.16
701.688	23541.3
702.033	23466.95
702.379	23450
702.724	23373.4
703.069	23297.47
703.415	23084.82
703.76	23195.1
704.105	23134.53
704.45	23071.48
704.795	22972.96
705.14	22937.7
705.485	22962.11
705.83	22772.96
706.175	22845.28
706.52	22664.94
706.865	22575.45
707.209	22557.37
707.554	22599.41
707.899	22568.9
708.243	22436.47
708.588	22519.63
708.932	22222.01
709.277	22268.79
709.621	22332.07
709.966	22228.79
710.31	22144.28
710.654	22066.76
710.998	21992.19
711.342	22001
711.687	21975.69
712.031	21870.39
712.375	21766.43
712.719	21882.14
713.063	21901.8
713.407	21885.3
713.75	21699.54
714.094	21737.96
714.438	21599.88
714.782	21519.89
715.125	21485.54
715.469	21622.26
715.812	21450.51
716.156	21274.69
716.499	21399.89
716.843	21304.3
717.186	21092.33
717.53	21333.22
717.873	21267.01
718.216	21192.21
718.559	21102.95
718.902	21045.77
719.246	21040.58
719.589	20967.81
719.932	20904.31
720.275	20930.98
720.617	20890.52
720.96	20944.08
721.303	20872.22
721.646	20869.73
721.989	20742.73
722.331	20810.98
722.674	20697.53
723.016	20629.74
723.359	20624.32
723.701	20617.09
724.044	20505.68
724.386	20373.48
724.729	20513.58
725.071	20380.26
725.413	20420.48
725.755	20372.8
726.097	20281.27
726.439	20164.22
726.782	20205.8
727.124	20381.39
727.465	20216.87
727.807	20087.38
728.149	20144.56
728.491	20096.65
728.833	20040.15
729.175	19985.01
729.516	19984.33
729.858	19989.3
730.199	19975.07
730.541	19922.19
730.882	19851.68
731.224	19974.16
731.565	19725.81
731.906	19838.12
732.248	19779.82
732.589	19819.37
732.93	19715.64
733.271	19666.6
733.612	19786.15
733.953	19689.88
734.294	19626.38
734.635	19594.29
734.976	19655.75
735.317	19465.25
735.658	19525.81
735.999	19446.72
736.339	19418.92
736.68	19467.06
737.021	19339.38
737.361	19357.46
737.702	19311.13
738.042	19228.19
738.383	19243.11
738.723	19258.7
739.063	19171.7
739.404	19215.77
739.744	19091.48
740.084	19125.37
740.424	19091.48
740.764	19051.02
741.104	19128.76
741.444	18978.94
741.784	18980.74
742.124	19037.47
742.464	18948.43
742.804	18917.24
743.143	18908.66
743.483	18924.93
743.823	18797.92
744.162	18854.19
744.502	18834.53
744.841	18729
745.181	18823.01
745.52	18730.81
745.86	18677.93
746.199	18667.53
746.538	18655.78
746.877	18772.16
747.216	18672.96
747.556	18622.56
747.895	18594.77
748.234	18538.04
748.573	18517.25
748.911	18423.02
749.25	18406.52
749.589	18280.65
749.928	18344.15
750.267	18398.39
750.605	18243.14
750.944	18239.52
751.283	18099.86
751.621	18221.22
751.96	18076.36
752.298	18059.41
752.636	18059.19
752.975	17931.96
753.313	17885.63
753.651	17890.6
753.989	17816.93
754.327	17776.03
754.666	17718.4
755.004	17705.07
755.342	17792.3
755.679	17653.1
756.017	17693.55
756.355	17689.93
756.693	17573.78
757.031	17495.36
757.368	17464.17
757.706	17505.08
758.044	17378.07
758.381	17431.18
758.719	17278.42
759.056	17320.9
759.394	17395.7
759.731	17221.02
760.068	17145.09
760.405	17137.4
760.743	17035.71
761.08	17025.99
761.417	16946.67
761.754	16861.7
762.091	16883.17
762.428	16801.59
762.765	16721.37
763.102	16708.49
763.438	16622.61
763.775	16586
764.112	16585.1
764.449	16590.98
764.785	16469.85
765.122	16316.86
765.458	16250.19
765.795	16310.08
766.131	16218.56
766.467	16168.39
766.804	16093.36
767.14	16061.05
767.476	16067.37
767.812	16024.66
768.148	15995.06
768.485	15943.76
768.821	15839.13
769.157	15827.38
769.492	15761.85
769.828	15713.49
770.164	15504
770.5	15583.55
770.836	15474.85
771.171	15454.28
771.507	15453.15
771.842	15282.76
772.178	15375.87
772.513	15240.05
772.849	15266.49
773.184	15158.25
773.519	15204.35
773.855	15058.59
774.19	15075.54
774.525	14937.69
774.86	14911.02
775.195	14941.08
775.53	14886.84
775.865	14747.86
776.2	14686.85
776.535	14611.59
776.87	14609.56
777.205	14511.26
777.539	14575.66
777.874	14454.99
778.209	14295.22
778.543	14311.49
778.878	14214.09
779.212	14298.38
779.547	14153.53
779.881	14144.94
780.215	14062.46
780.55	14149.46
780.884	14015.9
781.218	13965.28
781.552	13960.76
781.886	13894.78
782.22	13821.33
782.554	13704.72
782.888	13676.25
783.222	13635.35
783.556	13545.63
783.889	13488.46
784.223	13464.05
784.557	13454.79
784.89	13369.37
785.224	13289.59
785.557	13304.96
785.891	13265.87
786.224	13164.4
786.558	13206.43
786.891	13051.18
787.224	12994.91
787.557	13003.95
787.891	12956.5
788.224	12951.3
788.557	12919.89
788.89	12841.02
789.223	12882.37
789.556	12815.71
789.888	12748.37
790.221	12733.45
790.554	12583.4
790.887	12631.98
791.219	12560.35
791.552	12452.1
791.884	12443.97
792.217	12428.83
792.549	12396.06
792.882	12357.42
793.214	12297.98
793.546	12285.33
793.879	12251.43
794.211	12148.38
794.543	12199
794.875	12100.02
795.207	12066.8
795.539	12064.99
795.871	12019.12
796.203	12045.56
796.535	11861.61
796.867	11869.74
797.198	11832.91
797.53	11860.25
797.862	11738.9
798.193	11784.77
798.525	11733.02
798.856	11701.16
799.188	11611.9
799.519	11568.06
799.85	11536.42
800.182	11519.02
800.513	11528.06
800.844	11447.83
801.175	11469.75
801.506	11504.33
801.837	11334.39
802.168	11358.35
802.499	11377.1
802.83	11237.9
803.161	11183.89
803.491	11183.89
803.822	11206.94
804.153	11187.73
804.483	11111.35
804.814	11017.11
805.145	11082.42
805.475	10960.39
805.805	10972.59
806.136	11012.37
806.466	10888.08
806.796	11007.62
807.126	10818.92
807.457	10857.34
807.787	10795.87
808.117	10741.41
808.447	10734.18
808.777	10830.22
809.107	10684.92
809.436	10677.91
809.766	10617.8
810.096	10567.18
810.426	10580.51
810.755	10563.11
811.085	10494.41
811.414	10518.37
811.744	10483.11
812.073	10431.36
812.403	10420.07
812.732	10391.59
813.061	10423.45
813.39	10339.16
813.719	10289.9
814.049	10352.5
814.378	10257.81
814.707	10220.3
815.036	10208.32
815.365	10173.52
815.693	10051.49
816.022	10100.07
816.351	10055.33
816.68	10046.52
817.008	10086.97
817.337	9969.68
817.665	9927.2
817.994	10026.4
818.322	9978.49
818.651	9935.78
818.979	9905.73
819.307	9916.35
819.636	9876.12
819.964	9823.24
820.292	9846.75
820.62	9857.37
820.948	9820.31
821.276	9832.06
821.604	9792.28
821.932	9799.06
822.259	9849.68
822.587	9802.45
822.915	9719.74
823.243	9816.47
823.57	9736.47
823.898	9785.51
824.225	9793.19
824.553	9759.07
824.88	9810.82
825.207	9738.5
825.535	9736.92
825.862	9733.08
826.189	9738.95
826.516	9755.9
826.843	9815.34
827.17	9722
827.497	9736.24
827.824	9794.32
828.151	9825.96
828.478	9764.04
828.805	9785.05
829.131	9767.88
829.458	9775.56
829.785	9667.32
830.111	9729.24
830.438	9773.53
830.764	9737.15
831.09	9720.2
831.417	9737.82
831.743	9711.38
832.069	9755.22
832.395	9717.26
832.722	9770.59
833.048	9688.78
833.374	9740.76
833.7	9696.02
834.026	9612.85
834.351	9698.95
834.677	9632.06
835.003	9740.53
835.329	9617.37
835.654	9656.47
835.98	9571.5
836.306	9599.97
836.631	9595
836.956	9685.4
837.282	9570.14
837.607	9524.04
837.932	9544.38
838.258	9533.31
838.583	9480.88
838.908	9475.46
839.233	9522.24
839.558	9445.4
839.883	9433.88
840.208	9384.61
840.533	9339.87
840.858	9426.64
841.182	9413.09
841.507	9417.83
841.832	9320.66
842.156	9279.98
842.481	9353.65
842.805	9297.83
843.13	9314.56
843.454	9261
843.778	9142.81
844.103	9204.73
844.427	9144.62
844.751	9177.61
845.075	9141.45
845.399	9131.74
845.723	9042.25
846.047	9004.73
846.371	9030.95
846.695	9035.92
847.019	8910.5
847.343	8915.7
847.666	8901.69
847.99	8846.77
848.313	8816.49
848.637	8760.22
848.96	8760.22
849.284	8741.24
849.607	8663.28
849.931	8672.54
850.254	8632.77
850.577	8589.6
850.9	8523.62
851.223	8529.04
851.546	8466.9
851.869	8447.69
852.192	8479.78
852.515	8378.31
852.838	8343.06
853.161	8287.47
853.483	8282.27
853.806	8279.56
854.129	8174.47
854.451	8185.1
854.774	8135.83
855.096	8160.24
855.419	8161.82
855.741	8166.11
856.063	8113.46
856.385	8107.58
856.708	8082.73
857.03	8009.73
857.352	7985.33
857.674	7977.19
857.996	7942.16
858.318	7878.44
858.64	7896.52
858.961	7863.75
859.283	7853.8
859.605	7840.25
859.926	7847.25
860.248	7807.93
860.57	7785.33
860.891	7792.56
861.212	7759.8
861.534	7783.3
861.855	7746.69
862.176	7729.74
862.498	7701.27
862.819	7659.46
863.14	7665.11
863.461	7598.44
863.782	7666.47
864.103	7665.56
864.424	7592.34
864.745	7632.57
865.065	7596.86
865.386	7543.53
865.707	7581.95
866.027	7621.27
866.348	7536.3
866.668	7551.67
866.989	7519.12
867.309	7435.96
867.63	7451.33
867.95	7373.37
868.27	7440.03
868.59	7447.26
868.91	7412.01
869.23	7400.71
869.55	7318
869.87	7457.88
870.19	7374.72
870.51	7346.02
870.83	7385.79
871.15	7376.53
871.469	7303.99
871.789	7368.85
872.109	7305.12
872.428	7259.47
872.748	7267.61
873.067	7310.99
873.386	7274.39
873.706	7331.33
874.025	7190.77
874.344	7232.8
874.663	7230.09
874.982	7247.95
875.301	7177.21
875.62	7179.47
875.939	7144.44
876.258	7176.31
876.577	7160.49
876.896	7131.34
877.214	7129.98
877.533	7142.86
877.852	7119.59
878.17	7165.91
878.489	7111.68
878.807	7120.94
879.125	7036.2
879.444	7112.81
879.762	7057.89
880.08	7036.65
880.398	7054.28
880.716	7009.99
881.034	6937.22
881.352	6996.43
881.67	6986.48
881.988	7015.18
882.306	6965.69
882.624	6911.91
882.941	6898.8
883.259	6831.46
883.577	6840.5
883.894	6942.64
884.212	6838.01
884.529	6835.53
884.846	6810.22
885.164	6802.76
885.481	6802.98
885.798	6834.17
886.115	6733.38
886.432	6793.27
886.75	6726.38
887.067	6734.29
887.383	6705.59
887.7	6675.08
888.017	6649.77
888.334	6647.06
888.651	6620.84
888.967	6677.56
889.284	6633.5
889.6	6558.92
889.917	6554.18
890.233	6573.84
890.55	6520.96
890.866	6508.3
891.182	6490.45
891.498	6461.75
891.815	6442.32
892.131	6468.08
892.447	6471.24
892.763	6406.16
893.079	6406.84
893.395	6391.92
893.71	6377.91
894.026	6365.48
894.342	6321.64
894.657	6347.18
894.973	6279.16
895.289	6263.56
895.604	6308.53
895.92	6279.38
896.235	6212.72
896.55	6151.25
896.865	6168.88
897.181	6222.66
897.496	6131.82
897.811	6145.6
898.126	6115.77
898.441	6088.88
898.756	6072.16
899.071	6043
899.386	6040.07
899.7	6002.55
900.015	5948.09
900.33	5914.19
900.644	5956.23
900.959	5953.97
901.273	5898.38
901.588	5891.37
901.902	5802.79
902.216	5822.45
902.531	5838.26
902.845	5794.42
903.159	5767.76
903.473	5751.71
903.787	5719.85
904.101	5719.62
904.415	5677.14
904.729	5696.8
905.042	5671.49
905.356	5668.1
905.67	5586.97
905.984	5645.95
906.297	5590.81
906.611	5518.05
906.924	5527.09
907.237	5522.34
907.551	5481.66
907.864	5475.11
908.177	5457.03
908.491	5483.92
908.804	5416.13
909.117	5359.86
909.43	5404.38
909.743	5370.03
910.056	5333.65
910.368	5305.85
910.681	5305.17
910.994	5279.64
911.307	5244.61
911.619	5229.24
911.932	5233.99
912.244	5212.97
912.557	5186.76
912.869	5133.65
913.181	5153.76
913.494	5153.99
913.806	5122.13
914.118	5107.89
914.43	5047.78
914.742	5041.68
915.054	4989.93
915.366	5003.26
915.678	4977.27
915.99	4984.28
916.302	4867.22
916.613	4893.43
916.925	4892.98
917.236	4884.84
917.548	4844.39
917.859	4851.17
918.171	4810.04
918.482	4827.44
918.794	4776.37
919.105	4791.29
919.416	4752.42
919.727	4751.97
920.038	4712.64
920.349	4718.29
920.66	4657.73
920.971	4683.49
921.282	4703.15
921.593	4614.57
921.903	4619.99
922.214	4576.83
922.525	4569.6
922.835	4549.71
923.146	4513.33
923.456	4509.49
923.767	4504.74
924.077	4453.22
924.387	4429.49
924.697	4408.25
925.008	4416.83
925.318	4411.41
925.628	4372.99
925.938	4358.98
926.248	4345.2
926.558	4330.73
926.867	4277.4
927.177	4313.78
927.487	4294.8
927.796	4237.4
928.106	4228.36
928.416	4196.73
928.725	4201.7
929.034	4167.8
929.344	4196.27
929.653	4170.96
929.962	4129.83
930.271	4173.9
930.581	4123.06
930.89	4097.07
931.199	4078.99
931.508	4049.39
931.817	4060.68
932.125	4075.37
932.434	4010.29
932.743	3970.07
933.051	3988.37
933.36	3978.43
933.669	3954.02
933.977	3931.42
934.286	3915.15
934.594	3929.16
934.902	3901.37
935.21	3829.96
935.519	3876.06
935.827	3831.31
936.135	3787.02
936.443	3767.58
936.751	3752.67
937.059	3809.39
937.367	3747.25
937.674	3749.73
937.982	3730.98
938.29	3739.56
938.597	3684.2
938.905	3707.02
939.213	3657.08
939.52	3645.33
939.827	3667.47
940.135	3620.02
940.442	3618.21
940.749	3590.41
941.056	3597.65
941.363	3555.16
941.67	3557.65
941.977	3536.4
942.284	3521.49
942.591	3483.75
942.898	3504.54
943.205	3498.67
943.511	3449.4
943.818	3467.25
944.125	3422.28
944.431	3412.11
944.738	3410.31
945.044	3380.25
945.35	3407.82
945.657	3376.63
945.963	3365.11
946.269	3333.25
946.575	3339.8
946.881	3303.42
947.187	3298.9
947.493	3283.3
947.799	3273.36
948.105	3304.55
948.41	3246.69
948.716	3250.76
949.022	3240.37
949.327	3222.29
949.633	3182.97
949.938	3180.26
950.244	3194.04
950.549	3154.04
950.854	3124.89
951.16	3077.66
951.465	3125.34
951.77	3084.21
952.075	3085.34
952.38	3054.61
952.685	3064.55
952.99	3042.63
953.294	3029.75
953.599	3008.06
953.904	3028.17
954.209	3007.38
954.513	2979.13
954.818	2960.6
955.122	2984.33
955.426	2986.59
955.731	2910.21
956.035	2962.18
956.339	2924.22
956.643	2922.41
956.948	2879.7
957.252	2909.3
957.556	2896.42
957.86	2873.37
958.163	2862.52
958.467	2835.63
958.771	2804.9
959.075	2846.7
959.378	2808.74
959.682	2799.7
959.985	2789.53
960.289	2755.18
960.592	2729.87
960.896	2739.14
961.199	2730.78
961.502	2702.53
961.805	2693.26
962.108	2693.94
962.411	2702.53
962.714	2669.76
963.017	2686.03
963.32	2657.11
963.623	2666.37
963.926	2655.75
964.228	2620.72
964.531	2634.06
964.833	2594.96
965.136	2567.39
965.438	2595.41
965.741	2586.6
966.043	2568.29
966.345	2568.75
966.648	2555.19
966.95	2522.19
967.252	2505.47
967.554	2499.6
967.856	2484.45
968.158	2519.03
968.46	2500.5
968.761	2462.99
969.063	2445.59
969.365	2465.47
969.666	2462.99
969.968	2419.15
970.269	2398.81
970.571	2433.83
970.872	2426.38
971.174	2415.08
971.475	2362.2
971.776	2392.71
972.077	2366.27
972.378	2351.35
972.679	2387.28
972.98	2328.53
973.281	2360.84
973.582	2349.77
973.883	2290.11
974.183	2318.58
974.484	2315.19
974.785	2272.93
975.085	2285.14
975.386	2263.67
975.686	2270
975.986	2268.64
976.287	2246.72
976.587	2243.33
976.887	2243.33
977.187	2225.7
977.487	2179.83
977.787	2202.88
978.087	2158.81
978.387	2158.81
978.687	2180.28
978.987	2168.98
979.286	2147.29
979.586	2163.78
979.885	2126.95
980.185	2090.79
980.484	2104.8
980.784	2074.75
981.083	2107.74
981.382	2082.21
981.682	2072.26
981.981	2051.47
982.28	2063.9
982.579	2029.55
982.878	2004.24
983.177	2039.27
983.475	2014.86
983.774	1999.27
984.073	2015.99
984.372	2016.9
984.67	1993.62
984.969	1976.67
985.267	1957.46
985.566	1980.74
985.864	1992.94
986.162	1959.04
986.461	1952.49
986.759	1917.69
987.057	1921.53
987.355	1905.71
987.653	1912.94
987.951	1901.42
988.249	1899.84
988.547	1889.89
988.844	1879.05
989.142	1892.15
989.44	1871.36
989.737	1850.12
990.035	1827.97
990.332	1845.38
990.63	1825.71
990.927	1819.39
991.224	1811.25
991.521	1794.3
991.819	1814.42
992.116	1810.35
992.413	1779.39
992.71	1795.43
993.006	1763.34
993.303	1786.85
993.6	1762.21
993.897	1745.72
994.193	1720.86
994.49	1731.71
994.787	1728.77
995.083	1721.08
995.379	1713.18
995.676	1705.27
995.972	1667.3
996.268	1656
996.565	1672.27
996.861	1655.32
997.157	1639.28
997.453	1667.75
997.749	1664.36
998.044	1671.59
998.34	1613.06
998.636	1609
998.932	1621.65
999.227	1618.94
999.523	1605.83
999.818	1615.55
1000.114	1606.06
1000.409	1597.7
1000.704	1581.88
1001	1556.8
1001.295	1564.48
1001.59	1545.95
1001.885	1543.01
1002.18	1561.54
1002.475	1509.11
1002.77	1514.76
1003.065	1510.47
1003.359	1521.09
1003.654	1528.1
1003.949	1490.58
1004.243	1505.05
1004.538	1449.23
1004.832	1496.91
1005.127	1448.78
1005.421	1437.02
1005.715	1463.01
1006.009	1453.97
1006.304	1431.6
1006.598	1428.89
1006.892	1439.96
1007.186	1409.91
1007.48	1419.62
1007.773	1398.61
1008.067	1385.05
1008.361	1400.42
1008.655	1348.44
1008.948	1367.42
1009.242	1347.08
1009.535	1362.22
1009.829	1361.55
1010.122	1340.76
1010.415	1340.08
1010.708	1306.86
1011.001	1321.32
1011.295	1317.48
1011.588	1307.31
1011.881	1318.38
1012.173	1283.58
1012.466	1283.81
1012.759	1291.27
1013.052	1274.32
1013.344	1268.67
1013.637	1258.72
1013.93	1232.74
1014.222	1251.27
1014.514	1223.02
1014.807	1239.06
1015.099	1240.65
1015.391	1230.7
1015.683	1224.83
1015.976	1228.67
1016.268	1201.78
1016.56	1185.05
1016.851	1194.54
1017.143	1202.23
1017.435	1170.59
1017.727	1173.3
1018.018	1156.13
1018.31	1159.52
1018.602	1147.54
1018.893	1158.84
1019.185	1136.24
1019.476	1134.21
1019.767	1129.24
1020.058	1122.68
1020.35	1081.1
1020.641	1118.39
1020.932	1117.26
1021.223	1074.77
1021.514	1080.42
1021.804	1071.61
1022.095	1078.62
1022.386	1073.64
1022.677	1061.22
1022.967	1065.28
1023.258	1052.85
1023.548	1067.09
1023.839	1051.72
1024.129	1035.9
1024.419	1018.73
1024.709	1006.75
1025	1030.48
1025.29	1016.92
1025.58	1000.88
1025.87	1023.48
1026.16	990.93
1026.449	1011.05
1026.739	973.76
1027.029	983.48
1027.319	968.56
1027.608	969.01
1027.898	939.64
1028.187	942.35
1028.477	932.63
1028.766	949.58
1029.055	928.79
1029.344	957.49
1029.634	907.09
1029.923	918.39
1030.212	904.38
1030.501	921.33
1030.79	902.58
1031.078	886.08
1031.367	874.55
1031.656	874.55
1031.945	863.25
1032.233	869.81
1032.522	862.58
1032.81	852.18
1033.099	887.66
1033.387	862.12
1033.675	836.59
1033.963	852.18
1034.251	837.49
1034.54	819.87
1034.828	830.94
1035.116	848.34
1035.403	818.06
1035.691	820.77
1035.979	820.32
1036.267	809.02
1036.554	802.92
1036.842	797.95
1037.129	796.82
1037.417	781.22
1037.704	780.77
1037.992	799.53
1038.279	778.51
1038.566	792.97
1038.853	792.97
1039.14	792.97
