Data from breadboard_black_back_FLMS001491_00095.txt Node
Date: Wed Feb 08 10:51:11 GMT 2017
User: dcchb
Spectrometer: FLMS00149
Trigger mode: 0
Integration Time (sec): 2.000000E-2
Scans to average: 10
Electric dark correction enabled: true
Nonlinearity correction enabled: false
Boxcar width: 0
XAxis mode: Wavelengths
Number of Pixels in Spectrum: 2048
>>>>>Begin Spectral Data<<<<<
341.393	-22.09
341.776	-22.09
342.16	-22.09
342.543	-59.83
342.927	-69.55
343.31	-75.42
343.693	-85.36
344.077	-61.18
344.46	-54.63
344.843	-54.86
345.226	-59.83
345.61	-14.86
345.993	-16.67
346.376	-7.63
346.759	3.45
347.142	33.73
347.525	54.07
347.908	56.78
348.291	72.14
348.674	99.94
349.057	110.34
349.44	121.41
349.823	170.67
350.206	153.5
350.588	191.69
350.971	229.88
351.354	221.29
351.737	224.68
352.119	242.54
352.502	284.57
352.884	276.66
353.267	284.12
353.65	286.6
354.032	300.61
354.414	285.92
354.797	298.58
355.179	345.13
355.562	309.88
355.944	335.19
356.326	324.57
356.709	356.21
357.091	326.15
357.473	351.01
357.855	353.95
358.238	340.16
358.62	351.46
359.002	342.42
359.384	351.69
359.766	349.88
360.148	337.22
360.53	365.24
360.912	340.39
361.294	336.77
361.676	327.28
362.057	349.65
362.439	329.54
362.821	338.58
363.203	333.38
363.584	327.05
363.966	329.54
364.348	337.22
364.729	341.06
365.111	327.96
365.493	347.62
365.874	341.06
366.256	332.25
366.637	340.84
367.019	326.38
367.4	320.27
367.781	327.51
368.163	326.6
368.544	332.93
368.925	334.96
369.306	341.29
369.688	316.88
370.069	346.26
370.45	325.25
370.831	333.16
371.212	339.93
371.593	356.21
371.974	337
372.355	350.33
372.736	360.5
373.117	348.97
373.498	337.45
373.879	338.13
374.26	343.1
374.641	336.09
375.021	319.14
375.402	361.4
375.783	362.76
376.163	368.63
376.544	352.82
376.925	360.27
377.305	371.8
377.686	363.66
378.066	346.49
378.447	371.12
378.827	352.36
379.208	368.41
379.588	351.23
379.968	377.67
380.349	376.77
380.729	372.02
381.109	368.63
381.489	398.92
381.87	386.71
382.25	381.29
382.63	391.91
383.01	396.43
383.39	382.42
383.77	403.44
384.15	405.92
384.53	418.35
384.91	429.42
385.29	402.53
385.67	415.86
386.049	409.09
386.429	410.22
386.809	417.9
387.189	436.2
387.568	433.27
387.948	429.88
388.328	427.62
388.707	413.83
389.087	429.42
389.466	438.01
389.846	438.46
390.225	424.68
390.605	440.72
390.984	441.85
391.363	448.18
391.743	459.48
392.122	451.34
392.501	456.09
392.881	471.23
393.26	471.68
393.639	458.58
394.018	466.71
394.397	503.55
394.776	492.7
395.155	473.04
395.534	495.86
395.913	494.96
396.292	502.87
396.671	499.48
397.05	494.05
397.429	504
397.808	513.94
398.186	507.84
398.565	516.43
398.944	543.32
399.323	500.16
399.701	525.24
400.08	538.57
400.458	531.12
400.837	551.68
401.215	540.16
401.594	546.03
401.972	548.97
402.351	559.59
402.729	557.1
403.107	559.36
403.486	577.22
403.864	573.6
404.242	576.76
404.62	574.05
404.999	595.3
405.377	591.68
405.755	588.29
406.133	602.07
406.511	606.37
406.889	633.94
407.267	622.41
407.645	600.72
408.023	634.39
408.401	631.68
408.779	647.05
409.156	658.34
409.534	658.34
409.912	647.27
410.29	665.35
410.667	666.25
411.045	682.3
411.422	693.37
411.8	682.52
412.178	721.62
412.555	706.25
412.933	701.51
413.31	737.21
413.687	716.87
414.065	736.99
414.442	734.95
414.819	745.12
415.197	770.66
415.574	767.95
415.951	777.66
416.328	805.01
416.705	775.86
417.082	784.44
417.46	808.62
417.837	795.52
418.214	812.46
418.591	831.45
418.967	818.34
419.344	836.87
419.721	829.87
420.098	847.49
420.475	853.82
420.852	873.93
421.228	858.79
421.605	866.25
421.982	880.26
422.358	879.81
422.735	897.66
423.111	917.77
423.488	934.95
423.864	946.92
424.241	935.63
424.617	955.96
424.994	951.22
425.37	958.68
425.746	956.42
426.123	996.41
426.499	976.75
426.875	990.54
427.251	1008.62
427.627	1037.77
428.003	1030.76
428.379	1033.48
428.756	1062.85
429.132	1087.71
429.507	1090.65
429.883	1100.82
430.259	1129.07
430.635	1098.56
431.011	1143.3
431.387	1163.42
431.763	1201.38
432.138	1181.95
432.514	1180.82
432.89	1230.08
433.265	1200.25
433.641	1242.96
434.016	1239.35
434.392	1254.71
434.767	1297.65
435.143	1256.75
435.518	1311.66
435.894	1319.34
436.269	1318.44
436.644	1349.17
437.02	1344.88
437.395	1367.7
437.77	1380.13
438.145	1422.84
438.52	1418.1
438.895	1423.52
439.271	1423.3
439.646	1464.42
440.021	1461.94
440.395	1474.59
440.77	1443.86
441.145	1481.37
441.52	1510.3
441.895	1516.17
442.27	1528.83
442.645	1547.81
443.019	1548.49
443.394	1551.43
443.769	1569.28
444.143	1569.28
444.518	1606.57
444.892	1573.35
445.267	1630.52
445.641	1634.82
446.016	1634.14
446.39	1652.67
446.764	1655.83
447.139	1659.67
447.513	1669.62
447.887	1686.11
448.262	1681.37
448.636	1699.67
449.01	1718.2
449.384	1775.83
449.758	1745.55
450.132	1778.54
450.506	1799.33
450.88	1802.95
451.254	1804.98
451.628	1832.32
452.002	1880.46
452.376	1858.99
452.75	1845.43
453.123	1877.97
453.497	1911.64
453.871	1939.67
454.244	1974.92
454.618	2004.52
454.992	2009.72
455.365	2023.28
455.739	2022.83
456.112	2058.31
456.486	2106.67
456.859	2113.67
457.232	2177.17
457.606	2145.99
457.979	2153.45
458.352	2192.77
458.725	2277.51
459.099	2260.79
459.472	2338.75
459.845	2346.66
460.218	2332.88
460.591	2375.36
460.964	2383.27
461.337	2430.95
461.71	2481.12
462.083	2472.99
462.456	2503.72
462.829	2547.56
463.201	2590.27
463.574	2627.33
463.947	2646.99
464.32	2674.11
464.692	2687.67
465.065	2743.49
465.438	2784.16
465.81	2797.72
466.183	2810.83
466.555	2936.25
466.928	2908
467.3	2928.57
467.672	2969.02
468.045	3045.85
468.417	3048.79
468.789	3082.91
469.161	3121.78
469.534	3181.44
469.906	3228.9
470.278	3247.2
470.65	3294.43
471.022	3384.83
471.394	3407.65
471.766	3489
472.138	3493.3
472.51	3592.5
472.882	3595.67
473.253	3645.84
473.625	3708.66
473.997	3735.33
474.369	3813.29
474.74	3840.63
475.112	3878.37
475.484	3950.01
475.855	4019.16
476.227	4099.38
476.598	4160.85
476.97	4212.83
477.341	4305.48
477.713	4387.06
478.084	4396.33
478.455	4529.43
478.827	4549.09
479.198	4703.66
479.569	4732.59
479.94	4830.89
480.311	4826.14
480.682	4998.34
481.053	5099.58
481.424	5158.56
481.795	5213.93
482.166	5277.21
482.537	5290.99
482.908	5462.51
483.279	5529.63
483.65	5625.45
484.021	5743.63
484.391	5799.23
484.762	5863.63
485.133	5909.28
485.503	5998.09
485.874	6143.4
486.244	6224.07
486.615	6346.33
486.985	6324.64
487.356	6560.79
487.726	6531.18
488.097	6651.86
488.467	6699.99
488.837	6850.5
489.207	6950.16
489.578	6994
489.948	7109.93
490.318	7223.82
490.688	7216.14
491.058	7347.21
491.428	7493.87
491.798	7529.8
492.168	7699.29
492.538	7666.97
492.908	7790.13
493.278	7932.73
493.648	7893.63
494.017	8014.31
494.387	8124.36
494.757	8158.26
495.126	8239.84
495.496	8303.57
495.866	8372.27
496.235	8478.03
496.605	8523.67
496.974	8616.1
497.344	8657.91
497.713	8751.24
498.082	8788.98
498.452	8913.49
498.821	8971.8
499.19	8993.27
499.559	9091.12
499.928	9108.97
500.298	9246.37
500.667	9303.77
501.036	9301.51
501.405	9461.73
501.774	9385.8
502.143	9551.44
502.512	9554.61
502.88	9600.48
503.249	9651.78
503.618	9835.05
503.987	9814.26
504.356	9897.2
504.724	9974.03
505.093	10042.96
505.462	10025.1
505.83	10175.38
506.199	10167.7
506.567	10427.13
506.936	10364.53
507.304	10446.34
507.672	10552.1
508.041	10647.69
508.409	10713
508.777	10772.88
509.145	10852.2
509.514	10941.46
509.882	11020.11
510.25	10978.75
510.618	11145.3
510.986	11169.03
511.354	11327.67
511.722	11404.28
512.09	11487.66
512.458	11489.02
512.826	11650.6
513.193	11717.71
513.561	11771.95
513.929	11898.27
514.297	11967.2
514.664	12070.93
515.032	12166.74
515.4	12143.69
515.767	12216.01
516.135	12365.61
516.502	12360.86
516.869	12563.57
517.237	12686.05
517.604	12638.14
517.972	12728.76
518.339	12889.21
518.706	12881.07
519.073	12955.42
519.44	13110.67
519.808	13269.76
520.175	13202.42
520.542	13439.7
520.909	13525.58
521.276	13577.1
521.643	13690.09
522.009	13808.51
522.376	13956.75
522.743	14100.25
523.11	14115.39
523.477	14243.98
523.843	14344.09
524.21	14589.05
524.577	14700.01
524.943	14763.96
525.31	14830.85
525.676	14923.28
526.043	15066.55
526.409	15120.34
526.776	15310.61
527.142	15344.06
527.508	15450.05
527.874	15584.28
528.241	15680.32
528.607	15770.04
528.973	15867.21
529.339	15812.07
529.705	16014.55
530.071	16212.51
530.437	16191.72
530.803	16410.25
531.169	16414.54
531.535	16527.76
531.901	16620.86
532.267	16761.2
532.632	16835.77
532.998	16848.88
533.364	16997.58
533.73	17043.22
534.095	17118.48
534.461	17147.85
534.826	17309.88
535.192	17358.7
535.557	17596.2
535.923	17522.08
536.288	17602.31
536.653	17695.41
537.019	17816.09
537.384	17890.89
537.749	17894.73
538.114	17945.8
538.479	17986.93
538.845	18176.98
539.21	18129.3
539.575	18219.92
539.94	18207.49
540.305	18452.45
540.67	18347.82
541.034	18561.15
541.399	18454.26
541.764	18586.69
542.129	18745.55
542.494	18743.29
542.858	18787.81
543.223	18881.59
543.587	18969.5
543.952	18927.24
544.316	19000.69
544.681	19133.79
545.045	19284.3
545.41	19380.11
545.774	19322.03
546.138	19345.99
546.503	19427.57
546.867	19530.16
547.231	19652.42
547.595	19684.28
547.959	19702.82
548.324	19844.96
548.688	19830.95
549.052	19864.17
549.416	20037.95
549.779	20002.02
550.143	20141
550.507	20297.6
550.871	20289.69
551.235	20243.59
551.599	20526.3
551.962	20511.38
552.326	20589.57
552.689	20811.94
553.053	20785.05
553.417	20852.62
553.78	21032.05
554.143	21034.31
554.507	21082.89
554.87	21225.94
555.234	21371.7
555.597	21319.72
555.96	21471.13
556.323	21422.77
556.686	21500.73
557.05	21684.01
557.413	21811.01
557.776	21835.19
558.139	22038.12
558.502	22013.26
558.865	22084.22
559.228	22376.42
559.59	22349.75
559.953	22378.9
560.316	22683.08
560.679	22634.49
561.041	22808.72
561.404	22800.81
561.767	23038.09
562.129	22899.57
562.492	23184.76
562.854	23239.22
563.217	23230.41
563.579	23403.28
563.941	23495.26
564.304	23615.25
564.666	23839.66
565.028	23782.03
565.39	23943.38
565.753	24118.74
566.115	24161.46
566.477	24247.78
566.839	24361
567.201	24450.26
567.563	24560.09
567.925	24668.33
568.287	24644.61
568.648	24724.38
569.01	24926.41
569.372	25102.45
569.734	25008.21
570.095	25219.73
570.457	25416.56
570.819	25396.9
571.18	25347.64
571.542	25501.98
571.903	25633.05
572.265	25648.42
572.626	25705.37
572.987	25859.04
573.349	25945.14
573.71	25878.92
574.071	26089.09
574.432	26194.85
574.794	26314.39
575.155	26377.67
575.516	26253.38
575.877	26453.6
576.238	26533.6
576.599	26578.11
576.96	26607.27
577.32	26562.07
577.681	26686.81
578.042	26826.92
578.403	26739.24
578.763	26819.24
579.124	26898.33
579.485	26912.34
579.845	27023.3
580.206	26987.6
580.566	27024.88
580.927	27037.99
581.287	27134.03
581.648	27047.03
582.008	27207.48
582.368	27199.57
582.728	27263.75
583.089	27117.31
583.449	27201.83
583.809	27301.03
584.169	27291.09
584.529	27267.36
584.889	27492.21
585.249	27203.41
585.609	27306.68
585.969	27486.34
586.329	27369.73
586.688	27507.13
587.048	27341.26
587.408	27218.78
587.768	27308.04
588.127	27399.79
588.487	27428.04
588.846	27502.84
589.206	27395.04
589.565	27349.39
589.925	27546
590.284	27503.97
590.643	27496.51
591.003	27620.8
591.362	27639.1
591.721	27526.34
592.08	27527.69
592.44	27648.14
592.799	27700.12
593.158	27703.28
593.517	27699.22
593.876	27657.18
594.235	27595.72
594.593	27685.43
594.952	27757.97
595.311	27509.84
595.67	27826.9
596.029	27949.83
596.387	27786.44
596.746	28012.43
597.104	27769.5
597.463	27881.36
597.822	27883.84
598.18	27878.19
598.538	27863.5
598.897	28031.18
599.255	27767.01
599.613	28190.5
599.972	27930.62
600.33	28147.11
600.688	27979.66
601.046	28234.12
601.404	28217.17
601.762	28074.8
602.12	28180.56
602.478	28243.61
602.836	28266.88
603.194	28138.98
603.552	28318.86
603.91	28186.21
604.268	28310.72
604.625	28376.49
604.983	28335.58
605.341	28206.32
605.698	28414.9
606.056	28519.31
606.413	28494.9
606.771	28570.15
607.128	28505.97
607.485	28459.65
607.843	28634.56
608.2	28716.59
608.557	28778.73
608.914	28687.89
609.272	28795.23
609.629	28907.09
609.986	28972.63
610.343	28869.13
610.7	29061.44
611.057	29098.95
611.414	28952.29
611.771	28872.74
612.127	29087.65
612.484	29044.04
612.841	29171.49
613.198	28995
613.554	29135.56
613.911	29246.07
614.267	29256.91
614.624	29268.21
614.98	29289
615.337	29493.52
615.693	29387.08
616.05	29339.4
616.406	29564.48
616.762	29397.25
617.118	29436.12
617.475	29451.03
617.831	29616.45
618.187	29594.53
618.543	29482.45
618.899	29783.45
619.255	29510.24
619.611	29686.73
619.967	29756.11
620.323	29882.66
620.678	29590.24
621.034	29625.94
621.39	29731.93
621.746	29595.66
622.101	29982.32
622.457	29802.89
622.812	29872.27
623.168	29957.46
623.523	29956.78
623.879	29901.87
624.234	29698.71
624.589	29807.41
624.945	29939.61
625.3	29907.52
625.655	29813.06
626.01	29820.06
626.365	29924.47
626.72	29860.29
627.075	29910.91
627.43	29886.73
627.785	29858.03
628.14	29929.67
628.495	29765.38
628.85	29901.19
629.205	29747.3
629.559	29908.42
629.914	29750.01
630.269	29804.92
630.623	29707.3
630.978	29853.28
631.332	29822.78
631.687	29784.81
632.041	29698.48
632.396	29835.88
632.75	29578.26
633.104	29626.4
633.459	29473.86
633.813	29551.6
634.167	29505.95
634.521	29411.49
634.875	29504.37
635.229	29513.63
635.583	29426.63
635.937	29379.85
636.291	29305.73
636.645	29364.48
636.999	29254.65
637.352	29246.07
637.706	29105.05
638.06	29311.15
638.413	29280.19
638.767	29159.29
639.121	29139.4
639.474	28955
639.828	29044.49
640.181	28940.31
640.534	28962.91
640.888	28881.78
641.241	28831.39
641.594	28824.61
641.947	28924.72
642.301	28788
642.654	28819.86
643.007	28926.75
643.36	28870.94
643.713	28764.72
644.066	28868
644.419	28709.13
644.771	28528.57
645.124	28324.28
645.477	28247.9
645.83	28129.49
646.182	27894.24
646.535	27699.67
646.888	27815.82
647.24	27618.09
647.593	27842.94
647.945	27604.53
648.298	27537.64
648.65	27523.85
649.002	27456.51
649.355	27572.66
649.707	27495.38
650.059	27709.16
650.411	27982.82
650.763	28164.97
651.115	28281.12
651.467	28119.54
651.819	28100.11
652.171	28102.82
652.523	28069.6
652.875	27941.47
653.227	27848.14
653.578	28105.53
653.93	28061.47
654.282	28011.98
654.633	27748.48
654.985	27889.94
655.337	27893.11
655.688	27867.12
656.039	28013.33
656.391	27710.97
656.742	27715.26
657.094	27801.13
657.445	27891.75
657.796	27799.55
658.147	27810.62
658.498	27723.85
658.849	27708.93
659.2	27684.98
659.551	27732.43
659.902	27849.04
660.253	27637.97
660.604	27694.7
660.955	27519.11
661.306	27747.8
661.656	27634.81
662.007	27507.36
662.358	27560.91
662.708	27625.77
663.059	27475.94
663.409	27444.98
663.76	27602.04
664.11	27550.52
664.461	27582.16
664.811	27519.11
665.161	27583.51
665.511	27447.24
665.862	27603.85
666.212	27583.74
666.562	27544.42
666.912	27479.11
667.262	27419
667.612	27431.65
667.962	27546.45
668.312	27375.83
668.662	27520.24
669.011	27442.05
669.361	27388.49
669.711	27422.61
670.06	27375.83
670.41	27272.11
670.76	27340.13
671.109	27417.87
671.459	27271.43
671.808	27207.93
672.157	27329.73
672.507	27263.29
672.856	27109.85
673.205	27219
673.554	27319.34
673.904	27155.73
674.253	27288.38
674.602	27196.18
674.951	26804.1
675.3	26736.3
675.649	27183.97
675.998	27027.82
676.346	26977.88
676.695	27100.81
677.044	26896.52
677.393	26945.79
677.741	26964.09
678.09	26965
678.438	26820.37
678.787	26875.28
679.135	26917.54
679.484	26592.13
679.832	26819.69
680.181	26633.93
680.529	26793.48
680.877	26744.66
681.225	26726.13
681.573	26833.48
681.922	26595.74
682.27	26601.62
682.618	26515.07
682.966	26367.5
683.314	26515.07
683.661	26419.7
684.009	26265.81
684.357	26379.93
684.705	26278.01
685.053	26290.89
685.4	26193.94
685.748	26155.98
686.095	26045.25
686.443	26020.84
686.79	26000.28
687.138	25990.33
687.485	25949.66
687.832	25840.06
688.18	25913.73
688.527	25800.51
688.874	25716.89
689.221	25658.36
689.568	25586.95
689.915	25550.35
690.262	25541.76
690.609	25520.74
690.956	25485.26
691.303	25344.02
691.65	25238.71
691.997	25292.05
692.344	25066.74
692.69	25057.25
693.037	25050.02
693.383	24800.76
693.73	24995.78
694.077	24783.59
694.423	24767.99
694.769	24605.74
695.116	24595.79
695.462	24500.88
695.808	24479.19
696.155	24473.99
696.501	24369.36
696.847	24360.09
697.193	24242.36
697.539	24278.51
697.885	24182.47
698.231	24015.47
698.577	24022.02
698.923	24002.36
699.269	24008.46
699.614	23770.96
699.96	23838.75
700.306	23759.66
700.651	23638.53
700.997	23538.19
701.342	23593.56
701.688	23545.43
702.033	23422.94
702.379	23376.62
702.724	23285.55
703.069	23413.68
703.415	23081.94
703.76	23091.2
704.105	23113.12
704.45	23047.36
704.795	23004.88
705.14	22866.35
705.485	22944.09
705.83	22746.13
706.175	22762.17
706.52	22681.72
706.865	22655.51
707.209	22656.41
707.554	22510.65
707.899	22597.65
708.243	22473.14
708.588	22395.4
708.932	22353.14
709.277	22318.11
709.621	22272.92
709.966	22164.9
710.31	22150.43
710.654	21908.41
710.998	22071.34
711.342	22001.74
711.687	22011.23
712.031	21914.28
712.375	21843.1
712.719	21823.66
713.063	21804.45
713.407	21881.74
713.75	21768.75
714.094	21748.86
714.438	21520.62
714.782	21641.97
715.125	21474.97
715.469	21573.73
715.812	21398.14
716.156	21313.39
716.499	21395.2
716.843	21445.37
717.186	21250.12
717.53	21312.72
717.873	21345.03
718.216	21160.86
718.559	21179.61
718.902	21069.33
719.246	21003.57
719.589	20864.37
719.932	20872.73
720.275	20838.83
720.617	20856.46
720.96	20818.72
721.303	20804.71
721.646	20902.56
721.989	20730.36
722.331	20770.81
722.674	20678.38
723.016	20735.1
723.359	20598.61
723.701	20555.67
724.044	20446.07
724.386	20414.66
724.729	20436.58
725.071	20445.85
725.413	20435.68
725.755	20374.44
726.097	20336.92
726.439	20293.31
726.782	20150.04
727.124	20310.71
727.465	20216.47
727.807	20095.57
728.149	20185.06
728.491	20069.36
728.833	20147.1
729.175	20017.61
729.516	20006.08
729.858	19979.64
730.199	20003.6
730.541	19886.31
730.882	19914.56
731.224	19898.97
731.565	19779.65
731.906	19771.29
732.248	19847.44
732.589	19772.42
732.93	19657.17
733.271	19772.42
733.612	19702.14
733.953	19719.76
734.294	19728.58
734.635	19587.34
734.976	19599.09
735.317	19479.54
735.658	19538.07
735.999	19535.59
736.339	19490.17
736.68	19460.56
737.021	19350.96
737.361	19329.94
737.702	19335.59
738.042	19347.34
738.383	19326.55
738.723	19294.69
739.063	19141.7
739.404	19176.95
739.744	19191.87
740.084	19055.37
740.424	19092.66
740.764	19040.91
741.104	19145.54
741.444	19048.82
741.784	18925.21
742.124	18994.81
742.464	18962.27
742.804	18932.89
743.143	18913.46
743.483	18929.95
743.823	18816.51
744.162	18752.33
744.502	18821.48
744.841	18673.24
745.181	18808.38
745.52	18644.54
745.86	18633.46
746.199	18713.01
746.538	18677.08
746.877	18661.26
747.216	18600.92
747.556	18566.8
747.895	18528.61
748.234	18457.42
748.573	18548.5
748.911	18305.11
749.25	18363.42
749.589	18398.44
749.928	18339.69
750.267	18341.72
750.605	18207.49
750.944	18221.27
751.283	18150.77
751.621	18193.25
751.96	18083.65
752.298	18130.65
752.636	17900.6
752.975	17932.47
753.313	17771.34
753.651	17928.17
753.989	17815.18
754.327	17767.95
754.666	17658.35
755.004	17713.04
755.342	17824.9
755.679	17687.5
756.017	17674.39
756.355	17626.03
756.693	17440.5
757.031	17588.75
757.368	17457.9
757.706	17453.61
758.044	17438.02
758.381	17406.6
758.719	17240.96
759.056	17267.63
759.394	17184.92
759.731	17209.77
760.068	17225.14
760.405	17082.32
760.743	17059.49
761.08	17074.86
761.417	16899.73
761.754	16920.97
762.091	16913.96
762.428	16843.91
762.765	16723.23
763.102	16773.63
763.438	16724.36
763.775	16562.78
764.112	16548.1
764.449	16585.61
764.785	16584.48
765.122	16311.49
765.458	16352.39
765.795	16323.47
766.131	16398.95
766.467	16194.88
766.804	16134.1
767.14	16115.79
767.476	16102.68
767.812	16063.81
768.148	16024.72
768.485	15876.02
768.821	15770.04
769.157	15790.15
769.492	15840.54
769.828	15690.72
770.164	15593.09
770.5	15505.41
770.836	15602.58
771.171	15514.68
771.507	15506.09
771.842	15369.6
772.178	15391.29
772.513	15302.93
772.849	15201.01
773.184	15105.87
773.519	15217.51
773.855	15040.79
774.19	15016.16
774.525	14969.83
774.86	14927.57
775.195	14888.93
775.53	14851.87
775.865	14752.44
776.2	14648.26
776.535	14577.75
776.87	14579.79
777.205	14596.51
777.539	14445.78
777.874	14371.43
778.209	14279
778.543	14283.75
778.878	14215.95
779.212	14199.68
779.547	14137.09
779.881	14269.74
780.215	14145.22
780.55	14153.58
780.884	14022.29
781.218	13996.75
781.552	14069.52
781.886	13878.11
782.22	13797.43
782.554	13662.3
782.888	13620.49
783.222	13653.71
783.556	13567.38
783.889	13575.07
784.223	13432.02
784.557	13427.27
784.89	13497.1
785.224	13364.68
785.557	13260.05
785.891	13310.21
786.224	13253.49
786.558	13208.97
786.891	13025.48
787.224	13041.07
787.557	12988.42
787.891	12936.89
788.224	12962.2
788.557	12957.68
788.89	12803.34
789.223	12786.16
789.556	12744.13
789.888	12698.48
790.221	12649.22
790.554	12574.19
790.887	12643.79
791.219	12563.12
791.552	12542.33
791.884	12491.93
792.217	12496.68
792.549	12458.03
792.882	12359.05
793.214	12329.9
793.546	12329.68
793.879	12264.59
794.211	12227.08
794.543	12246.97
794.875	12155.22
795.207	12172.39
795.539	12091.26
795.871	12074.77
796.203	11942.57
796.535	11880.65
796.867	11876.58
797.198	11837.03
797.53	11818.5
797.862	11819.41
798.193	11827.54
798.525	11731.95
798.856	11825.51
799.188	11575.8
799.519	11611.05
799.85	11595.91
800.182	11560.43
800.513	11595.68
800.844	11346.65
801.175	11498.51
801.506	11446.31
801.837	11386.42
802.168	11365.18
802.499	11318.18
802.83	11304.84
803.161	11214.68
803.491	11238.86
803.822	11156.37
804.153	11104.17
804.483	11056.26
804.814	11007.45
805.145	11049.48
805.475	11025.3
805.805	10982.59
806.136	10914.8
806.466	10891.52
806.796	10977.62
807.126	10792.09
807.457	10805.2
807.787	10839.09
808.117	10802.26
808.447	10764.52
808.777	10834.8
809.107	10653.34
809.436	10631.64
809.766	10635.03
810.096	10575.82
810.426	10557.52
810.755	10560.46
811.085	10593.9
811.414	10563.17
811.744	10464.41
812.073	10489.5
812.403	10439.1
812.732	10446.56
813.061	10369.95
813.39	10288.6
813.719	10304.87
814.049	10308.49
814.378	10358.43
814.707	10236.17
815.036	10235.49
815.365	10162.73
815.693	10070.3
816.022	10071.43
816.351	10070.53
816.68	10039.11
817.008	10058.1
817.337	9973.81
817.665	9970.42
817.994	10012.9
818.322	9942.85
818.651	9902.39
818.979	9860.81
819.307	9882.28
819.636	9931.32
819.964	9780.36
820.292	9848.16
820.62	9864.66
820.948	9818.78
821.276	9866.46
821.604	9860.36
821.932	9773.81
822.259	9857.65
822.587	9789.18
822.915	9817.65
823.243	9790.53
823.57	9676.64
823.898	9786.47
824.225	9730.65
824.553	9749.86
824.88	9768.39
825.207	9820.82
825.535	9734.26
825.862	9761.38
826.189	9746.01
826.516	9767.03
826.843	9796.86
827.17	9767.48
827.497	9741.95
827.824	9834.6
828.151	9772.45
828.478	9723.42
828.805	9845.45
829.131	9783.08
829.458	9763.64
829.785	9691.78
830.111	9790.53
830.438	9800.25
830.764	9750.76
831.09	9696.98
831.417	9686.81
831.743	9822.17
832.069	9756.18
832.395	9708.95
832.722	9778.1
833.048	9705.34
833.374	9636.64
833.7	9686.36
834.026	9725.68
834.351	9665.57
834.677	9716.19
835.003	9676.86
835.329	9638.67
835.654	9655.85
835.98	9582.63
836.306	9595.51
836.631	9570.43
836.956	9621.05
837.282	9615.85
837.607	9554.61
837.932	9492.46
838.258	9527.04
838.583	9482.29
838.908	9475.06
839.233	9492.69
839.558	9436.64
839.883	9362.75
840.208	9396.65
840.533	9396.42
840.858	9324.11
841.182	9397.32
841.507	9325.46
841.832	9324.11
842.156	9245.01
842.481	9267.38
842.805	9237.55
843.13	9297.21
843.454	9196.42
843.778	9202.98
844.103	9215.18
844.427	9258.57
844.751	9175.86
845.075	9069.87
845.399	9096.54
845.723	9061.97
846.047	9041.85
846.371	9023.1
846.695	9028.52
847.019	8973.61
847.343	8950.56
847.666	8816.1
847.99	8803.21
848.313	8858.81
848.637	8727.06
848.96	8753.27
849.284	8701.3
849.607	8688.87
849.931	8676.21
850.254	8619.26
850.577	8534.07
850.9	8553.28
851.223	8513.96
851.546	8457.01
851.869	8416.56
852.192	8421.76
852.515	8386.95
852.838	8333.4
853.161	8365.03
853.483	8302.44
853.806	8267.41
854.129	8206.85
854.451	8221.54
854.774	8199.16
855.096	8158.03
855.419	8150.8
855.741	8102.44
856.063	8050.24
856.385	8065.61
856.708	8081.88
857.03	8010.47
857.352	8033.97
857.674	8012.73
857.996	7921.2
858.318	7904.93
858.64	7916.91
858.961	7904.71
859.283	7881.88
859.605	7801.89
859.926	7868.78
860.248	7864.93
860.57	7850.25
860.891	7793.75
861.212	7771.15
861.534	7719.18
861.855	7749.91
862.176	7730.47
862.498	7716.69
862.819	7711.04
863.14	7625.84
863.461	7633.08
863.782	7628.1
864.103	7652.28
864.424	7582.68
864.745	7656.35
865.065	7589.24
865.386	7563.02
865.707	7569.12
866.027	7568.45
866.348	7538.84
866.668	7480.76
866.989	7482.12
867.309	7414.78
867.63	7504.94
867.95	7387.88
868.27	7436.47
868.59	7432.63
868.91	7448.45
869.23	7365.74
869.55	7295.91
869.87	7444.38
870.19	7390.37
870.51	7382.46
870.83	7378.17
871.15	7289.13
871.469	7282.8
871.789	7318.51
872.109	7300.88
872.428	7280.99
872.748	7316.47
873.067	7314.67
873.386	7268.79
873.706	7266.53
874.025	7203.03
874.344	7164.84
874.663	7233.99
874.982	7232.18
875.301	7203.48
875.62	7152.86
875.939	7178.62
876.258	7139.98
876.577	7148.12
876.896	7160.09
877.214	7105.18
877.533	7129.59
877.852	7090.72
878.17	7153.31
878.489	7130.04
878.807	7104.5
879.125	7072.86
879.444	7106.76
879.762	7041.45
880.08	7069.93
880.398	6951.74
880.716	7005.75
881.034	6985.18
881.352	7038.97
881.67	6950.38
881.988	7010.27
882.306	6970.95
882.624	6950.61
882.941	6911.74
883.259	6932.98
883.577	6883.72
883.894	6915.13
884.212	6897.5
884.529	6838.75
884.846	6795.58
885.164	6787
885.481	6761.46
885.798	6795.58
886.115	6771.4
886.432	6801.46
886.75	6777.51
887.067	6744.06
887.383	6695.02
887.7	6706.77
888.017	6680.33
888.334	6679.2
888.651	6603.5
888.967	6587.68
889.284	6604.4
889.6	6624.74
889.917	6458.19
890.233	6544.97
890.55	6544.07
890.866	6493.22
891.182	6491.86
891.498	6462.94
891.815	6461.13
892.131	6479.21
892.447	6432.88
892.763	6375.03
893.079	6406.89
893.395	6351.3
893.71	6410.74
894.026	6361.7
894.342	6341.36
894.657	6292.09
894.973	6321.25
895.289	6304.52
895.604	6271.76
895.92	6243.96
896.235	6194.47
896.55	6226.79
896.865	6207.12
897.181	6112.66
897.496	6152.89
897.811	6133.91
898.126	6142.49
898.441	6051.65
898.756	6040.58
899.071	6015.72
899.386	6074.25
899.7	5974.36
900.015	6012.1
900.33	5953.57
900.644	5910.86
900.959	5905.44
901.273	5913.57
901.588	5891.65
901.902	5896.17
902.216	5856.85
902.531	5833.58
902.845	5807.81
903.159	5780.47
903.473	5743.41
903.787	5739.34
904.101	5671.77
904.415	5679.68
904.729	5657.76
905.042	5650.98
905.356	5677.65
905.67	5635.39
905.984	5618.67
906.297	5628.84
906.611	5612.34
906.924	5537.09
907.237	5501.83
907.551	5499.35
907.864	5509.97
908.177	5465.45
908.491	5475.39
908.804	5425.22
909.117	5390.88
909.43	5343.42
909.743	5356.53
910.056	5366.7
910.368	5317.66
910.681	5325.34
910.994	5270.65
911.307	5273.14
911.619	5192.46
911.932	5259.58
912.244	5221.39
912.557	5220.03
912.869	5117.44
913.181	5148.4
913.494	5134.84
913.806	5058.23
914.118	5125.35
914.43	5053.03
914.742	5044.9
915.054	5000.38
915.366	5024.11
915.678	4928.06
915.99	4918.35
916.302	4901.62
916.613	4909.31
916.925	4905.92
917.236	4878.57
917.548	4829.76
917.859	4888.74
918.171	4792.92
918.482	4794.51
918.794	4780.27
919.105	4798.35
919.416	4719.48
919.727	4726.94
920.038	4732.36
920.349	4660.95
920.66	4668.86
920.971	4653.49
921.282	4623.66
921.593	4622.53
921.903	4618.47
922.214	4587.51
922.525	4587.28
922.835	4524.91
923.146	4532.37
923.456	4531.69
923.767	4427.74
924.077	4499.83
924.387	4469.54
924.697	4434.74
925.008	4443.56
925.318	4383.67
925.628	4399.94
925.938	4395.42
926.248	4362.88
926.558	4329.43
926.867	4270.23
927.177	4321.52
927.487	4316.55
927.796	4218.93
928.106	4267.74
928.416	4198.59
928.725	4288.98
929.034	4202.43
929.344	4215.09
929.653	4168.99
929.962	4145.03
930.271	4118.37
930.581	4121.53
930.89	4100.74
931.199	4063.9
931.508	4100.06
931.817	4041.76
932.125	4012.61
932.434	4079.05
932.743	4003.34
933.051	3946.62
933.36	3957.47
933.669	3963.79
933.977	3910.24
934.286	3923.8
934.594	3881.76
934.902	3829.56
935.21	3866.62
935.519	3836.34
935.827	3806.74
936.135	3840.63
936.443	3776
936.751	3778.49
937.059	3771.71
937.367	3769
937.674	3750.47
937.982	3738.49
938.29	3670.24
938.597	3694.65
938.905	3651.26
939.213	3672.95
939.52	3642.9
939.827	3655.55
940.135	3630.7
940.442	3626.85
940.749	3620.07
941.056	3643.12
941.363	3538.27
941.67	3556.8
941.977	3539.62
942.284	3513.86
942.591	3485.84
942.898	3522
943.205	3481.77
943.511	3439.29
943.818	3450.59
944.125	3407.65
944.431	3458.5
944.738	3389.12
945.044	3408.55
945.35	3370.14
945.657	3341.44
945.963	3345.05
946.269	3330.36
946.575	3354.77
946.881	3304.6
947.187	3309.12
947.493	3258.05
947.799	3269.35
948.105	3238.39
948.41	3275
948.716	3238.84
949.022	3212.63
949.327	3203.59
949.633	3190.03
949.938	3171.05
950.244	3154.78
950.549	3134.89
950.854	3169.69
951.16	3122.91
951.465	3122.69
951.77	3061.22
952.075	3074.55
952.38	3061.9
952.685	3052.41
952.99	3018.28
953.294	3040.2
953.599	3023.48
953.904	2990.26
954.209	3004.27
954.513	3003.82
954.818	3013.54
955.122	2997.72
955.426	2921.79
955.731	2941
956.035	2913.88
956.339	2953.2
956.643	2932.41
956.948	2918.4
957.252	2893.99
957.556	2865.07
957.86	2891.96
958.163	2822.13
958.467	2872.75
958.771	2842.92
959.075	2823.26
959.378	2818.29
959.682	2793.88
959.985	2791.85
960.289	2776.03
960.592	2774.67
960.896	2766.76
961.199	2735.58
961.502	2736.93
961.805	2702.58
962.108	2728.8
962.411	2705.3
962.714	2682.25
963.017	2645.64
963.32	2657.61
963.623	2629.59
963.926	2656.71
964.228	2654.45
964.531	2619.42
964.833	2615.13
965.136	2588.46
965.438	2570.61
965.741	2604.96
966.043	2550.72
966.345	2548.01
966.648	2534.45
966.95	2543.94
967.252	2499.65
967.554	2519.99
967.856	2520.89
968.158	2474.34
968.46	2504.4
968.761	2475.47
969.063	2453.33
969.365	2441.12
969.666	2454.23
969.968	2450.84
970.269	2423.72
970.571	2443.61
970.872	2400.45
971.174	2393.44
971.475	2409.48
971.776	2355.7
972.077	2374.68
972.378	2332.42
972.679	2360.9
972.98	2337.62
973.281	2317.74
973.582	2360.67
973.883	2313.22
974.183	2301.92
974.484	2308.24
974.785	2301.01
975.085	2277.28
975.386	2291.75
975.686	2300.79
975.986	2239.09
976.287	2268.47
976.587	2229.38
976.887	2201.35
977.187	2219.43
977.487	2211.75
977.787	2210.17
978.087	2190.51
978.387	2181.24
978.687	2139.44
978.987	2157.51
979.286	2175.59
979.586	2127.91
979.885	2113.22
980.185	2112.32
980.484	2115.26
980.784	2103.5
981.083	2098.53
981.382	2092.2
981.682	2101.47
981.981	2057.18
982.28	2043.62
982.579	2025.54
982.878	2050.85
983.177	2067.35
983.475	2022.38
983.774	1979.44
984.073	2018.53
984.372	2014.69
984.67	1986.44
984.969	2023.73
985.267	1985.32
985.566	1987.8
985.864	1993
986.162	1946.45
986.461	1963.39
986.759	1923.62
987.057	1928.14
987.355	1925.66
987.653	1927.01
987.951	1938.08
988.249	1943.28
988.547	1878.65
988.844	1886.79
989.142	1881.59
989.44	1869.84
989.737	1860.57
990.035	1865.77
990.332	1840.46
990.63	1831.42
990.927	1813.79
991.224	1835.26
991.521	1774.25
991.819	1833.23
992.116	1801.59
992.413	1807.01
992.71	1783.06
993.006	1784.87
993.303	1755.72
993.6	1791.42
993.897	1740.35
994.193	1747.58
994.49	1716.17
994.787	1727.47
995.083	1717.07
995.379	1738.54
995.676	1722.72
995.972	1689.73
996.268	1675.94
996.565	1646.57
996.861	1656.51
997.157	1675.27
997.453	1651.54
997.749	1645.89
998.044	1626
998.34	1655.61
998.636	1631.88
998.932	1613.8
999.227	1624.42
999.523	1631.65
999.818	1625.55
1000.114	1594.36
1000.409	1600.24
1000.704	1585.1
1001	1593.46
1001.295	1560.47
1001.59	1542.84
1001.885	1536.51
1002.18	1542.39
1002.475	1550.52
1002.77	1511.66
1003.065	1534.25
1003.359	1534.25
1003.654	1509.4
1003.949	1508.27
1004.243	1487.7
1004.538	1469.85
1004.832	1467.14
1005.127	1453.58
1005.421	1448.15
1005.715	1449.51
1006.009	1445.22
1006.304	1415.16
1006.598	1426.69
1006.892	1426.23
1007.186	1384.65
1007.48	1379.91
1007.773	1388.49
1008.067	1391.88
1008.361	1389.4
1008.655	1371.77
1008.948	1378.1
1009.242	1333.81
1009.535	1366.35
1009.829	1345.11
1010.122	1346.91
1010.415	1324.09
1010.708	1350.53
1011.001	1328.61
1011.295	1329.74
1011.588	1327.25
1011.881	1275.96
1012.173	1296.29
1012.466	1286.58
1012.759	1266.01
1013.052	1293.36
1013.344	1269.63
1013.637	1253.13
1013.93	1227.37
1014.222	1238.67
1014.514	1256.97
1014.807	1249.29
1015.099	1214.49
1015.391	1212
1015.683	1211.32
1015.976	1202.74
1016.268	1193.25
1016.56	1174.71
1016.851	1193.02
1017.143	1198.67
1017.435	1181.72
1017.727	1164.09
1018.018	1174.04
1018.31	1170.42
1018.602	1161.16
1018.893	1127.26
1019.185	1135.85
1019.476	1124.77
1019.767	1097.2
1020.058	1116.19
1020.35	1101.04
1020.641	1094.94
1020.932	1105.34
1021.223	1093.14
1021.514	1103.08
1021.804	1090.88
1022.095	1063.08
1022.386	1077.09
1022.677	1086.36
1022.967	1049.07
1023.258	1072.34
1023.548	1066.24
1023.839	1044.77
1024.129	1029.18
1024.419	1024.89
1024.709	1000.71
1025	996.87
1025.29	1000.03
1025.58	975.62
1025.87	1001.39
1026.16	1012.69
1026.449	1003.19
1026.739	975.17
1027.029	983.08
1027.319	984.89
1027.608	964.78
1027.898	949.18
1028.187	949.64
1028.477	934.04
1028.766	939.47
1029.055	927.04
1029.344	938.34
1029.634	928.17
1029.923	913.25
1030.212	890.65
1030.501	902.86
1030.79	910.54
1031.078	886.59
1031.367	906.47
1031.656	878.23
1031.945	884.78
1032.233	876.87
1032.522	870.99
1032.81	877.77
1033.099	860.6
1033.387	846.36
1033.675	874.38
1033.963	841.16
1034.251	840.71
1034.54	832.58
1034.828	832.58
1035.116	824.67
1035.403	830.32
1035.691	810.66
1035.979	811.33
1036.267	824.22
1036.554	793.48
1036.842	839.36
1037.129	823.09
1037.417	790.54
1037.704	764.78
1037.992	769.08
1038.279	785.57
1038.566	794.84
1038.853	794.84
1039.14	794.84
