Data from breadboard_white_FLMS001491_00096.txt Node
Date: Wed Feb 08 10:48:33 GMT 2017
User: dcchb
Spectrometer: FLMS00149
Trigger mode: 0
Integration Time (sec): 2.000000E-2
Scans to average: 10
Electric dark correction enabled: true
Nonlinearity correction enabled: false
Boxcar width: 0
XAxis mode: Wavelengths
Number of Pixels in Spectrum: 2048
>>>>>Begin Spectral Data<<<<<
341.393	-38.63
341.776	-38.63
342.16	-38.63
342.543	-56.26
342.927	-65.97
343.31	-52.19
343.693	-58.97
344.077	-47.44
344.46	-70.49
344.843	-32.08
345.226	-56.48
345.61	-46.54
345.993	-21.45
346.376	-11.74
346.759	14.93
347.142	29.62
347.525	28.26
347.908	54.48
348.291	53.12
348.674	97.64
349.057	119.33
349.44	113.46
349.823	134.25
350.206	152.78
350.588	209.95
350.971	215.6
351.354	242.27
351.737	255.15
352.119	259.89
352.502	260.8
352.884	293.11
353.267	294.92
353.65	296.5
354.032	301.93
354.414	327.92
354.797	336.28
355.179	347.58
355.562	344.41
355.944	353.68
356.326	340.57
356.709	337.18
357.091	350.51
357.473	343.28
357.855	357.74
358.238	359.33
358.62	343.51
359.002	359.1
359.384	336.73
359.766	346.67
360.148	353.45
360.53	345.32
360.912	353.9
361.294	370.63
361.676	333.34
362.057	344.86
362.439	344.19
362.821	339.89
363.203	367.46
363.584	352.55
363.966	331.98
364.348	346.9
364.729	336.95
365.111	308.71
365.493	331.76
365.874	333.56
366.256	352.77
366.637	329.72
367.019	320.23
367.4	312.77
367.781	354.81
368.163	339.44
368.544	314.36
368.925	335.37
369.306	340.8
369.688	348.03
370.069	339.67
370.45	322.72
370.831	333.79
371.212	346.45
371.593	353.45
371.974	342.38
372.355	361.81
372.736	333.34
373.117	330.63
373.498	344.64
373.879	339.67
374.26	322.49
374.641	339.21
375.021	347.8
375.402	343.28
375.783	358.2
376.163	363.17
376.544	354.58
376.925	388.48
377.305	351.19
377.686	385.54
378.066	360
378.447	364.07
378.827	357.07
379.208	357.74
379.588	371.08
379.968	392.32
380.349	355.71
380.729	366.56
381.109	371.76
381.489	385.09
381.87	386.9
382.25	403.62
382.63	394.58
383.01	404.07
383.39	385.09
383.77	389.16
384.15	393.68
384.53	405.88
384.91	383.73
385.29	396.39
385.67	416.5
386.049	415.6
386.429	421.7
386.809	406.56
387.189	423.51
387.568	421.25
387.948	413.79
388.328	426.22
388.707	423.73
389.087	438.42
389.466	446.78
389.846	462.37
390.225	457.4
390.605	451.3
390.984	460.12
391.363	465.54
391.743	474.13
392.122	481.81
392.501	477.29
392.881	473.22
393.26	472.77
393.639	489.94
394.018	505.99
394.397	500.57
394.776	517.51
395.155	527.01
395.534	516.84
395.913	518.42
396.292	535.14
396.671	518.87
397.05	548.47
397.429	556.16
397.808	534.01
398.186	560.23
398.565	578.53
398.944	566.78
399.323	559.1
399.701	589.83
400.08	600.9
400.458	604.29
400.837	578.98
401.215	632.31
401.594	627.79
401.972	649.04
402.351	647.45
402.729	660.56
403.107	666.21
403.486	674.12
403.864	673.44
404.242	663.95
404.62	697.85
404.999	722.93
405.377	720.22
405.755	755.47
406.133	763.16
406.511	763.38
406.889	783.5
407.267	774.01
407.645	792.99
408.023	807.22
408.401	809.71
408.779	840.22
409.156	835.7
409.534	879.31
409.912	890.39
410.29	897.17
410.667	922.7
411.045	923.61
411.422	959.08
411.8	984.4
412.178	984.17
412.555	999.31
412.933	979.65
413.31	1027.11
413.687	1035.24
414.065	1079.08
414.442	1080.66
414.819	1114.79
415.197	1107.78
415.574	1131.28
415.951	1163.15
416.328	1168.12
416.705	1203.15
417.082	1184.39
417.46	1223.48
417.837	1224.39
418.214	1250.15
418.591	1250.6
418.967	1251.05
419.344	1291.96
419.721	1301.67
420.098	1307.32
420.475	1338.74
420.852	1363.59
421.228	1377.83
421.605	1412.86
421.982	1412.18
422.358	1424.61
422.735	1441.11
423.111	1435
423.488	1442.46
423.864	1497.83
424.241	1508.22
424.617	1534.66
424.994	1535.34
425.37	1550.26
425.746	1550.93
426.123	1588.67
426.499	1597.94
426.875	1600.42
427.251	1654.66
427.627	1667.54
428.003	1722.91
428.379	1712.74
428.756	1737.6
429.132	1764.04
429.507	1772.17
429.883	1821.44
430.259	1855.56
430.635	1854.65
431.011	1896.69
431.387	1958.61
431.763	1965.39
432.138	1998.83
432.514	1985.95
432.89	2000.41
433.265	2076.8
433.641	2112.95
434.016	2109.79
434.392	2149.56
434.767	2172.84
435.143	2243.8
435.518	2239.5
435.894	2272.5
436.269	2271.14
436.644	2345.94
437.02	2356.11
437.395	2330.8
437.77	2424.13
438.145	2426.39
438.52	2463.45
438.895	2466.62
439.271	2506.39
439.646	2555.43
440.021	2567.18
440.395	2567.18
440.77	2519.95
441.145	2594.07
441.52	2653.73
441.895	2636.78
442.27	2650.79
442.645	2695.54
443.019	2735.54
443.394	2717.91
443.769	2755.2
444.143	2757.68
444.518	2793.39
444.892	2818.25
445.267	2797.68
445.641	2867.74
446.016	2864.12
446.39	2895.98
446.764	2896.44
447.139	2879.49
447.513	2987.51
447.887	2956.55
448.262	2968.75
448.636	3035.19
449.01	3070.89
449.384	3100.72
449.758	3124.68
450.132	3150.89
450.506	3150.89
450.88	3199.25
451.254	3201.06
451.628	3254.84
452.002	3300.72
452.376	3297.1
452.75	3359.93
453.123	3383.65
453.497	3410.77
453.871	3456.87
454.244	3522.41
454.618	3557.21
454.992	3615.06
455.365	3641.5
455.739	3723.08
456.112	3758.11
456.486	3761.5
456.859	3796.75
457.232	3909.06
457.606	3899.57
457.979	3940.7
458.352	4033.81
458.725	4068.16
459.099	4100.25
459.472	4179.79
459.845	4185.67
460.218	4264.08
460.591	4262.27
460.964	4298.43
461.337	4443.06
461.71	4532.1
462.083	4553.79
462.456	4535.94
462.829	4580.23
463.201	4637.18
463.574	4693.9
463.947	4739.78
464.32	4836.72
464.692	4954.23
465.065	4935.48
465.438	4993.78
465.81	5084.4
466.183	5123.72
466.555	5271.74
466.928	5305.64
467.3	5311.51
467.672	5391.06
468.045	5516.25
468.417	5541.79
468.789	5531.85
469.161	5652.07
469.534	5733.2
469.906	5878.28
470.278	5968.22
470.65	6020.87
471.022	6099.06
471.394	6284.82
471.766	6344.03
472.138	6380.86
472.51	6523.46
472.882	6599.61
473.253	6690.01
473.625	6790.57
473.997	6963.45
474.369	6935.2
474.74	7092.71
475.112	7176.1
475.484	7313.49
475.855	7483.66
476.227	7482.3
476.598	7719.36
476.97	7798.45
477.341	8037.09
477.713	8115.28
478.084	8172.68
478.455	8403.18
478.827	8409.06
479.198	8676.62
479.569	8696.96
479.94	8966.11
480.311	9142.15
480.682	9274.8
481.053	9443.61
481.424	9659.42
481.795	9629.14
482.166	9881.79
482.537	9958.85
482.908	10225.06
483.279	10369.23
483.65	10412.85
484.021	10708.43
484.391	10834.31
484.762	10927.18
485.133	11067.97
485.503	11208.08
485.874	11450.11
486.244	11550.9
486.615	11801.74
486.985	11857.78
487.356	12210.77
487.726	12225.68
488.097	12468.61
488.467	12617.99
488.837	12863.18
489.207	12941.82
489.578	13202.6
489.948	13319.44
490.318	13453.45
490.688	13534.35
491.058	13734.57
491.428	13923.94
491.798	14124.16
492.168	14384.04
492.538	14439.41
492.908	14661.32
493.278	14794.88
493.648	14859.74
494.017	15058.15
494.387	15181.76
494.757	15389.21
495.126	15482.09
495.496	15550.79
495.866	15657.46
496.235	15855.19
496.605	16023.1
496.974	16096.09
497.344	16301.05
497.713	16346.03
498.082	16515.96
498.452	16682.51
498.821	16789.18
499.19	16769.97
499.559	17019.23
499.928	17142.61
500.298	17271.88
500.667	17389.16
501.036	17442.49
501.405	17609.95
501.774	17757.29
502.143	17860.79
502.512	17916.83
502.88	18171.97
503.249	18047
503.618	18366.76
503.987	18406.54
504.356	18622.12
504.724	18659.41
505.093	18711.61
505.462	18918.61
505.83	19010.36
506.199	19245.61
506.567	19399.28
506.936	19446.96
507.304	19720.63
507.672	19604.47
508.041	19892.82
508.409	20003.78
508.777	20227.05
509.145	20352.7
509.514	20386.82
509.882	20647.83
510.25	20655.06
510.618	20787.26
510.986	20980.93
511.354	21160.14
511.722	21300.92
512.09	21440.81
512.458	21572.1
512.826	21739.33
513.193	21891.87
513.561	21936.16
513.929	22280.33
514.297	22379.76
514.664	22570.49
515.032	22731.62
515.4	22874.89
515.767	22907.43
516.135	23092.97
516.502	23056.81
516.869	23537.7
517.237	23500.19
517.604	23570.69
517.972	23875.54
518.339	24110.57
518.706	24104.69
519.073	24283.22
519.44	24398.69
519.808	24811.34
520.175	24785.13
520.542	24998.45
520.909	25303.76
521.276	25276.19
521.643	25661.03
522.009	25828.04
522.376	25916.39
522.743	26168.59
523.11	26347.12
523.477	26670.73
523.843	26821.23
524.21	27107.78
524.577	27232.52
524.943	27384.83
525.31	27533.75
525.676	27886.74
526.043	28096.68
526.409	28123.79
526.776	28466.84
527.142	28617.57
527.508	28784.12
527.874	29029.99
528.241	29211.68
528.607	29271.11
528.973	29589.52
529.339	29580.03
529.705	29860.92
530.071	30114.93
530.437	30314.47
530.803	30414.13
531.169	30568.93
531.535	30632.43
531.901	30854.34
532.267	30925.3
532.632	31281.45
532.998	31204.17
533.364	31431.73
533.73	31563.7
534.095	31705.85
534.461	31867.42
534.826	32029.68
535.192	32256.12
535.557	32449.78
535.923	32532.04
536.288	32636.67
536.653	32917.79
537.019	32830.79
537.384	33025.59
537.749	33171.57
538.114	33212.47
538.479	33305.81
538.845	33479.36
539.21	33600.71
539.575	33610.2
539.94	33756.87
540.305	33973.13
540.67	33864.43
541.034	34207.02
541.399	34261.49
541.764	34398.88
542.129	34530.18
542.494	34552.78
542.858	34788.7
543.223	34884.29
543.587	35050.62
543.952	35045.65
544.316	35220.33
544.681	35149.15
545.045	35490.15
545.41	35540.55
545.774	35519.76
546.138	35841.56
546.503	35794.33
546.867	35917.26
547.231	36127.43
547.595	36166.97
547.959	36361.54
548.324	36383.69
548.688	36504.59
549.052	36699.61
549.416	36675.66
549.779	36709.33
550.143	36903.9
550.507	37120.62
550.871	37248.98
551.235	37162.2
551.599	37663.88
551.962	37512.02
552.326	37808.96
552.689	38011.22
553.053	37864.56
553.417	37947.72
553.78	38448.72
554.143	38363.53
554.507	38566.91
554.87	38674.93
555.234	39082.15
555.597	38890.97
555.96	39152.43
556.323	39261.81
556.686	39286.21
557.05	39653.21
557.413	39662.25
557.776	39855.24
558.139	40053.2
558.502	40037.15
558.865	40358.27
559.228	40620.19
559.59	40566.63
559.953	40773.63
560.316	41134.75
560.679	41129.55
561.041	41434.86
561.404	41664.46
561.767	41705.58
562.129	41683.89
562.492	42045.91
562.854	42091.79
563.217	42059.47
563.579	42396.64
563.941	42616.07
564.304	42832.56
564.666	43116.39
565.028	43077.3
565.39	43209.27
565.753	43477.29
566.115	43586.66
566.477	43805.19
566.839	43802.7
567.201	44156.37
567.563	44055.58
567.925	44454.89
568.287	44399.07
568.648	44536.47
569.01	44785.28
569.372	44956.12
569.734	44892.17
570.095	45181.2
570.457	45369.67
570.819	45526.27
571.18	45493.96
571.542	45851.46
571.903	45817.57
572.265	45905.93
572.626	46150.89
572.987	46177.56
573.349	46281.51
573.71	46423.88
574.071	46434.05
574.432	46554.04
574.794	46758.56
575.155	46738.45
575.516	46811.44
575.877	47003.07
576.238	47003.98
576.599	47144.09
576.96	47283.74
577.32	47108.61
577.681	47394.47
578.042	47376.85
578.403	47506.11
578.763	47286.45
579.124	47546.79
579.485	47620
579.845	47727.35
580.206	47678.08
580.566	47684.41
580.927	47702.04
581.287	47869.49
581.648	47674.69
582.008	47930.28
582.368	47849.6
582.728	47980.45
583.089	47844.86
583.449	47881.47
583.809	47904.29
584.169	48087.56
584.529	47909.71
584.889	48175.47
585.249	47901.35
585.609	47914.69
585.969	48118.07
586.329	48082.14
586.688	48092.76
587.048	48104.96
587.408	47923.27
587.768	47958.75
588.127	48013.44
588.487	47897.29
588.846	48384.28
589.206	47902.71
589.565	48075.36
589.925	48222.93
590.284	48079.2
590.643	48044.63
591.003	48193.55
591.362	48302.25
591.721	48285.07
592.08	48285.3
592.44	48412.53
592.799	48333.66
593.158	48361.68
593.517	48365.3
593.876	48444.84
594.235	48309.7
594.593	48361.23
594.952	48443.94
595.311	48252.98
595.67	48327.56
596.029	48648
596.387	48606.87
596.746	48696.36
597.104	48571.84
597.463	48524.39
597.822	48673.54
598.18	48539.08
598.538	48444.84
598.897	48752.18
599.255	48400.78
599.613	48890.93
599.972	48722.8
600.33	48722.35
600.688	48634.44
601.046	48796.02
601.404	48850.48
601.762	48826.75
602.12	49036.46
602.478	48975.45
602.836	49149.46
603.194	48924.6
603.552	48953.98
603.91	48895.68
604.268	49036.46
604.625	48923.02
604.983	49108.55
605.341	48919.63
605.698	49149.68
606.056	49204.37
606.413	49125.05
606.771	49264.26
607.128	49284.14
607.485	49233.97
607.843	49266.06
608.2	49276.23
608.557	49434.87
608.914	49389.45
609.272	49473.74
609.629	49662.21
609.986	49767.75
610.343	49524.81
610.7	49736.56
611.057	49768.42
611.414	49724.58
611.771	49745.37
612.127	49934.75
612.484	49920.74
612.841	49890.68
613.198	49865.6
613.554	50040.51
613.911	50123.44
614.267	50098.36
614.624	50030.11
614.98	50111.46
615.337	50333.15
615.693	50225.13
616.05	50201.41
616.406	50351.01
616.762	50217.45
617.118	50250.44
617.475	50354.85
617.831	50348.07
618.187	50381.97
618.543	50491.57
618.899	50663.77
619.255	50520.72
619.611	50562.07
619.967	50574.05
620.323	50654.05
620.678	50511.45
621.034	50477.33
621.39	50443.89
621.746	50390.1
622.101	50809.07
622.457	50465.58
622.812	50632.13
623.168	50755.97
623.523	50722.52
623.879	50742.63
624.234	50605.92
624.589	50671.68
624.945	50659.7
625.3	50686.82
625.655	50738.57
626.01	50658.57
626.365	50761.39
626.72	50555.3
627.075	50675.29
627.43	50645.91
627.785	50627.61
628.14	50633.26
628.495	50647.72
628.85	50575.86
629.205	50409.08
629.559	50694.95
629.914	50405.92
630.269	50517.56
630.623	50393.94
630.978	50441.85
631.332	50502.42
631.687	50571.57
632.041	50321.4
632.396	50416.54
632.75	50286.83
633.104	50300.16
633.459	50035.76
633.813	50143.1
634.167	50117.57
634.521	50107.4
634.875	50088.64
635.229	50073.5
635.583	49838.25
635.937	50035.31
636.291	49870.79
636.645	49894.07
636.999	49678.71
637.352	49907.18
637.706	49622.66
638.06	49724.81
638.413	49666.96
638.767	49514.87
639.121	49570.46
639.474	49360.07
639.828	49394.65
640.181	49381.77
640.534	49381.77
640.888	49288.66
641.241	49129.34
641.594	49215.9
641.947	49226.74
642.301	49128.44
642.654	49189
643.007	49084.15
643.36	48999.18
643.713	48979.52
644.066	49117.14
644.419	48967.99
644.771	48788.34
645.124	48378.63
645.477	48515.57
645.83	48041.24
646.182	47917.62
646.535	47745.43
646.888	47710.17
647.24	47568.48
647.593	47667.46
647.945	47704.3
648.298	47502.04
648.65	47360.8
649.002	47275.83
649.355	47464.53
649.707	47346.11
650.059	47492.55
650.411	47868.81
650.763	47896.83
651.115	48360.78
651.467	48126.88
651.819	48207.11
652.171	48034.91
652.523	48046.21
652.875	48020.9
653.227	47764.18
653.578	48163.72
653.93	47909.71
654.282	47781.81
654.633	47622.49
654.985	47931.64
655.337	47863.39
655.688	47844.63
656.039	47779.55
656.391	47507.24
656.742	47501.14
657.094	47647.57
657.445	47695.26
657.796	47586.33
658.147	47496.84
658.498	47476.51
658.849	47473.57
659.2	47507.47
659.551	47448.94
659.902	47428.82
660.253	47441.7
660.604	47447.35
660.955	47166.23
661.306	47401.71
661.656	47303.63
662.007	47336.62
662.358	47281.26
662.708	47203.97
663.059	47176.85
663.409	46990.19
663.76	47399.22
664.11	47367.36
664.461	47245.78
664.811	47231.31
665.161	47181.6
665.511	46973.02
665.862	47024.54
666.212	47135.5
666.562	47170.98
666.912	47122.16
667.262	47096.63
667.612	46904.54
667.962	47196.29
668.312	46953.58
668.662	47102.5
669.011	46978.89
669.361	46997.2
669.711	46945.67
670.06	46933.7
670.41	46879.91
670.76	46785
671.109	46984.54
671.459	46795.17
671.808	46708.62
672.157	46756.98
672.507	46512.46
672.856	46596.76
673.205	46489.41
673.554	46695.96
673.904	46474.27
674.253	46674.04
674.602	46540.71
674.951	45998.35
675.3	45785.7
675.649	46484.22
675.998	46261.17
676.346	46380.26
676.695	46425.46
677.044	46102.53
677.393	46289.42
677.741	46329.64
678.09	46129.2
678.438	46092.59
678.787	46092.14
679.135	46027.05
679.484	45728.08
679.832	45930.78
680.181	45840.39
680.529	45943.89
680.877	45724.01
681.225	45642.66
681.573	45983.89
681.922	45613.96
682.27	45544.81
682.618	45545.94
682.966	45449.44
683.314	45505.71
683.661	45312.95
684.009	45213.06
684.357	45144.59
684.705	45056.46
685.053	45156.79
685.4	45017.14
685.748	44761.32
686.095	44882.68
686.443	44680.2
686.79	44573.31
687.138	44779.18
687.485	44641.1
687.832	44522.23
688.18	44613.3
688.527	44253.09
688.874	44305.06
689.221	44110.27
689.568	44021.23
689.915	44018.07
690.262	43858.75
690.609	43737.17
690.956	43745.08
691.303	43661.01
691.65	43498.98
691.997	43530.17
692.344	43159.78
692.69	43190.97
693.037	43149.61
693.383	42888.38
693.73	42941.94
694.077	42720.47
694.423	42735.61
694.769	42625.33
695.116	42492.68
695.462	42365.91
695.808	42270.54
696.155	42198.45
696.501	42103.99
696.847	41935.18
697.193	41803.21
697.539	41906.26
697.885	41540.84
698.231	41516.44
698.577	41457.91
698.923	41400.73
699.269	41149.67
699.614	41085.71
699.96	40979.73
700.306	41060.4
700.651	40685.95
700.997	40652.28
701.342	40690.02
701.688	40547.42
702.033	40429.69
702.379	40445.28
702.724	40248.9
703.069	40406.64
703.415	39923.48
703.76	39933.43
704.105	39947.66
704.45	39861.56
704.795	39534.12
705.14	39422.93
705.485	39390.84
705.83	39348.81
706.175	39251.86
706.52	39113.11
706.865	39179.77
707.209	39122.83
707.554	38914.92
707.899	39031.08
708.243	38617.08
708.588	38687.58
708.932	38385.22
709.277	38476.97
709.621	38379.34
709.966	38279.91
710.31	38127.15
710.654	37892.35
710.998	37985.23
711.342	37991.33
711.687	37858.68
712.031	37700.27
712.375	37650.32
712.719	37457.11
713.063	37455.98
713.407	37603.55
713.75	37370.1
714.094	37326.26
714.438	37077.46
714.782	37130.11
715.125	37053.28
715.469	36982.54
715.812	36931.02
716.156	36729.44
716.499	36734.42
716.843	36785.94
717.186	36470.92
717.53	36707.75
717.873	36639.95
718.216	36649.22
718.559	36398.61
718.902	36156.13
719.246	36252.85
719.589	35988.45
719.932	35972.18
720.275	36037.71
720.617	35896.25
720.96	35964.94
721.303	35977.6
721.646	35926.75
721.989	35622.13
722.331	35636.59
722.674	35632.98
723.016	35607.67
723.359	35430.27
723.701	35416.26
724.044	35207.68
724.386	35077.06
724.729	35117.28
725.071	35064.4
725.413	35081.58
725.755	34910.96
726.097	34901.7
726.439	34701.7
726.782	34631.87
727.124	34905.09
727.465	34610.18
727.807	34472.33
728.149	34595.71
728.491	34466.9
728.833	34531.54
729.175	34305.78
729.516	34261.03
729.858	34233.01
730.199	34308.72
730.541	34058.78
730.882	34124.54
731.224	34122.28
731.565	33841.38
731.906	33944.66
732.248	34054.49
732.589	33796.64
732.93	33656.08
733.271	33787.83
733.612	33752.35
733.953	33650.43
734.294	33480.49
734.635	33447.95
734.976	33510.77
735.317	33408.85
735.658	33293.83
735.999	33308.06
736.339	33255.18
736.68	33303.77
737.021	33096.32
737.361	32949.88
737.702	33046.6
738.042	32901.97
738.383	32809.55
738.723	32964.35
739.063	32782.43
739.404	32806.84
739.744	32659.49
740.084	32566.84
740.424	32620.85
740.764	32623.79
741.104	32475.54
741.444	32327.53
741.784	32334.98
742.124	32346.51
742.464	32442.1
742.804	32220.41
743.143	32137.93
743.483	32116.91
743.823	32085.95
744.162	32148.77
744.502	32042.34
744.841	31815.45
745.181	31958.5
745.52	31767.31
745.86	31788.33
746.199	31710.37
746.538	31610.71
746.877	31677.83
747.216	31556.02
747.556	31284.16
747.895	31588.11
748.234	31336.59
748.573	31240.77
748.911	31354.67
749.25	31169.82
749.589	31165.97
749.928	31203.04
750.267	31048.01
750.605	31119.87
750.944	30918.75
751.283	30886.21
751.621	30885.53
751.96	30746.32
752.298	30690.05
752.636	30575.93
752.975	30564.86
753.313	30278.09
753.651	30385.2
753.989	30328.93
754.327	30170.75
754.666	30099.34
755.004	29989.51
755.342	30074.48
755.679	29945.67
756.017	29766.46
756.355	29949.74
756.693	29827.48
757.031	29883.75
757.368	29635.62
757.706	29681.27
758.044	29370.09
758.381	29506.58
758.719	29328.06
759.056	29374.38
759.394	29237.89
759.731	29078.57
760.068	28916.77
760.405	28995.18
760.743	28840.61
761.08	28822.31
761.417	28651.01
761.754	28681.52
762.091	28493.5
762.428	28522.2
762.765	28143
763.102	28322.89
763.438	28041.08
763.775	28000.63
764.112	27970.58
764.449	27966.51
764.785	27784.59
765.122	27672.73
765.458	27610.81
765.795	27549.8
766.131	27580.08
766.467	27327.43
766.804	27387.54
767.14	27146.42
767.476	27213.08
767.812	27058.29
768.148	26953.66
768.485	26829.59
768.821	26723.15
769.157	26696.71
769.492	26643.61
769.828	26567.9
770.164	26251.3
770.5	26282.49
770.836	26240
771.171	26072.55
771.507	26041.59
771.842	25860.58
772.178	25813.57
772.513	25696.97
772.849	25681.15
773.184	25428.72
773.519	25519.8
773.855	25437.99
774.19	25301.5
774.525	25208.62
774.86	25069.64
775.195	24942.86
775.53	24922.07
775.865	24779.25
776.2	24660.38
776.535	24555.07
776.87	24491.35
777.205	24451.12
777.539	24292.03
777.874	24430.56
778.209	24218.36
778.543	24077.35
778.878	23867.86
779.212	23848.2
779.547	23814.08
779.881	23892.49
780.215	23685.27
780.55	23715.32
780.884	23529.79
781.218	23536.12
781.552	23431.94
781.886	23360.98
782.22	23221.1
782.554	23167.99
782.888	22873.54
783.222	22842.58
783.556	22709.93
783.889	22670.6
784.223	22471.74
784.557	22486.65
784.89	22477.16
785.224	22405.53
785.557	22281.91
785.891	22180.67
786.224	22246.66
786.558	22151.3
786.891	21849.16
787.224	21797.18
787.557	21862.72
787.891	21752.89
788.224	21705.43
788.557	21623.85
788.89	21621.59
789.223	21551.76
789.556	21420.47
789.888	21344.09
790.221	21284.2
790.554	21120.14
790.887	21121.94
791.219	21039.01
791.552	20878.34
791.884	20863.65
792.217	20826.13
792.549	20593.6
792.882	20542.75
793.214	20541.39
793.546	20509.53
793.879	20373.26
794.211	20387.5
794.543	20304.34
794.875	20311.57
795.207	20268.86
795.539	20048.3
795.871	20128.98
796.203	19982.09
796.535	19835.88
796.867	19900.06
797.198	19788.87
797.53	19732.38
797.862	19621.42
798.193	19617.35
798.525	19473.17
798.856	19550.23
799.188	19246.74
799.519	19236.12
799.85	19151.15
800.182	19176.91
800.513	19110.02
800.844	18953.19
801.175	18919.74
801.506	18983.24
801.837	18789.12
802.168	18811.95
802.499	18690.37
802.83	18585.97
803.161	18562.69
803.491	18557.04
803.822	18635
804.153	18412.86
804.483	18310.72
804.814	18246.31
805.145	18235.24
805.475	18313.88
805.805	18103.72
806.136	18080.67
806.466	18190.72
806.796	18011.97
807.126	17927.68
807.457	17969.49
807.787	17905.53
808.117	17823.73
808.447	17813.78
808.777	17815.36
809.107	17670.06
809.436	17608.36
809.766	17540.8
810.096	17479.55
810.426	17496.73
810.755	17375.83
811.085	17399.56
811.414	17350.29
811.744	17258.32
812.073	17338.32
812.403	17217.19
812.732	17144.87
813.061	17090.86
813.39	17046.35
813.719	17040.7
814.049	17070.75
814.378	16959.79
814.707	16916.41
815.036	16944.88
815.365	16846.12
815.693	16696.3
816.022	16650.2
816.351	16576.3
816.68	16478.9
817.008	16601.84
817.337	16436.42
817.665	16358.91
817.994	16417.21
818.322	16399.13
818.651	16283.43
818.979	16212.47
819.307	16409.3
819.636	16194.16
819.964	16051.57
820.292	16196.88
820.62	16167.72
820.948	16045.47
821.276	16122.3
821.604	16073.04
821.932	16165.92
822.259	16148.06
822.587	16064.45
822.915	15959.37
823.243	16083.66
823.57	15966.15
823.898	15964.34
824.225	15923.21
824.553	16022.42
824.88	15908.97
825.207	16045.92
825.535	15991.68
825.862	16002.76
826.189	15926.38
826.516	16027.84
826.843	15989.42
827.17	16042.08
827.497	15952.14
827.824	16027.84
828.151	16039.59
828.478	15956.66
828.805	16000.27
829.131	15921.63
829.458	15921.86
829.785	15834.17
830.111	15931.8
830.438	15984.45
830.764	15993.04
831.09	16013.15
831.417	15762.76
831.743	15884.57
832.069	15847.51
832.395	15861.97
832.722	15813.38
833.048	15772.93
833.374	15713.73
833.7	15711.24
834.026	15791.01
834.351	15802.54
834.677	15680.28
835.003	15789.88
835.329	15725.02
835.654	15675.08
835.98	15662.88
836.306	15732.48
836.631	15539.49
836.956	15658.59
837.282	15572.71
837.607	15568.19
837.932	15491.81
838.258	15490.23
838.583	15472.38
838.908	15401.64
839.233	15466.95
839.558	15405.48
839.883	15303.34
840.208	15236.22
840.533	15364.58
840.858	15256.56
841.182	15245.71
841.507	15182.21
841.832	15072.39
842.156	15096.34
842.481	15104.02
842.805	15107.64
843.13	14996.68
843.454	14981.09
843.778	14842.56
844.103	14864.48
844.427	14797.14
844.751	14889.79
845.075	14835.78
845.399	14772.28
845.723	14660.42
846.047	14641.21
846.371	14498.39
846.695	14547.88
847.019	14477.6
847.343	14405.74
847.666	14252.07
847.99	14275.57
848.313	14317.38
848.637	14149.47
848.96	14091.17
849.284	14102.02
849.607	13963.94
849.931	13888.91
850.254	13850.27
850.577	13842.36
850.9	13634.68
851.223	13746.77
851.546	13671.07
851.869	13560.11
852.192	13590.39
852.515	13485.76
852.838	13373
853.161	13391.98
853.483	13318.53
853.806	13297.74
854.129	13253
854.451	13178.42
854.774	13114.02
855.096	13032.89
855.419	13070.63
855.741	13056.85
856.063	12905.44
856.385	12919.22
856.708	12892.56
857.03	12844.2
857.352	12839
857.674	12817.76
857.996	12736.63
858.318	12707.48
858.64	12668.61
858.961	12635.61
859.283	12591.77
859.605	12524.43
859.926	12580.93
860.248	12475.17
860.57	12429.07
860.891	12413.02
861.212	12426.58
861.534	12379.35
861.855	12368.73
862.176	12373.47
862.498	12333.48
862.819	12266.58
863.14	12261.39
863.461	12193.59
863.782	12138.23
864.103	12199.24
864.424	12047.38
864.745	12126.93
865.065	12099.58
865.386	11993.82
865.707	11968.96
866.027	12001.28
866.348	11945.91
866.668	11969.42
866.989	11909.31
867.309	11844.22
867.63	11845.13
867.95	11822.75
868.27	11723.77
868.59	11744.34
868.91	11728.07
869.23	11709.31
869.55	11755.86
869.87	11738.46
870.19	11726.71
870.51	11618.01
870.83	11717.22
871.15	11538.47
871.469	11599.94
871.789	11647.17
872.109	11578.24
872.428	11511.35
872.748	11567.85
873.067	11517.23
873.386	11588.86
873.706	11573.04
874.025	11422.76
874.344	11370.11
874.663	11380.05
874.982	11308.87
875.301	11342.31
875.62	11237.23
875.939	11278.14
876.258	11329.89
876.577	11267.74
876.896	11221.87
877.214	11256.44
877.533	11246.27
877.852	11161.75
878.17	11169.21
878.489	11209.66
878.807	11155.43
879.125	11148.65
879.444	11146.39
879.762	11089.21
880.08	11150.46
880.398	11020.06
880.716	11015.54
881.034	11061.87
881.352	11021.65
881.67	10998.59
881.988	10969.22
882.306	10985.26
882.624	10954.3
882.941	10804.25
883.259	10796.79
883.577	10823.46
883.894	10780.07
884.212	10815.77
884.529	10767.87
884.846	10750.92
885.164	10742.78
885.481	10657.81
885.798	10728.77
886.115	10569
886.432	10578.72
886.75	10592.96
887.067	10594.54
887.383	10487.65
887.7	10579.17
888.017	10450.81
888.334	10526.97
888.651	10427.99
888.967	10430.02
889.284	10409.91
889.6	10358.61
889.917	10266.86
890.233	10259.18
890.55	10223.25
890.866	10267.54
891.182	10129.47
891.498	10163.36
891.815	10106.64
892.131	10108
892.447	10034.78
892.763	10056.7
893.079	9982.8
893.395	9955.01
893.71	9978.28
894.026	9938.06
894.342	9916.36
894.657	9802.02
894.973	9839.76
895.289	9865.52
895.604	9749.14
895.92	9688.35
896.235	9734
896.55	9655.58
896.865	9595.24
897.181	9568.8
897.496	9632.98
897.811	9573.32
898.126	9516.15
898.441	9445.87
898.756	9470.05
899.071	9349.15
899.386	9426.88
899.7	9374.46
900.015	9327.23
900.33	9227.57
900.644	9200.9
900.959	9231.86
901.273	9230.28
901.588	9123.39
901.902	9083.84
902.216	9074.8
902.531	9041.13
902.845	9063.28
903.159	9036.61
903.473	8871.65
903.787	8912.32
904.101	8835.26
904.415	8838.65
904.729	8838.88
905.042	8814.47
905.356	8763.17
905.67	8720.46
905.984	8664.87
906.297	8648.83
906.611	8582.16
906.924	8580.81
907.237	8562.05
907.551	8484.76
907.864	8475.27
908.177	8415.61
908.491	8389.62
908.804	8402.28
909.117	8406.12
909.43	8310.76
909.743	8220.59
910.056	8253.13
910.368	8223.07
910.681	8123.64
910.994	8142.85
911.307	8088.84
911.619	8041.16
911.932	8023.76
912.244	7976.75
912.557	7893.14
912.869	7907.15
913.181	7908.96
913.494	7927.49
913.806	7813.59
914.118	7802.29
914.43	7793.48
914.742	7786.25
915.054	7726.36
915.366	7707.16
915.678	7629.42
915.99	7603.88
916.302	7535.41
916.613	7505.81
916.925	7459.93
917.236	7441.17
917.548	7470.78
917.859	7466.94
918.171	7420.84
918.482	7350.56
918.794	7271.01
919.105	7354.85
919.416	7250.22
919.727	7249.54
920.038	7240.5
920.349	7122.09
920.66	7108.08
920.971	7065.14
921.282	7144.46
921.593	7099.26
921.903	7026.27
922.214	7053.39
922.525	6946.27
922.835	6979.27
923.146	6903.34
923.456	6945.14
923.767	6874.64
924.077	6857.01
924.387	6784.24
924.697	6775.66
925.008	6759.16
925.318	6673.74
925.628	6611.14
925.938	6600.07
926.248	6594.19
926.558	6553.74
926.867	6586.51
927.177	6509.45
927.487	6542.67
927.796	6439.17
928.106	6436.23
928.416	6371.6
928.725	6350.13
929.034	6370.69
929.344	6342.22
929.653	6338.83
929.962	6198.72
930.271	6287.08
930.581	6202.11
930.89	6191.26
931.199	6161.21
931.508	6120.08
931.817	6132.06
932.125	6161.89
932.434	6053.19
932.743	6019.74
933.051	6026.07
933.36	6002.57
933.669	5947.88
933.977	5941.33
934.286	5905.62
934.594	5907.2
934.902	5890.93
935.21	5850.48
935.519	5812.74
935.827	5819.52
936.135	5760.31
936.443	5750.37
936.751	5749.69
937.059	5685.29
937.367	5675.57
937.674	5645.74
937.982	5644.84
938.29	5558.06
938.597	5621.56
938.905	5513.77
939.213	5487.33
939.52	5495.69
939.827	5533.2
940.135	5452.53
940.442	5455.69
940.749	5416.59
941.056	5412.98
941.363	5344.51
941.67	5417.05
941.977	5287.56
942.284	5241.91
942.591	5287.11
942.898	5278.29
943.205	5231.97
943.511	5186.09
943.818	5175.02
944.125	5145.87
944.431	5139.77
944.738	5127.34
945.044	5123.95
945.35	5082.14
945.657	5023.16
945.963	5019.77
946.269	5032.88
946.575	4992.88
946.881	4966.66
947.187	5003.05
947.493	4884.86
947.799	4884.63
948.105	4864.97
948.41	4799.89
948.716	4869.72
949.022	4839.21
949.327	4799.66
949.633	4757.63
949.938	4782.71
950.244	4715.6
950.549	4705.65
950.854	4666.78
951.16	4687.57
951.465	4621.14
951.77	4638.31
952.075	4630.63
952.38	4562.38
952.685	4592.66
952.99	4509.73
953.294	4568.93
953.599	4501.36
953.904	4494.81
954.209	4469.5
954.513	4515.83
954.818	4446.22
955.122	4448.26
955.426	4372.78
955.731	4384.53
956.035	4316.51
956.339	4328.49
956.643	4334.82
956.948	4311.31
957.252	4284.65
957.556	4265.89
957.86	4280.58
958.163	4276.06
958.467	4224.54
958.771	4168.94
959.075	4186.57
959.378	4172.56
959.682	4144.31
959.985	4112.67
960.289	4114.71
960.592	4067.7
960.896	4048.72
961.199	4018.44
961.502	3996.52
961.805	3997.2
962.108	3982.96
962.411	3967.59
962.714	3915.62
963.017	3919.46
963.32	3921.27
963.623	3888.5
963.926	3881.04
964.228	3857.31
964.531	3819.12
964.833	3846.69
965.136	3819.8
965.438	3820.48
965.741	3752.68
966.043	3763.08
966.345	3737.09
966.648	3737.99
966.95	3706.58
967.252	3699.13
967.554	3672.46
967.856	3669.97
968.158	3657.09
968.46	3614.38
968.761	3629.52
969.063	3605.8
969.365	3592.46
969.666	3567.15
969.968	3554.5
970.269	3551.56
970.571	3513.59
970.872	3501.17
971.174	3511.11
971.475	3474.73
971.776	3475.63
972.077	3429.08
972.378	3458
972.679	3412.58
972.98	3412.58
973.281	3378.68
973.582	3372.13
973.883	3351.34
974.183	3349.08
974.484	3336.42
974.785	3310.21
975.085	3338.91
975.386	3278.35
975.686	3249.42
975.986	3258.46
976.287	3271.34
976.587	3256.2
976.887	3191.12
977.187	3234.51
977.487	3181.85
977.787	3186.6
978.087	3186.37
978.387	3162.64
978.687	3148.18
978.987	3123.55
979.286	3119.71
979.586	3070.89
979.885	3080.84
980.185	3087.16
980.484	3021.63
980.784	3002.65
981.083	2999.26
981.382	3023.21
981.682	2938.47
981.981	3011.69
982.28	2946.6
982.579	2959.03
982.878	2940.28
983.177	2921.52
983.475	2914.29
983.774	2881.07
984.073	2913.16
984.372	2845.59
984.67	2856.21
984.969	2857.57
985.267	2851.01
985.566	2818.02
985.864	2820.28
986.162	2801.3
986.461	2819.15
986.759	2762.88
987.057	2710.9
987.355	2722.65
987.653	2773.5
987.951	2721.52
988.249	2697.8
988.547	2704.35
988.844	2677.68
989.142	2692.15
989.44	2688.31
989.737	2677.23
990.035	2620.96
990.332	2618.25
990.63	2630.23
990.927	2579.38
991.224	2590.68
991.521	2551.81
991.819	2579.83
992.116	2579.16
992.413	2581.87
992.71	2510.23
993.006	2541.19
993.303	2490.34
993.6	2492.15
993.897	2495.99
994.193	2474.3
994.49	2485.6
994.787	2474.53
995.083	2432.04
995.379	2422.1
995.676	2393.85
995.972	2421.42
996.268	2379.16
996.565	2350.46
996.861	2355.21
997.157	2345.72
997.453	2360.18
997.749	2327.64
998.044	2345.49
998.34	2317.69
998.636	2308.88
998.932	2284.02
999.227	2263.91
999.523	2255.32
999.818	2249.22
1000.114	2219.16
1000.409	2223.68
1000.704	2225.27
1001	2229.79
1001.295	2197.24
1001.59	2207.64
1001.885	2201.31
1002.18	2153.86
1002.475	2163.8
1002.77	2131.48
1003.065	2123.8
1003.359	2107.76
1003.654	2073.63
1003.949	2077.47
1004.243	2076.34
1004.538	2067.98
1004.832	2046.51
1005.127	2039.51
1005.421	2032.05
1005.715	1980.98
1006.009	1982.56
1006.304	1982.33
1006.598	1947.08
1006.892	1961.09
1007.186	1927.2
1007.48	1925.16
1007.773	1944.6
1008.067	1917.25
1008.361	1924.48
1008.655	1892.39
1008.948	1887.42
1009.242	1913.41
1009.535	1847.42
1009.829	1877.93
1010.122	1849.91
1010.415	1845.62
1010.708	1802.68
1011.001	1824.82
1011.295	1817.14
1011.588	1812.62
1011.881	1775.11
1012.173	1809.23
1012.466	1788.89
1012.759	1755
1013.052	1729.23
1013.344	1756.58
1013.637	1727.88
1013.93	1679.29
1014.222	1708.22
1014.514	1694.88
1014.807	1692.4
1015.099	1663.02
1015.391	1641.55
1015.683	1658.05
1015.976	1649.46
1016.268	1661.89
1016.56	1630.93
1016.851	1625.28
1017.143	1602.91
1017.435	1597.49
1017.727	1593.19
1018.018	1548
1018.31	1554.78
1018.602	1536.47
1018.893	1516.13
1019.185	1513.87
1019.476	1538.96
1019.767	1543.25
1020.058	1494.66
1020.35	1505.74
1020.641	1479.75
1020.932	1487.88
1021.223	1442.24
1021.514	1444.95
1021.804	1455.34
1022.095	1463.93
1022.386	1397.04
1022.677	1411.95
1022.967	1416.47
1023.258	1430.71
1023.548	1395.46
1023.839	1397.94
1024.129	1375.8
1024.419	1376.93
1024.709	1366.98
1025	1348
1025.29	1344.39
1025.58	1330.37
1025.87	1314.56
1026.16	1322.47
1026.449	1336.7
1026.739	1273.88
1027.029	1267.55
1027.319	1251.05
1027.608	1276.14
1027.898	1256.93
1028.187	1269.13
1028.477	1248.79
1028.766	1261.45
1029.055	1238.4
1029.344	1241.56
1029.634	1230.04
1029.923	1225.07
1030.212	1197.72
1030.501	1200.21
1030.79	1183.26
1031.078	1166.31
1031.367	1180.77
1031.656	1147.1
1031.945	1146.2
1032.233	1152.07
1032.522	1155.92
1032.81	1082.02
1033.099	1131.74
1033.387	1128.35
1033.675	1105.75
1033.963	1093.77
1034.251	1115.24
1034.54	1122.7
1034.828	1075.01
1035.116	1087.9
1035.403	1065.75
1035.691	1051.29
1035.979	1056.94
1036.267	1039.31
1036.554	1037.27
1036.842	1041.34
1037.129	1036.15
1037.417	1011.29
1037.704	1017.39
1037.992	993.43
1038.279	1014.9
1038.566	994.11
1038.853	994.11
1039.14	994.11
