Data from breadboard_white_FLMS001491_00037.txt Node
Date: Wed Feb 08 10:47:38 GMT 2017
User: dcchb
Spectrometer: FLMS00149
Trigger mode: 0
Integration Time (sec): 2.000000E-2
Scans to average: 10
Electric dark correction enabled: true
Nonlinearity correction enabled: false
Boxcar width: 0
XAxis mode: Wavelengths
Number of Pixels in Spectrum: 2048
>>>>>Begin Spectral Data<<<<<
341.393	-14.18
341.776	-14.18
342.16	-14.18
342.543	-62.99
342.927	-43.33
343.31	-57.34
343.693	-74.74
344.077	-80.39
344.46	-65.48
344.843	-55.99
345.226	-39.72
345.61	-34.52
345.993	-4.01
346.376	11.58
346.759	6.84
347.142	25.82
347.525	26.27
347.908	52.48
348.291	82.99
348.674	83.67
349.057	122.54
349.44	120.73
349.823	127.06
350.206	190.11
350.588	209.09
350.971	231.01
351.354	261.74
351.737	242.99
352.119	256.77
352.502	288.86
352.884	292.03
353.267	292.25
353.65	305.13
354.032	310.78
354.414	314.62
354.797	314.85
355.179	325.7
355.562	336.77
355.944	348.3
356.326	341.29
356.709	349.2
357.091	357.11
357.473	337.67
357.855	346.49
358.238	328.64
358.62	367.73
359.002	366.37
359.384	333.16
359.766	350.1
360.148	362.53
360.53	348.97
360.912	362.98
361.294	354.17
361.676	364.11
362.057	330.44
362.439	353.72
362.821	347.84
363.203	333.38
363.584	349.88
363.966	349.88
364.348	338.13
364.729	321.18
365.111	322.08
365.493	343.78
365.874	340.84
366.256	327.28
366.637	332.25
367.019	343.32
367.4	319.14
367.781	337.67
368.163	321.4
368.544	347.84
368.925	334.96
369.306	362.76
369.688	351.91
370.069	331.57
370.45	321.86
370.831	329.54
371.212	335.87
371.593	330.22
371.974	348.3
372.355	351.46
372.736	351.46
373.117	351.46
373.498	347.39
373.879	349.65
374.26	334.28
374.641	335.19
375.021	342.42
375.402	351.46
375.783	349.43
376.163	362.08
376.544	371.8
376.925	342.42
377.305	365.24
377.686	372.25
378.066	346.26
378.447	347.39
378.827	384
379.208	371.35
379.588	371.35
379.968	351.01
380.349	355.98
380.729	363.66
381.109	364.34
381.489	370.22
381.87	374.74
382.25	369.76
382.63	382.87
383.01	383.78
383.39	393.72
383.77	382.42
384.15	398.46
384.53	379.93
384.91	413.6
385.29	383.55
385.67	402.31
386.049	409.99
386.429	411.12
386.809	431.46
387.189	409.54
387.568	395.3
387.948	419.03
388.328	405.92
388.707	447.05
389.087	446.15
389.466	426.03
389.846	463.55
390.225	441.85
390.605	440.27
390.984	446.15
391.363	436.2
391.743	442.08
392.122	471.91
392.501	466.71
392.881	480.72
393.26	476.43
393.639	489.54
394.018	466.71
394.397	485.92
394.776	490.89
395.155	493.83
395.534	519.82
395.913	516.65
396.292	507.84
396.671	523.43
397.05	513.72
397.429	520.27
397.808	543.55
398.186	544.45
398.565	561.17
398.944	522.75
399.323	547.16
399.701	586.03
400.08	568.63
400.458	596.65
400.837	594.17
401.215	608.63
401.594	589.87
401.972	623.54
402.351	629.19
402.729	649.98
403.107	630.1
403.486	642.3
403.864	675.29
404.242	631.9
404.62	701.51
404.999	674.84
405.377	684.56
405.755	733.37
406.133	717.55
406.511	732.24
406.889	734.27
407.267	746.25
407.645	760.71
408.023	783.76
408.401	791.67
408.779	814.27
409.156	845.23
409.534	827.83
409.912	858.79
410.29	885.91
410.667	895.63
411.045	898.56
411.422	928.17
411.8	934.27
412.178	979.01
412.555	972.23
412.933	972.23
413.31	1028.28
413.687	1041.61
414.065	1044.32
414.442	1060.14
414.819	1058.33
415.197	1090.65
415.574	1086.81
415.951	1110.99
416.328	1148.73
416.705	1135.62
417.082	1152.79
417.46	1191.89
417.837	1193.7
418.214	1230.53
418.591	1236.63
418.967	1255.16
419.344	1256.97
419.721	1279.8
420.098	1279.34
420.475	1314.37
420.852	1299.23
421.228	1321.6
421.605	1345.11
421.982	1369.29
422.358	1372.9
422.735	1374.26
423.111	1407.48
423.488	1429.85
423.864	1443.18
424.241	1461.04
424.617	1478.66
424.994	1486.57
425.37	1504.42
425.746	1507.59
426.123	1535.61
426.499	1551.65
426.875	1585.55
427.251	1603.18
427.627	1647.7
428.003	1667.13
428.379	1676.62
428.756	1698.99
429.132	1726.56
429.507	1759.33
429.883	1768.6
430.259	1774.93
430.635	1778.77
431.011	1810.4
431.387	1875.94
431.763	1903.28
432.138	1917.52
432.514	1955.03
432.89	1957.97
433.265	2006.78
433.641	2009.5
434.016	2011.3
434.392	2087.91
434.767	2100.11
435.143	2126.33
435.518	2149.83
435.894	2177.4
436.269	2216.72
436.644	2188.7
437.02	2226.66
437.395	2257.4
437.77	2287.91
438.145	2310.96
438.52	2338.98
438.895	2371.07
439.271	2382.59
439.646	2448.58
440.021	2420.11
440.395	2505.75
440.77	2442.48
441.145	2533.78
441.52	2517.73
441.895	2507.79
442.27	2539.65
442.645	2572.42
443.019	2629.82
443.394	2629.37
443.769	2613.32
444.143	2619.2
444.518	2691.51
444.892	2699.19
445.267	2711.4
445.641	2726.76
446.016	2724.28
446.39	2721.57
446.764	2769.93
447.139	2792.3
447.513	2843.15
447.887	2848.57
448.262	2858.96
448.636	2844.95
449.01	2920.88
449.384	2921.79
449.758	2951.62
450.132	2968.34
450.506	3028.68
450.88	3102.35
451.254	3001.11
451.628	3111.16
452.002	3138.73
452.376	3144.61
452.75	3155
453.123	3186.87
453.497	3251.04
453.871	3265.51
454.244	3373.75
454.618	3395
454.992	3437.48
455.365	3424.37
455.739	3512.73
456.112	3534.88
456.486	3570.81
456.859	3613.07
457.232	3684.93
457.606	3674.54
457.979	3732.84
458.352	3793.86
458.725	3813.06
459.099	3865.49
459.472	3925.6
459.845	3994.75
460.218	4043.11
460.591	4053.06
460.964	4105.26
461.337	4168.76
461.71	4270
462.083	4250.11
462.456	4287.63
462.829	4298.47
463.201	4418.25
463.574	4429.77
463.947	4515.87
464.32	4607.62
464.692	4610.56
465.065	4637.22
465.438	4705.47
465.81	4754.06
466.183	4786.82
466.555	4945.46
466.928	4950.66
467.3	4991.79
467.672	5046.93
468.045	5208.51
468.417	5192.69
468.789	5264.55
469.161	5300.93
469.534	5413.7
469.906	5505.9
470.278	5541.38
470.65	5621.15
471.022	5744.54
471.394	5835.84
471.766	5882.16
472.138	5970.52
472.51	6146.79
472.882	6161.7
473.253	6264.52
473.625	6415.93
473.997	6483.28
474.369	6507.91
474.74	6588.36
475.112	6702.71
475.484	6831.29
475.855	6894.11
476.227	7035.13
476.598	7214.56
476.97	7272.86
477.341	7453.19
477.713	7600.76
478.084	7593.08
478.455	7809.12
478.827	7856.12
479.198	8082.1
479.569	8116.23
479.94	8280.29
480.311	8417.46
480.682	8598.25
481.053	8786.04
481.424	8958.69
481.795	9018.8
482.166	9153.04
482.537	9207.72
482.908	9500.6
483.279	9560.71
483.65	9724.32
484.021	9897.88
484.391	10010.87
484.762	10151.65
485.133	10233.91
485.503	10394.36
485.874	10550.51
486.244	10719.55
486.615	10863.73
486.985	10980.11
487.356	11187.11
487.726	11339.65
488.097	11534.89
488.467	11537.83
488.837	11866.64
489.207	11916.13
489.578	12200.19
489.948	12293.74
490.318	12364.48
490.688	12537.58
491.058	12703.9
491.428	12859.38
491.798	13011.24
492.168	13222.76
492.538	13254.85
492.908	13476.09
493.278	13553.37
493.648	13627.49
494.017	13818.22
494.387	13980.48
494.757	14149.06
495.126	14181.6
495.496	14320.81
495.866	14447.13
496.235	14528.26
496.605	14656.85
496.974	14765.77
497.344	14925.54
497.713	15101.35
498.082	15153.56
498.452	15336.15
498.821	15390.16
499.19	15528.46
499.559	15686.42
499.928	15759.64
500.298	15879.41
500.667	15968
501.036	15978.17
501.405	16125.51
501.774	16160.76
502.143	16352.62
502.512	16446.18
502.88	16565.95
503.249	16650.01
503.618	16813.17
503.987	16886.17
504.356	16947.41
504.724	17208.42
505.093	17275.53
505.462	17352.82
505.83	17501.74
506.199	17585.58
506.567	17838.46
506.936	17739.7
507.304	18017.89
507.672	18039.36
508.041	18230.76
508.409	18296.75
508.777	18390.53
509.145	18617.65
509.514	18567.48
509.882	18867.58
510.25	18859
510.618	19042.04
510.986	19092.66
511.354	19284.52
511.722	19401.13
512.09	19630.5
512.458	19615.81
512.826	19900.32
513.193	19949.14
513.561	19976.48
513.929	20179.86
514.297	20418.5
514.664	20614.88
515.032	20610.36
515.4	20878.38
515.767	20874.31
516.135	21097.58
516.502	20892.16
516.869	21348.65
517.237	21333.73
517.604	21479.72
517.972	21781.86
518.339	21951.57
518.706	21975.07
519.073	22140.94
519.44	22275.85
519.808	22495.51
520.175	22541.38
520.542	22826.57
520.909	22954.71
521.276	22936.4
521.643	23317.86
522.009	23428.82
522.376	23563.5
522.743	23789.04
523.11	23935.02
523.477	24323.26
523.843	24343.37
524.21	24566.64
524.577	24808.67
524.943	24805.05
525.31	25082.11
525.676	25367.53
526.043	25589.67
526.409	25569.55
526.776	25933.84
527.142	25914.18
527.508	26198.01
527.874	26360.27
528.241	26485.24
528.607	26602.07
528.973	26743.31
529.339	26844.1
529.705	27087.25
530.071	27318.21
530.437	27507.81
530.803	27680.46
531.169	27890.4
531.535	27871.87
531.901	27959.32
532.267	28104.85
532.632	28281.35
532.998	28324.51
533.364	28600.66
533.73	28633.65
534.095	28849.92
534.461	28950.03
534.826	29092.17
535.192	29282.45
535.557	29381.66
535.923	29260.98
536.288	29524.48
536.653	29648.54
537.019	29716.11
537.384	29807.63
537.749	29939.38
538.114	30014.63
538.479	30078.14
538.845	30279.71
539.21	30239.71
539.575	30510.21
539.94	30640.15
540.305	30905.23
540.67	30761.73
541.034	30935.74
541.399	31144.1
541.764	31090.99
542.129	31174.6
542.494	31272.91
542.858	31471.55
543.223	31437.42
543.587	31564.42
543.952	31668.15
544.316	31740.46
544.681	31776.62
545.045	32051.19
545.41	32192.88
545.774	32196.5
546.138	32229.94
546.503	32345.19
546.867	32393.33
547.231	32693.89
547.595	32823.15
547.959	32965.29
548.324	32968.91
548.688	33001.9
549.052	33099.75
549.416	33176.36
549.779	33232.85
550.143	33372.51
550.507	33560.76
550.871	33659.74
551.235	33830.81
551.599	33887.98
551.962	34087.3
552.326	34245.26
552.689	34311.7
553.053	34282.32
553.417	34372.03
553.78	34677.11
554.143	34636.66
554.507	34932.02
554.87	34992.36
555.234	35261.73
555.597	35292.91
555.96	35333.14
556.323	35484.1
556.686	35447.03
557.05	35880.47
557.413	35958.89
557.776	36113.91
558.139	36265.54
558.502	36430.06
558.865	36490.17
559.228	36722.71
559.59	36781.01
559.953	36788.24
560.316	37288.12
560.679	37263.48
561.041	37542.35
561.404	37650.37
561.767	37854.2
562.129	37725.17
562.492	38254.42
562.854	38142.1
563.217	38230.46
563.579	38366.28
563.941	38752.94
564.304	38703.67
564.666	39027.28
565.028	39109.08
565.39	39086.71
565.753	39350.21
566.115	39695.28
566.477	39791.78
566.839	39817.99
567.201	40018.67
567.563	40133.46
567.925	40369.39
568.287	40506.11
568.648	40407.36
569.01	40871.07
569.372	40997.17
569.734	40863.61
570.095	41036.49
570.457	41309.93
570.819	41335.01
571.18	41253.66
571.542	41501.11
571.903	41556.25
572.265	41760.31
572.626	41955.79
572.987	42018.39
573.349	42016.35
573.71	42070.59
574.071	42230.81
574.432	42461.76
574.794	42684.58
575.155	42700.63
575.516	42539.95
575.877	42832.83
576.238	42890.91
576.599	42990.56
576.96	43025.82
577.32	43031.02
577.681	43229.88
578.042	43171.8
578.403	43346.26
578.763	43355.75
579.124	43320.73
579.485	43390.1
579.845	43526.82
580.206	43501.29
580.566	43490.89
580.927	43674.16
581.287	43716.2
581.648	43585.35
582.008	43931.56
582.368	43837.77
582.728	43726.14
583.089	43759.58
583.449	43803.65
583.809	43887.72
584.169	43982.63
584.529	43856.53
584.889	44053.14
585.249	43900.37
585.609	43679.59
585.969	44054.94
586.329	43903.76
586.688	43951.67
587.048	43939.01
587.408	43869.19
587.768	43914.61
588.127	43975.62
588.487	43809.53
588.846	44191.44
589.206	43856.76
589.565	43801.84
589.925	44061.5
590.284	44123.19
590.643	43929.97
591.003	44048.84
591.362	44126.13
591.721	44133.81
592.08	44075.51
592.44	44123.64
592.799	44107.82
593.158	44069.86
593.517	44036.64
593.876	44268.72
594.235	44197.99
594.593	44205.9
594.952	44192.57
595.311	44052.01
595.67	44223.98
596.029	44432.33
596.387	44375.84
596.746	44342.62
597.104	44214.49
597.463	44154.38
597.822	44510.75
598.18	44210.19
598.538	44374.71
598.897	44506.91
599.255	44108.5
599.613	44801.14
599.972	44607.25
600.33	44610.63
600.688	44423.97
601.046	44558.21
601.404	44830.29
601.762	44609.96
602.12	44854.24
602.478	44775.15
602.836	44795.49
603.194	44793.45
603.552	44783.06
603.91	44694.25
604.268	44767.92
604.625	44572.22
604.983	44998.2
605.341	44685.89
605.698	44928.14
606.056	45114.58
606.413	45079.32
606.771	45015.14
607.128	45101.7
607.485	44920.23
607.843	45072.32
608.2	45308.24
608.557	45407.9
608.914	45209.04
609.272	45551.85
609.629	45423.27
609.986	45584.85
610.343	45445.64
610.7	45790.72
611.057	45547.56
611.414	45607.22
611.771	45601.57
612.127	45671.85
612.484	45663.26
612.841	45862.58
613.198	45782.13
613.554	45802.47
613.911	46011.73
614.267	45958.85
614.624	45901
614.98	45995.91
615.337	46063.03
615.693	46099.86
616.05	46046.76
616.406	46376.24
616.762	46063.7
617.118	46238.84
617.475	46144.83
617.831	46307.77
618.187	46311.61
618.543	46284.94
618.899	46449.68
619.255	46371.94
619.611	46303.25
619.967	46446.74
620.323	46524.48
620.678	46456.46
621.034	46456.69
621.39	46317.03
621.746	46355.45
622.101	46758.6
622.457	46451.72
622.812	46481.09
623.168	46640.41
623.523	46560.64
623.879	46727.19
624.234	46459.4
624.589	46780.3
624.945	46664.59
625.3	46680.86
625.655	46609.45
626.01	46518.16
626.365	46561.54
626.72	46474.77
627.075	46683.8
627.43	46434.77
627.785	46451.04
628.14	46455.11
628.495	46610.36
628.85	46537.59
629.205	46306.18
629.559	46489
629.914	46264.15
630.269	46424.6
630.623	46224.83
630.978	45999.98
631.332	46291.27
631.687	46310.03
632.041	46078.62
632.396	46102.8
632.75	45866.65
633.104	46133.08
633.459	45897.61
633.813	45867.33
634.167	45900.77
634.521	45878.62
634.875	45827.78
635.229	45927.66
635.583	45677.27
635.937	45666.2
636.291	45684.96
636.645	45643.38
636.999	45465.75
637.352	45522.25
637.706	45307.79
638.06	45681.57
638.413	45322.93
638.767	45180.56
639.121	45318.64
639.474	44920.23
639.828	45101.7
640.181	45230.96
640.534	45131.53
640.888	44961.81
641.241	44766.79
641.594	44922.49
641.947	44895.6
642.301	44840.01
642.654	44753.46
643.007	44743.96
643.36	44722.72
643.713	44699.22
644.066	44822.83
644.419	44489.73
644.771	44198.89
645.124	43909.41
645.477	43765.91
645.83	43469.87
646.182	43411.8
646.535	43202.76
646.888	43316.88
647.24	43014.52
647.593	43335.19
647.945	43151.01
648.298	42888.19
648.65	42929.32
649.002	42690.91
649.355	42911.24
649.707	42764.81
650.059	42936.33
650.411	43282.08
650.763	43355.07
651.115	43960.71
651.467	43707.38
651.819	43543.54
652.171	43544.45
652.523	43340.84
652.875	43442.53
653.227	43182.88
653.578	43442.98
653.93	43389.2
654.282	43246.83
654.633	43159.37
654.985	43341.74
655.337	43179.49
655.688	43132.93
656.039	43395.75
656.391	43006.38
656.742	43043.9
657.094	43100.84
657.445	43168.19
657.796	43120.73
658.147	42860.17
658.498	42950.79
658.849	43002.54
659.2	42925.93
659.551	42908.31
659.902	43097.68
660.253	42785.37
660.604	42864.69
660.955	42668.31
661.306	42875.77
661.656	42702.21
662.007	42735.43
662.358	42692.49
662.708	42654.3
663.059	42527.75
663.409	42382.9
663.76	42604.81
664.11	42586.96
664.461	42575.21
664.811	42709.67
665.161	42634.42
665.511	42585.6
665.862	42543.34
666.212	42573.4
666.562	42536.11
666.912	42458.83
667.262	42411.14
667.612	42494.98
667.962	42474.87
668.312	42232.84
668.662	42513.29
669.011	42409.79
669.361	42231.04
669.711	42213.41
670.06	42299.28
670.41	42168.44
670.76	42194.88
671.109	42275.56
671.459	42189
671.808	42021.55
672.157	42158.72
672.507	42004.83
672.856	41888.67
673.205	42038.73
673.554	42084.83
673.904	41927.09
674.253	41982.46
674.602	41926.19
674.951	41179.99
675.3	41170.5
675.649	41623.59
675.998	41624.5
676.346	41671.96
676.695	41829.92
677.044	41448.91
677.393	41526.87
677.741	41566.65
678.09	41428.35
678.438	41626.98
678.787	41469.47
679.135	41451.85
679.484	41179.76
679.832	41460.89
680.181	41134.57
680.529	41187.67
680.877	41094.34
681.225	41149.26
681.573	41217.05
681.922	41030.62
682.27	40879.43
682.618	40834.24
682.966	40765.76
683.314	40912.2
683.661	40749.95
684.009	40525.32
684.357	40537.07
684.705	40407.36
685.053	40383.18
685.4	40363.51
685.748	40178.21
686.095	40090.98
686.443	40007.14
686.79	39990.87
687.138	39986.58
687.485	39838.56
687.832	39722.85
688.18	39817.54
688.527	39546.14
688.874	39452.35
689.221	39623.87
689.568	39367.61
689.915	39314.73
690.262	39372.58
690.609	39191.34
690.956	39083.55
691.303	38975.08
691.65	38916.1
691.997	38759.72
692.344	38572.6
692.69	38521.3
693.037	38529.66
693.383	38313.63
693.73	38352.72
694.077	38222.1
694.423	38221.65
694.769	37914.99
695.116	37858.5
695.462	37865.73
695.808	37703.47
696.155	37871.6
696.501	37526.98
696.847	37308.68
697.193	37322.01
697.539	37277.49
697.885	37098.29
698.231	36885.87
698.577	37026.65
698.923	36930.84
699.269	36783.27
699.614	36627.57
699.96	36597.74
700.306	36525.88
700.651	36292.44
700.997	36191.2
701.342	36066
701.688	36033.69
702.033	35989.39
702.379	35850.64
702.724	35933.8
703.069	35819.91
703.415	35498.33
703.76	35501.95
704.105	35605.22
704.45	35408.62
704.795	35179.7
705.14	35203.65
705.485	35088.17
705.83	34827.16
706.175	34911.23
706.52	34653.83
706.865	34705.58
707.209	34768.86
707.554	34503.56
707.899	34606.83
708.243	34398.93
708.588	34456.33
708.932	34064.92
709.277	34144.92
709.621	34124.58
709.966	33921.2
710.31	33930.92
710.654	33625.84
710.998	33687.98
711.342	33713.29
711.687	33619.06
712.031	33570.47
712.375	33423.36
712.719	33217.94
713.063	33335.23
713.407	33365.51
713.75	33125.97
714.094	33234.44
714.438	32998.51
714.782	32970.94
715.125	32878.06
715.469	33017.27
715.812	32635.36
716.156	32552.19
716.499	32556.94
716.843	32507.68
717.186	32318.75
717.53	32506.32
717.873	32608.24
718.216	32378.19
718.559	32253.22
718.902	31954.7
719.246	32035.82
719.589	31991.08
719.932	31841.71
720.275	31895.94
720.617	31805.1
720.96	31705.44
721.303	31804.19
721.646	31802.61
721.989	31490.75
722.331	31702.27
722.674	31692.56
723.016	31469.74
723.359	31431.32
723.701	31474.94
724.044	31184.1
724.386	31099.58
724.729	31242.85
725.071	31189.74
725.413	31096.41
725.755	31083.76
726.097	30901.39
726.439	30771.22
726.782	30755.18
727.124	30843.99
727.465	30719.25
727.807	30596.54
728.149	30516.54
728.491	30540.95
728.833	30642.87
729.175	30408.97
729.516	30305.7
729.858	30314.51
730.199	30277
730.541	30164.01
730.882	30115.2
731.224	30221.41
731.565	29987.52
731.906	29913.39
732.248	30080.4
732.589	29869.33
732.93	29814.41
733.271	29797.24
733.612	29803.11
733.953	29788.43
734.294	29540.97
734.635	29686.06
734.976	29737.58
735.317	29532.39
735.658	29518.15
735.999	29563.35
736.339	29382.56
736.68	29468.66
737.021	29285.39
737.361	29240.19
737.702	29326.74
738.042	29274.99
738.383	29217.37
738.723	29097.6
739.063	28971.72
739.404	29082.91
739.744	28861.67
740.084	28915.23
740.424	28864.83
740.764	28750.71
741.104	28784.16
741.444	28606.54
741.784	28444.96
742.124	28585.97
742.464	28521.11
742.804	28494.22
743.143	28452.87
743.483	28281.57
743.823	28185.3
744.162	28234.57
744.502	28139.88
744.841	28167.45
745.181	28242.03
745.52	28098.3
745.86	28080.9
746.199	28017.85
746.538	28175.59
746.877	28107.11
747.216	28025.53
747.556	27840.23
747.895	27841.36
748.234	27717.52
748.573	27595.26
748.911	27632.55
749.25	27618.99
749.589	27521.82
749.928	27426.23
750.267	27506.23
750.605	27360.92
750.944	27319.11
751.283	27152.56
751.621	27270.3
751.96	27070.31
752.298	26970.87
752.636	27082.06
752.975	26866.24
753.313	26708.73
753.651	26975.17
753.989	26795.28
754.327	26695.4
754.666	26550.77
755.004	26516.42
755.342	26440.49
755.679	26572.69
756.017	26268.29
756.355	26335.18
756.693	26181.51
757.031	26308.74
757.368	26031.24
757.706	25998.24
758.044	25984.46
758.381	26040.05
758.719	25807.06
759.056	25765.48
759.394	25840.51
759.731	25537.92
760.068	25647.97
760.405	25492.95
760.743	25396.45
761.08	25455.88
761.417	25278.49
761.754	25206.85
762.091	25228.32
762.428	25065.16
762.765	24957.59
763.102	24994.88
763.438	24869.46
763.775	24707.2
764.112	24696.58
764.449	24708.79
764.785	24543.82
765.122	24350.83
765.458	24212.08
765.795	24260.89
766.131	24266.99
766.467	24167.33
766.804	24088.24
767.14	23799.88
767.476	23794.23
767.812	23725.99
768.148	23776.61
768.485	23540.68
768.821	23528.25
769.157	23504.75
769.492	23482.6
769.828	23383.85
770.164	23154.02
770.5	23192.44
770.836	23053.91
771.171	22896.18
771.507	22903.86
771.842	22773.92
772.178	22806.46
772.513	22592
772.849	22591.55
773.184	22459.58
773.519	22453.93
773.855	22281.96
774.19	22179.81
774.525	22222.52
774.86	22142.98
775.195	22107.27
775.53	21953.15
775.865	21913.6
776.2	21676.55
776.535	21571.69
776.87	21540.06
777.205	21478.14
777.539	21363.11
777.874	21448.98
778.209	21241.98
778.543	21159.5
778.878	21027.53
779.212	21004.02
779.547	21024.36
779.881	20983.91
780.215	20805.16
780.55	20811.94
780.884	20633.86
781.218	20635.45
781.552	20626.41
781.886	20495.34
782.22	20366.75
782.554	20251.95
782.888	20073.2
783.222	20096.03
783.556	19896.93
783.889	20001.79
784.223	19877.27
784.557	19753.21
784.89	19792.3
785.224	19687.9
785.557	19590.28
785.891	19480
786.224	19390.96
786.558	19456.04
786.891	19301.7
787.224	19164.98
787.557	19077.97
787.891	19089.72
788.224	19018.99
788.557	18976.05
788.89	18981.93
789.223	18924.08
789.556	18876.62
789.888	18788.49
790.221	18659.45
790.554	18541.49
790.887	18549.85
791.219	18480.93
791.552	18379.69
791.884	18359.8
792.217	18250.2
792.549	18171.33
792.882	18012.46
793.214	18066.93
793.546	17947.16
793.879	17866.25
794.211	17755.3
794.543	17864.45
794.875	17789.19
795.207	17742.41
795.539	17578.35
795.871	17555.98
796.203	17490.9
796.535	17416.55
796.867	17294.52
797.198	17322.54
797.53	17403.21
797.862	17238.7
798.193	17247.51
798.525	17120.51
798.856	17076.22
799.188	16854.53
799.519	16908.76
799.85	16788.32
800.182	16780.41
800.513	16796.23
800.844	16557.36
801.175	16633.52
801.506	16631.26
801.837	16481.43
802.168	16493.41
802.499	16456.8
802.83	16388.33
803.161	16250.02
803.491	16347.88
803.822	16273.07
804.153	16142.68
804.483	16022.01
804.814	15944.27
805.145	15988.56
805.475	16010.48
805.805	15950.15
806.136	15845.74
806.466	15871.96
806.796	15871.05
807.126	15767.78
807.457	15581.12
807.787	15660.66
808.117	15566.2
808.447	15552.19
808.777	15554
809.107	15359.2
809.436	15369.14
809.766	15516.48
810.096	15358.3
810.426	15237.4
810.755	15351.07
811.085	15216.38
811.414	15269.03
811.744	15084.41
812.073	15084.18
812.403	15026.1
812.732	15004.18
813.061	14999.89
813.39	14835.37
813.719	14909.72
814.049	14918.99
814.378	14815.26
814.707	14816.62
815.036	14768.71
815.365	14704.3
815.693	14492.78
816.022	14542.05
816.351	14483.29
816.68	14404.65
817.008	14513.57
817.337	14358.55
817.665	14368.72
817.994	14494.59
818.322	14311.54
818.651	14277.65
818.979	14238.78
819.307	14195.16
819.636	14220.93
819.964	14066.35
820.292	14165.33
820.62	14063.87
820.948	14074.71
821.276	14179.57
821.604	14175.73
821.932	14092.34
822.259	14056.41
822.587	14019.35
822.915	14019.35
823.243	14049.18
823.57	13940.48
823.898	13945.9
824.225	13892.12
824.553	13993.81
824.88	14003.08
825.207	14024.09
825.535	14040.37
825.862	14109.29
826.189	14043.53
826.516	14056.41
826.843	14046.47
827.17	14030.2
827.497	14004.66
827.824	13989.52
828.151	14084.43
828.478	13962.85
828.805	14003.98
829.131	13991.55
829.458	13902.74
829.785	13880.37
830.111	13874.27
830.438	14009.18
830.764	13933.48
831.09	13946.13
831.417	13863.42
831.743	13951.78
832.069	13912.69
832.395	13897.54
832.722	13885.34
833.048	13774.61
833.374	13894.83
833.7	13761.73
834.026	13827.49
834.351	13787.94
834.677	13722.41
835.003	13818.45
835.329	13717.66
835.654	13700.71
835.98	13686.02
836.306	13669.98
836.631	13600.15
836.956	13651.9
837.282	13622.98
837.607	13611.68
837.932	13517.67
838.258	13513.83
838.583	13509.98
838.908	13444.9
839.233	13474.5
839.558	13402.87
839.883	13395.86
840.208	13264.11
840.533	13395.86
840.858	13360.84
841.182	13380.95
841.507	13333.27
841.832	13242.19
842.156	13223.66
842.481	13113.16
842.805	13151.8
843.13	13102.08
843.454	13052.59
843.778	13073.39
844.103	13053.95
844.427	12972.82
844.751	13035.42
845.075	12996.32
845.399	12936.44
845.723	12816.89
846.047	12841.75
846.371	12744.58
846.695	12714.75
847.019	12497.13
847.343	12566.28
847.666	12545.49
847.99	12467.3
848.313	12478.15
848.637	12327.19
848.96	12426.17
849.284	12408.32
849.607	12206.29
849.931	12223.92
850.254	12083.35
850.577	12034.99
850.9	11991.83
851.223	11901.44
851.546	11862.12
851.869	11811.72
852.192	11849.46
852.515	11688.11
852.838	11693.99
853.161	11640.43
853.483	11607.66
853.806	11585.74
854.129	11586.42
854.451	11528.11
854.774	11504.16
855.096	11465.52
855.419	11453.77
855.741	11392.75
856.063	11263.94
856.385	11258.74
856.708	11247.9
857.03	11196.82
857.352	11197.5
857.674	11142.36
857.996	11126.77
858.318	11049.94
858.64	11067.56
858.961	10962.25
859.283	11018.98
859.605	10969.71
859.926	10997.51
860.248	10981.24
860.57	10826.44
860.891	10923.84
861.212	10870.05
861.534	10811.52
861.855	10779.66
862.176	10815.37
862.498	10734.92
862.819	10706.44
863.14	10715.71
863.461	10629.16
863.782	10563.17
864.103	10639.1
864.424	10499.89
864.745	10607.46
865.065	10455.37
865.386	10541.02
865.707	10487.69
866.027	10515.49
866.348	10449.73
866.668	10354.36
866.989	10405.66
867.309	10288.37
867.63	10334.7
867.95	10308.94
868.27	10263.74
868.59	10255.61
868.91	10298.09
869.23	10229.84
869.55	10183.97
869.87	10266.91
870.19	10161.82
870.51	10172.44
870.83	10175.16
871.15	10084.54
871.469	10094.71
871.789	10108.72
872.109	10133.35
872.428	10072.11
872.748	10058.1
873.067	10091.99
873.386	10068.49
873.706	10027.82
874.025	9959.57
874.344	9953.69
874.663	9981.49
874.982	9999.79
875.301	9921.83
875.62	9824.43
875.939	9826.69
876.258	9867.37
876.577	9827.82
876.896	9875.05
877.214	9815.62
877.533	9782.62
877.852	9772.45
878.17	9760.7
878.489	9762.96
878.807	9758.9
879.125	9746.24
879.444	9740.37
879.762	9567.71
880.08	9641.61
880.398	9606.58
880.716	9655.85
881.034	9594.38
881.352	9649.52
881.67	9550.77
881.988	9579.47
882.306	9559.35
882.624	9416.08
882.941	9455.63
883.259	9367.27
883.577	9366.82
883.894	9445.68
884.212	9398
884.529	9414.05
884.846	9372.92
885.164	9389.41
885.481	9355.52
885.798	9348.51
886.115	9264.45
886.432	9290.66
886.75	9259.47
887.067	9240.72
887.383	9192.13
887.7	9209.31
888.017	9153.49
888.334	9178.57
888.651	9086.15
888.967	9060.61
889.284	9057.67
889.6	9054.73
889.917	9038.46
890.233	8929.54
890.55	8908.3
890.866	8869.88
891.182	8901.52
891.498	8812.25
891.815	8878.02
892.131	8850.9
892.447	8760.73
892.763	8765.02
893.079	8647.29
893.395	8684.35
893.71	8670.11
894.026	8682.99
894.342	8654.74
894.657	8496.1
894.973	8534.52
895.289	8560.28
895.604	8515.76
895.92	8467.86
896.235	8482.77
896.55	8462.43
896.865	8392.6
897.181	8418.59
897.496	8339.72
897.811	8309.89
898.126	8338.82
898.441	8238.26
898.756	8252.49
899.071	8130.92
899.386	8201.42
899.7	8086.17
900.015	8070.13
900.33	8019.73
900.644	8138.6
900.959	8059.05
901.273	8066.51
901.588	7965.5
901.902	7902.9
902.216	7946.06
902.531	7855.9
902.845	7847.76
903.159	7812.51
903.473	7755.78
903.787	7776.35
904.101	7739.06
904.415	7699.06
904.729	7707.42
905.042	7636.69
905.356	7653.87
905.67	7551.95
905.984	7554.21
906.297	7556.69
906.611	7472.4
906.924	7504.27
907.237	7451.16
907.551	7448.45
907.864	7394.89
908.177	7367.77
908.491	7370.71
908.804	7357.83
909.117	7257.04
909.43	7205.52
909.743	7185.4
910.056	7199.19
910.368	7128.23
910.681	7065.18
910.994	7098.4
911.307	7034.22
911.619	7032.87
911.932	7018.4
912.244	6932.3
912.557	6967.56
912.869	6908.58
913.181	6864.51
913.494	6829.71
913.806	6767.56
914.118	6756.26
914.43	6747
914.742	6768.24
915.054	6708.81
915.366	6685.98
915.678	6650.73
915.99	6570.28
916.302	6613.44
916.613	6546.55
916.925	6483.05
917.236	6478.98
917.548	6464.07
917.859	6499.77
918.171	6380.45
918.482	6434.46
918.794	6374.13
919.105	6345.88
919.416	6317.4
919.727	6313.11
920.038	6266.56
920.349	6241.7
920.66	6172.1
920.971	6206.67
921.282	6176.62
921.593	6131.65
921.903	6101.14
922.214	6092.55
922.525	6070.41
922.835	6002.84
923.146	5975.72
923.456	5959.9
923.767	5954.7
924.077	5920.58
924.387	5930.07
924.697	5861.6
925.008	5881.94
925.318	5803.07
925.628	5818.21
925.938	5776.4
926.248	5721.49
926.558	5739.57
926.867	5686.46
927.177	5711.77
927.487	5667.25
927.796	5587.93
928.106	5649.17
928.416	5538.22
928.725	5526.46
929.034	5545.22
929.344	5530.08
929.653	5491.66
929.962	5467.71
930.271	5422.06
930.581	5400.37
930.89	5417.32
931.199	5356.75
931.508	5354.94
931.817	5308.17
932.125	5322.85
932.434	5285.34
932.743	5255.29
933.051	5206.02
933.36	5207.15
933.669	5162.41
933.977	5158.11
934.286	5183.65
934.594	5144.78
934.902	5131.9
935.21	5044.67
935.519	5117.21
935.827	5029.53
936.135	5025.01
936.443	4971.23
936.751	4958.34
937.059	4984.33
937.367	4920.15
937.674	4924.45
937.982	4916.76
938.29	4891
938.597	4886.48
938.905	4802.19
939.213	4771
939.52	4762.42
939.827	4761.74
940.135	4748.41
940.442	4726.49
940.749	4723.1
941.056	4711.8
941.363	4646.26
941.67	4634.06
941.977	4651.01
942.284	4617.79
942.591	4608.97
942.898	4526.27
943.205	4600.16
943.511	4522.65
943.818	4465.02
944.125	4540.05
944.431	4448.3
944.738	4467.06
945.044	4488.75
945.35	4417.57
945.657	4414.63
945.963	4382.54
946.269	4365.82
946.575	4344.58
946.881	4290.11
947.187	4318.36
947.493	4285.82
947.799	4272.49
948.105	4255.09
948.41	4233.62
948.716	4226.16
949.022	4194.75
949.327	4206.73
949.633	4097.58
949.938	4161.75
950.244	4101.64
950.549	4089.67
950.854	4061.87
951.16	4041.31
951.465	4046.28
951.77	4010.12
952.075	4017.58
952.38	4010.8
952.685	4022.1
952.99	3960.86
953.294	3963.79
953.599	3966.73
953.904	3910.46
954.209	3846.28
954.513	3907.75
954.818	3822.33
955.122	3820.75
955.426	3800.86
955.731	3771.48
956.035	3758.38
956.339	3770.13
956.643	3754.53
956.948	3743.91
957.252	3749.34
957.556	3670.02
957.86	3701.88
958.163	3706.17
958.467	3667.98
958.771	3626.4
959.075	3627.76
959.378	3634.99
959.682	3603.8
959.985	3585.5
960.289	3542.79
960.592	3520.19
960.896	3484.71
961.199	3492.17
961.502	3470.25
961.805	3484.48
962.108	3484.03
962.411	3455.11
962.714	3414.2
963.017	3437.71
963.32	3388.67
963.623	3416.46
963.926	3369.01
964.228	3343.7
964.531	3348.67
964.833	3358.39
965.136	3355.22
965.438	3298.95
965.741	3286.07
966.043	3284.94
966.345	3256.47
966.648	3282
966.95	3265.96
967.252	3185.51
967.554	3212.63
967.856	3218.05
968.158	3194.32
968.46	3164.04
968.761	3104.16
969.063	3132.86
969.365	3158.17
969.666	3116.58
969.968	3064.38
970.269	3077.49
970.571	3069.35
970.872	3056.47
971.174	3015.57
971.475	3004.5
971.776	3031.16
972.077	3016.02
972.378	3008.34
972.679	2962.92
972.98	2967.66
973.281	2977.61
973.582	2964.05
973.883	2906.65
974.183	2899.19
974.484	2872.3
974.785	2861.68
975.085	2888.34
975.386	2864.61
975.686	2872.3
975.986	2849.25
976.287	2843.6
976.587	2812.41
976.887	2778.06
977.187	2796.59
977.487	2782.58
977.787	2771.96
978.087	2753.2
978.387	2733.09
978.687	2722.24
978.987	2769.93
979.286	2691.51
979.586	2672.98
979.885	2654.9
980.185	2629.82
980.484	2725.41
980.784	2652.42
981.083	2656.26
981.382	2619.42
981.682	2630.04
981.981	2617.84
982.28	2566.09
982.579	2557.05
982.878	2612.19
983.177	2541.68
983.475	2573.32
983.774	2536.04
984.073	2503.49
984.372	2488.8
984.67	2517.96
984.969	2499.65
985.267	2481.8
985.566	2475.47
985.864	2435.7
986.162	2440.67
986.461	2407
986.759	2408.35
987.057	2433.44
987.355	2433.21
987.653	2386.66
987.951	2365.42
988.249	2335.59
988.547	2342.14
988.844	2369.71
989.142	2322.03
989.44	2289.49
989.737	2309.6
990.035	2338.53
990.332	2294.01
990.63	2299.88
990.927	2252.65
991.224	2272.54
991.521	2253.78
991.819	2243.84
992.116	2241.81
992.413	2237.51
992.71	2189.83
993.006	2220.79
993.303	2202.26
993.6	2175.82
993.897	2182.6
994.193	2138.31
994.49	2162.49
994.787	2133.33
995.083	2118.64
995.379	2124.97
995.676	2094.46
995.972	2094.24
996.268	2054.24
996.565	2054.92
996.861	2036.61
997.157	2054.47
997.453	2044.3
997.749	2040
998.044	2007.69
998.34	1987.57
998.636	2036.16
998.932	1988.25
999.227	1977.18
999.523	1959.1
999.818	1962.94
1000.114	1951.64
1000.409	1938.31
1000.704	1915.71
1001	1927.01
1001.295	1908.71
1001.59	1868.71
1001.885	1901.93
1002.18	1859.89
1002.475	1891.08
1002.77	1823.96
1003.065	1820.35
1003.359	1854.25
1003.654	1841.59
1003.949	1809.95
1004.243	1813.12
1004.538	1824.87
1004.832	1791.42
1005.127	1791.42
1005.421	1783.06
1005.715	1776.73
1006.009	1753
1006.304	1729.73
1006.598	1744.87
1006.892	1723.4
1007.186	1733.12
1007.48	1700.58
1007.773	1698.77
1008.067	1718.43
1008.361	1667.58
1008.655	1676.85
1008.948	1645.89
1009.242	1650.86
1009.535	1650.86
1009.829	1624.65
1010.122	1624.87
1010.415	1604.99
1010.708	1597.75
1011.001	1573.35
1011.295	1564.31
1011.588	1557.98
1011.881	1586.68
1012.173	1564.08
1012.466	1546.68
1012.759	1573.8
1013.052	1540.13
1013.344	1529.73
1013.637	1533.8
1013.93	1503.75
1014.222	1499
1014.514	1459.68
1014.807	1476.63
1015.099	1461.04
1015.391	1440.24
1015.683	1444.54
1015.976	1453.35
1016.268	1418.32
1016.56	1430.3
1016.851	1424.43
1017.143	1420.36
1017.435	1406.57
1017.727	1398.89
1018.018	1388.49
1018.31	1400.47
1018.602	1369.74
1018.893	1368.61
1019.185	1362.51
1019.476	1338.33
1019.767	1360.7
1020.058	1329.06
1020.35	1294.71
1020.641	1289.06
1020.932	1304.88
1021.223	1312.56
1021.514	1300.36
1021.804	1267.37
1022.095	1275.96
1022.386	1264.2
1022.677	1256.29
1022.967	1240.02
1023.258	1240.7
1023.548	1217.43
1023.839	1230.08
1024.129	1249.97
1024.419	1211.1
1024.709	1210.65
1025	1205.67
1025.29	1190.99
1025.58	1177.43
1025.87	1168.16
1026.16	1194.38
1026.449	1154.38
1026.739	1143.3
1027.029	1131.55
1027.319	1128.39
1027.608	1124.77
1027.898	1109.63
1028.187	1126.35
1028.477	1121.83
1028.766	1093.36
1029.055	1099.91
1029.344	1107.6
1029.634	1086.58
1029.923	1065.79
1030.212	1054.04
1030.501	1044.77
1030.79	1053.14
1031.078	1028.73
1031.367	1034.15
1031.656	1047.94
1031.945	1008.17
1032.233	1021.05
1032.522	1031.67
1032.81	1007.49
1033.099	1011.1
1033.387	996.19
1033.675	994.15
1033.963	977.66
1034.251	958.9
1034.54	956.19
1034.828	985.57
1035.116	969.07
1035.403	961.61
1035.691	953.48
1035.979	935.17
1036.267	936.76
1036.554	929.98
1036.842	937.66
1037.129	913.48
1037.417	912.57
1037.704	906.47
1037.992	895.63
1038.279	872.58
1038.566	873.25
1038.853	873.25
1039.14	873.25
