Data from breadboard_white_FLMS001491_00092.txt Node
Date: Wed Feb 08 10:48:32 GMT 2017
User: dcchb
Spectrometer: FLMS00149
Trigger mode: 0
Integration Time (sec): 2.000000E-2
Scans to average: 10
Electric dark correction enabled: true
Nonlinearity correction enabled: false
Boxcar width: 0
XAxis mode: Wavelengths
Number of Pixels in Spectrum: 2048
>>>>>Begin Spectral Data<<<<<
341.393	-19.73
341.776	-19.73
342.16	-19.73
342.543	-56.79
342.927	-82.55
343.31	-69.45
343.693	-54.31
344.077	-74.64
344.46	-60.63
344.843	-55.44
345.226	-45.27
345.61	-44.14
345.993	-30.35
346.376	-1.43
346.759	5.35
347.142	39.25
347.525	60.04
347.908	61.85
348.291	74.28
348.674	99.14
349.057	95.75
349.44	140.72
349.823	122.86
350.206	172.81
350.588	192.69
350.971	243.09
351.354	220.94
351.737	253.71
352.119	247.38
352.502	270.43
352.884	273.14
353.267	304.33
353.65	305.91
354.032	316.98
354.414	340.03
354.797	312.69
355.179	326.02
355.562	326.25
355.944	328.51
356.326	352.46
356.709	335.06
357.091	344.1
357.473	343.42
357.855	319.02
358.238	354.5
358.62	352.24
359.002	334.84
359.384	357.89
359.766	360.37
360.148	352.91
360.53	338.68
360.912	339.58
361.294	317.66
361.676	341.16
362.057	342.29
362.439	353.82
362.821	351.56
363.203	333.03
363.584	338.45
363.966	336.42
364.348	337.1
364.729	348.62
365.111	344.55
365.493	333.71
365.874	330.32
366.256	335.97
366.637	335.74
367.019	334.16
367.4	325.8
367.781	331.45
368.163	328.96
368.544	333.03
368.925	309.75
369.306	337.55
369.688	340.26
370.069	326.93
370.45	348.85
370.831	342.07
371.212	352.46
371.593	324.67
371.974	333.03
372.355	334.16
372.736	351.56
373.117	345.46
373.498	339.36
373.879	333.25
374.26	349.52
374.641	343.88
375.021	359.02
375.402	340.49
375.783	347.26
376.163	365.8
376.544	357.21
376.925	364.21
377.305	347.04
377.686	345.23
378.066	366.02
378.447	341.16
378.827	370.54
379.208	369.64
379.588	356.76
379.968	360.37
380.349	372.8
380.729	393.82
381.109	402.86
381.489	359.02
381.87	365.34
382.25	387.04
382.63	390.88
383.01	380.48
383.39	380.03
383.77	408.51
384.15	404.66
384.53	375.06
384.91	394.95
385.29	392.46
385.67	417.32
386.049	435.4
386.429	396.3
386.809	411.22
387.189	414.38
387.568	415.29
387.948	420.48
388.328	428.17
388.707	431.1
389.087	415.29
389.466	437.88
389.846	469.75
390.225	455.96
390.605	446.92
390.984	456.64
391.363	454.38
391.743	447.6
392.122	469.52
392.501	491.89
392.881	474.95
393.26	489.86
393.639	497.09
394.018	509.97
394.397	498.22
394.776	494.61
395.155	520.82
395.534	490.09
395.913	534.15
396.292	536.19
396.671	545.23
397.05	548.62
397.429	537.54
397.808	541.16
398.186	551.55
398.565	551.78
398.944	558.11
399.323	589.29
399.701	595.85
400.08	596.75
400.458	602.63
400.837	601.95
401.215	601.27
401.594	622.74
401.972	624.32
402.351	630.65
402.729	667.71
403.107	648.27
403.486	687.82
403.864	689.63
404.242	664.54
404.62	671.1
404.999	699.57
405.377	709.52
405.755	722.17
406.133	751.55
406.511	757.65
406.889	766.24
407.267	775.73
407.645	779.34
408.023	815.95
408.401	815.95
408.779	829.51
409.156	879.68
409.534	853.24
409.912	876.52
410.29	884.65
410.667	897.53
411.045	914.03
411.422	922.39
411.8	988.15
412.178	992.67
412.555	985.67
412.933	1008.26
413.31	1049.85
413.687	1055.04
414.065	1067.47
414.442	1079.68
414.819	1080.35
415.197	1149.96
415.574	1107.02
415.951	1152.44
416.328	1176.85
416.705	1178.66
417.082	1182.27
417.46	1241.48
417.837	1246.68
418.214	1248.26
418.591	1245.09
418.967	1266.79
419.344	1277.18
419.721	1322.61
420.098	1324.41
420.475	1315.6
420.852	1349.95
421.228	1360.12
421.605	1380.46
421.982	1380.46
422.358	1420.91
422.735	1449.38
423.111	1443.51
423.488	1485.77
423.864	1468.59
424.241	1495.26
424.617	1529.61
424.994	1543.17
425.37	1547.91
425.746	1558.31
426.123	1590.62
426.499	1571.41
426.875	1622.94
427.251	1640.79
427.627	1683.95
428.003	1721.69
428.379	1724.4
428.756	1733.67
429.132	1761.92
429.507	1780.22
429.883	1826.55
430.259	1892.53
430.635	1863.16
431.011	1876.26
431.387	1939.54
431.763	1926.43
432.138	1981.57
432.514	2003.72
432.89	2053.66
433.265	2103.38
433.641	2091.4
434.016	2127.11
434.392	2139.08
434.767	2181.57
435.143	2177.05
435.518	2202.81
435.894	2244.84
436.269	2259.53
436.644	2276.03
437.02	2311.73
437.395	2345.63
437.77	2386.53
438.145	2434.89
438.52	2440.54
438.895	2485.97
439.271	2450.94
439.646	2527.77
440.021	2562.12
440.395	2555.34
440.77	2546.3
441.145	2612.06
441.52	2653.64
441.895	2644.38
442.27	2673.98
442.645	2673.76
443.019	2709.69
443.394	2727.77
443.769	2765.96
444.143	2737.03
444.518	2796.47
444.892	2766.41
445.267	2820.19
445.641	2867.42
446.016	2875.11
446.39	2905.84
446.764	2906.07
447.139	2887.54
447.513	2942.9
447.887	2963.92
448.262	2972.28
448.636	3043.47
449.01	3081.43
449.384	3114.2
449.758	3086.63
450.132	3142.45
450.506	3193.52
450.88	3195.1
451.254	3196.91
451.628	3223.35
452.002	3283.46
452.376	3295.44
452.75	3333.18
453.123	3390.12
453.497	3424.92
453.871	3471.02
454.244	3522.77
454.618	3515.09
454.992	3628.99
455.365	3587.86
455.739	3701.98
456.112	3762.09
456.486	3767.29
456.859	3791.24
457.232	3879.15
457.606	3844.8
457.979	3931.35
458.352	4012.93
458.725	4106.71
459.099	4086.15
459.472	4206.15
459.845	4224.9
460.218	4234.62
460.591	4313.04
460.964	4332.02
461.337	4437.78
461.71	4490.88
462.083	4588.28
462.456	4554.16
462.829	4598
463.201	4666.7
463.574	4695.85
463.947	4796.87
464.32	4887.26
464.692	4911.89
465.065	4930.2
465.438	5000.48
465.81	5063.98
466.183	5115.28
466.555	5236.85
466.928	5293.12
467.3	5284.54
467.672	5432.78
468.045	5530.86
468.417	5561.14
468.789	5582.38
469.161	5645.43
469.534	5737.41
469.906	5928.14
470.278	5931.52
470.65	5976.04
471.022	6152.54
471.394	6272.98
471.766	6269.82
472.138	6370.38
472.51	6539.42
472.882	6590.04
473.253	6717.04
473.625	6748.9
473.997	6945.96
474.369	6983.02
474.74	7073.19
475.112	7151.38
475.484	7335.1
475.855	7481.99
476.227	7535.1
476.598	7780.97
476.97	7833.4
477.341	8048.76
477.713	8101.41
478.084	8124.46
478.455	8396.09
478.827	8419.6
479.198	8714.5
479.569	8732.58
479.94	8963.76
480.311	9019.81
480.682	9212.12
481.053	9529.4
481.424	9661.14
481.795	9707.47
482.166	9851.65
482.537	9980.91
482.908	10244.86
483.279	10270.17
483.65	10491.86
484.021	10733.43
484.391	10853.88
484.762	10857.72
485.133	10993.31
485.503	11203.48
485.874	11413.87
486.244	11540.42
486.615	11810.92
486.985	11889.79
487.356	12137.24
487.726	12170.68
488.097	12470.11
488.467	12632.59
488.837	12856.54
489.207	13095.4
489.578	13180.6
489.948	13294.5
490.318	13575.62
490.688	13592.57
491.058	13732
491.428	13987.36
491.798	14048.6
492.168	14375.14
492.538	14492.88
492.908	14683.16
493.278	14864.17
493.648	14797.05
494.017	15105.75
494.387	15178.51
494.757	15289.92
495.126	15533.98
495.496	15536.92
495.866	15627.99
496.235	15844.48
496.605	15983.69
496.974	16087.42
497.344	16293.96
497.713	16363.57
498.082	16507.07
498.452	16690.34
498.821	16797.45
499.19	16889.88
499.559	16971.23
499.928	17194.51
500.298	17220.27
500.667	17445.12
501.036	17466.14
501.405	17626.13
501.774	17709.75
502.143	17819.12
502.512	18003.75
502.88	18104.09
503.249	18131.2
503.618	18308.15
503.987	18505.21
504.356	18550.85
504.724	18672.21
505.093	18761.7
505.462	18877.4
505.83	19031.52
506.199	19187.45
506.567	19465.18
506.936	19486.42
507.304	19704.27
507.672	19831.95
508.041	19859.07
508.409	20077.59
508.777	20249.11
509.145	20396.68
509.514	20361.43
509.882	20608.43
510.25	20594.19
510.618	20847.52
510.986	20940.62
511.354	21108.3
511.722	21419.25
512.09	21571.57
512.458	21569.76
512.826	21795.74
513.193	21965.23
513.561	21992.35
513.929	22156.63
514.297	22369.96
514.664	22588.49
515.032	22599.79
515.4	22863.73
515.767	23011.53
516.135	23185.08
516.502	22979.66
516.869	23527.9
517.237	23491.06
517.604	23538.29
517.972	23814.9
518.339	24098.28
518.706	24154.1
519.073	24279.52
519.44	24445.61
519.808	24734.65
520.175	24920.4
520.542	25063.68
520.909	25274.75
521.276	25313.16
521.643	25614.62
522.009	25666.37
522.376	25978.68
522.743	26209.86
523.11	26341.16
523.477	26671.54
523.843	26824.08
524.21	27137.75
524.577	27365.76
524.943	27431.3
525.31	27535.02
525.676	27930.95
526.043	28068.34
526.409	28136.36
526.776	28515.11
527.142	28585.39
527.508	28712.62
527.874	29021.31
528.241	29143.12
528.607	29258.6
528.973	29575.65
529.339	29587.4
529.705	29917.33
530.071	30143.09
530.437	30352.35
530.803	30476.87
531.169	30632.34
531.535	30697.88
531.901	30837.08
532.267	30926.35
532.632	31181.48
532.998	31368.37
533.364	31499.67
533.73	31584.41
534.095	31854.23
534.461	31918.41
534.826	32248.35
535.192	32318.63
535.557	32404.5
535.923	32527.44
536.288	32726.3
536.653	32807.2
537.019	32848.11
537.384	33011.94
537.749	33160.41
538.114	33349.79
538.479	33344.82
538.845	33448.54
539.21	33396.34
539.575	33709.55
539.94	33755.43
540.305	34145.25
540.67	33902.77
541.034	34152.48
541.399	34387.95
541.764	34370.33
542.129	34538.23
542.494	34679.47
542.858	34753.37
543.223	34925.34
543.587	34946.58
543.952	35088.95
544.316	35154.71
544.681	35137.54
545.045	35527.81
545.41	35416.85
545.774	35680.12
546.138	35694.36
546.503	35883.51
546.867	35906.1
547.231	36245.3
547.595	36252.99
547.959	36302.25
548.324	36454.56
548.688	36491.4
549.052	36641.45
549.416	36708.12
549.779	36876.47
550.143	36929.35
550.507	37175.9
550.871	37285.95
551.235	37192.85
551.599	37579.05
551.962	37710.35
552.326	37854.08
552.689	38113.96
553.053	37774.3
553.417	38037.8
553.78	38555.98
554.143	38387.85
554.507	38588.97
554.87	38692.7
555.234	39080.48
555.597	38968.17
555.96	39098.79
556.323	39211.55
556.686	39307.14
557.05	39618.1
557.413	39652.67
557.776	39784.19
558.139	40187.8
558.502	40211.3
558.865	40288.14
559.228	40604.96
559.59	40702.59
559.953	40802.92
560.316	41258.96
560.679	41161.11
561.041	41424.6
561.404	41537.14
561.767	41763.35
562.129	41768.55
562.492	42129.22
562.854	42130.12
563.217	42171.7
563.579	42448.98
563.941	42690.11
564.304	42938.91
564.666	43070.89
565.028	43020.72
565.39	43319.47
565.753	43467.49
566.115	43721.04
566.477	43901.6
566.839	43877.65
567.201	44224.3
567.563	44007.36
567.925	44575.93
568.287	44521.7
568.648	44549.94
569.01	44807.11
569.372	44951.29
569.734	44999.2
570.095	45211.4
570.457	45356.93
570.819	45589.47
571.18	45537.26
571.542	45704.26
571.903	45831.94
572.265	45933.41
572.626	46156.91
572.987	46280.52
573.349	46210.69
573.71	46387.64
574.071	46476.22
574.432	46645.93
574.794	47088.63
575.155	46779.49
575.516	46775.65
575.877	46957.34
576.238	47033.72
576.599	47229.65
576.96	47184.45
577.32	47345.35
577.681	47307.61
578.042	47425.8
578.403	47420.83
578.763	47531.79
579.124	47529.08
579.485	47657.21
579.845	47748.5
580.206	47630.99
580.566	47686.13
580.927	47894.94
581.287	47801.38
581.648	47798.67
582.008	48002.28
582.368	47919.57
582.728	48066.91
583.089	47962.51
583.449	47877.54
583.809	47924.77
584.169	48011.55
584.529	47855.62
584.889	48271.43
585.249	47989.4
585.609	47972.23
585.969	48202.5
586.329	48032.56
586.688	47981.49
587.048	48068.04
587.408	48042.06
587.768	48140.36
588.127	47979.91
588.487	48045.22
588.846	48167.7
589.206	48055.16
589.565	48044.32
589.925	48187.36
590.284	48090.19
590.643	48155.73
591.003	48362.5
591.362	48396.4
591.721	48354.14
592.08	48372.22
592.44	48369.51
592.799	48374.25
593.158	48259.45
593.517	48329.51
593.876	48464.42
594.235	48400.69
594.593	48294.48
594.952	48478.88
595.311	48352.1
595.67	48442.27
596.029	48475.94
596.387	48583.51
596.746	48588.26
597.104	48536.28
597.463	48535.15
597.822	48604.98
598.18	48617.63
598.538	48555.71
598.897	48695.37
599.255	48406.57
599.613	48938.3
599.972	48771.3
600.33	48804.75
600.688	48731.53
601.046	48755.03
601.404	48971.98
601.762	48794.8
602.12	48985.99
602.478	49041.13
602.836	49042.26
603.194	48814.69
603.552	48983.05
603.91	48901.47
604.268	49106.89
604.625	48966.33
604.983	49112.99
605.341	48984.86
605.698	49256.49
606.056	49091.97
606.413	49188.01
606.771	49354.11
607.128	49429.59
607.485	49223.72
607.843	49248.35
608.2	49375.81
608.557	49502.58
608.914	49437.27
609.272	49629.36
609.629	49578.29
609.986	49789.81
610.343	49644.27
610.7	49926.07
611.057	49655.57
611.414	49712.29
611.771	49721.33
612.127	49961.33
612.484	49907.32
612.841	49986.41
613.198	49715.68
613.554	49924.94
613.911	50112.28
614.267	50192.73
614.624	50173.53
614.98	50135.56
615.337	50314.09
615.693	50175.33
616.05	50240.87
616.406	50375.1
616.762	50188.44
617.118	50319.96
617.475	50261.88
617.831	50346.18
618.187	50451.03
618.543	50411.94
618.899	50599.73
619.255	50577.81
619.611	50532.84
619.967	50638.37
620.323	50678.14
620.678	50613.51
621.034	50420.07
621.39	50536
621.746	50428.66
622.101	50872.94
622.457	50554.98
622.812	50750.01
623.168	50652.83
623.523	50842.89
623.879	50756.56
624.234	50683.79
624.589	50715.88
624.945	50671.14
625.3	50694.42
625.655	50682.89
626.01	50661.65
626.365	50771.02
626.72	50621.42
627.075	50655.09
627.43	50613.51
627.785	50647.86
628.14	50629.56
628.495	50689.9
628.85	50598.37
629.205	50525.83
629.559	50648.99
629.914	50550.46
630.269	50482.22
630.623	50497.58
630.978	50295.1
631.332	50567.64
631.687	50630.69
632.041	50361.32
632.396	50392.28
632.75	50343.92
633.104	50377.14
633.459	50234.54
633.813	50208.78
634.167	50117.71
634.521	50116.58
634.875	50132.17
635.229	50049.91
635.583	49901.22
635.937	49918.84
636.291	49920.42
636.645	49830.26
636.999	49663.93
637.352	49875.91
637.706	49613.54
638.06	49789.13
638.413	49763.59
638.767	49660.54
639.121	49726.98
639.474	49328.58
639.828	49381.46
640.181	49564.73
640.534	49495.8
640.888	49275.47
641.241	49189.14
641.594	49317.05
641.947	49359.54
642.301	49134
642.654	49178.52
643.007	49136.26
643.36	49036.61
643.713	49052.2
644.066	49117.06
644.419	48924.74
644.771	48820.79
645.124	48543.96
645.477	48289.51
645.83	48210.64
646.182	47938.78
646.535	47595.06
646.888	47748.05
647.24	47642.29
647.593	47651.78
647.945	47663.76
648.298	47564.33
648.65	47384.22
649.002	47360.94
649.355	47518.91
649.707	47314.39
650.059	47536.31
650.411	48056.74
650.763	48103.52
651.115	48369.96
651.467	48165.22
651.819	48185.56
652.171	48053.58
652.523	48089.96
652.875	48030.3
653.227	47887.26
653.578	48061.94
653.93	48035.73
654.282	47875.96
654.633	47689.75
654.985	47858.11
655.337	47797.32
655.688	47730.88
656.039	47954.15
656.391	47646.59
656.742	47672.35
657.094	47677.09
657.445	47732.23
657.796	47553.93
658.147	47492.92
658.498	47595.51
658.849	47510.32
659.2	47486.14
659.551	47395.07
659.902	47537.21
660.253	47476.87
660.604	47562.29
660.955	47131.35
661.306	47381.73
661.656	47319.36
662.007	47351.45
662.358	47223.32
662.708	47225.35
663.059	47191.46
663.409	47039.14
663.76	47292.92
664.11	47235.98
664.461	47282.08
664.811	47333.83
665.161	47178.12
665.511	47059.48
665.862	47047.96
666.212	47216.54
666.562	47180.38
666.912	47044.57
667.262	47088.63
667.612	47012.7
667.962	47128.86
668.312	47001.18
668.662	47172.02
669.011	47069.2
669.361	46872.6
669.711	46962.76
670.06	46950.79
670.41	46860.17
670.76	46693.39
671.109	46963.44
671.459	46779.04
671.808	46738.81
672.157	46935.87
672.507	46619.95
672.856	46591.7
673.205	46621.75
673.554	46738.36
673.904	46534.75
674.253	46722.99
674.602	46507.86
674.951	46025.84
675.3	45767.31
675.649	46306.28
675.998	46256.57
676.346	46382.66
676.695	46505.37
677.044	46377.24
677.393	46346.28
677.741	46446.17
678.09	46336.56
678.438	46188.55
678.787	46096.8
679.135	46200.52
679.484	45909.46
679.832	46077.81
680.181	45891.15
680.529	45855.67
680.877	45711.72
681.225	45672.4
681.573	46000.98
681.922	45539.97
682.27	45499.3
682.618	45543.14
682.966	45563.7
683.314	45592.85
683.661	45402.35
684.009	45162.81
684.357	45113.09
684.705	45074.9
685.053	45011.85
685.4	45117.84
685.748	44902.7
686.095	44677.17
686.443	44599.89
686.79	44549.72
687.138	44734.8
687.485	44791.52
687.832	44618.19
688.18	44687.57
688.527	44384.75
688.874	44294.36
689.221	44121.03
689.568	43855.95
689.915	43880.36
690.262	43959.45
690.609	43804.2
690.956	43711.77
691.303	43726.01
691.65	43466.81
691.997	43503.64
692.344	43309.75
692.69	43102.52
693.037	43133.94
693.383	42906.37
693.73	42864.57
694.077	42777.56
694.423	42774.4
694.769	42517
695.116	42565.14
695.462	42324.92
695.808	42255.32
696.155	42386.61
696.501	42105.26
696.847	42004.93
697.193	41776.01
697.539	41873.63
697.885	41600.87
698.231	41448.11
698.577	41513.87
698.923	41467.54
699.269	41140.32
699.614	41067.1
699.96	40879.31
700.306	40966.54
700.651	40943.03
700.997	40889.02
701.342	40716.82
701.688	40584.85
702.033	40544.85
702.379	40565.64
702.724	40365.87
703.069	40415.82
703.415	39985.77
703.76	39983.06
704.105	39760.69
704.45	39875.49
704.795	39696.96
705.14	39478.89
705.485	39520.25
705.83	39362.74
706.175	39382.85
706.52	39263.53
706.865	39027.15
707.209	38930.66
707.554	38946.48
707.899	39137.21
708.243	38828.51
708.588	38664.45
708.932	38593.49
709.277	38355.76
709.621	38468.75
709.966	38090.91
710.31	38169.1
710.654	37930.91
710.998	38003
711.342	38021.98
711.687	37834.19
712.031	37783.34
712.375	37550.58
712.719	37563.01
713.063	37628.77
713.407	37658.37
713.75	37416.12
714.094	37374.77
714.438	37051.84
714.782	37154.88
715.125	37043.7
715.469	36999.86
715.812	36855.46
716.156	36739.3
716.499	36758.74
716.843	36869.47
717.186	36522.36
717.53	36707.66
717.873	36576.14
718.216	36584.73
718.559	36459.31
718.902	36150.62
719.246	36198.75
719.589	36088.92
719.932	36128.7
720.275	36063.61
720.617	35882.38
720.96	35915.6
721.303	35781.14
721.646	35885.09
721.989	35574.59
722.331	35739.55
722.674	35427.02
723.016	35562.84
723.359	35462.27
723.701	35474.93
724.044	35256.18
724.386	35048.05
724.729	35298.44
725.071	35096.41
725.413	34933.25
725.755	35050.31
726.097	34851.67
726.439	34793.82
726.782	34808.96
727.124	34951.55
727.465	34805.12
727.807	34736.64
728.149	34478.57
728.491	34436.76
728.833	34537.78
729.175	34346.14
729.516	34283.55
729.858	34302.76
730.199	34304.34
730.541	34107.96
730.882	34166.94
731.224	34202.87
731.565	33955.42
731.906	33941.86
732.248	33994.74
732.589	33913.84
732.93	33684.47
733.271	33542.55
733.612	33797.23
733.953	33644.92
734.294	33567.86
734.635	33398.83
734.976	33595.43
735.317	33513.62
735.658	33310.92
735.999	33265.04
736.339	33346.85
736.68	33462.1
737.021	33226.17
737.361	33071.6
737.702	33104.37
738.042	32979.63
738.383	32935.79
738.723	32854.43
739.063	32850.82
739.404	32832.06
739.744	32775.79
740.084	32570.82
740.424	32726.53
740.764	32585.97
741.104	32683.36
741.444	32343.26
741.784	32366.99
742.124	32493.31
742.464	32246.09
742.804	32166.77
743.143	32253.77
743.483	32200.21
743.823	32047.45
744.162	32060.33
744.502	32039.31
744.841	31873.89
745.181	31915.7
745.52	31754.35
745.86	31870.05
746.199	31820.56
746.538	31707.12
746.877	31749.83
747.216	31681.81
747.556	31520.23
747.895	31452.89
748.234	31380.35
748.573	31508.25
748.911	31340.57
749.25	31343.06
749.589	31127.02
749.928	31164.31
750.267	31231.2
750.605	31049.51
750.944	31012.67
751.283	30778.78
751.621	30854.71
751.96	30717.31
752.298	30661.27
752.636	30614.27
752.975	30538.11
753.313	30479.81
753.651	30533.59
753.989	30231.22
754.327	30248.17
754.666	30017.67
755.004	30045.47
755.342	30089.99
755.679	30040.27
756.017	29779.26
756.355	29915.3
756.693	29766.6
757.031	29805.02
757.368	29671.92
757.706	29583.11
758.044	29435.31
758.381	29542.88
758.719	29376.33
759.056	29311.25
759.394	29218.37
759.731	29039.17
760.068	29031.03
760.405	28873.97
760.743	28887.53
761.08	28853.18
761.417	28718.72
761.754	28587.88
762.091	28577.03
762.428	28438.05
762.765	28306.53
763.102	28459.29
763.438	28286.19
763.775	28037.84
764.112	28058.17
764.449	28033.99
764.785	27901.79
765.122	27766.88
765.458	27564.85
765.795	27501.35
766.131	27519.88
766.467	27453.44
766.804	27293.68
767.14	27177.07
767.476	27166.67
767.812	27019.33
768.148	27108.6
768.485	26858.66
768.821	26753.8
769.157	26733.24
769.492	26632.9
769.828	26577.76
770.164	26331.67
770.5	26366.92
770.836	26199.92
771.171	26077.66
771.507	26045.12
771.842	25818.91
772.178	25805.8
772.513	25767.16
772.849	25681.51
773.184	25603.78
773.519	25549.77
773.855	25402.88
774.19	25367.62
774.525	25251.47
774.86	25208.08
775.195	25044.69
775.53	24922.89
775.865	24862.33
776.2	24665.72
776.535	24571.71
776.87	24554.09
777.205	24380.98
777.539	24369.68
777.874	24394.09
778.209	24109.13
778.543	24103.25
778.878	23862.35
779.212	23906.19
779.547	23817.83
779.881	23933.76
780.215	23734.45
780.55	23717.27
780.884	23694.67
781.218	23470.72
781.552	23416.04
781.886	23310.05
782.22	23337.17
782.554	23127.23
782.888	22986.9
783.222	22881.14
783.556	22766.56
783.889	22694.47
784.223	22542.16
784.557	22406.12
784.89	22537.64
785.224	22312.56
785.557	22210.19
785.891	22235.05
786.224	22091.78
786.558	22166.13
786.891	21922.74
787.224	21750.77
787.557	21866.93
787.891	21772.24
788.224	21667.61
788.557	21667.38
788.89	21681.85
789.223	21532.47
789.556	21435.07
789.888	21347.62
790.221	21288.86
790.554	21097.68
790.887	21031.24
791.219	21009.09
791.552	20913.28
791.884	20793.28
792.217	20845.93
792.549	20772.26
792.882	20572.72
793.214	20431.26
793.546	20519.39
793.879	20347.19
794.211	20429.22
794.543	20381.99
794.875	20191.04
795.207	20347.42
795.539	20151.72
795.871	20135.67
796.203	19942
796.535	19923.02
796.867	19824.49
797.198	19786.75
797.53	19805.06
797.862	19719.86
798.193	19725.06
798.525	19602.58
798.856	19481.45
799.188	19197.84
799.519	19291.17
799.85	19134.79
800.182	19163.27
800.513	19132.76
800.844	18910.84
801.175	18997.4
801.506	18969.15
801.837	18862.71
802.168	18761.7
802.499	18681.02
802.83	18584.07
803.161	18570.06
803.491	18540.01
803.822	18541.81
804.153	18542.49
804.483	18320.13
804.814	18288.71
805.145	18324.19
805.475	18185.89
805.805	18222.28
806.136	18245.1
806.466	18160.13
806.796	18050.08
807.126	17952
807.457	17961.27
807.787	17942.28
808.117	17906.58
808.447	17831.78
808.777	17826.81
809.107	17645.79
809.436	17694.61
809.766	17649.86
810.096	17492.58
810.426	17497.32
810.755	17451.22
811.085	17451.9
811.414	17409.64
811.744	17312.24
812.073	17209.87
812.403	17210.78
812.732	17091.46
813.061	17156.54
813.39	16975.75
813.719	16926.04
814.049	17045.36
814.378	17074.51
814.707	16970.33
815.036	16866.6
815.365	16815.08
815.693	16684.91
816.022	16725.14
816.351	16658.02
816.68	16384.36
817.008	16584.13
817.337	16408.09
817.665	16339.16
817.994	16382.55
818.322	16412.15
818.651	16288.31
818.979	16197.7
819.307	16315.66
819.636	16198.37
819.964	16192.27
820.292	16189.33
820.62	16090.35
820.948	16045.61
821.276	16210.58
821.604	16077.47
821.932	16066.4
822.259	16095.55
822.587	16075.89
822.915	15986.63
823.243	16043.35
823.57	15957.25
823.898	15992.73
824.225	15920.87
824.553	16017.59
824.88	16037.47
825.207	16008.1
825.535	15973.29
825.862	16025.95
826.189	15869.34
826.516	16086.06
826.843	16022.56
827.17	15993.63
827.497	16049.45
827.824	16084.93
828.151	16067.98
828.478	16048.77
828.805	16037.7
829.131	15891.94
829.458	15972.62
829.785	15846.07
830.111	15947.76
830.438	15962.22
830.764	15987.98
831.09	15883.13
831.417	15832.73
831.743	15980.75
832.069	15954.76
832.395	15803.36
832.722	15915.44
833.048	15773.75
833.374	15878.83
833.7	15764.71
834.026	15793.19
834.351	15737.37
834.677	15769.01
835.003	15713.41
835.329	15735.79
835.654	15697.37
835.98	15665.28
836.306	15625.06
836.631	15629.12
836.956	15669.12
837.282	15584.83
837.607	15545.28
837.932	15571.5
838.258	15534.89
838.583	15542.8
838.908	15459.86
839.233	15386.87
839.558	15371.28
839.883	15229.59
840.208	15276.14
840.533	15287.21
840.858	15179.87
841.182	15303.93
841.507	15256.03
841.832	15063.26
842.156	15163.15
842.481	15126.54
842.805	14945.3
843.13	15018.07
843.454	14945.98
843.778	14939.2
844.103	14918.18
844.427	14825.75
844.751	14773.55
845.075	14809.48
845.399	14713.89
845.723	14620.79
846.047	14518.87
846.371	14610.84
846.695	14574.24
847.019	14387.12
847.343	14372.88
847.666	14299.21
847.99	14210.18
848.313	14200.91
848.637	14155.94
848.96	14169.5
849.284	14071.65
849.607	14021.03
849.931	13992.33
850.254	13871.2
850.577	13764.77
850.9	13637.76
851.223	13662.4
851.546	13623.07
851.869	13504.89
852.192	13559.12
852.515	13436.64
852.838	13396.64
853.161	13454.49
853.483	13308.05
853.806	13222.63
854.129	13322.29
854.451	13201.16
854.774	13055.18
855.096	13062.41
855.419	13106.25
855.741	12958.23
856.063	12969.08
856.385	12931.11
856.708	12862.19
857.03	12800.04
857.352	12925.01
857.674	12784.23
857.996	12727.05
858.318	12621.52
858.64	12636.21
858.961	12576.77
859.283	12513.72
859.605	12562.08
859.926	12533.61
860.248	12505.59
860.57	12427.85
860.891	12418.59
861.212	12382.65
861.534	12356.44
861.855	12396.21
862.176	12347.18
862.498	12265.37
862.819	12271.47
863.14	12203.68
863.461	12179.27
863.782	12068.99
864.103	12161.42
864.424	12129.55
864.745	12094.3
865.065	12019.27
865.386	12011.14
865.707	12062.21
866.027	12036.9
866.348	11937.02
866.668	11929.56
866.989	11923.46
867.309	11845.95
867.63	11827.42
867.95	11843.46
868.27	11763.24
868.59	11791.71
868.91	11795.1
869.23	11829.9
869.55	11656.8
869.87	11756.91
870.19	11678.49
870.51	11669
870.83	11741.09
871.15	11601.66
871.469	11623.58
871.789	11615.9
872.109	11556.91
872.428	11525.05
872.748	11531.83
873.067	11532.28
873.386	11526.41
873.706	11506.75
874.025	11420.65
874.344	11393.75
874.663	11415.67
874.982	11443.7
875.301	11378.16
875.62	11268.33
875.939	11234.44
876.258	11297.49
876.577	11273.98
876.896	11312.4
877.214	11162.57
877.533	11210.93
877.852	11212.74
878.17	11295.9
878.489	11224.27
878.807	11170.71
879.125	11224.04
879.444	11173.42
879.762	11157.15
880.08	11044.84
880.398	11137.72
880.716	11099.07
881.034	11066.31
881.352	11089.13
881.67	11018.17
881.988	10978.62
882.306	10977.95
882.624	10927.55
882.941	10877.84
883.259	10820.66
883.577	10803.49
883.894	10758.29
884.212	10802.13
884.529	10791.28
884.846	10697.28
885.164	10731.4
885.481	10687.78
885.798	10695.69
886.115	10648.24
886.432	10647.11
886.75	10658.63
887.067	10586.54
887.383	10569.59
887.7	10561.23
888.017	10500.67
888.334	10498.41
888.651	10474.68
888.967	10460.22
889.284	10320.56
889.6	10398.53
889.917	10297.51
890.233	10250.51
890.55	10216.38
890.866	10213.67
891.182	10124.41
891.498	10144.3
891.815	10121.7
892.131	10060.46
892.447	10072.43
892.763	10036.95
893.079	9988.82
893.395	10014.58
893.71	9971.19
894.026	9951.53
894.342	9859.78
894.657	9858.88
894.973	9823.85
895.289	9807.36
895.604	9744.53
895.92	9721.93
896.235	9686.23
896.55	9687.58
896.865	9558.55
897.181	9603.74
897.496	9535.05
897.811	9536.18
898.126	9550.86
898.441	9498.66
898.756	9439
899.071	9424.09
899.386	9446.46
899.7	9301.61
900.015	9308.39
900.33	9186.13
900.644	9186.81
900.959	9224.77
901.273	9173.25
901.588	9156.98
901.902	9087.37
902.216	9056.87
902.531	9068.62
902.845	9023.19
903.159	8938.9
903.473	8961.05
903.787	8886.25
904.101	8896.64
904.415	8853.26
904.729	8787.27
905.042	8761.73
905.356	8721.28
905.67	8725.58
905.984	8733.03
906.297	8685.58
906.611	8627.95
906.924	8641.96
907.237	8565.13
907.551	8460.27
907.864	8395.19
908.177	8458.69
908.491	8409.65
908.804	8405.58
909.117	8391.35
909.43	8347.51
909.743	8241.52
910.056	8270.45
910.368	8150.22
910.681	8142.09
910.994	8162.2
911.307	8050.57
911.619	8042.66
911.932	8064.12
912.244	8025.03
912.557	7969.66
912.869	7888.76
913.181	7922.43
913.494	7913.39
913.806	7803.79
914.118	7830.01
914.43	7734.87
914.742	7780.97
915.054	7760.4
915.366	7667.07
915.678	7708.65
915.99	7635.89
916.302	7495.55
916.613	7556.79
916.925	7476.57
917.236	7436.34
917.548	7455.1
917.859	7460.3
918.171	7333.3
918.482	7367.42
918.794	7337.59
919.105	7359.96
919.416	7232.96
919.727	7229.12
920.038	7193.41
920.349	7171.94
920.66	7136.92
920.971	7092.85
921.282	7079.97
921.593	7037.26
921.903	7036.58
922.214	6948.45
922.525	7039.29
922.835	6922.91
923.146	6958.16
923.456	6895.57
923.767	6842.46
924.077	6807.43
924.387	6825.06
924.697	6697.61
925.008	6691.28
925.318	6680.43
925.628	6683.37
925.938	6639.75
926.248	6550.94
926.558	6566.54
926.867	6536.48
927.177	6507.78
927.487	6471.62
927.796	6408.12
928.106	6452.42
928.416	6397.28
928.725	6390.95
929.034	6346.43
929.344	6334.45
929.653	6324.96
929.962	6257.17
930.271	6248.8
930.581	6214.91
930.89	6202.48
931.199	6116.83
931.508	6122.93
931.817	6157.06
932.125	6160.22
932.434	6108.47
932.743	6098.3
933.051	6006.33
933.36	6000.45
933.669	6009.49
933.977	5938.98
934.286	5957.29
934.594	5908.02
934.902	5843.17
935.21	5818.31
935.519	5823.05
935.827	5806.56
936.135	5745.32
936.443	5685.2
936.751	5735.6
937.059	5707.58
937.367	5655.15
937.674	5668.03
937.982	5612.89
938.29	5606.79
938.597	5579.22
938.905	5541.48
939.213	5547.35
939.52	5469.62
939.827	5479.33
940.135	5449.28
940.442	5414.25
940.749	5426.23
941.056	5445.89
941.363	5376.29
941.67	5371.99
941.977	5300.35
942.284	5269.4
942.591	5265.33
942.898	5237.53
943.205	5204.76
943.511	5188.04
943.818	5171.54
944.125	5168.83
944.431	5169.28
944.738	5078.44
945.044	5119.79
945.35	5065.33
945.657	5057.88
945.963	5035.96
946.269	5004.32
946.575	5012.45
946.881	4982.85
947.187	4936.07
947.493	4890.87
947.799	4902.63
948.105	4867.15
948.41	4866.24
948.716	4853.14
949.022	4818.11
949.327	4800.26
949.633	4742.4
949.938	4806.13
950.244	4775.85
950.549	4727.49
950.854	4698.79
951.16	4678
951.465	4652.91
951.77	4624.67
952.075	4604.1
952.38	4607.94
952.685	4627.38
952.99	4524.56
953.294	4547.38
953.599	4469.64
953.904	4501.96
954.209	4480.72
954.513	4414.5
954.818	4390.1
955.122	4459.25
955.426	4406.82
955.731	4353.04
956.035	4366.82
956.339	4308.52
956.643	4323.66
956.948	4261.51
957.252	4260.61
957.556	4259.93
957.86	4254.51
958.163	4217.67
958.467	4207.28
958.771	4187.62
959.075	4180.38
959.378	4146.71
959.682	4152.59
959.985	4110.56
960.289	4090.22
960.592	4050.9
960.896	4039.37
961.199	4077.11
961.502	3977.9
961.805	4041.18
962.108	3984.01
962.411	4003.89
962.714	3944.91
963.017	3946.27
963.32	3932.93
963.623	3878.25
963.926	3867.85
964.228	3852.48
964.531	3853.16
964.833	3819.94
965.136	3802.09
965.438	3800.06
965.741	3774.97
966.043	3798.7
966.345	3795.76
966.648	3689.1
966.95	3731.36
967.252	3681.19
967.554	3643.9
967.856	3645.03
968.158	3669.21
968.46	3634.64
968.761	3620.63
969.063	3609.1
969.365	3574.07
969.666	3573.39
969.968	3537.01
970.269	3549.89
970.571	3516
970.872	3499.95
971.174	3513.28
971.475	3522.55
971.776	3437.81
972.077	3455.88
972.378	3411.59
972.679	3417.01
972.98	3399.84
973.281	3398.26
973.582	3379.73
973.883	3364.13
974.183	3338.6
974.484	3335.89
974.785	3287.3
975.085	3330.69
975.386	3291.14
975.686	3269
975.986	3272.16
976.287	3197.36
976.587	3197.36
976.887	3222.67
977.187	3200.75
977.487	3165.04
977.787	3164.14
978.087	3145.38
978.387	3135.89
978.687	3112.62
978.987	3110.58
979.286	3121.66
979.586	3104.03
979.885	3103.8
980.185	3053.63
980.484	3019.06
980.784	3040.75
981.083	3024.48
981.382	3001.88
981.682	3026.52
981.981	2988.78
982.28	2981.32
982.579	2950.59
982.878	2945.16
983.177	2935.67
983.475	2896.8
983.774	2856.13
984.073	2852.96
984.372	2855.22
984.67	2834.43
984.969	2847.09
985.267	2827.88
985.566	2823.81
985.864	2803.7
986.162	2785.39
986.461	2791.72
986.759	2732.29
987.057	2765.05
987.355	2748.56
987.653	2758.05
987.951	2700.88
988.249	2699.75
988.547	2721.67
988.844	2734.09
989.142	2687.77
989.44	2657.71
989.737	2612.29
990.035	2649.35
990.332	2622.69
990.63	2589.69
990.927	2613.19
991.224	2577.94
991.521	2551.73
991.819	2545.63
992.116	2558.28
992.413	2526.42
992.71	2527.77
993.006	2533.65
993.303	2494.78
993.6	2521.45
993.897	2443.48
994.193	2476.25
994.49	2467.66
994.787	2473.54
995.083	2404.61
995.379	2431.73
995.676	2407.32
995.972	2397.38
996.268	2371.17
996.565	2387.66
996.861	2344.5
997.157	2364.61
997.453	2332.98
997.749	2313.54
998.044	2317.61
998.34	2307.44
998.636	2307.89
998.932	2293.2
999.227	2252.75
999.523	2250.94
999.818	2252.07
1000.114	2223.15
1000.409	2199.87
1000.704	2204.62
1001	2142.7
1001.295	2157.39
1001.59	2184.96
1001.885	2170.04
1002.18	2147.9
1002.475	2149.03
1002.77	2099.31
1003.065	2067.45
1003.359	2096.15
1003.654	2088.24
1003.949	2049.59
1004.243	2061.57
1004.538	2032.42
1004.832	2030.84
1005.127	2027.22
1005.421	2026.99
1005.715	1969.6
1006.009	1975.47
1006.304	1989.93
1006.598	1998.29
1006.892	1969.6
1007.186	1961.46
1007.48	1965.08
1007.773	1908.13
1008.067	1934.57
1008.361	1898.41
1008.655	1914.91
1008.948	1893.89
1009.242	1860.45
1009.535	1849.37
1009.829	1852.08
1010.122	1836.94
1010.415	1828.81
1010.708	1806.66
1011.001	1788.58
1011.295	1797.17
1011.588	1806.44
1011.881	1788.36
1012.173	1778.19
1012.466	1781.35
1012.759	1754.46
1013.052	1758.3
1013.344	1720.56
1013.637	1708.36
1013.93	1710.84
1014.222	1721.92
1014.514	1701.35
1014.807	1707.68
1015.099	1682.15
1015.391	1658.64
1015.683	1643.73
1015.976	1644.63
1016.268	1648.02
1016.56	1631.52
1016.851	1604.18
1017.143	1587.46
1017.435	1591.3
1017.727	1579.1
1018.018	1591.07
1018.31	1547.23
1018.602	1542.94
1018.893	1552.2
1019.185	1519.44
1019.476	1530.28
1019.767	1506.56
1020.058	1491.42
1020.35	1510.4
1020.641	1485.54
1020.932	1460
1021.223	1474.69
1021.514	1448.03
1021.804	1430.17
1022.095	1417.97
1022.386	1429.04
1022.677	1433.34
1022.967	1428.59
1023.258	1420.23
1023.548	1378.88
1023.839	1372.55
1024.129	1396.73
1024.419	1365.32
1024.709	1364.64
1025	1365.77
1025.29	1348.59
1025.58	1308.6
1025.87	1342.27
1026.16	1275.38
1026.449	1321.02
1026.739	1308.37
1027.029	1275.6
1027.319	1278.77
1027.608	1291.65
1027.898	1282.61
1028.187	1234.7
1028.477	1220.01
1028.766	1230.18
1029.055	1233.8
1029.344	1229.5
1029.634	1210.52
1029.923	1191.08
1030.212	1159.67
1030.501	1179.56
1030.79	1178.2
1031.078	1167.58
1031.367	1179.33
1031.656	1167.81
1031.945	1139.33
1032.233	1150.63
1032.522	1154.25
1032.81	1138.2
1033.099	1146.11
1033.387	1105.66
1033.675	1115.15
1033.963	1092.78
1034.251	1102.5
1034.54	1090.75
1034.828	1083.52
1035.116	1088.26
1035.403	1064.31
1035.691	1063.86
1035.979	1029.73
1036.267	1011.65
1036.554	1046.91
1036.842	1007.13
1037.129	1012.11
1037.417	1014.82
1037.704	1009.39
1037.992	1011.88
1038.279	976.85
1038.566	993.12
1038.853	993.12
1039.14	993.12
