Data from breadboard_white_FLMS001491_00043.txt Node
Date: Wed Feb 08 10:47:46 GMT 2017
User: dcchb
Spectrometer: FLMS00149
Trigger mode: 0
Integration Time (sec): 2.000000E-2
Scans to average: 10
Electric dark correction enabled: true
Nonlinearity correction enabled: false
Boxcar width: 0
XAxis mode: Wavelengths
Number of Pixels in Spectrum: 2048
>>>>>Begin Spectral Data<<<<<
341.393	-19.41
341.776	-19.41
342.16	-19.41
342.543	-72.51
342.927	-51.95
343.31	-84.72
343.693	-42.46
344.077	-60.08
344.46	-48.78
344.843	-43.13
345.226	-34.77
345.61	-33.64
345.993	-25.06
346.376	7.94
346.759	0.93
347.142	30.31
347.525	33.7
347.908	61.04
348.291	52.23
348.674	84.55
349.057	101.95
349.44	123.41
349.823	126.35
350.206	155.28
350.588	205.45
350.971	227.37
351.354	243.64
351.737	239.34
352.119	260.36
352.502	274.15
352.884	273.92
353.267	312.34
353.65	313.47
354.032	324.99
354.414	315.27
354.797	338.1
355.179	336.29
355.562	349.85
355.944	343.75
356.326	357.76
356.709	343.07
357.091	347.14
357.473	341.71
357.855	355.27
358.238	346.69
358.62	351.88
359.002	367.48
359.384	353.47
359.766	365.67
360.148	353.24
360.53	364.54
360.912	346.69
361.294	358.44
361.676	348.27
362.057	329.29
362.439	360.92
362.821	372.45
363.203	352.11
363.584	367.25
363.966	347.59
364.348	339.45
364.729	358.89
365.111	337.87
365.493	345.78
365.874	331.32
366.256	332.45
366.637	334.71
367.019	335.84
367.4	321.6
367.781	349.62
368.163	353.92
368.544	357.08
368.925	351.21
369.306	341.94
369.688	319.57
370.069	348.72
370.45	348.49
370.831	363.41
371.212	321.38
371.593	349.4
371.974	355.05
372.355	334.71
372.736	347.82
373.117	373.35
373.498	335.84
373.879	344.2
374.26	355.5
374.641	334.26
375.021	343.52
375.402	348.27
375.783	360.47
376.163	369.51
376.544	356.86
376.925	363.41
377.305	364.76
377.686	380.58
378.066	376.74
378.447	382.84
378.827	388.27
379.208	377.19
379.588	376.52
379.968	376.29
380.349	388.72
380.729	382.84
381.109	384.65
381.489	373.8
381.87	396.4
382.25	378.1
382.63	397.31
383.01	405.44
383.39	403.18
383.77	405.22
384.15	393.92
384.53	410.41
384.91	422.39
385.29	410.41
385.67	420.81
386.049	416.29
386.429	420.81
386.809	451.77
387.189	438.21
387.568	424.2
387.948	449.96
388.328	448.83
388.707	466.91
389.087	457.64
389.466	449.73
389.846	474.37
390.225	479.79
390.605	466
390.984	469.39
391.363	491.99
391.743	490.86
392.122	485.44
392.501	503.52
392.881	495.16
393.26	507.81
393.639	495.38
394.018	525.89
394.397	521.14
394.776	533.12
395.155	524.31
395.534	563.18
395.913	545.1
396.292	547.58
396.671	573.57
397.05	579.45
397.429	579.67
397.808	563.4
398.186	568.6
398.565	593.23
398.944	604.08
399.323	604.08
399.701	623.06
400.08	645.21
400.458	619.67
400.837	658.54
401.215	654.47
401.594	682.95
401.972	666.9
402.351	678.2
402.729	706
403.107	715.94
403.486	733.57
403.864	715.26
404.242	766.56
404.62	744.42
404.999	746.45
405.377	783.06
405.755	796.17
406.133	823.51
406.511	805.2
406.889	826
407.267	835.49
407.645	897.18
408.023	905.09
408.401	888.37
408.779	921.59
409.156	945.54
409.534	944.64
409.912	959.78
410.29	978.99
410.667	1006.1
411.045	1032.09
411.422	1023.73
411.8	1067.12
412.178	1058.98
412.555	1095.82
412.933	1115.25
413.31	1129.26
413.687	1149.83
414.065	1178.75
414.442	1196.83
414.819	1216.49
415.197	1240.9
415.574	1269.6
415.951	1258.75
416.328	1301.91
416.705	1311.41
417.082	1315.47
417.46	1324.74
417.837	1380.33
418.214	1403.83
418.591	1390.5
418.967	1398.64
419.344	1437.96
419.721	1447.9
420.098	1484.51
420.475	1503.72
420.852	1525.41
421.228	1526.77
421.605	1536.26
421.982	1557.95
422.358	1605.86
422.735	1607.67
423.111	1606.77
423.488	1643.37
423.864	1659.42
424.241	1645.63
424.617	1710.49
424.994	1695.35
425.37	1731.06
425.746	1722.47
426.123	1752.3
426.499	1779.42
426.875	1808.34
427.251	1867.1
427.627	1869.36
428.003	1897.61
428.379	1938.28
428.756	1935.8
429.132	1968.79
429.507	2002.69
429.883	1993.42
430.259	2098.28
430.635	2077.49
431.011	2121.78
431.387	2177.37
431.763	2195
432.138	2231.83
432.514	2235.22
432.89	2265.28
433.265	2304.6
433.641	2338.72
434.016	2367.88
434.392	2388.44
434.767	2458.95
435.143	2454.43
435.518	2496.91
435.894	2536.68
436.269	2566.29
436.644	2583.46
437.02	2638.83
437.395	2606.06
437.77	2680.18
438.145	2715.44
438.52	2738.94
438.895	2746.62
439.271	2783.46
439.646	2816
440.021	2870.24
440.395	2871.37
440.77	2892.38
441.145	2888.99
441.52	2945.26
441.895	2944.36
442.27	3003.57
442.645	2970.35
443.019	3025.26
443.394	3065.71
443.769	3069.55
444.143	3046.05
444.518	3154.75
444.892	3141.64
445.267	3158.14
445.641	3198.81
446.016	3219.6
446.39	3271.35
446.764	3282.88
447.139	3282.43
447.513	3353.16
447.887	3308.42
448.262	3363.1
448.636	3402.88
449.01	3427.96
449.384	3468.41
449.758	3485.13
450.132	3515.19
450.506	3534.4
450.88	3589.99
451.254	3545.92
451.628	3641.97
452.002	3683.1
452.376	3689.2
452.75	3742.98
453.123	3796.09
453.497	3821.62
453.871	3863.43
454.244	3928.06
454.618	3981.84
454.992	4030.88
455.365	4057.1
455.739	4130.77
456.112	4182.07
456.486	4239.46
456.859	4242.4
457.232	4335.28
457.606	4305.68
457.979	4367.15
458.352	4550.19
458.725	4566.46
459.099	4599.46
459.472	4665.44
459.845	4699.79
460.218	4780.69
460.591	4840.8
460.964	4857.75
461.337	4975.04
461.71	5035.15
462.083	5101.36
462.456	5094.36
462.829	5117.63
463.201	5238.76
463.574	5253.68
463.947	5328.7
464.32	5441.69
464.692	5537.06
465.065	5582.93
465.438	5643.95
465.81	5756.26
466.183	5719.88
466.555	5908.57
466.928	5926.88
467.3	5967.1
467.672	6054.33
468.045	6207.55
468.417	6226.08
468.789	6279.41
469.161	6388.56
469.534	6482.34
469.906	6621.55
470.278	6602.57
470.65	6750.36
471.022	6854.99
471.394	7019.28
471.766	7092.72
472.138	7210.46
472.51	7270.57
472.882	7387.63
473.253	7442.54
473.625	7664.91
473.997	7741.07
474.369	7889.76
474.74	7944.23
475.112	8088.4
475.484	8182.64
475.855	8420.6
476.227	8449.3
476.598	8710.99
476.97	8773.81
477.341	8972.45
477.713	9076.63
478.084	9104.2
478.455	9443.85
478.827	9505.09
479.198	9678.42
479.569	9786.66
479.94	10050.84
480.311	10181
480.682	10353.43
481.053	10529.47
481.424	10795.22
481.795	10878.84
482.166	11047.2
482.537	11267.98
482.908	11459.39
483.279	11560.85
483.65	11779.83
484.021	11956.1
484.391	12163.78
484.762	12327.16
485.133	12420.04
485.503	12607.15
485.874	12856.41
486.244	12982.96
486.615	13262.28
486.985	13415.95
487.356	13720.35
487.726	13688.26
488.097	13981.58
488.467	14120.11
488.837	14459.54
489.207	14576.59
489.578	14779.53
489.948	14985.4
490.318	15085.28
490.688	15157.37
491.058	15506.97
491.428	15715.32
491.798	15847.75
492.168	16036.89
492.538	16216.78
492.908	16424.68
493.278	16619.25
493.648	16636.2
494.017	16910.54
494.387	17009.3
494.757	17188.28
495.126	17423.52
495.496	17379.91
495.866	17544.88
496.235	17784.42
496.605	17976.5
496.974	18047.92
497.344	18263.95
497.713	18321.13
498.082	18587.56
498.452	18759.31
498.821	18821
499.19	18851.28
499.559	19113.42
499.928	19178.28
500.298	19309.35
500.667	19577.82
501.036	19543.92
501.405	19764.93
501.774	19773.75
502.143	19951.37
502.512	20151.59
502.88	20362.88
503.249	20401.07
503.618	20477.46
503.987	20686.26
504.356	20749.31
504.724	20956.09
505.093	21058.68
505.462	21097.55
505.83	21307.04
506.199	21523.3
506.567	21766.01
506.936	21744.77
507.304	22011.2
507.672	22104.31
508.041	22165.77
508.409	22563.5
508.777	22609.6
509.145	22788.36
509.514	22807.79
509.882	22977.05
510.25	22944.51
510.618	23301.11
510.986	23377.04
511.354	23559.86
511.722	23807.99
512.09	24048.66
512.458	24071.26
512.826	24258.15
513.193	24546.5
513.561	24562.09
513.929	24799.83
514.297	25000.73
514.664	25276.88
515.032	25314.16
515.4	25552.35
515.767	25663.53
516.135	25849.74
516.502	25682.74
516.869	26199.79
517.237	26329.28
517.604	26446.34
517.972	26685.2
518.339	26882.49
518.706	27037.51
519.073	27140.33
519.44	27357.05
519.808	27653.54
520.175	27666.87
520.542	28068.89
520.909	28177.59
521.276	28194.54
521.643	28407.64
522.009	28657.35
522.376	28948.65
522.743	29104.35
523.11	29444.9
523.477	29787.72
523.843	29861.39
524.21	30263.87
524.577	30373.47
524.943	30523.97
525.31	30737.07
525.676	30960.12
526.043	31276.27
526.409	31337.28
526.776	31822.24
527.142	31713.77
527.508	32039.19
527.874	32415.22
528.241	32427.88
528.607	32551.71
528.973	32988.54
529.339	32974.53
529.705	33087.97
530.071	33570.22
530.437	33669.65
530.803	33879.82
531.169	34029.87
531.535	34124.33
531.901	34318
532.267	34454.49
532.632	34738.32
532.998	34784.88
533.364	34942.61
533.73	35127.01
534.095	35486.1
534.461	35423.96
534.826	35825.53
535.192	35964.96
535.557	36084.73
535.923	36067.1
536.288	36282.69
536.653	36390.71
537.019	36393.2
537.384	36607.88
537.749	36816.69
538.114	36927.64
538.479	37050.13
538.845	37161.31
539.21	37248.99
539.575	37340.74
539.94	37410.57
540.305	37830.9
540.67	37682.65
541.034	37831.12
541.399	38086.94
541.764	38125.81
542.129	38372.35
542.494	38438.11
542.858	38544.55
543.223	38619.13
543.587	38924.88
543.952	38816.18
544.316	39034.71
544.681	39001.26
545.045	39283.52
545.41	39433.57
545.774	39498.65
546.138	39515.83
546.503	39703.84
546.867	39697.97
547.231	40159.65
547.595	40116.26
547.959	40424.28
548.324	40394.9
548.688	40337.05
549.052	40662.46
549.416	40675.12
549.779	40761.89
550.143	41015
550.507	41225.84
550.871	41286.17
551.235	41321.2
551.599	41609.56
551.962	41805.71
552.326	41918.47
552.689	42136.1
553.053	42046.61
553.417	42076.66
553.78	42591.9
554.143	42500.83
554.507	42798.68
554.87	42934.27
555.234	43157.76
555.597	43032.12
555.96	43286.35
556.323	43379.23
556.686	43548.26
557.05	43872.1
557.413	43924.97
557.776	43968.82
558.139	44361.12
558.502	44381.23
558.865	44541
559.228	44765.86
559.59	44994.78
559.953	45006.75
560.316	45500.3
560.679	45443.13
561.041	45609.45
561.404	45837.69
561.767	46090.12
562.129	45972.83
562.492	46352.26
562.854	46368.07
563.217	46485.59
563.579	46765.35
563.941	46991.56
564.304	47099.13
564.666	47345.45
565.028	47319.24
565.39	47554.03
565.753	47666.12
566.115	47888.71
566.477	48026.79
566.839	48190.63
567.201	48327.8
567.563	48554.68
567.925	48763.49
568.287	48662.03
568.648	48845.07
569.01	48998.06
569.372	49230.82
569.734	49237.15
570.095	49399.63
570.457	49586.52
570.819	49530.7
571.18	49599.63
571.542	49879.62
571.903	49938.6
572.265	49996.45
572.626	50065.6
572.987	50197.8
573.349	50326.84
573.71	50478.25
574.071	50541.75
574.432	50737.9
574.794	50899.48
575.155	50805.02
575.516	50853.61
575.877	50999.37
576.238	51058.57
576.599	51090.66
576.96	51214.73
577.32	51166.59
577.681	51238.46
578.042	51322.52
578.403	51368.85
578.763	51442.74
579.124	51476.19
579.485	51523.65
579.845	51722.06
580.206	51628.28
580.566	51650.65
580.927	51697.2
581.287	51834.82
581.648	51745.79
582.008	51885.9
582.368	51819.68
582.728	51875.05
583.089	51835.05
583.449	51777.88
583.809	51926.57
584.169	52020.58
584.529	51841.83
584.889	52123.86
585.249	51965.89
585.609	51865.11
585.969	52043.41
586.329	51886.57
586.688	52050.41
587.048	51921.15
587.408	51999.56
587.768	52006.57
588.127	51994.14
588.487	51929.74
588.846	52246.56
589.206	51925.22
589.565	51894.26
589.925	52090.41
590.284	51994.59
590.643	51999.34
591.003	52119.79
591.362	52191.2
591.721	52139
592.08	52146
592.44	52224.19
592.799	52178.09
593.158	52129.05
593.517	52226.45
593.876	52216.28
594.235	52048.83
594.593	52181.03
594.952	52272.55
595.311	52059.45
595.67	52197.3
596.029	52393.68
596.387	52313.23
596.746	52466.22
597.104	52311.87
597.463	52322.72
597.822	52482.26
598.18	52292.89
598.538	52296.96
598.897	52466.22
599.255	52314.81
599.613	52662.37
599.972	52483.85
600.33	52576.05
600.688	52556.84
601.046	52626.89
601.404	52714.35
601.762	52536.5
602.12	52759.32
602.478	52719.09
602.836	52696.04
603.194	52694.24
603.552	52677.29
603.91	52597.74
604.268	52713.22
604.625	52666.89
604.983	52938.52
605.341	52671.86
605.698	52868.24
606.056	52974.23
606.413	52901.91
606.771	53050.38
607.128	52955.47
607.485	52901.24
607.843	52927.22
608.2	53021.68
608.557	53271.4
608.914	53094.23
609.272	53239.08
609.629	53255.8
609.986	53353.43
610.343	53217.16
610.7	53437.95
611.057	53381
611.414	53359.08
611.771	53384.39
612.127	53464.16
612.484	53439.75
612.841	53604.27
613.198	53484.72
613.554	53478.85
613.911	53642.69
614.267	53752.51
614.624	53649.01
614.98	53685.85
615.337	53875.22
615.693	53780.31
616.05	53735.11
616.406	53858.27
616.762	53825.51
617.118	53865.96
617.475	53752.29
617.831	53907.31
618.187	53964.26
618.543	53886.29
618.899	54056.23
619.255	54107.76
619.611	53934.43
619.967	54109.11
620.323	54102.56
620.678	53924.94
621.034	54009.91
621.39	54016.69
621.746	53941.43
622.101	54386.85
622.457	54055.1
622.812	54116.12
623.168	54106.63
623.523	54212.39
623.879	54236.57
624.234	54028.89
624.589	54229.34
624.945	54161.77
625.3	54205.16
625.655	54108.21
626.01	54179.85
626.365	54153.18
626.72	54137.81
627.075	54168.1
627.43	54199.73
627.785	54085.16
628.14	54114.76
628.495	54146.18
628.85	54094.43
629.205	53917.93
629.559	54098.04
629.914	53986.18
630.269	53986.63
630.623	53853.08
630.978	53837.48
631.332	53978.04
631.687	53945.28
632.041	53903.02
632.396	53928.55
632.75	53713.42
633.104	53871.38
633.459	53727.66
633.813	53664.83
634.167	53663.48
634.521	53642.91
634.875	53728.56
635.229	53673.87
635.583	53528.11
635.937	53514.33
636.291	53451.28
636.645	53424.61
636.999	53359.08
637.352	53464.84
637.706	53176.48
638.06	53377.38
638.413	53305.07
638.767	53198.4
639.121	53228.69
639.474	53039.76
639.828	53113.89
640.181	53068.01
640.534	53084.06
640.888	53035.24
641.241	52918.86
641.594	52920.22
641.947	53092.64
642.301	52884.51
642.654	52943.04
643.007	52839.54
643.36	52830.96
643.713	52836.83
644.066	52808.58
644.419	52774.91
644.771	52600.68
645.124	52270.97
645.477	52233.01
645.83	52029.85
646.182	51692.23
646.535	51596.86
646.888	51645.45
647.24	51429.86
647.593	51700.14
647.945	51639.35
648.298	51461.95
648.65	51348.06
649.002	51231.45
649.355	51419.24
649.707	51358
650.059	51494.04
650.411	51967.02
650.763	51899.91
651.115	52172.67
651.467	52049.51
651.819	52048.38
652.171	51927.93
652.523	51886.57
652.875	51824.2
653.227	51728.16
653.578	51911.21
653.93	51834.6
654.282	51758.67
654.633	51592.8
654.985	51761.38
655.337	51722.96
655.688	51631.21
656.039	51757.09
656.391	51537.88
656.742	51567.49
657.094	51721.61
657.445	51721.83
657.796	51664.43
658.147	51628.28
658.498	51461.95
658.849	51620.82
659.2	51603.64
659.551	51473.48
659.902	51590.99
660.253	51515.06
660.604	51415.85
660.955	51373.37
661.306	51522.74
661.656	51424.89
662.007	51398.9
662.358	51292.69
662.708	51399.58
663.059	51246.36
663.409	51028.52
663.76	51377.66
664.11	51297.21
664.461	51293.82
664.811	51342.41
665.161	51223.77
665.511	51086.14
665.862	51175.63
666.212	51194.84
666.562	51201.85
666.912	51170.21
667.262	51088.4
667.612	50987.84
667.962	51134.28
668.312	51026.03
668.662	51175.18
669.011	51102.19
669.361	50987.84
669.711	50991.23
670.06	50918.24
670.41	50964.34
670.76	50930.67
671.109	50985.35
671.459	50951.46
671.808	50775.19
672.157	51035.75
672.507	50568.87
672.856	50640.96
673.205	50700.62
673.554	50818.81
673.904	50550.79
674.253	50887.96
674.602	50734.29
674.951	50104.02
675.3	50096.79
675.649	50541.07
675.998	50387.63
676.346	50587.17
676.695	50615.87
677.044	50361.64
677.393	50442.32
677.741	50493.84
678.09	50412.94
678.438	50174.3
678.787	50269.89
679.135	50282.55
679.484	50115.09
679.832	50193.06
680.181	49982.89
680.529	50143.12
680.877	50030.8
681.225	50053.18
681.573	50322.77
681.922	49840.98
682.27	49806.4
682.618	49742
682.966	49685.05
683.314	49795.33
683.661	49698.61
684.009	49505.85
684.357	49488.9
684.705	49440.08
685.053	49343.36
685.4	49256.81
685.748	49103.37
686.095	49142.92
686.443	48978.63
686.79	48964.62
687.138	48836.48
687.485	48892.53
687.832	48761.91
688.18	48786.77
688.527	48644.85
688.874	48641.01
689.221	48497.28
689.568	48333.45
689.915	48308.59
690.262	48268.82
690.609	48196.5
690.956	48053
691.303	48023.85
691.65	47769.62
691.997	47832.22
692.344	47616.63
692.69	47541.38
693.037	47569.4
693.383	47235.17
693.73	47471.77
694.077	47088.51
694.423	47166.92
694.769	47073.82
695.116	46881.06
695.462	46808.74
695.808	46604.68
696.155	46855.52
696.501	46518.13
696.847	46395.64
697.193	46205.59
697.539	46319.26
697.885	45951.81
698.231	45746.4
698.577	45792.72
698.923	45841.31
699.269	45533.75
699.614	45325.39
699.96	45299.85
700.306	45409.68
700.651	45204.72
700.997	44964.04
701.342	45000.65
701.688	44841.11
702.033	44756.59
702.379	44683.6
702.724	44699.64
703.069	44683.15
703.415	44231.86
703.76	44278.64
704.105	44196.15
704.45	44053.11
704.795	43844.07
705.14	43772.66
705.485	43832.77
705.83	43531.31
706.175	43668.71
706.52	43390.07
706.865	43368.38
707.209	43229.85
707.554	43238.89
707.899	43259
708.243	42883.19
708.588	42841.61
708.932	42692.92
709.277	42760.94
709.621	42725.01
709.966	42296.32
710.31	42435.3
710.654	42129.99
710.998	42260.16
711.342	42205.02
711.687	41953.28
712.031	41947.4
712.375	41714.19
712.719	41755.99
713.063	41670.35
713.407	41727.07
713.75	41508.32
714.094	41423.57
714.438	41301.54
714.782	41283.69
715.125	41277.59
715.469	41276.46
715.812	41026.52
716.156	40768
716.499	40878.5
716.843	40718.96
717.186	40631.5
717.53	40845.06
717.873	40732.06
718.216	40724.83
718.559	40422.69
718.902	40249.37
719.246	40362.13
719.589	40290.27
719.932	40168.69
720.275	40167.56
720.617	40037.17
720.96	39880.56
721.303	39869.94
721.646	39793.56
721.989	39661.81
722.331	39778.19
722.674	39669.72
723.016	39608.48
723.359	39388.15
723.701	39423.62
724.044	39212.1
724.386	39074.71
724.729	39198.32
725.071	39113.35
725.413	39084.88
725.755	38992.9
726.097	38791.32
726.439	38672.23
726.782	38730.76
727.124	38874.26
727.465	38612.35
727.807	38663.87
728.149	38440.83
728.491	38336.2
728.833	38380.04
729.175	38171.91
729.516	38156.99
729.858	38173.26
730.199	38141.62
730.541	38062.08
730.882	37994.28
731.224	38123.77
731.565	37632.26
731.906	37814.18
732.248	37779.83
732.589	37600.4
732.93	37556.55
733.271	37528.53
733.612	37625.25
733.953	37416.67
734.294	37285.6
734.635	37285.38
734.976	37399.27
735.317	37052.39
735.658	37195.66
735.999	37219.16
736.339	37021.2
736.68	37107.08
737.021	36931.03
737.361	36875.44
737.702	36910.47
738.042	36748.67
738.383	36799.74
738.723	36803.13
739.063	36553.87
739.404	36795.9
739.744	36556.13
740.084	36556.36
740.424	36452.18
740.764	36260.09
741.104	36382.12
741.444	36069.14
741.784	36128.34
742.124	36242.47
742.464	36067.78
742.804	36007.9
743.143	35960.66
743.483	35938.97
743.823	35644.06
744.162	35616.04
744.502	35710.28
744.841	35603.16
745.181	35617.4
745.52	35390.28
745.86	35515.48
746.199	35420.57
746.538	35263.96
746.877	35422.83
747.216	35333.79
747.556	35115.04
747.895	35225.77
748.234	35009.05
748.573	35094.7
748.911	34861.48
749.25	34901.71
749.589	34679.57
749.928	34805.67
750.267	34786.01
750.605	34582.17
750.944	34502.4
751.283	34327.49
751.621	34412.68
751.96	34338.33
752.298	34314.61
752.636	34214.04
752.975	34045.46
753.313	33958.23
753.651	34038.46
753.989	33793.49
754.327	33759.37
754.666	33580.39
755.004	33633.04
755.342	33561.86
755.679	33501.07
756.017	33472.82
756.355	33323.67
756.693	33108.31
757.031	33275.54
757.368	33019.73
757.706	33001.42
758.044	32911.25
758.381	32929.11
758.719	32842.1
759.056	32654.76
759.394	32595.1
759.731	32450.7
760.068	32315.11
760.405	32145.4
760.743	32101.33
761.08	32093.2
761.417	31901.56
761.754	32052.29
762.091	31858.17
762.428	31790.15
762.765	31507.22
763.102	31679.2
763.438	31344.29
763.775	31312.43
764.112	31363.5
764.449	31312.2
764.785	31127.35
765.122	31018.42
765.458	30842.38
765.795	30829.95
766.131	30776.17
766.467	30686.23
766.804	30548.15
767.14	30399
767.476	30322.39
767.812	30231.32
768.148	30195.62
768.485	29904.1
768.821	29895.74
769.157	29862.75
769.492	29625.69
769.828	29782.3
770.164	29385.24
770.5	29416.88
770.836	29348.41
771.171	29072.03
771.507	29135.99
771.842	28998.81
772.178	28895.54
772.513	28914.07
772.849	28918.59
773.184	28532.84
773.519	28537.36
773.855	28322.9
774.19	28339.17
774.525	28311.6
774.86	28132.85
775.195	28137.37
775.53	27934.43
775.865	27764.72
776.2	27666.65
776.535	27378.29
776.87	27377.61
777.205	27361.34
777.539	27168.58
777.874	27234.79
778.209	27011.52
778.543	26971.3
778.878	26774.47
779.212	26824.63
779.547	26572.89
779.881	26759.78
780.215	26411.09
780.55	26482.95
780.884	26301.71
781.218	26372.44
781.552	26161.6
781.886	26106.46
782.22	25868.27
782.554	25854.26
782.888	25706.92
783.222	25551.9
783.556	25452.01
783.889	25368.4
784.223	25202.08
784.557	25118.01
784.89	25278.69
785.224	25022.87
785.557	24916.21
785.891	24886.15
786.224	24714.86
786.558	24701.75
786.891	24472.15
787.224	24451.81
787.557	24396
787.891	24333.17
788.224	24270.12
788.557	24180.64
788.89	24040.3
789.223	23971.15
789.556	23789.23
789.888	23865.39
790.221	23781.32
790.554	23591.05
790.887	23640.31
791.219	23404.84
791.552	23481.22
791.884	23264.73
792.217	23212.53
792.549	23151.51
792.882	23055.24
793.214	22939.54
793.546	23089.59
793.879	22829.71
794.211	22724.63
794.543	22747.68
794.875	22684.18
795.207	22748.36
795.539	22648.25
795.871	22538.19
796.203	22320.12
796.535	22281.48
796.867	22155.6
797.198	22132.55
797.53	21988.83
797.862	21956.51
798.193	21916.97
798.525	21863.63
798.856	21907.47
799.188	21580.25
799.519	21483.76
799.85	21466.13
800.182	21545.68
800.513	21389.07
800.844	21258
801.175	21443.31
801.506	21245.12
801.837	21117.21
802.168	20994.05
802.499	21060.72
802.83	20919.93
803.161	20869.76
803.491	20842.42
803.822	20802.65
804.153	20684.68
804.483	20555.19
804.814	20506.61
805.145	20522.88
805.475	20430.9
805.805	20442.65
806.136	20340.74
806.466	20332.83
806.796	20225.49
807.126	20086.73
807.457	19997.69
807.787	20056.45
808.117	19945.27
808.447	19834.08
808.777	19893.29
809.107	19827.3
809.436	19736.23
809.766	19696.91
810.096	19671.83
810.426	19541.89
810.755	19568.1
811.085	19532.62
811.414	19473.41
811.744	19259.18
812.073	19272.97
812.403	19253.99
812.732	19149.58
813.061	19105.06
813.39	18993.65
813.719	18940.77
814.049	19032.75
814.378	19033.88
814.707	18919.76
815.036	18828.69
815.365	18775.81
815.693	18577.84
816.022	18610.84
816.351	18537.62
816.68	18404.52
817.008	18538.3
817.337	18369.49
817.665	18402.48
817.994	18454.46
818.322	18265.54
818.651	18196.16
818.979	18178.08
819.307	18189.38
819.636	18126.56
819.964	17963.85
820.292	18057.41
820.62	18141.7
820.948	18033.23
821.276	18109.61
821.604	18143.96
821.932	18031.19
822.259	18063.28
822.587	17950.06
822.915	17935.38
823.243	18004.75
823.57	17909.39
823.898	17973.79
824.225	17900.57
824.553	17804.08
824.88	17928.6
825.207	18008.59
825.535	17862.38
825.862	17957.07
826.189	17822.38
826.516	17927.24
826.843	17968.14
827.17	17876.39
827.497	17980.35
827.824	17950.29
828.151	17938.09
828.478	17953
828.805	17960.91
829.131	17826.45
829.458	17896.05
829.785	17800.92
830.111	17800.01
830.438	17947.58
830.764	17846.11
831.09	17859.67
831.417	17678.21
831.743	17851.99
832.069	17836.62
832.395	17731.77
832.722	17735.38
833.048	17646.34
833.374	17726.79
833.7	17619
834.026	17746.91
834.351	17721.6
834.677	17645.67
835.003	17690.86
835.329	17645.67
835.654	17576.06
835.98	17486.57
836.306	17535.16
836.631	17587.59
836.956	17513.92
837.282	17462.17
837.607	17415.84
837.932	17371.1
838.258	17319.57
838.583	17336.3
838.908	17208.39
839.233	17267.6
839.558	17253.36
839.883	17178.11
840.208	17150.99
840.533	17130.65
840.858	17092.91
841.182	17076.19
841.507	17026.02
841.832	17002.29
842.156	16970.2
842.481	16852.24
842.805	16866.7
843.13	16819.7
843.454	16734.5
843.778	16675.3
844.103	16705.13
844.427	16710.1
844.751	16624.45
845.075	16526.37
845.399	16544.23
845.723	16550.33
846.047	16414.29
846.371	16287.28
846.695	16328.64
847.019	16171.13
847.343	16093.84
847.666	16022.66
847.99	16008.65
848.313	15981.08
848.637	15880.74
848.96	15788.54
849.284	15810.69
849.607	15654.31
849.931	15585.38
850.254	15570.01
850.577	15422
850.9	15324.82
851.223	15342
851.546	15281.66
851.869	15205.05
852.192	15259.29
852.515	15072.85
852.838	14969.35
853.161	15000.99
853.483	14951.05
853.806	14860.65
854.129	14805.29
854.451	14798.51
854.774	14739.75
855.096	14683.48
855.419	14648.23
855.741	14601
856.063	14539.98
856.385	14437.84
856.708	14441.46
857.03	14413.66
857.352	14476.48
857.674	14314.45
857.996	14227.45
858.318	14165.08
858.64	14222.48
858.961	14143.16
859.283	14162.14
859.605	14030.17
859.926	14113.1
860.248	13987.01
860.57	13976.16
860.891	13998.76
861.212	13954.69
861.534	13864.97
861.855	13856.84
862.176	13846.44
862.498	13764.19
862.819	13879.66
863.14	13694.58
863.461	13689.61
863.782	13614.36
864.103	13615.49
864.424	13581.14
864.745	13587.69
865.065	13519.45
865.386	13568.71
865.707	13479.9
866.027	13440.13
866.348	13342.5
866.668	13474.02
866.989	13334.37
867.309	13224.54
867.63	13308.6
867.95	13308.38
868.27	13183.86
868.59	13180.47
868.91	13113.58
869.23	13130.53
869.55	13121.27
869.87	13155.39
870.19	13132.56
870.51	13069.29
870.83	13123.52
871.15	12977.54
871.469	12992.45
871.789	13032.23
872.109	12985.9
872.428	12831.33
872.748	12939.8
873.067	12891.89
873.386	12935.28
873.706	12926.92
874.025	12796.3
874.344	12737.09
874.663	12805.79
874.982	12780.71
875.301	12767.83
875.62	12706.13
875.939	12763.31
876.258	12646.7
876.577	12585.69
876.896	12653.25
877.214	12652.8
877.533	12651.67
877.852	12653.25
878.17	12610.54
878.489	12602.41
878.807	12588.85
879.125	12420.94
879.444	12458.01
879.762	12447.16
880.08	12475.86
880.398	12357.9
880.716	12421.85
881.034	12372.13
881.352	12305.69
881.67	12257.11
881.988	12267.73
882.306	12245.81
882.624	12204
882.941	12221.63
883.259	12148.18
883.577	12170.1
883.894	12094.63
884.212	12072.03
884.529	12083.1
884.846	12044.68
885.164	12037.68
885.481	11991.8
885.798	12004.68
886.115	11896.21
886.432	11974.85
886.75	11923.78
887.067	11914.74
887.383	11835.65
887.7	11758.59
888.017	11711.36
888.334	11733.96
888.651	11679.27
888.967	11677.69
889.284	11642.21
889.6	11581.19
889.917	11497.81
890.233	11590.91
890.55	11519.5
890.866	11459.39
891.182	11442.89
891.498	11413.97
891.815	11357.02
892.131	11310.24
892.447	11285.83
892.763	11239.05
893.079	11280.41
893.395	11229.11
893.71	11153.86
894.026	11124.03
894.342	11087.42
894.657	11070.02
894.973	11073.41
895.289	10965.39
895.604	10964.26
895.92	10855.79
896.235	10801.33
896.55	10881.32
896.865	10790.48
897.181	10815.56
897.496	10694.44
897.811	10729.46
898.126	10652.86
898.441	10620.77
898.756	10610.37
899.071	10485.63
899.386	10564.27
899.7	10409.02
900.015	10442.92
900.33	10298.51
900.644	10362.24
900.959	10376.03
901.273	10291.28
901.588	10207.22
901.902	10182.13
902.216	10184.39
902.531	10134.68
902.845	10084.28
903.159	10076.37
903.473	10004.74
903.787	9915.25
904.101	9887.68
904.415	9828.92
904.729	9895.14
905.042	9845.42
905.356	9783.5
905.67	9737.17
905.984	9698.08
906.297	9657.4
906.611	9579.44
906.924	9590.74
907.237	9553.9
907.551	9506.22
907.864	9523.62
908.177	9521.81
908.491	9445.43
908.804	9445.88
909.117	9363.4
909.43	9268.03
909.743	9230.07
910.056	9246.56
910.368	9190.3
910.681	9203.63
910.994	9137.42
911.307	9078.89
911.619	8934.03
911.932	9088.6
912.244	8948.04
912.557	8892.45
912.869	8877.31
913.181	8832.11
913.494	8874.6
913.806	8789.85
914.118	8768.84
914.43	8688.84
914.742	8675.96
915.054	8584.44
915.366	8604.55
915.678	8568.62
915.99	8485.68
916.302	8448.17
916.613	8440.03
916.925	8399.81
917.236	8385.57
917.548	8314.84
917.859	8303.54
918.171	8259.7
918.482	8256.08
918.794	8184.9
919.105	8169.76
919.416	8169.53
919.727	8133.6
920.038	8135.41
920.349	8045.92
920.66	7957.79
920.971	8003.66
921.282	7915.98
921.593	7922.76
921.903	7808.86
922.214	7812.7
922.525	7790.11
922.835	7721.41
923.146	7727.96
923.456	7725.02
923.767	7659.26
924.077	7633.73
924.387	7600.05
924.697	7500.17
925.008	7548.3
925.318	7526.38
925.628	7488.19
925.938	7469.44
926.248	7320.97
926.558	7342.21
926.867	7345.6
927.177	7309.21
927.487	7236.67
927.796	7200.74
928.106	7148.77
928.416	7135.66
928.725	7131.82
929.034	7090.01
929.344	7097.24
929.653	7083.23
929.962	7014.08
930.271	6966.85
930.581	6906.51
930.89	6952.61
931.199	6868.1
931.508	6843.92
931.817	6865.16
932.125	6828.1
932.434	6794.43
932.743	6738.38
933.051	6727.53
933.36	6692.51
933.669	6620.19
933.977	6622.45
934.286	6587.43
934.594	6617.26
934.902	6552.4
935.21	6457.26
935.519	6486.19
935.827	6415.9
936.135	6371.61
936.443	6396.24
936.751	6345.85
937.059	6362.35
937.367	6269.02
937.674	6263.14
937.982	6258.85
938.29	6231.73
938.597	6217.72
938.905	6177.49
939.213	6133.65
939.52	6140.88
939.827	6135.01
940.135	6061.79
940.442	6038.29
940.749	6003.94
941.056	6014.79
941.363	5959.65
941.67	5975.69
941.977	5911.51
942.284	5902.92
942.591	5902.02
942.898	5876.03
943.205	5884.39
943.511	5769.14
943.818	5772.53
944.125	5726.43
944.431	5724.85
944.738	5710.84
945.044	5715.13
945.35	5666.77
945.657	5600.11
945.963	5573.89
946.269	5579.77
946.575	5572.54
946.881	5552.2
947.187	5485.76
947.493	5489.83
947.799	5485.76
948.105	5425.2
948.41	5408.25
948.716	5385.2
949.022	5353.11
949.327	5364.63
949.633	5324.63
949.938	5297.74
950.244	5272.88
950.549	5249.83
950.854	5225.65
951.16	5234.92
951.465	5173.23
951.77	5145.88
952.075	5147.92
952.38	5118.76
952.685	5081.02
952.99	5139.33
953.294	5053.23
953.599	4991.76
953.904	4980.01
954.209	4971.42
954.513	4897.3
954.818	4904.08
955.122	4905.66
955.426	4879.45
955.731	4853.23
956.035	4835.16
956.339	4856.62
956.643	4822.5
956.948	4705.22
957.252	4758.32
957.556	4745.21
957.86	4677.65
958.163	4712.22
958.467	4704.99
958.771	4666.57
959.075	4656.18
959.378	4612.79
959.682	4570.98
959.985	4599
960.289	4524.2
960.592	4561.26
960.896	4490.53
961.199	4463.41
961.502	4454.37
961.805	4447.82
962.108	4448.72
962.411	4423.87
962.714	4339.58
963.017	4340.25
963.32	4328.28
963.623	4336.64
963.926	4344.77
964.228	4241.95
964.531	4251.44
964.833	4246.47
965.136	4221.16
965.438	4217.32
965.741	4207.6
966.043	4171.9
966.345	4118.79
966.648	4159.47
966.95	4164.21
967.252	4136.42
967.554	4078.79
967.856	4067.27
968.158	3999.47
968.46	4057.77
968.761	4018.91
969.063	4012.58
969.365	3958.34
969.666	3996.99
969.968	3921.73
970.269	3942.52
970.571	3929.19
970.872	3914.73
971.174	3868.85
971.475	3839.93
971.776	3864.11
972.077	3888.74
972.378	3789.53
972.679	3780.04
972.98	3771
973.281	3756.31
973.582	3722.19
973.883	3723.09
974.183	3738.24
974.484	3686.26
974.785	3613.27
975.085	3637.9
975.386	3667.05
975.686	3625.02
975.986	3586.15
976.287	3584.11
976.587	3563.1
976.887	3582.98
977.187	3542.76
977.487	3514.06
977.787	3542.31
978.087	3508.18
978.387	3479.94
978.687	3463.67
978.987	3480.16
979.286	3445.59
979.586	3434.97
979.885	3424.12
980.185	3397.68
980.484	3357
980.784	3387.28
981.083	3355.87
981.382	3280.62
981.682	3354.29
981.981	3293.5
982.28	3288.3
982.579	3232.94
982.878	3245.59
983.177	3237.68
983.475	3244.91
983.774	3212.6
984.073	3180.06
984.372	3200.62
984.67	3144.8
984.969	3204.92
985.267	3171.7
985.566	3145.48
985.864	3134.18
986.162	3092.38
986.461	3083.56
986.759	3132.38
987.057	3022.32
987.355	3045.82
987.653	3030.01
987.951	2993.62
988.249	3013.51
988.547	2977.35
988.844	2956.11
989.142	3005.15
989.44	2938.03
989.737	2916.79
990.035	2896.68
990.332	2881.08
990.63	2890.35
990.927	2889.22
991.224	2871.14
991.521	2883.79
991.819	2857.58
992.116	2808.54
992.413	2815.32
992.71	2802.21
993.006	2803.34
993.303	2770.35
993.6	2752.27
993.897	2725.83
994.193	2709.11
994.49	2683.8
994.787	2696.91
995.083	2667.53
995.379	2628.89
995.676	2632.73
995.972	2638.83
996.268	2614.87
996.565	2609.9
996.861	2574.65
997.157	2597.02
997.453	2593.41
997.749	2565.61
998.044	2543.69
998.34	2540.3
998.636	2509.34
998.932	2507.53
999.227	2509.34
999.523	2507.08
999.818	2452.85
1000.114	2476.35
1000.409	2447.87
1000.704	2444.26
1001	2423.47
1001.295	2391.15
1001.59	2364.03
1001.885	2355.67
1002.18	2361.77
1002.475	2357.93
1002.77	2342.79
1003.065	2335.33
1003.359	2293.08
1003.654	2312.28
1003.949	2286.07
1004.243	2285.84
1004.538	2238.84
1004.832	2225.96
1005.127	2204.26
1005.421	2215.79
1005.715	2191.61
1006.009	2192.74
1006.304	2185.51
1006.598	2167.88
1006.892	2150.71
1007.186	2150.71
1007.48	2110.48
1007.773	2127.88
1008.067	2148.22
1008.361	2113.64
1008.655	2068
1008.948	2077.26
1009.242	2071.84
1009.535	2042.91
1009.829	1985.06
1010.122	2019.41
1010.415	2016.02
1010.708	1986.64
1011.001	1961.56
1011.295	1978.96
1011.588	1958.39
1011.881	1984.38
1012.173	1956.36
1012.466	1965.17
1012.759	1903.48
1013.052	1899.64
1013.344	1929.7
1013.637	1888.11
1013.93	1865.97
1014.222	1873.88
1014.514	1835.46
1014.807	1841.56
1015.099	1807.89
1015.391	1813.09
1015.683	1801.11
1015.976	1811.05
1016.268	1752.98
1016.56	1752.07
1016.851	1765.86
1017.143	1750.94
1017.435	1759.3
1017.727	1711.4
1018.018	1726.54
1018.31	1716.59
1018.602	1706.88
1018.893	1698.29
1019.185	1665.3
1019.476	1692.19
1019.767	1636.14
1020.058	1635.01
1020.35	1646.09
1020.641	1616.26
1020.932	1596.82
1021.223	1577.61
1021.514	1549.59
1021.804	1554.34
1022.095	1569.25
1022.386	1536.03
1022.677	1550.5
1022.967	1519.08
1023.258	1534.23
1023.548	1501.46
1023.839	1506.2
1024.129	1506.43
1024.419	1482.25
1024.709	1472.08
1025	1487.67
1025.29	1462.59
1025.58	1433.66
1025.87	1426.88
1026.16	1376.26
1026.449	1425.75
1026.739	1412.65
1027.029	1404.06
1027.319	1394.79
1027.608	1407.45
1027.898	1369.03
1028.187	1334.91
1028.477	1343.72
1028.766	1385.08
1029.055	1329.71
1029.344	1325.42
1029.634	1325.42
1029.923	1295.36
1030.212	1298.07
1030.501	1312.08
1030.79	1277.28
1031.078	1283.16
1031.367	1237.06
1031.656	1262.82
1031.945	1223.27
1032.233	1216.27
1032.522	1240
1032.81	1204.06
1033.099	1204.52
1033.387	1195.48
1033.675	1204.97
1033.963	1202.71
1034.251	1170.62
1034.54	1192.77
1034.828	1164.07
1035.116	1149.83
1035.403	1142.6
1035.691	1120.45
1035.979	1137.85
1036.267	1128.36
1036.554	1116.84
1036.842	1105.99
1037.129	1082.71
1037.417	1098.98
1037.704	1106.21
1037.992	1090.85
1038.279	1090.62
1038.566	1059.66
1038.853	1059.66
1039.14	1059.66
