Data from breadboard_white_FLMS001491_00097.txt Node
Date: Wed Feb 08 10:48:33 GMT 2017
User: dcchb
Spectrometer: FLMS00149
Trigger mode: 0
Integration Time (sec): 2.000000E-2
Scans to average: 10
Electric dark correction enabled: true
Nonlinearity correction enabled: false
Boxcar width: 0
XAxis mode: Wavelengths
Number of Pixels in Spectrum: 2048
>>>>>Begin Spectral Data<<<<<
341.393	-7.58
341.776	-7.58
342.16	-7.58
342.543	-54.36
342.927	-68.37
343.31	-68.6
343.693	-77.19
344.077	-73.8
344.46	-55.72
344.843	-43.97
345.226	-33.8
345.61	-34.93
345.993	-18.66
346.376	3.71
346.759	16.6
347.142	29.7
347.525	45.3
347.908	63.15
348.291	59.08
348.674	75.13
349.057	113.99
349.44	132.3
349.823	147.67
350.206	156.93
350.588	197.61
350.971	217.95
351.354	242.35
351.737	254.33
352.119	259.08
352.502	269.24
352.884	296.59
353.267	294.33
353.65	308.34
354.032	294.55
354.414	327.1
354.797	331.16
355.179	327.1
355.562	332.07
355.944	333.42
356.326	342.91
356.709	370.94
357.091	342.01
357.473	354.89
357.855	339.75
358.238	346.3
358.62	340.2
359.002	337.27
359.384	352.63
359.766	350.6
360.148	334.1
360.53	369.58
360.912	367.55
361.294	348.56
361.676	356.02
362.057	348.11
362.439	346.76
362.821	346.76
363.203	322.35
363.584	331.16
363.966	361.45
364.348	354.21
364.729	330.71
365.111	331.16
365.493	329.81
365.874	356.7
366.256	312.18
366.637	322.8
367.019	353.54
367.4	352.63
367.781	319.86
368.163	315.8
368.544	338.85
368.925	340.43
369.306	338.62
369.688	330.26
370.069	332.52
370.45	348.79
370.831	331.16
371.212	350.37
371.593	314.89
371.974	352.18
372.355	330.49
372.736	349.02
373.117	333.42
373.498	349.24
373.879	325.74
374.26	347.21
374.641	354.67
375.021	356.25
375.402	350.15
375.783	361.22
376.163	345.4
376.544	349.92
376.925	367.09
377.305	369.35
377.686	362.58
378.066	343.82
378.447	362.58
378.827	382.91
379.208	383.14
379.588	365.74
379.968	374.55
380.349	347.21
380.729	368.68
381.109	395.57
381.489	389.69
381.87	378.39
382.25	397.83
382.63	394.21
383.01	370.03
383.39	407.32
383.77	389.69
384.15	434.89
384.53	421.56
384.91	407.32
385.29	420.65
385.67	399.41
386.049	394.89
386.429	390.15
386.809	412.52
387.189	417.49
387.568	446.87
387.948	433.31
388.328	441.67
388.707	423.59
389.087	432.18
389.466	442.57
389.846	437.38
390.225	458.84
390.605	474.44
390.984	453.65
391.363	459.3
391.743	473.98
392.122	489.35
392.501	485.06
392.881	474.21
393.26	479.86
393.639	480.54
394.018	501.1
394.397	510.82
394.776	526.19
395.155	524.6
395.534	541.33
395.913	522.57
396.292	525.96
396.671	557.82
397.05	540.65
397.429	558.28
397.808	538.62
398.186	545.17
398.565	544.04
398.944	588.56
399.323	578.84
399.701	583.36
400.08	596.92
400.458	600.08
400.837	605.96
401.215	612.51
401.594	620.42
401.972	619.07
402.351	650.48
402.729	642.34
403.107	664.71
403.486	655.67
403.864	690.25
404.242	685.96
404.62	699.97
404.999	717.37
405.377	708.1
405.755	705.62
406.133	759.4
406.511	760.98
406.889	783.36
407.267	775.67
407.645	798.72
408.023	793.98
408.401	809.57
408.779	861.32
409.156	869.45
409.534	859.29
409.912	858.61
410.29	896.57
410.667	917.81
411.045	904.93
411.422	954.42
411.8	944.71
412.178	984.25
412.555	998.26
412.933	1036.68
413.31	1032.61
413.687	1067.87
414.065	1048.66
414.442	1084.59
414.819	1082.78
415.197	1121.2
415.574	1140.18
415.951	1172.05
416.328	1170.24
416.705	1178.6
417.082	1190.12
417.46	1204.81
417.837	1228.32
418.214	1254.98
418.591	1254.53
418.967	1280.52
419.344	1275.55
419.721	1320.97
420.098	1312.61
420.475	1300.86
420.852	1348.09
421.228	1346.5
421.605	1394.64
421.982	1409.1
422.358	1447.29
422.735	1454.3
423.111	1436.67
423.488	1475.77
423.864	1478.25
424.241	1528.19
424.617	1530
424.994	1527.97
425.37	1571.81
425.746	1590.11
426.123	1574.52
426.499	1619.94
426.875	1608.87
427.251	1637.12
427.627	1704.91
428.003	1706.04
428.379	1739.94
428.756	1751.69
429.132	1781.07
429.507	1781.07
429.883	1847.73
430.259	1875.53
430.635	1879.15
431.011	1894.96
431.387	1922.99
431.763	1965.92
432.138	2007.5
432.514	2002.31
432.89	2042.76
433.265	2078.46
433.641	2094.06
434.016	2134.51
434.392	2137.67
434.767	2207.05
435.143	2197.1
435.518	2253.15
435.894	2276.88
436.269	2297.21
436.644	2324.11
437.02	2322.3
437.395	2338.34
437.77	2407.95
438.145	2413.14
438.52	2463.99
438.895	2472.58
439.271	2483.2
439.646	2497.43
440.021	2553.03
440.395	2550.77
440.77	2564.1
441.145	2578.79
441.52	2665.57
441.895	2634.38
442.27	2670.99
442.645	2657.43
443.019	2710.76
443.394	2728.61
443.769	2774.72
444.143	2734.49
444.518	2821.72
444.892	2803.87
445.267	2837.09
445.641	2883.41
446.016	2852.45
446.39	2887.48
446.764	2888.84
447.139	2907.82
447.513	2955.28
447.887	2973.81
448.262	3011.77
448.636	3000.7
449.01	3049.96
449.384	3057.87
449.758	3110.3
450.132	3162.95
450.506	3135.16
450.88	3162.73
451.254	3209.73
451.628	3249.73
452.002	3291.76
452.376	3299
452.75	3376.06
453.123	3354.59
453.497	3458.76
453.871	3408.37
454.244	3556.16
454.618	3541.7
454.992	3630.06
455.365	3630.29
455.739	3705.09
456.112	3723.16
456.486	3800.45
456.859	3821.02
457.232	3907.34
457.606	3878.64
457.979	3958.41
458.352	3988.47
458.725	4063.04
459.099	4069.82
459.472	4143.72
459.845	4239.99
460.218	4221.91
460.591	4353.43
460.964	4367.89
461.337	4402.47
461.71	4459.19
462.083	4557.27
462.456	4538.96
462.829	4565.85
463.201	4722.23
463.574	4665.06
463.947	4767.43
464.32	4870.25
464.692	4911.61
465.065	4953.19
465.438	5024.6
465.81	5080.42
466.183	5155.44
466.555	5271.82
466.928	5279.28
467.3	5247.87
467.672	5401.99
468.045	5528.54
468.417	5573.29
468.789	5595.21
469.161	5661.19
469.534	5768.53
469.906	5879.04
470.278	5914.75
470.65	6018.7
471.022	6131.24
471.394	6242.87
471.766	6331.01
472.138	6339.14
472.51	6479.48
472.882	6653.48
473.253	6697.1
473.625	6758.34
473.997	6943.65
474.369	6981.16
474.74	7006.24
475.112	7249.4
475.484	7305.22
475.855	7419.34
476.227	7539.34
476.598	7761.93
476.97	7857.07
477.341	7924.41
477.713	8127.12
478.084	8154.69
478.455	8419.09
478.827	8421.12
479.198	8683.94
479.569	8686.65
479.94	8996.7
480.311	9034.21
480.682	9229.69
481.053	9419.96
481.424	9617.7
481.795	9676.45
482.166	9809.78
482.537	9970.01
482.908	10228.08
483.279	10336.55
483.65	10499.03
484.021	10746.26
484.391	10779.02
484.762	10934.5
485.133	10989.64
485.503	11276.86
485.874	11466.69
486.244	11502.62
486.615	11809.96
486.985	11885.89
487.356	12098.99
487.726	12257.63
488.097	12583.27
488.467	12567.68
488.837	12814.23
489.207	13084.5
489.578	13078.4
489.948	13302.35
490.318	13418.5
490.688	13561.78
491.058	13784.14
491.428	14061.2
491.798	14142.1
492.168	14355.88
492.538	14361.08
492.908	14694.85
493.278	14727.4
493.648	14779.82
494.017	15146.82
494.387	15250.55
494.757	15324.44
495.126	15427.04
495.496	15561.72
495.866	15649.86
496.235	15817.76
496.605	16030.64
496.974	16203.06
497.344	16231.76
497.713	16318.54
498.082	16602.37
498.452	16712.2
498.821	16797.4
499.19	16848.7
499.559	17113.55
499.928	17180.44
500.298	17323.71
500.667	17449.13
501.036	17385.63
501.405	17637.38
501.774	17698.62
502.143	17901.78
502.512	17924.6
502.88	18211.82
503.249	18107.87
503.618	18334.98
503.987	18407.98
504.356	18584.47
504.724	18643.22
505.093	18795.31
505.462	18920.05
505.83	18985.14
506.199	19192.36
506.567	19423.09
506.936	19460.83
507.304	19717.77
507.672	19806.81
508.041	19926.81
508.409	19975.84
508.777	20249.06
509.145	20378.09
509.514	20431.43
509.882	20600.46
510.25	20691.76
510.618	20797.29
510.986	20885.88
511.354	21158.64
511.722	21237.28
512.09	21555.01
512.458	21561.57
512.826	21722.69
513.193	21868.22
513.561	21993.19
513.929	22151.38
514.297	22340.3
514.664	22510.92
515.032	22679.28
515.4	22871.81
515.767	22943.45
516.135	23055.99
516.502	23073.62
516.869	23499.14
517.237	23485.13
517.604	23517.45
517.972	23867.04
518.339	24114.95
518.706	24101.61
519.073	24273.36
519.44	24457.99
519.808	24716.74
520.175	24724.42
520.542	25112.66
520.909	25301.81
521.276	25233.11
521.643	25568.01
522.009	25691.63
522.376	25994.44
522.743	26080.32
523.11	26387.88
523.477	26548.33
523.843	26804.14
524.21	27140.18
524.577	27283
524.943	27398.7
525.31	27566.83
525.676	27772.25
526.043	27939.48
526.409	28172.47
526.776	28522.74
527.142	28504.43
527.508	28710.53
527.874	28971.77
528.241	29113.68
528.607	29228.71
528.973	29605.2
529.339	29585.76
529.705	29897.62
530.071	30120.44
530.437	30303.03
530.803	30472.07
531.169	30673.19
531.535	30632.51
531.901	30863.92
532.267	30907.76
532.632	31185.27
532.998	31361.08
533.364	31442.66
533.73	31610.12
534.095	31926.94
534.461	31849.43
534.826	32152.93
535.192	32262.08
535.557	32473.82
535.923	32420.04
536.288	32625
536.653	32730.54
537.019	32818.67
537.384	33074.48
537.749	33060.25
538.114	33285.33
538.479	33355.38
538.845	33507.24
539.21	33411.42
539.575	33662.72
539.94	33617.97
540.305	33967.34
540.67	33914.91
541.034	34218.63
541.399	34330.04
541.764	34421.11
542.129	34502.92
542.494	34545.86
542.858	34807.09
543.223	34782.01
543.587	35018.39
543.952	35001.44
544.316	35111.72
544.681	35098.61
545.045	35331.83
545.41	35455.89
545.774	35650.69
546.138	35621.76
546.503	35758.25
546.867	35819.5
547.231	36239.82
547.595	36220.39
547.959	36280.5
548.324	36379.03
548.688	36579.25
549.052	36628.06
549.416	36619.7
549.779	36774.5
550.143	36927.72
550.507	37168.39
550.871	37238.22
551.235	37269.63
551.599	37662.84
551.962	37473.24
552.326	37856.28
552.689	38019.89
553.053	37894.92
553.417	37957.07
553.78	38422.14
554.143	38379.2
554.507	38605.86
554.87	38752.98
555.234	39083.37
555.597	38838.4
555.96	39166.3
556.323	39270.7
556.686	39435.22
557.05	39540.08
557.413	39665.04
557.776	39766.96
558.139	39966.28
558.502	40085.15
558.865	40171.47
559.228	40582.53
559.59	40617.56
559.953	40795.64
560.316	41128.28
560.679	41032.47
561.041	41318.56
561.404	41577.99
561.767	41832.9
562.129	41723.75
562.492	42099.33
562.854	42136.62
563.217	42110.4
563.579	42345.65
563.941	42617.28
564.304	42833.77
564.666	43011.85
565.028	43081.23
565.39	43278.96
565.753	43366.42
566.115	43564.38
566.477	43906.74
566.839	43924.59
567.201	44161.65
567.563	44122.1
567.925	44389.67
568.287	44390.8
568.648	44520.28
569.01	44777.9
569.372	44984
569.734	44961.4
570.095	45198.46
570.457	45240.94
570.819	45525
571.18	45531.56
571.542	45655.17
571.903	45764.77
572.265	45969.51
572.626	46025.78
572.987	46154.37
573.349	46263.52
573.71	46347.35
574.071	46548.71
574.432	46700.11
574.794	46959.54
575.155	46811.98
575.516	46712.99
575.877	46936.94
576.238	47086.09
576.599	47104.17
576.96	47139.42
577.32	47240.44
577.681	47438.17
578.042	47340.32
578.403	47366.09
578.763	47451.73
579.124	47490.15
579.485	47703.25
579.845	47739.86
580.206	47555.68
580.566	47713.42
580.927	47757.71
581.287	47779.18
581.648	47710.03
582.008	47875.45
582.368	47908.67
582.728	47929.23
583.089	47827.54
583.449	47861.44
583.809	47917.26
584.169	48070.25
584.529	47765.17
584.889	48216.91
585.249	48020.08
585.609	47904.15
585.969	48124.94
586.329	47954.77
586.688	48066.41
587.048	47988.44
587.408	47964.71
587.768	48006.07
588.127	48030.25
588.487	48017.37
588.846	48256.01
589.206	48083.81
589.565	48133.97
589.925	48251.49
590.284	48042.23
590.643	48121.09
591.003	48316.34
591.362	48312.5
591.721	48231.6
592.08	48259.85
592.44	48432.5
592.799	48404.93
593.158	48261.65
593.517	48276.8
593.876	48416.9
594.235	48198.15
594.593	48371.48
594.952	48386.85
595.311	48274.31
595.67	48423.23
596.029	48528.54
596.387	48603.11
596.746	48589.78
597.104	48507.75
597.463	48535.09
597.822	48775.09
598.18	48565.38
598.538	48463.01
598.897	48640.63
599.255	48320.41
599.613	48940.28
599.972	48674.3
600.33	48656.45
600.688	48555.66
601.046	48809.44
601.404	48913.16
601.762	48761.75
602.12	49032.03
602.478	49072.71
602.836	49090.33
603.194	48887.85
603.552	48985.48
603.91	48923.56
604.268	49186.15
604.625	49022.99
604.983	49072.93
605.341	48930.34
605.698	49184.12
606.056	49162.2
606.413	49219.14
606.771	49259.37
607.128	49420.49
607.485	49137.11
607.843	49251.23
608.2	49422.98
608.557	49381.63
608.914	49330.55
609.272	49485.13
609.629	49642.86
609.986	49616.42
610.343	49543.88
610.7	49768.51
611.057	49662.3
611.414	49726.47
611.771	49789.3
612.127	49889.18
612.484	49896.87
612.841	50097.76
613.198	49827.72
613.554	49981.16
613.911	50133.02
614.267	49994.04
614.624	50032.68
614.98	50091.44
615.337	50252.79
615.693	50154.03
616.05	50222.51
616.406	50353.35
616.762	50264.09
617.118	50263.64
617.475	50353.8
617.831	50435.38
618.187	50448.26
618.543	50426.57
618.899	50665.89
619.255	50581.59
619.611	50483.97
619.967	50636.28
620.323	50764.19
620.678	50558.77
621.034	50563.52
621.39	50440.81
621.746	50468.6
622.101	50879.89
622.457	50450.52
622.812	50606
623.168	50653.68
623.523	50655.04
623.879	50752.89
624.234	50551.99
624.589	50644.64
624.945	50619.11
625.3	50771.42
625.655	50676.96
626.01	50604.87
626.365	50611.88
626.72	50628.6
627.075	50640.35
627.43	50607.81
627.785	50479.68
628.14	50612.33
628.495	50517.64
628.85	50616.4
629.205	50414.14
629.559	50660.46
629.914	50420.24
630.269	50469.73
630.623	50365.55
630.978	50363.52
631.332	50548.83
631.687	50515.15
632.041	50406.68
632.396	50375.05
632.75	50231.77
633.104	50300.25
633.459	50034.94
633.813	50195.84
634.167	50075.84
634.521	50013.93
634.875	50112.23
635.229	50056.41
635.583	49933.7
635.937	49856.19
636.291	49815.29
636.645	49826.13
636.999	49764.67
637.352	49838.11
637.706	49674.95
638.06	49806.47
638.413	49691.9
638.767	49561.28
639.121	49701.16
639.474	49447.16
639.828	49361.06
640.181	49444.22
640.534	49444.45
640.888	49249.43
641.241	49105.7
641.594	49186.6
641.947	49378.69
642.301	49164
642.654	49133.04
643.007	49188.18
643.36	49181.63
643.713	48971.92
644.066	49099.82
644.419	48916.55
644.771	48787.06
645.124	48429.11
645.477	48418.26
645.83	48132.17
646.182	47870.03
646.535	47650.82
646.888	47694.44
647.24	47566.76
647.593	47753.65
647.945	47592.52
648.298	47404.28
648.65	47394.78
649.002	47300.78
649.355	47429.81
649.707	47254.68
650.059	47475.69
650.411	48062.56
650.763	48085.61
651.115	48358.38
651.467	48162
651.819	48139.4
652.171	47998.38
652.523	48043.81
652.875	47899.18
653.227	47703.7
653.578	48079.06
653.93	47947.09
654.282	47810.14
654.633	47738.5
654.985	47693.53
655.337	47708.67
655.688	47799.97
656.039	47917.93
656.391	47545.74
656.742	47721.33
657.094	47551.39
657.445	47708.9
657.796	47574.67
658.147	47504.16
658.498	47473.65
658.849	47554.78
659.2	47543.03
659.551	47358.63
659.902	47556.81
660.253	47434.78
660.604	47434.33
660.955	47191.85
661.306	47364.05
661.656	47320.66
662.007	47263.49
662.358	47434.33
662.708	47301.68
663.059	47170.38
663.409	46924.74
663.76	47347.55
664.11	47182.14
664.461	47289.02
664.811	47331.06
665.161	47166.09
665.511	47074.57
665.862	47092.65
666.212	47183.49
666.562	47100.1
666.912	47011.52
667.262	47075.02
667.612	47069.14
667.962	47017.62
668.312	46961.12
668.662	47192.08
669.011	47107.11
669.361	47018.98
669.711	47087.67
670.06	46951.63
670.41	46946.44
670.76	46852.43
671.109	47014.46
671.459	46848.13
671.808	46781.47
672.157	46795.03
672.507	46491.98
672.856	46625.77
673.205	46612.21
673.554	46661.47
673.904	46529.95
674.253	46734.69
674.602	46676.84
674.951	46043.41
675.3	45801.83
675.649	46450.4
675.998	46325.43
676.346	46397.3
676.695	46420.35
677.044	46205.66
677.393	46239.56
677.741	46393.23
678.09	46181.94
678.438	46048.61
678.787	46193.91
679.135	45945.11
679.484	45913.24
679.832	46117.3
680.181	45646.13
680.529	45959.12
680.877	45833.47
681.225	45686.36
681.573	45899.68
681.922	45619.01
682.27	45540.37
682.618	45522.97
682.966	45392.58
683.314	45383.99
683.661	45365.46
684.009	45191.23
684.357	45205.69
684.705	45130.89
685.053	45114.62
685.4	45096.09
685.748	44766.38
686.095	44680.51
686.443	44591.24
686.79	44606.16
687.138	44577.91
687.485	44658.81
687.832	44507.86
688.18	44441.87
688.527	44393.28
688.874	44302.89
689.221	44130.92
689.568	44051.37
689.915	43838.72
690.262	43900.41
690.609	43727.08
690.956	43728.44
691.303	43628.33
691.65	43458.84
691.997	43471.5
692.344	43125.97
692.69	43057.95
693.037	43058.85
693.383	42745.19
693.73	42878.07
694.077	42548.81
694.423	42641.24
694.769	42580.45
695.116	42445.08
695.462	42383.17
695.808	42293.45
696.155	42393.56
696.501	42003.06
696.847	42084.19
697.193	41687.59
697.539	41842.84
697.885	41571.21
698.231	41541.15
698.577	41474.04
698.923	41340.25
699.269	41199.92
699.614	41105.91
699.96	40998.79
700.306	40955.63
700.651	40795.18
700.997	40701.85
701.342	40650.1
701.688	40600.16
702.033	40409.21
702.379	40470
702.724	40362.88
703.069	40425.93
703.415	39839.73
703.76	40043.57
704.105	39870.91
704.45	39719.51
704.795	39634.08
705.14	39369.91
705.485	39330.36
705.83	39219.63
706.175	39382.79
706.52	39111.16
706.865	39110.71
707.209	38970.83
707.554	38837.5
707.899	39001.11
708.243	38724.05
708.588	38596.82
708.932	38369.03
709.277	38501.69
709.621	38448.35
709.966	38279.77
710.31	38127.68
710.654	37910.29
710.998	37924.07
711.342	37968.82
711.687	37753.46
712.031	37700.12
712.375	37466.91
712.719	37561.15
713.063	37513.91
713.407	37542.39
713.75	37283.64
714.094	37411.77
714.438	37096.3
714.782	37237.99
715.125	37080.25
715.469	36870.09
715.812	36869.41
716.156	36781.96
716.499	36762.97
716.843	36806.59
717.186	36399.59
717.53	36557.33
717.873	36661.28
718.216	36499.03
718.559	36421.51
718.902	36139.26
719.246	36213.16
719.589	36153.72
719.932	36059.72
720.275	36007.29
720.617	35899.04
720.96	35877.35
721.303	35892.26
721.646	35871.92
721.989	35501.31
722.331	35632.83
722.674	35588.32
723.016	35462.67
723.359	35403.91
723.701	35602.1
724.044	35206.18
724.386	35078.27
724.729	35179.96
725.071	35059.29
725.413	35163.02
725.755	34931.38
726.097	34743.14
726.439	34628.11
726.782	34651.84
727.124	34845.74
727.465	34768.22
727.807	34632.41
728.149	34592.64
728.491	34368.46
728.833	34467.44
729.175	34399.42
729.516	34233.55
729.858	34221.35
730.199	34253.21
730.541	34161.46
730.882	34134.34
731.224	34056.15
731.565	33966.21
731.906	33939.55
732.248	34045.98
732.589	33885.08
732.93	33596.96
733.271	33803.28
733.612	33605.99
733.953	33692.77
734.294	33472.21
734.635	33545.66
734.976	33414.59
735.317	33424.08
735.658	33340.01
735.999	33346.57
736.339	33307.92
736.68	33188.38
737.021	33134.14
737.361	33047.37
737.702	33116.97
738.042	32979.12
738.383	32881.04
738.723	32902.96
739.063	32798.11
739.404	32972.57
739.744	32749.07
740.084	32552.46
740.424	32679.24
740.764	32658.45
741.104	32596.3
741.444	32412.13
741.784	32293.94
742.124	32354.95
742.464	32323.77
742.804	32229.31
743.143	32221.4
743.483	32082.42
743.823	32036.09
744.162	31940.95
744.502	31956.09
744.841	31854.18
745.181	32013.95
745.52	31796.55
745.86	31851.69
746.199	31804.01
746.538	31764.24
746.877	31737.12
747.216	31736.21
747.556	31583.45
747.895	31544.81
748.234	31349.78
748.573	31294.87
748.911	31297.13
749.25	31245.38
749.589	31050.81
749.928	31300.97
750.267	31186.85
750.605	30952.96
750.944	30992.96
751.283	30831.83
751.621	30944.37
751.96	30733.75
752.298	30665.51
752.636	30615.79
752.975	30421.67
753.313	30422.8
753.651	30448.56
753.989	30326.53
754.327	30204.95
754.666	30031.63
755.004	30013.1
755.342	30030.04
755.679	29912.31
756.017	29879.99
756.355	29895.13
756.693	29674.57
757.031	29721.58
757.368	29434.81
757.706	29566.78
758.044	29498.98
758.381	29429.38
758.719	29340.8
759.056	29287.24
759.394	29156.85
759.731	29069.84
760.068	29098.77
760.405	28885.22
760.743	28822.17
761.08	28889.06
761.417	28538.56
761.754	28576.75
762.091	28540.37
762.428	28475.73
762.765	28216.08
763.102	28188.96
763.438	28172.92
763.775	28082.07
764.112	27939.48
764.449	28004.33
764.785	27824
765.122	27805.92
765.458	27674.85
765.795	27485.25
766.131	27547.17
766.467	27343.56
766.804	27221.76
767.14	27143.79
767.476	27171.14
767.812	26993.06
768.148	26878.71
768.485	26715.1
768.821	26619.29
769.157	26719.62
769.492	26550.81
769.828	26565.95
770.164	26374.32
770.5	26231.27
770.836	26241.44
771.171	25974.11
771.507	26037.15
771.842	25749.7
772.178	25741.12
772.513	25664.06
772.849	25568.92
773.184	25490.05
773.519	25477.85
773.855	25300.9
774.19	25312.65
774.525	25220.23
774.86	25186.78
775.195	25038.31
775.53	24984.3
775.865	24874.25
776.2	24672.67
776.535	24549.74
776.87	24615.04
777.205	24353.58
777.539	24276.75
777.874	24341.83
778.209	24062.97
778.543	24006.7
778.878	23918.57
779.212	23953.14
779.547	23798.8
779.881	23822.3
780.215	23608.29
780.55	23636.09
780.884	23624.56
781.218	23474.96
781.552	23427.28
781.886	23338.92
782.22	23158.36
782.554	23076.78
782.888	22905.94
783.222	22785.49
783.556	22801.99
783.889	22638.15
784.223	22537.36
784.557	22449.9
784.89	22567.87
785.224	22381.88
785.557	22230.25
785.891	22234.09
786.224	22224.6
786.558	22094.21
786.891	21966.3
787.224	21747.1
787.557	21744.84
787.891	21768.79
788.224	21609.02
788.557	21601.56
788.89	21649.02
789.223	21544.62
789.556	21451.29
789.888	21430.04
790.221	21268.01
790.554	21091.3
790.887	21184.4
791.219	21001.13
791.552	20921.81
791.884	20830.96
792.217	20852.43
792.549	20769.95
792.882	20494.25
793.214	20462.84
793.546	20595.94
793.879	20376.29
794.211	20291.54
794.543	20400.01
794.875	20195.05
795.207	20287.7
795.539	19991.44
795.871	20116.41
796.203	19913.47
796.535	19757.77
796.867	19808.39
797.198	19622.63
797.53	19754.83
797.862	19572.47
798.193	19632.13
798.525	19443.66
798.856	19568.17
799.188	19274.39
799.519	19238.69
799.85	19087.73
800.182	19124.34
800.513	19143.78
800.844	18924.57
801.175	19019.03
801.506	18953.5
801.837	18871.02
802.168	18852.26
802.499	18676.67
802.83	18532.72
803.161	18531.36
803.491	18643.9
803.822	18525.94
804.153	18384.7
804.483	18269.9
804.814	18217.02
805.145	18318.04
805.475	18294.08
805.805	18219.73
806.136	18159.17
806.466	18164.59
806.796	18062.9
807.126	17942
807.457	17846.18
807.787	17953.3
808.117	17930.25
808.447	17776.58
808.777	17753.08
809.107	17635.79
809.436	17605.29
809.766	17588.79
810.096	17474.44
810.426	17487.77
810.755	17445.52
811.085	17398.29
811.414	17329.81
811.744	17231.28
812.073	17225.41
812.403	17207.33
812.732	17175.24
813.061	17095.02
813.39	16990.39
813.719	17050.5
814.049	17090.04
814.378	17054.57
814.707	16865.19
815.036	16849.37
815.365	16801.69
815.693	16599.21
816.022	16690.51
816.351	16585.88
816.68	16408.48
817.008	16640.57
817.337	16423.4
817.665	16451.42
817.994	16389.95
818.322	16420.01
818.651	16326.45
818.979	16232.21
819.307	16268.6
819.636	16250.29
819.964	16090.75
820.292	16202.61
820.62	16155.83
820.948	16089.85
821.276	16241.71
821.604	16141.37
821.932	16179.33
822.259	16086.91
822.587	16013.24
822.915	16009.17
823.243	16057.53
823.57	15995.61
823.898	16004.88
824.225	16033.58
824.553	15952.22
824.88	15967.81
825.207	15949.06
825.535	15947.25
825.862	16026.8
826.189	15931.66
826.516	15947.02
826.843	16028.15
827.17	15932.11
827.497	16015.72
827.824	15942.5
828.151	16014.37
828.478	15980.7
828.805	16117.87
829.131	15923.07
829.458	15984.31
829.785	15843.75
830.111	15864.99
830.438	16020.69
830.764	15899.57
831.09	15940.47
831.417	15838.55
831.743	15968.27
832.069	15884.2
832.395	15775.28
832.722	15823.64
833.048	15735.28
833.374	15814.37
833.7	15657.99
834.026	15746.35
834.351	15768.05
834.677	15768.5
835.003	15763.75
835.329	15745.9
835.654	15679.23
835.98	15660.03
836.306	15667.26
836.631	15558.79
836.956	15680.14
837.282	15661.16
837.607	15577.54
837.932	15553.14
838.258	15537.09
838.583	15515.4
838.908	15425.46
839.233	15398.56
839.558	15364.89
839.883	15303.88
840.208	15228.63
840.533	15287.38
840.858	15243.54
841.182	15301.39
841.507	15361.05
841.832	15191.11
842.156	15108.85
842.481	15105.92
842.805	15026.14
843.13	15004.45
843.454	14925.13
843.778	14824.12
844.103	14898.69
844.427	14844.91
844.751	14851.23
845.075	14862.76
845.399	14681.29
845.723	14597.68
846.047	14622.99
846.371	14515.42
846.695	14495.76
847.019	14397.23
847.343	14352.49
847.666	14321.08
847.99	14199.95
848.313	14272.49
848.637	14152.72
848.96	14095.77
849.284	13986.4
849.607	13973.52
849.931	13935.78
850.254	13848.55
850.577	13800.64
850.9	13677.71
851.223	13707.08
851.546	13625.96
851.869	13526.3
852.192	13624.15
852.515	13397.49
852.838	13381.22
853.161	13348
853.483	13336.47
853.806	13306.42
854.129	13240.43
854.451	13183.93
854.774	13126.99
855.096	13093.54
855.419	13052.19
855.741	12996.82
856.063	13027.55
856.385	12955.92
856.708	12943.94
857.03	12802.7
857.352	12852.42
857.674	12769.93
857.996	12723.61
858.318	12639.54
858.64	12751.85
858.961	12573.1
859.283	12606.32
859.605	12616.72
859.926	12596.15
860.248	12520.22
860.57	12419.89
860.891	12396.16
861.212	12418.08
861.534	12402.48
861.855	12297.4
862.176	12339.89
862.498	12330.17
862.819	12272.54
863.14	12218.31
863.461	12211.53
863.782	12206.11
864.103	12222.6
864.424	12097.63
864.745	12103.06
865.065	12012.21
865.386	12034.36
865.707	11983.74
866.027	12074.13
866.348	11875.94
866.668	11995.94
866.989	11899.67
867.309	11761.6
867.63	11862.84
867.95	11826.68
868.27	11767.7
868.59	11787.36
868.91	11757.08
869.23	11821.93
869.55	11702.16
869.87	11767.7
870.19	11746
870.51	11657.19
870.83	11772.22
871.15	11566.35
871.469	11598.21
871.789	11663.3
872.109	11604.31
872.428	11544.88
872.748	11505.11
873.067	11492
873.386	11478.22
873.706	11481.15
874.025	11452.68
874.344	11415.62
874.663	11431.66
874.982	11361.61
875.301	11331.33
875.62	11259.69
875.939	11344.66
876.258	11349.18
876.577	11200.26
876.896	11207.94
877.214	11231.67
877.533	11230.54
877.852	11167.49
878.17	11216.53
878.489	11196.64
878.807	11266.02
879.125	11163.87
879.444	11172.91
879.762	11160.26
880.08	11143.31
880.398	11052.46
880.716	11059.92
881.034	11109.19
881.352	11052.46
881.67	10960.71
881.988	10958
882.306	10965.69
882.624	10879.36
882.941	10896.99
883.259	10785.8
883.577	10822.41
883.894	10866.25
884.212	10778.8
884.529	10778.35
884.846	10719.37
885.164	10641.63
885.481	10722.75
885.798	10692.47
886.115	10553.95
886.432	10595.98
886.75	10588.97
887.067	10558.47
887.383	10525.02
887.7	10529.77
888.017	10492.93
888.334	10495.87
888.651	10454.06
888.967	10402.99
889.284	10356.66
889.6	10287.51
889.917	10266.27
890.233	10324.12
890.55	10191.7
890.866	10200.28
891.182	10172.94
891.498	10141.75
891.815	10161.41
892.131	10081.19
892.447	10052.04
892.763	9934.3
893.079	10064.24
893.395	9964.13
893.71	10020.4
894.026	9993.73
894.342	9940.4
894.657	9868.54
894.973	9783.12
895.289	9826.28
895.604	9821.31
895.92	9687.75
896.235	9641.65
896.55	9654.53
896.865	9581.32
897.181	9604.14
897.496	9642.56
897.811	9518.27
898.126	9493.63
898.441	9519.4
898.756	9460.87
899.071	9467.19
899.386	9331.83
899.7	9322.34
900.015	9311.94
900.33	9263.58
900.644	9243.25
900.959	9231.27
901.273	9171.38
901.588	9139.07
901.902	9151.72
902.216	9132.51
902.531	9074.66
902.845	9049.58
903.159	9027.66
903.473	8952.86
903.787	8935.01
904.101	8805.07
904.415	8867.21
904.729	8748.34
905.042	8678.74
905.356	8740.21
905.67	8714.67
905.984	8653.88
906.297	8650.04
906.611	8589.7
906.924	8553.09
907.237	8587.22
907.551	8470.61
907.864	8392.65
908.177	8423.61
908.491	8418.41
908.804	8359.88
909.117	8354.91
909.43	8325.3
909.743	8292.54
910.056	8226.55
910.368	8212.76
910.681	8191.97
910.994	8193.78
911.307	8078.98
911.619	8021.81
911.932	8046.44
912.244	8001.47
912.557	7965.54
912.869	7963.96
913.181	7923.96
913.494	7944.75
913.806	7823.4
914.118	7834.24
914.43	7779.33
914.742	7748.82
915.054	7676.96
915.366	7655.49
915.678	7634.25
915.99	7635.38
916.302	7608.71
916.613	7544.99
916.925	7549.05
917.236	7408.04
917.548	7453.46
917.859	7413.24
918.171	7413.92
918.482	7403.29
918.794	7349.74
919.105	7321.49
919.416	7253.69
919.727	7269.51
920.038	7206.69
920.349	7139.57
920.66	7106.58
920.971	7095.96
921.282	7069.07
921.593	7073.13
921.903	6981.84
922.214	6964.21
922.525	6957.66
922.835	6966.02
923.146	6808.06
923.456	6847.83
923.767	6831.78
924.077	6825
924.387	6832.91
924.697	6756.53
925.008	6712.46
925.318	6747.72
925.628	6693.71
925.938	6724.89
926.248	6613.03
926.558	6580.72
926.867	6530.77
927.177	6522.87
927.487	6423.88
927.796	6410.55
928.106	6426.82
928.416	6385.69
928.725	6379.14
929.034	6337.33
929.344	6356.99
929.653	6330.1
929.962	6271.12
930.271	6262.31
930.581	6249.2
930.89	6192.93
931.199	6103.22
931.508	6176.21
931.817	6207.17
932.125	6177.56
932.434	6119.03
932.743	6064.12
933.051	6044.01
933.36	6012.37
933.669	5948.42
933.977	5948.42
934.286	5940.96
934.594	5898.93
934.902	5843.56
935.21	5844.92
935.519	5850.34
935.827	5832.04
936.135	5771.7
936.443	5651.48
936.751	5707.97
937.059	5670.91
937.367	5680.18
937.674	5651.7
937.982	5633.62
938.29	5522.67
938.597	5567.86
938.905	5507.75
939.213	5522.21
939.52	5536.22
939.827	5487.41
940.135	5420.3
940.442	5417.13
940.749	5431.82
941.056	5427.98
941.363	5375.32
941.67	5285.16
941.977	5322.44
942.284	5260.07
942.591	5271.37
942.898	5232.73
943.205	5206.06
943.511	5212.17
943.818	5189.34
944.125	5140.3
944.431	5125.39
944.738	5140.75
945.044	5085.16
945.35	5095.11
945.657	5002.91
945.963	5034.77
946.269	4957.93
946.575	4999.06
946.881	4941.89
947.187	4957.26
947.493	4882.91
947.799	4886.98
948.105	4917.48
948.41	4906.18
948.716	4876.35
949.022	4795.68
949.327	4826.19
949.633	4766.53
949.938	4747.09
950.244	4774.89
950.549	4712.07
950.854	4654.44
951.16	4712.97
951.465	4677.49
951.77	4621.22
952.075	4613.54
952.38	4600.88
952.685	4575.35
952.99	4565.85
953.294	4525.63
953.599	4534.67
953.904	4492.64
954.209	4462.58
954.513	4477.72
954.818	4420.55
955.122	4432.98
955.426	4399.08
955.731	4351.62
956.035	4342.81
956.339	4326.09
956.643	4328.57
956.948	4293.77
957.252	4305.52
957.556	4229.37
957.86	4232.53
958.163	4273.88
958.467	4211.97
958.771	4197.73
959.075	4200.67
959.378	4178.07
959.682	4164.96
959.985	4093.1
960.289	4110.95
960.592	4032.31
960.896	4061.46
961.199	4019.2
961.502	4026.66
961.805	4027.11
962.108	3963.61
962.411	3959.32
962.714	3945.31
963.017	3966.55
963.32	3944.18
963.623	3905.98
963.926	3924.52
964.228	3835.48
964.531	3872.99
964.833	3821.69
965.136	3809.72
965.438	3771.98
965.741	3767.46
966.043	3786.89
966.345	3758.19
966.648	3715.03
966.95	3737.4
967.252	3713.9
967.554	3677.97
967.856	3644.97
968.158	3626.22
968.46	3629.61
968.761	3593
969.063	3611.53
969.365	3587.12
969.666	3553
969.968	3556.16
970.269	3554.13
970.571	3497.63
970.872	3509.61
971.174	3502.15
971.475	3477.52
971.776	3484.53
972.077	3427.35
972.378	3430.29
972.679	3404.3
972.98	3417.86
973.281	3403.17
973.582	3380.8
973.883	3363.4
974.183	3334.93
974.484	3344.19
974.785	3300.58
975.085	3302.38
975.386	3318.2
975.686	3256.96
975.986	3245.89
976.287	3247.47
976.587	3214.48
976.887	3205.21
977.187	3193.69
977.487	3193.01
977.787	3224.65
978.087	3142.62
978.387	3155.27
978.687	3160.69
978.987	3139.45
979.286	3108.72
979.586	3096.29
979.885	3017.19
980.185	3080.47
980.484	3060.36
980.784	3029.4
981.083	3033.47
981.382	3018.1
981.682	2990.53
981.981	2970.87
982.28	2939.23
982.579	2943.98
982.878	2954.6
983.177	2928.16
983.475	2879.8
983.774	2931.32
984.073	2863.75
984.372	2850.42
984.67	2844.54
984.969	2858.33
985.267	2831.66
985.566	2817.88
985.864	2778.1
986.162	2823.98
986.461	2784.21
986.759	2779.69
987.057	2757.54
987.355	2717.99
987.653	2741.5
987.951	2731.33
988.249	2676.86
988.547	2724.55
988.844	2664.44
989.142	2698.11
989.44	2649.75
989.737	2619.69
990.035	2633.02
990.332	2641.84
990.63	2629.18
990.927	2579.69
991.224	2583.31
991.521	2594.61
991.819	2571.33
992.116	2546.25
992.413	2561.84
992.71	2525.91
993.006	2517.09
993.303	2504.44
993.6	2489.75
993.897	2508.51
994.193	2508.51
994.49	2470.77
994.787	2416.53
995.083	2439.36
995.379	2418.34
995.676	2420.6
995.972	2404.1
996.268	2366.82
996.565	2337.89
996.861	2349.87
997.157	2341.05
997.453	2304.9
997.749	2348.51
998.044	2308.29
998.34	2308.29
998.636	2293.15
998.932	2298.8
999.227	2251.34
999.523	2280.72
999.818	2226.71
1000.114	2224.9
1000.409	2221.28
1000.704	2233.49
1001	2167.5
1001.295	2193.94
1001.59	2182.87
1001.885	2192.81
1002.18	2154.39
1002.475	2145.81
1002.77	2121.85
1003.065	2126.37
1003.359	2104.68
1003.654	2082.53
1003.949	2082.08
1004.243	2077.11
1004.538	2035.75
1004.832	2067.39
1005.127	2052.47
1005.421	2035.07
1005.715	2032.36
1006.009	1996.88
1006.304	1996.43
1006.598	1992.81
1006.892	1959.82
1007.186	1927.05
1007.48	1943.32
1007.773	1953.49
1008.067	1906.72
1008.361	1889.99
1008.655	1897.9
1008.948	1908.07
1009.242	1877.79
1009.535	1869.2
1009.829	1863.33
1010.122	1807.73
1010.415	1838.92
1010.708	1831.24
1011.001	1838.24
1011.295	1828.3
1011.588	1800.73
1011.881	1775.87
1012.173	1779.49
1012.466	1766.15
1012.759	1752.37
1013.052	1735.65
1013.344	1741.3
1013.637	1735.19
1013.93	1707.17
1014.222	1709.21
1014.514	1714.63
1014.807	1696.55
1015.099	1677.12
1015.391	1676.21
1015.683	1646.38
1015.976	1647.97
1016.268	1641.41
1016.56	1631.92
1016.851	1590.34
1017.143	1612.94
1017.435	1583.79
1017.727	1588.76
1018.018	1579.72
1018.31	1577.23
1018.602	1536.1
1018.893	1567.97
1019.185	1543.34
1019.476	1524.8
1019.767	1535.65
1020.058	1507.18
1020.35	1511.25
1020.641	1473.73
1020.932	1496.1
1021.223	1455.88
1021.514	1453.85
1021.804	1441.64
1022.095	1475.54
1022.386	1421.08
1022.677	1435.32
1022.967	1416.78
1023.258	1399.38
1023.548	1422.21
1023.839	1360.06
1024.129	1398.48
1024.419	1366.84
1024.709	1375.43
1025	1369.55
1025.29	1338.59
1025.58	1318.26
1025.87	1337.24
1026.16	1317.13
1026.449	1306.96
1026.739	1305.6
1027.029	1306.05
1027.319	1266.51
1027.608	1295.43
1027.898	1266.73
1028.187	1252.5
1028.477	1222.67
1028.766	1246.17
1029.055	1228.32
1029.344	1217.47
1029.634	1220.18
1029.923	1187.19
1030.212	1158.03
1030.501	1217.92
1030.79	1156.68
1031.078	1161.42
1031.367	1180.41
1031.656	1165.72
1031.945	1156.68
1032.233	1149
1032.522	1160.29
1032.81	1123.01
1033.099	1159.16
1033.387	1123.23
1033.675	1113.29
1033.963	1124.59
1034.251	1097.7
1034.54	1076.91
1034.828	1054.76
1035.116	1060.86
1035.403	1061.31
1035.691	1045.5
1035.979	1061.31
1036.267	1038.49
1036.554	1072.16
1036.842	1042.56
1037.129	1050.47
1037.417	1030.58
1037.704	1025.83
1037.992	1001.43
1038.279	1011.6
1038.566	981.77
1038.853	981.77
1039.14	981.77
