Data from breadboard_white_FLMS001491_00003.txt Node
Date: Wed Feb 08 10:47:09 GMT 2017
User: dcchb
Spectrometer: FLMS00149
Trigger mode: 0
Integration Time (sec): 2.000000E-2
Scans to average: 10
Electric dark correction enabled: true
Nonlinearity correction enabled: false
Boxcar width: 0
XAxis mode: Wavelengths
Number of Pixels in Spectrum: 2048
>>>>>Begin Spectral Data<<<<<
341.393	-3.98
341.776	-3.98
342.16	-3.98
342.543	-56.41
342.927	-88.73
343.31	-66.35
343.693	-65
344.077	-51.21
344.46	-52.57
344.843	-61.16
345.226	-35.85
345.61	-27.49
345.993	-43.3
346.376	-9.18
346.759	-6.24
347.142	41.21
347.525	32.85
347.908	81.44
348.291	87.31
348.674	87.31
349.057	88.22
349.44	121.21
349.823	142.23
350.206	178.16
350.588	213.19
350.971	211.83
351.354	236.24
351.737	256.58
352.119	271.94
352.502	277.82
352.884	294.31
353.267	299.74
353.65	302.22
354.032	318.72
354.414	323.69
354.797	334.77
355.179	345.16
355.562	337.03
355.944	363.69
356.326	341.09
356.709	346.06
357.091	362.11
357.473	363.24
357.855	351.04
358.238	355.78
358.62	350.58
359.002	352.62
359.384	351.49
359.766	350.36
360.148	373.18
360.53	359.17
360.912	374.99
361.294	332.28
361.676	361.21
362.057	370.47
362.439	351.94
362.821	352.39
363.203	360.98
363.584	349.45
363.966	341.32
364.348	347.42
364.729	342.9
365.111	330.7
365.493	331.83
365.874	337.48
366.256	368.21
366.637	369.57
367.019	355.56
367.4	350.36
367.781	343.13
368.163	339.06
368.544	342.22
368.925	373.63
369.306	356.69
369.688	343.58
370.069	330.47
370.45	346.97
370.831	330.92
371.212	339.06
371.593	355.1
371.974	343.58
372.355	353.52
372.736	351.49
373.117	341.77
373.498	366.18
373.879	355.78
374.26	340.19
374.641	352.84
375.021	364.82
375.402	362.79
375.783	361.21
376.163	391.03
376.544	377.02
376.925	353.3
377.305	382
377.686	364.14
378.066	372.73
378.447	391.94
378.827	394.65
379.208	393.07
379.588	388.1
379.968	375.89
380.349	387.19
380.729	392.62
381.109	393.07
381.489	405.27
381.87	378.15
382.25	408.66
382.63	409.11
383.01	414.09
383.39	414.76
383.77	409.34
384.15	414.99
384.53	413.86
384.91	415.89
385.29	415.44
385.67	417.93
386.049	441.2
386.429	434.2
386.809	441.88
387.189	433.97
387.568	452.73
387.948	480.52
388.328	457.02
388.707	461.32
389.087	454.08
389.466	469.9
389.846	458.15
390.225	475.78
390.605	469.68
390.984	474.2
391.363	509.9
391.743	492.73
392.122	493.18
392.501	496.57
392.881	518.72
393.26	525.27
393.639	532.73
394.018	521.43
394.397	539.96
394.776	551.48
395.155	549.9
395.534	544.03
395.913	540.41
396.292	568.21
396.671	585.15
397.05	589.22
397.429	598.49
397.808	610.69
398.186	621.76
398.565	596.45
398.944	629.22
399.323	648.2
399.701	649.11
400.08	664.25
400.458	669.22
400.837	668.99
401.215	678.94
401.594	696.34
401.972	693.63
402.351	705.83
402.729	758.93
403.107	748.99
403.486	742.89
403.864	738.37
404.242	796
404.62	800.06
404.999	804.81
405.377	821.53
405.755	839.61
406.133	845.71
406.511	866.28
406.889	867.41
407.267	908.31
407.645	925.26
408.023	927.52
408.401	943.34
408.779	965.94
409.156	961.19
409.534	1017.91
409.912	1012.71
410.29	1026.95
410.667	1055.88
411.045	1097.91
411.422	1097.46
411.8	1134.29
412.178	1168.87
412.555	1205.7
412.933	1201.86
413.31	1226.04
413.687	1231.24
414.065	1250.67
414.442	1280.05
414.819	1288.86
415.197	1299.03
415.574	1345.13
415.951	1373.61
416.328	1405.47
416.705	1412.03
417.082	1413.61
417.46	1424.23
417.837	1450.67
418.214	1459.48
418.591	1509.65
418.967	1523.43
419.344	1526.37
419.721	1576.31
420.098	1569.31
420.475	1593.49
420.852	1629.42
421.228	1637.1
421.605	1646.6
421.982	1675.52
422.358	1689.76
422.735	1729.76
423.111	1735.63
423.488	1748.51
423.864	1788.74
424.241	1809.75
424.617	1821.51
424.994	1842.52
425.37	1884.78
425.746	1882.52
426.123	1911.9
426.499	1943.54
426.875	1965
427.251	1998
427.627	2069.41
428.003	2050.2
428.379	2066.47
428.756	2113.48
429.132	2136.07
429.507	2158.9
429.883	2186.24
430.259	2221.27
430.635	2291.1
431.011	2266.47
431.387	2336.07
431.763	2354.6
432.138	2400.47
432.514	2456.29
432.89	2461.94
433.265	2475.73
433.641	2510.08
434.016	2541.26
434.392	2593.91
434.767	2649.28
435.143	2657.19
435.518	2669.85
435.894	2723.18
436.269	2747.58
436.644	2804.08
437.02	2816.73
437.395	2837.3
437.77	2874.59
438.145	2912.78
438.52	2982.15
438.895	2986.67
439.271	2960.46
439.646	3062.83
440.021	3091.53
440.395	3108.25
440.77	3106.67
441.145	3101.92
441.52	3149.83
441.895	3183.5
442.27	3238.42
442.645	3228.02
443.019	3306.44
443.394	3282.71
443.769	3308.7
444.143	3298.98
444.518	3342.14
444.892	3366.55
445.267	3386.44
445.641	3437.28
446.016	3460.56
446.39	3507.34
446.764	3512.31
447.139	3528.81
447.513	3549.82
447.887	3567.45
448.262	3581.69
448.636	3617.84
449.01	3666.2
449.384	3672.98
449.758	3734.9
450.132	3781.91
450.506	3763.38
450.88	3844.73
451.254	3872.3
451.628	3911.17
452.002	3950.72
452.376	3970.6
452.75	4018.51
453.123	4036.81
453.497	4130.15
453.871	4117.04
454.244	4199.97
454.618	4235.45
454.992	4293.98
455.365	4335.56
455.739	4425.05
456.112	4494.2
456.486	4535.33
456.859	4566.74
457.232	4661.66
457.606	4606.29
457.979	4705.72
458.352	4811.03
458.725	4813.29
459.099	4909.11
459.472	5014.42
459.845	5021.2
460.218	5066.17
460.591	5142.55
460.964	5129.89
461.337	5249.21
461.71	5330.34
462.083	5439.26
462.456	5424.8
462.829	5540.5
463.201	5562.42
463.574	5659.37
463.947	5664.12
464.32	5794.96
464.692	5853.26
465.065	5912.25
465.438	5944.34
465.81	6062.52
466.183	6115.63
466.555	6269.75
466.928	6302.52
467.3	6292.57
467.672	6388.39
468.045	6575.96
468.417	6598.78
468.789	6697.31
469.161	6686.46
469.534	6853.92
469.906	6958.09
470.278	7066.11
470.65	7197.64
471.022	7284.64
471.394	7410.51
471.766	7503.39
472.138	7566.44
472.51	7747.68
472.882	7809.82
473.253	7983.83
473.625	8039.2
473.997	8295.23
474.369	8219.3
474.74	8357.61
475.112	8506.3
475.484	8719.4
475.855	8847.76
476.227	8904.94
476.598	9198.49
476.97	9301.99
477.341	9481.42
477.713	9571.81
478.084	9533.17
478.455	9912.37
478.827	9965.92
479.198	10347.38
479.569	10258.57
479.94	10567.04
480.311	10753.25
480.682	10887.71
481.053	11167.02
481.424	11352.1
481.795	11467.13
482.166	11681.36
482.537	11816.5
482.908	12005.64
483.279	12126.09
483.65	12338.74
484.021	12646.08
484.391	12801.78
484.762	12861.89
485.133	12987.54
485.503	13232.28
485.874	13484.7
486.244	13593.85
486.615	13871.36
486.985	14053.27
487.356	14289.43
487.726	14384.11
488.097	14734.84
488.467	14765.12
488.837	15079.24
489.207	15183.41
489.578	15494.14
489.948	15635.15
490.318	15894.58
490.688	15906.11
491.058	16123.05
491.428	16398.07
491.798	16514.9
492.168	16810.72
492.538	16892.97
492.908	17154.89
493.278	17353.75
493.648	17324.37
494.017	17665.38
494.387	17683.69
494.757	17947.41
495.126	18160.29
495.496	18139.95
495.866	18306.5
496.235	18624.91
496.605	18728.63
496.974	18843.21
497.344	18965.46
497.713	19204.78
498.082	19248.62
498.452	19464.88
498.821	19575.62
499.19	19667.82
499.559	19790.52
499.928	19886.79
500.298	20141.48
500.667	20248.82
501.036	20216.28
501.405	20487.68
501.774	20566.78
502.143	20835.24
502.512	20820.55
502.88	21066.65
503.249	21061
503.618	21306.64
503.987	21385.74
504.356	21572.62
504.724	21640.19
505.093	21656.01
505.462	21878.83
505.83	22064.59
506.199	22175.55
506.567	22427.29
506.936	22445.6
507.304	22810.33
507.672	22865.92
508.041	22972.59
508.409	23167.61
508.777	23416.19
509.145	23531.9
509.514	23506.13
509.882	23836.75
510.25	23734.6
510.618	24044.2
510.986	24087.81
511.354	24368.26
511.722	24626.33
512.09	24731.41
512.458	24775.7
512.826	25064.51
513.193	25215.92
513.561	25361.68
513.929	25517.83
514.297	25688.45
514.664	25851.61
515.032	25955.33
515.4	26226.74
515.767	26467.19
516.135	26525.71
516.502	26377.7
516.869	26880.28
517.237	27011.35
517.604	26992.14
517.972	27229.2
518.339	27555.07
518.706	27586.7
519.073	27828.51
519.44	27909.18
519.808	28345.78
520.175	28261.71
520.542	28722.49
520.909	28821.47
521.276	28924.3
521.643	29258.52
522.009	29426.88
522.376	29639.08
522.743	29789.36
523.11	30125.62
523.477	30412.62
523.843	30430.25
524.21	30762.89
524.577	31006.95
524.943	31238.36
525.31	31455.08
525.676	31703.21
526.043	31876.53
526.409	32038.34
526.776	32378.89
527.142	32510.19
527.508	32601.71
527.874	32768.94
528.241	33112.43
528.607	33262.49
528.973	33516.94
529.339	33551.97
529.705	33897.27
530.071	34104.5
530.437	34188.11
530.803	34472.4
531.169	34573.86
531.535	34674.43
531.901	34871.26
532.267	34992.39
532.632	35281.64
532.998	35435.76
533.364	35564.35
533.73	35631.24
534.095	36001.17
534.461	36003.21
534.826	36199.13
535.192	36220.38
535.557	36535.17
535.923	36489.75
536.288	36674.37
536.653	37041.6
537.019	36868.04
537.384	37177.41
537.749	37223.51
538.114	37437.52
538.479	37434.58
538.845	37627.12
539.21	37515.48
539.575	37885.87
539.94	37948.01
540.305	38026.43
540.67	38103.49
541.034	38330.15
541.399	38428.45
541.764	38536.92
542.129	38808.33
542.494	38756.35
542.858	38964.03
543.223	38905.5
543.587	39169.45
543.952	39135.1
544.316	39340.97
544.681	39380.74
545.045	39606.5
545.41	39726.72
545.774	39782.09
546.138	39957.23
546.503	40015.98
546.867	40118.58
547.231	40506.59
547.595	40429.76
547.959	40509.08
548.324	40615.51
548.688	40701.84
549.052	40800.82
549.416	41024.54
549.779	40975.96
550.143	41174.82
550.507	41515.38
550.871	41577.97
551.235	41461.37
551.599	41846.44
551.962	41861.13
552.326	41978.19
552.689	42243.95
553.053	42014.12
553.417	42271.97
553.78	42759.86
554.143	42725.06
554.507	42827.66
554.87	42988.33
555.234	43325.5
555.597	43134.77
555.96	43367.76
556.323	43467.19
556.686	43618.6
557.05	44019.72
557.413	44046.16
557.776	44266.04
558.139	44409.31
558.502	44441.63
558.865	44569.99
559.228	44904.44
559.59	44948.51
559.953	45126.58
560.316	45465.56
560.679	45537.42
561.041	45690.18
561.404	45824.64
561.767	46164.29
562.129	46039.78
562.492	46464.4
562.854	46425.98
563.217	46531.29
563.579	46799.76
563.941	46932.64
564.304	47136.02
564.666	47365.17
565.028	47407.65
565.39	47553.86
565.753	47742.56
566.115	47928.54
566.477	48032.49
566.839	48160.63
567.201	48434.52
567.563	48351.36
567.925	48707.05
568.287	48674.06
568.648	48698.24
569.01	48833.83
569.372	49170.77
569.734	49166.93
570.095	49408.05
570.457	49514.26
570.819	49606.24
571.18	49582.96
571.542	49800.58
571.903	49866.57
572.265	49941.6
572.626	50146.79
572.987	50099.33
573.349	50267.24
573.71	50342.49
574.071	50433.11
574.432	50521.92
574.794	50671.97
575.155	50818.18
575.516	50641.47
575.877	50816.6
576.238	50952.64
576.599	50952.42
576.96	50988.57
577.32	51089.14
577.681	51226.99
578.042	51271.96
578.403	51328.68
578.763	51237.83
579.124	51296.14
579.485	51501.1
579.845	51436.25
580.206	51494.32
580.566	51513.53
580.927	51557.83
581.287	51714.43
581.648	51446.64
582.008	51766.41
582.368	51626.3
582.728	51700.65
583.089	51604.38
583.449	51599.18
583.809	51735
584.169	51802.11
584.529	51766.63
584.889	51944.03
585.249	51717.37
585.609	51619.97
585.969	51791.49
586.329	51695.67
586.688	51787.88
587.048	51727.54
587.408	51631.72
587.768	51654.09
588.127	51757.37
588.487	51677.82
588.846	51872.85
589.206	51596.69
589.565	51725.96
589.925	51848.66
590.284	51655
590.643	51742.68
591.003	51759.18
591.362	51805.05
591.721	51767.54
592.08	51845.05
592.44	51891.15
592.799	51864.94
593.158	51743.81
593.517	51929.11
593.876	51821.55
594.235	51794.2
594.593	51857.25
594.952	51927.76
595.311	51700.87
595.67	51841.66
596.029	52022.9
596.387	51973.18
596.746	52003.01
597.104	51939.96
597.463	51934.99
597.822	52083.69
598.18	51882.79
598.538	51916.23
598.897	52077.59
599.255	51750.36
599.613	52295.43
599.972	52090.69
600.33	52067.42
600.688	51993.29
601.046	52106.96
601.404	52308.54
601.762	52206.85
602.12	52318.26
602.478	52270.12
602.836	52290.91
603.194	52165.94
603.552	52288.88
603.91	52184.93
604.268	52389.67
604.625	52235.32
604.983	52344.02
605.341	52264.47
605.698	52369.33
606.056	52515.77
606.413	52412.72
606.771	52457.01
607.128	52551.7
607.485	52392.15
607.843	52516.9
608.2	52624.69
608.557	52664.01
608.914	52596.44
609.272	52802.76
609.629	52688.87
609.986	52954.17
610.343	52686.84
610.7	52913.27
611.057	52812.48
611.414	52913.5
611.771	52946.49
612.127	52988.75
612.484	52873.72
612.841	53066.94
613.198	52849.09
613.554	52994.4
613.911	53160.04
614.267	53192.13
614.624	53131.12
614.98	53181.96
615.337	53266.03
615.693	53269.19
616.05	53135.41
616.406	53336.54
616.762	53256.76
617.118	53293.37
617.475	53222.87
617.831	53369.98
618.187	53355.97
618.543	53431.45
618.899	53539.02
619.255	53413.37
619.611	53514.61
619.967	53415.86
620.323	53523.88
620.678	53440.49
621.034	53386.93
621.39	53457.89
621.746	53345.8
622.101	53607.94
622.457	53428.28
622.812	53440.49
623.168	53599.13
623.523	53496.53
623.879	53652.69
624.234	53409.08
624.589	53581.5
624.945	53521.39
625.3	53633.02
625.655	53455.4
626.01	53451.33
626.365	53525.01
626.72	53500.37
627.075	53463.31
627.43	53442.97
627.785	53357.78
628.14	53405.69
628.495	53490.88
628.85	53418.57
629.205	53298.8
629.559	53464.89
629.914	53270.32
630.269	53290.43
630.623	53262.87
630.978	53169.31
631.332	53257.67
631.687	53329.3
632.041	53093.83
632.396	53217.44
632.75	53032.36
633.104	53064.9
633.459	52978.8
633.813	52960.27
634.167	52868.98
634.521	52841.18
634.875	52922.99
635.229	52798.7
635.583	52619.72
635.937	52621.98
636.291	52615.42
636.645	52731.81
636.999	52563.67
637.352	52639.6
637.706	52487.97
638.06	52537.01
638.413	52455.43
638.767	52346.28
639.121	52415.43
639.474	52304.47
639.828	52257.02
640.181	52349.67
640.534	52248.88
640.888	52168.43
641.241	52095.66
641.594	52091.82
641.947	52132.05
642.301	52065.16
642.654	52104.93
643.007	52019.06
643.36	51964.59
643.713	51796.46
644.066	52028.55
644.419	51765.73
644.771	51545.17
645.124	51164.84
645.477	51077.16
645.83	50855.02
646.182	50827.22
646.535	50607.57
646.888	50742.93
647.24	50554.01
647.593	50727.79
647.945	50632.43
648.298	50412.09
648.65	50455.48
649.002	50300.91
649.355	50494.12
649.707	50335.03
650.059	50465.65
650.411	50829.26
650.763	50944.06
651.115	51141.34
651.467	51081.23
651.819	51024.96
652.171	50921.91
652.523	50854.11
652.875	50870.39
653.227	50668.13
653.578	50890.72
653.93	50958.07
654.282	50689.15
654.633	50678.75
654.985	50709.26
655.337	50675.14
655.688	50537.96
656.039	50881.68
656.391	50368.48
656.742	50504.97
657.094	50476.5
657.445	50629.71
657.796	50525.76
658.147	50414.58
658.498	50404.18
658.849	50474.01
659.2	50369.38
659.551	50246.22
659.902	50362.15
660.253	50313.79
660.604	50306.78
660.955	50112.21
661.306	50301.36
661.656	50290.97
662.007	50221.59
662.358	50135.49
662.708	50133.91
663.059	50142.72
663.409	49814.82
663.76	50218.43
664.11	50036.28
664.461	50188.82
664.811	50044.87
665.161	50050.52
665.511	49961.03
665.862	49813.24
666.212	49999.45
666.562	50006.91
666.912	49900.47
667.262	49738.89
667.612	49850.98
667.962	49837.64
668.312	49691.66
668.662	49982.27
669.011	49820.24
669.361	49650.53
669.711	49759
670.06	49650.53
670.41	49673.35
670.76	49560.82
671.109	49726.69
671.459	49703.41
671.808	49586.58
672.157	49606.01
672.507	49359.46
672.856	49444.66
673.205	49378.9
673.554	49633.58
673.904	49282.63
674.253	49624.54
674.602	49456.19
674.951	48831.34
675.3	48837.44
675.649	49235.63
675.998	49196.53
676.346	49091.22
676.695	49281.05
677.044	48990.66
677.393	49160.6
677.741	49063.65
678.09	48984.11
678.438	48869.76
678.787	49004.45
679.135	48992.24
679.484	48706.37
679.832	48780.5
680.181	48509.77
680.529	48714.51
680.877	48548.86
681.225	48432.71
681.573	48799.25
681.922	48355.88
682.27	48367.63
682.618	48368.98
682.966	48291.7
683.314	48226.39
683.661	48061.42
684.009	47968.99
684.357	47866.85
684.705	47760.18
685.053	47928.77
685.4	47796.57
685.748	47539.17
686.095	47635.89
686.443	47369.91
686.79	47311.61
687.138	47366.97
687.485	47424.83
687.832	47196.58
688.18	47345.05
688.527	47070.94
688.874	47104.38
689.221	46974.67
689.568	46816.25
689.915	46645.86
690.262	46594.79
690.609	46556.37
690.956	46511.86
691.303	46503.27
691.65	46148.7
691.997	46082.94
692.344	45826.68
692.69	45817.86
693.037	45787.36
693.383	45539.9
693.73	45721.59
694.077	45427.82
694.423	45455.16
694.769	45154.83
695.116	45158.22
695.462	45117.54
695.808	44939.47
696.155	44932.01
696.501	44588.52
696.847	44713.03
697.193	44371.8
697.539	44566.14
697.885	44125.03
698.231	44201.18
698.577	44121.41
698.923	44025.14
699.269	43787.18
699.614	43555.78
699.96	43596
700.306	43655.21
700.651	43361.88
700.997	43194.88
701.342	43155.33
701.688	43024.49
702.033	42949.01
702.379	42901.78
702.724	42805.74
703.069	42806.87
703.415	42337.95
703.76	42357.39
704.105	42495.69
704.45	42255.92
704.795	42122.37
705.14	41979.55
705.485	41929.6
705.83	41693.9
706.175	41810.74
706.52	41676.5
706.865	41380.47
707.209	41470.63
707.554	41208.49
707.899	41395.83
708.243	41092.11
708.588	41137.53
708.932	40719.24
709.277	40785.45
709.621	40741.84
709.966	40514.95
710.31	40603.99
710.654	40111.12
710.998	40224.56
711.342	40307.05
711.687	40094.85
712.031	39896.44
712.375	39862.31
712.719	39790.45
713.063	39789.55
713.407	39907.06
713.75	39571.02
714.094	39599.72
714.438	39362.21
714.782	39514.98
715.125	39280.86
715.469	39344.36
715.812	39188.66
716.156	38893.75
716.499	38971.49
716.843	38888.1
717.186	38763.36
717.53	38807.43
717.873	38823.02
718.216	38705.96
718.559	38434.78
718.902	38340.09
719.246	38373.54
719.589	38228.46
719.932	38112.75
720.275	38114.34
720.617	38064.17
720.96	37998.86
721.303	37941.69
721.646	38095.58
721.989	37784.85
722.331	37810.39
722.674	37636.61
723.016	37587.35
723.359	37354.81
723.701	37395.71
724.044	37261.7
724.386	37037.53
724.729	37374.02
725.071	37091.31
725.413	37067.81
725.755	37091.31
726.097	36896.29
726.439	36700.14
726.782	36687.48
727.124	36644.09
727.465	36497.43
727.807	36593.02
728.149	36348.06
728.491	36364.1
728.833	36416.08
729.175	36146.48
729.516	36213.37
729.858	36185.8
730.199	36199.36
730.541	36168.85
730.882	36050.44
731.224	36174.73
731.565	35953.94
731.906	35777.45
732.248	35942.42
732.589	35642.31
732.93	35581.75
733.271	35512.37
733.612	35624.46
733.953	35564.8
734.294	35453.62
734.635	35370.23
734.976	35377.69
735.317	35148.31
735.658	35243.68
735.999	35098.14
736.339	34988.54
736.68	35234.64
737.021	34922.1
737.361	34858.83
737.702	35079.16
738.042	34769.34
738.383	34736.8
738.723	34794.2
739.063	34585.39
739.404	34595.56
739.744	34536.8
740.084	34284.38
740.424	34294.55
740.764	34381.1
741.104	34366.19
741.444	34135.68
741.784	34034.67
742.124	34076.93
742.464	34030.6
742.804	33932.75
743.143	33909.48
743.483	33914.22
743.823	33682.81
744.162	33548.36
744.502	33650.73
744.841	33537.96
745.181	33589.48
745.52	33399.66
745.86	33427.68
746.199	33391.3
746.538	33332.32
746.877	33401.69
747.216	33157.63
747.556	33093.68
747.895	33117.63
748.234	33060.46
748.573	33017.3
748.911	32902.72
749.25	32908.15
749.589	32705.89
749.928	32749.96
750.267	32742.73
750.605	32679
750.944	32445.79
751.283	32420.7
751.621	32485.33
751.96	32115.17
752.298	32322.85
752.636	32301.83
752.975	32033.14
753.313	31787.5
753.651	31943.65
753.989	31809.19
754.327	31793.15
754.666	31622.98
755.004	31653.72
755.342	31610.55
755.679	31456.66
756.017	31369.88
756.355	31411.69
756.693	31127.63
757.031	31276.78
757.368	31128.98
757.706	30986.16
758.044	30867.07
758.381	30903.9
758.719	30768.54
759.056	30790.69
759.394	30639.73
759.731	30371.72
760.068	30402.22
760.405	30380.75
760.743	30198.61
761.08	30185.96
761.417	30098.28
761.754	30023.25
762.091	29886.76
762.428	29767.21
762.765	29573.32
763.102	29750.04
763.438	29448.12
763.775	29355.47
764.112	29440.89
764.449	29353.66
764.785	29131.07
765.122	29004.75
765.458	28860.34
765.795	28826.22
766.131	28801.14
766.467	28714.58
766.804	28545.77
767.14	28448.83
767.476	28407.47
767.812	28253.58
768.148	28134.71
768.485	28104.66
768.821	27815.17
769.157	27758.68
769.492	27843.65
769.828	27753.48
770.164	27468.29
770.5	27477.33
770.836	27267.84
771.171	27174.74
771.507	27193.27
771.842	26919.83
772.178	26902.88
772.513	26859.72
772.849	26739.27
773.184	26626.28
773.519	26652.04
773.855	26551.7
774.19	26328.88
774.525	26315.78
774.86	26203.69
775.195	26241.65
775.53	26050.7
775.865	25902.45
776.2	25708.56
776.535	25631.73
776.87	25496.82
777.205	25493.2
777.539	25381.11
777.874	25379.3
778.209	25158.75
778.543	25051.18
778.878	24939.09
779.212	24921.69
779.547	24812.09
779.881	24815.03
780.215	24625.43
780.55	24736.84
780.884	24437.86
781.218	24469.27
781.552	24467.46
781.886	24300.24
782.22	24063.41
782.554	24001.04
782.888	23889.17
783.222	23731.89
783.556	23617.54
783.889	23620.03
784.223	23464.33
784.557	23398.34
784.89	23495.96
785.224	23362.86
785.557	23100.72
785.891	23098.91
786.224	22983.66
786.558	22912.48
786.891	22761.29
787.224	22777.79
787.557	22719.49
787.891	22601.52
788.224	22501.19
788.557	22432.94
788.89	22441.3
789.223	22394.98
789.556	22184.59
789.888	22103.68
790.221	22052.84
790.554	21963.8
790.887	21978.26
791.219	21745.95
791.552	21787.76
791.884	21646.3
792.217	21534.89
792.549	21529.46
792.882	21410.6
793.214	21165.63
793.546	21351.61
793.879	21056.25
794.211	20999.98
794.543	21087.89
794.875	20923.15
795.207	21053.99
795.539	20877.05
795.871	20862.14
796.203	20635.02
796.535	20464.41
796.867	20337.18
797.198	20403.84
797.53	20442.26
797.862	20322.26
798.193	20310.96
798.525	20132.21
798.856	20153.23
799.188	19956.17
799.519	19927.02
799.85	19755.5
800.182	19702.17
800.513	19864.2
800.844	19571.55
801.175	19704.65
801.506	19646.12
801.837	19559.8
802.168	19528.61
802.499	19408.84
802.83	19246.58
803.161	19280.71
803.491	19335.85
803.822	19223.31
804.153	19065.35
804.483	18908.51
804.814	18787.61
805.145	18895.18
805.475	18788.74
805.805	18757.33
806.136	18788.07
806.466	18819.7
806.796	18637.56
807.126	18529.99
807.457	18448.64
807.787	18410.67
808.117	18446.83
808.447	18309.66
808.777	18385.59
809.107	18332.94
809.436	18193.5
809.766	18176.1
810.096	18144.01
810.426	18038.03
810.755	18026.73
811.085	18025.37
811.414	17920.52
811.744	17801.65
812.073	17767.08
812.403	17729.34
812.732	17676.68
813.061	17635.55
813.39	17582.22
813.719	17535.44
814.049	17588.1
814.378	17477.37
814.707	17414.99
815.036	17404.6
815.365	17305.62
815.693	17118.28
816.022	17227.2
816.351	17106.3
816.68	16971.16
817.008	17100.2
817.337	16908.79
817.665	16880.32
817.994	16893.2
818.322	16886.42
818.651	16724.39
818.979	16660.66
819.307	16814.11
819.636	16652.98
819.964	16611.63
820.292	16638.07
820.62	16617.5
820.948	16498.18
821.276	16615.92
821.604	16500.67
821.932	16551.51
822.259	16565.75
822.587	16417.05
822.915	16490.95
823.243	16468.8
823.57	16322.59
823.898	16420.44
824.225	16339.77
824.553	16401.24
824.88	16478.97
825.207	16423.38
825.535	16303.84
825.862	16390.39
826.189	16356.26
826.516	16462.7
826.843	16414.34
827.17	16392.87
827.497	16377.96
827.824	16363.95
828.151	16401.24
828.478	16384.06
828.805	16434
829.131	16352.88
829.458	16220
829.785	16252.99
830.111	16277.85
830.438	16340.45
830.764	16353.33
831.09	16285.98
831.417	16192.65
831.743	16324.4
832.069	16267.23
832.395	16177.96
832.722	16283.05
833.048	16120.11
833.374	16132.09
833.7	16039.89
834.026	16127.34
834.351	16115.14
834.677	16143.39
835.003	16142.03
835.329	16089.15
835.654	16022.71
835.98	15940.68
836.306	16072.66
836.631	15884.19
836.956	16026.33
837.282	15962.38
837.607	15885.77
837.932	15879.67
838.258	15887.8
838.583	15806.45
838.908	15726.45
839.233	15744.3
839.558	15707.69
839.883	15661.59
840.208	15617.75
840.533	15609.62
840.858	15567.36
841.182	15627.92
841.507	15494.82
841.832	15430.41
842.156	15355.61
842.481	15408.49
842.805	15340.02
843.13	15288.27
843.454	15314.03
843.778	15215.5
844.103	15286.46
844.427	15155.62
844.751	15145
845.075	15048.73
845.399	15026.36
845.723	14964.66
846.047	15042.18
846.371	14795.63
846.695	14869.3
847.019	14788.4
847.343	14703.65
847.666	14504.34
847.99	14534.39
848.313	14515.86
848.637	14436.09
848.96	14429.31
849.284	14392.02
849.607	14221.41
849.931	14219.6
850.254	14159.03
850.577	14031.13
850.9	13959.04
851.223	13999.49
851.546	13827.97
851.869	13854.41
852.192	13827.74
852.515	13763.56
852.838	13719.27
853.161	13660.29
853.483	13499.84
853.806	13522.67
854.129	13515.21
854.451	13401.77
854.774	13437.47
855.096	13329.68
855.419	13361.54
855.741	13244.71
856.063	13110.25
856.385	13158.83
856.708	13169.23
857.03	13053.98
857.352	13093.07
857.674	13005.17
857.996	12891.95
858.318	12926.98
858.64	12843.14
858.961	12822.35
859.283	12865.06
859.605	12797.49
859.926	12715.91
860.248	12728.34
860.57	12642.92
860.891	12687.43
861.212	12574.44
861.534	12576.25
861.855	12557.04
862.176	12576.48
862.498	12412.19
862.819	12430.04
863.14	12332.42
863.461	12330.61
863.782	12348.01
864.103	12304.39
864.424	12293.55
864.745	12309.14
865.065	12250.16
865.386	12185.98
865.707	12145.3
866.027	12242.25
866.348	12159.99
866.668	12104.4
866.989	12028.24
867.309	11897.63
867.63	12005.42
867.95	11962.03
868.27	11913.9
868.59	11926.55
868.91	11862.82
869.23	11880
869.55	11835.93
869.87	11837.74
870.19	11798.42
870.51	11791.87
870.83	11754.35
871.15	11700.79
871.469	11717.97
871.789	11785.31
872.109	11719.32
872.428	11712.55
872.748	11628.71
873.067	11589.38
873.386	11616.05
873.706	11655.82
874.025	11480.91
874.344	11482.72
874.663	11440.46
874.982	11480.01
875.301	11437.3
875.62	11407.24
875.939	11402.27
876.258	11443.63
876.577	11235.95
876.896	11344.87
877.214	11284.31
877.533	11228.26
877.852	11237.76
878.17	11227.59
878.489	11272.56
878.807	11335.83
879.125	11244.31
879.444	11164.31
879.762	11166.8
880.08	11076.4
880.398	11111.66
880.716	11071.66
881.034	11101.94
881.352	11105.56
881.67	11076.4
881.988	11027.37
882.306	10981.04
882.624	10949.4
882.941	10937.88
883.259	10821.27
883.577	10854.26
883.894	10861.95
884.212	10921.38
884.529	10819.46
884.846	10809.07
885.164	10719.8
885.481	10767.03
885.798	10719.58
886.115	10649.07
886.432	10667.83
886.75	10585.34
887.067	10661.05
887.383	10581.95
887.7	10572.46
888.017	10475.29
888.334	10539.47
888.651	10480.26
888.967	10460.6
889.284	10379.02
889.6	10334.05
889.917	10303.32
890.233	10314.84
890.55	10256.09
890.866	10291.57
891.182	10255.18
891.498	10191.68
891.815	10106.26
892.131	10129.31
892.447	10055.19
892.763	9994.62
893.079	10095.64
893.395	9985.36
893.71	9978.35
894.026	9942.87
894.342	9964.34
894.657	9781.52
894.973	9819.26
895.289	9822.88
895.604	9759.15
895.92	9759.83
896.235	9689.55
896.55	9674.41
896.865	9646.61
897.181	9628.08
897.496	9613.84
897.811	9616.78
898.126	9522.77
898.441	9518.48
898.756	9480.29
899.071	9405.49
899.386	9373.17
899.7	9297.24
900.015	9342.66
900.33	9287.98
900.644	9233.06
900.959	9182.44
901.273	9199.84
901.588	9118.94
901.902	9091.82
902.216	9091.15
902.531	9014.09
902.845	9030.81
903.159	8937.48
903.473	8893.41
903.787	8885.27
904.101	8820.87
904.415	8823.58
904.729	8774.32
905.042	8729.57
905.356	8741.32
905.67	8711.49
905.984	8752.85
906.297	8637.15
906.611	8563.7
906.924	8560.09
907.237	8587.88
907.551	8518.5
907.864	8403.93
908.177	8392.86
908.491	8348.34
908.804	8348.79
909.117	8299.08
909.43	8245.52
909.743	8217.95
910.056	8193.09
910.368	8193.99
910.681	8110.83
910.994	8082.36
911.307	8060.89
911.619	8031.51
911.932	8004.62
912.244	7977.5
912.557	7907.9
912.869	7838.52
913.181	7885.53
913.494	7881.23
913.806	7753.1
914.118	7766.43
914.43	7729.37
914.742	7683.5
915.054	7621.58
915.366	7586.78
915.678	7566.67
915.99	7562.82
916.302	7438.08
916.613	7445.76
916.925	7467.91
917.236	7417.97
917.548	7321.25
917.859	7372.77
918.171	7337.74
918.482	7274.92
918.794	7237.63
919.105	7218.88
919.416	7157.41
919.727	7114.47
920.038	7101.82
920.349	7087.13
920.66	7025.66
920.971	7067.92
921.282	6957.42
921.593	6928.04
921.903	6865.44
922.214	6817.08
922.525	6895.27
922.835	6871.09
923.146	6839.9
923.456	6795.84
923.767	6697.08
924.077	6718.55
924.387	6692.34
924.697	6619.57
925.008	6642.17
925.318	6601.04
925.628	6633.81
925.938	6562.85
926.248	6503.19
926.558	6438.79
926.867	6421.38
927.177	6446.92
927.487	6366.02
927.796	6357.21
928.106	6325.57
928.416	6302.52
928.725	6280.37
929.034	6240.82
929.344	6272.91
929.653	6255.74
929.962	6180.71
930.271	6133.93
930.581	6092.35
930.89	6069.98
931.199	6011.45
931.508	6052.81
931.817	6058.46
932.125	5996.09
932.434	5999.93
932.743	5889.65
933.051	5876.99
933.36	5843.55
933.669	5855.52
933.977	5761.74
934.286	5789.09
934.594	5718.13
934.902	5674.96
935.21	5684.46
935.519	5700.5
935.827	5678.58
936.135	5645.13
936.443	5547.06
936.751	5604.68
937.059	5542.54
937.367	5569.66
937.674	5521.52
937.982	5552.26
938.29	5512.71
938.597	5479.71
938.905	5431.58
939.213	5444.69
939.52	5365.37
939.827	5415.08
940.135	5352.49
940.442	5297.57
940.749	5358.36
941.056	5318.81
941.363	5223.22
941.67	5215.99
941.977	5206.28
942.284	5173.06
942.591	5204.69
942.898	5154.07
943.205	5175.99
943.511	5110.01
943.818	5096.22
944.125	5017.58
944.431	5000.41
944.738	5035.88
945.044	4999.95
945.35	4949.56
945.657	4933.51
945.963	4884.48
946.269	4890.58
946.575	4899.84
946.881	4842.22
947.187	4826.85
947.493	4778.26
947.799	4790.47
948.105	4729
948.41	4696.68
948.716	4735.1
949.022	4707.98
949.327	4698.49
949.633	4616.91
949.938	4630.92
950.244	4582.56
950.549	4599.06
950.854	4531.49
951.16	4540.08
951.465	4471.38
951.77	4482
952.075	4449.69
952.38	4440.19
952.685	4454.66
952.99	4409.46
953.294	4416.24
953.599	4383.7
953.904	4338.73
954.209	4331.5
954.513	4402.68
954.818	4310.93
955.122	4293.76
955.426	4253.53
955.731	4222.35
956.035	4213.08
956.339	4213.31
956.643	4187.09
956.948	4155.46
957.252	4155.91
957.556	4132.18
957.86	4074.78
958.163	4107.55
958.467	4141.44
958.771	4120.43
959.075	4052.63
959.378	3996.36
959.682	4023.71
959.985	4012.41
960.289	3960.43
960.592	3968.79
960.896	3960.66
961.199	3887.67
961.502	3861.23
961.805	3887.44
962.108	3882.69
962.411	3889.02
962.714	3813.32
963.017	3821.68
963.32	3815.8
963.623	3772.19
963.926	3769.25
964.228	3716.6
964.531	3755.47
964.833	3757.95
965.136	3674.56
965.438	3679.31
965.741	3638.86
966.043	3663.04
966.345	3609.71
966.648	3653.55
966.95	3585.53
967.252	3564.28
967.554	3564.28
967.856	3576.26
968.158	3533.33
968.46	3498.52
968.761	3479.09
969.063	3458.98
969.365	3464.17
969.666	3445.19
969.968	3471.86
970.269	3421.69
970.571	3424.85
970.872	3392.99
971.174	3331.3
971.475	3357.96
971.776	3350.28
972.077	3327.45
972.378	3326.1
972.679	3252.43
972.98	3288.36
973.281	3284.52
973.582	3279.09
973.883	3211.75
974.183	3242.49
974.484	3223.5
974.785	3179.21
975.085	3194.13
975.386	3220.11
975.686	3182.37
975.986	3133.34
976.287	3158.65
976.587	3107.35
976.887	3115.26
977.187	3069.16
977.487	3110.51
977.787	3089.95
978.087	3017.18
978.387	3068.48
978.687	3040.91
978.987	3002.94
979.286	2964.53
979.586	2974.02
979.885	2951.19
980.185	2958.88
980.484	2941.02
980.784	2896.96
981.083	2924.98
981.382	2896.05
981.682	2902.83
981.981	2864.64
982.28	2892.89
982.579	2835.26
982.878	2809.28
983.177	2830.07
983.475	2806.56
983.774	2765.89
984.073	2793.01
984.372	2747.81
984.67	2778.54
984.969	2728.83
985.267	2729.05
985.566	2757.53
985.864	2693.57
986.162	2698.54
986.461	2699.22
986.759	2634.59
987.057	2679.11
987.355	2644.31
987.653	2610.41
987.951	2570.86
988.249	2595.95
988.547	2588.49
988.844	2576.51
989.142	2571.32
989.44	2513.01
989.737	2533.13
990.035	2547.81
990.332	2557.53
990.63	2521.37
990.927	2471.66
991.224	2487.48
991.521	2488.83
991.819	2440.25
992.116	2439.34
992.413	2431.89
992.71	2433.47
993.006	2406.12
993.303	2402.28
993.6	2417.42
993.897	2386.46
994.193	2385.11
994.49	2353.02
994.787	2357.76
995.083	2324.54
995.379	2278.89
995.676	2293.36
995.972	2280.02
996.268	2263.3
996.565	2257.88
996.861	2239.57
997.157	2182.4
997.453	2229.63
997.749	2224.43
998.044	2194.6
998.34	2190.31
998.636	2190.31
998.932	2170.2
999.227	2153.02
999.523	2148.28
999.818	2165.45
1000.114	2146.02
1000.409	2114.38
1000.704	2104.66
1001	2095.85
1001.295	2077.77
1001.59	2070.31
1001.885	2086.58
1002.18	2044.32
1002.475	2041.16
1002.77	2034.83
1003.065	2052.01
1003.359	2014.5
1003.654	1975.85
1003.949	2010.88
1004.243	1977.43
1004.538	1965
1004.832	1960.49
1005.127	1932.24
1005.421	1951.45
1005.715	1902.41
1006.009	1902.18
1006.304	1902.86
1006.598	1900.6
1006.892	1879.58
1007.186	1857.21
1007.48	1866.02
1007.773	1858.34
1008.067	1839.36
1008.361	1817.89
1008.655	1821.28
1008.948	1784.9
1009.242	1787.16
1009.535	1777.89
1009.829	1761.62
1010.122	1726.14
1010.415	1740.38
1010.708	1685.69
1011.001	1757.1
1011.295	1721.62
1011.588	1715.52
1011.881	1669.42
1012.173	1658.35
1012.466	1647.5
1012.759	1656.54
1013.052	1672.13
1013.344	1663.09
1013.637	1660.83
1013.93	1613.15
1014.222	1633.71
1014.514	1617.67
1014.807	1566.15
1015.099	1583.55
1015.391	1562.53
1015.683	1582.19
1015.976	1546.03
1016.268	1572.92
1016.56	1545.58
1016.851	1505.36
1017.143	1501.29
1017.435	1511.46
1017.727	1512.36
1018.018	1450.22
1018.31	1436.66
1018.602	1463.78
1018.893	1460.84
1019.185	1462.65
1019.476	1422.87
1019.767	1456.77
1020.058	1435.53
1020.35	1406.15
1020.641	1407.28
1020.932	1415.64
1021.223	1394.17
1021.514	1381.52
1021.804	1363.44
1022.095	1345.59
1022.386	1363.44
1022.677	1329.54
1022.967	1329.54
1023.258	1314.63
1023.548	1317.11
1023.839	1312.59
1024.129	1286.38
1024.419	1287.06
1024.709	1271.46
1025	1268.75
1025.29	1257.9
1025.58	1239.83
1025.87	1237.57
1026.16	1234.18
1026.449	1234.18
1026.739	1235.98
1027.029	1239.37
1027.319	1201.64
1027.608	1208.64
1027.898	1192.14
1028.187	1184.23
1028.477	1170.22
1028.766	1151.47
1029.055	1160.05
1029.344	1153.95
1029.634	1128.87
1029.923	1130
1030.212	1168.87
1030.501	1140.85
1030.79	1110.56
1031.078	1097.68
1031.367	1108.08
1031.656	1097.46
1031.945	1079.15
1032.233	1080.96
1032.522	1066.72
1032.81	1052.26
1033.099	1050
1033.387	1041.41
1033.675	1050.23
1033.963	1065.82
1034.251	1038.25
1034.54	1045.03
1034.828	1032.6
1035.116	1041.64
1035.403	996.22
1035.691	994.18
1035.979	982.88
1036.267	973.17
1036.554	963.45
1036.842	968.19
1037.129	967.52
1037.417	971.81
1037.704	949.66
1037.992	939.04
1038.279	935.88
1038.566	942.66
1038.853	942.66
1039.14	942.66
