Data from breadboard_white_FLMS001491_00056.txt Node
Date: Wed Feb 08 10:47:56 GMT 2017
User: dcchb
Spectrometer: FLMS00149
Trigger mode: 0
Integration Time (sec): 2.000000E-2
Scans to average: 10
Electric dark correction enabled: true
Nonlinearity correction enabled: false
Boxcar width: 0
XAxis mode: Wavelengths
Number of Pixels in Spectrum: 2048
>>>>>Begin Spectral Data<<<<<
341.393	-9.36
341.776	-9.36
342.16	-9.36
342.543	-49.82
342.927	-62.24
343.31	-78.06
343.693	-62.02
344.077	-53.43
344.46	-39.65
344.843	-36.93
345.226	-36.03
345.61	-37.61
345.993	-7.78
346.376	-18.86
346.759	3.29
347.142	4.87
347.525	54.59
347.908	40.13
348.291	74.25
348.674	90.29
349.057	102.95
349.44	119.22
349.823	130.97
350.206	159.67
350.588	207.13
350.971	231.08
351.354	250.97
351.737	234.02
352.119	272.44
352.502	301.14
352.884	269.27
353.267	283.51
353.65	297.07
354.032	309.72
354.414	330.06
354.797	339.33
355.179	328.25
355.562	358.76
355.944	316.95
356.326	338.65
356.709	361.25
357.091	347.01
357.473	340.23
357.855	360.8
358.238	354.69
358.62	355.37
359.002	362.6
359.384	380.68
359.766	371.42
360.148	360.34
360.53	357.18
360.912	367.35
361.294	356.5
361.676	360.34
362.057	368.7
362.439	355.82
362.821	369.16
363.203	352.66
363.584	369.61
363.966	368.03
364.348	355.82
364.729	363.28
365.111	354.92
365.493	359.89
365.874	354.47
366.256	341.59
366.637	341.14
367.019	352.21
367.4	348.37
367.781	359.44
368.163	341.81
368.544	333.9
368.925	344.3
369.306	343.39
369.688	347.69
370.069	345.2
370.45	364.64
370.831	364.86
371.212	370.74
371.593	328.71
371.974	355.82
372.355	365.32
372.736	365.09
373.117	376.39
373.498	365.99
373.879	368.7
374.26	371.19
374.641	356.28
375.021	377.07
375.402	366.9
375.783	374.13
376.163	391.53
376.544	377.29
376.925	384.98
377.305	377.07
377.686	383.39
378.066	391.98
378.447	384.07
378.827	398.99
379.208	386.33
379.588	407.35
379.968	409.61
380.349	384.07
380.729	394.47
381.109	409.61
381.489	394.69
381.87	422.26
382.25	438.76
382.63	436.73
383.01	425.88
383.39	419.1
383.77	434.47
384.15	420.91
384.53	427.91
384.91	433.79
385.29	436.05
385.67	449.61
386.049	439.44
386.429	456.61
386.809	462.49
387.189	456.16
387.568	455.26
387.948	472.88
388.328	456.16
388.707	464.52
389.087	466.1
389.466	480.34
389.846	497.29
390.225	489.61
390.605	514.92
390.984	522.83
391.363	488.02
391.743	521.7
392.122	534.12
392.501	556.72
392.881	556.5
393.26	550.62
393.639	570.96
394.018	574.35
394.397	579.09
394.776	570.06
395.155	603.05
395.534	589.72
395.913	598.76
396.292	611.41
396.671	614.57
397.05	625.2
397.429	634.91
397.808	603.05
398.186	650.51
398.565	645.76
398.944	651.41
399.323	655.03
399.701	707.45
400.08	685.53
400.458	700.9
400.837	726.21
401.215	719.43
401.594	732.76
401.972	730.5
402.351	765.76
402.729	737.96
403.107	756.49
403.486	797.39
403.864	792.87
404.242	830.39
404.62	837.17
404.999	841.01
405.377	862.03
405.755	859.99
406.133	894.11
406.511	900.67
406.889	914.68
407.267	934.57
407.645	951.29
408.023	962.81
408.401	978.18
408.779	978.63
409.156	1047.33
409.534	1029.93
409.912	1064.96
410.29	1083.49
410.667	1102.92
411.045	1148.12
411.422	1158.06
411.8	1162.81
412.178	1204.16
412.555	1231.28
412.933	1228.8
413.31	1278.29
413.687	1297.95
414.065	1309.47
414.442	1316.7
414.819	1348.34
415.197	1371.16
415.574	1376.81
415.951	1396.47
416.328	1412.52
416.705	1453.2
417.082	1433.31
417.46	1496.81
417.837	1494.78
418.214	1541.1
418.591	1548.33
418.967	1554.89
419.344	1612.51
419.721	1631.04
420.098	1614.1
420.475	1645.96
420.852	1671.27
421.228	1655.9
421.605	1718.73
421.982	1733.87
422.358	1764.6
422.735	1775.67
423.111	1776.8
423.488	1803.02
423.864	1869.68
424.241	1858.16
424.617	1896.57
424.994	1898.16
425.37	1915.11
425.746	1928.21
426.123	2001.66
426.499	1978.83
426.875	2003.01
427.251	2068.1
427.627	2097.93
428.003	2119.62
428.379	2171.6
428.756	2181.99
429.132	2223.12
429.507	2231.48
429.883	2247.07
430.259	2344.47
430.635	2326.85
431.011	2371.82
431.387	2403
431.763	2463.11
432.138	2457.24
432.514	2506.95
432.89	2539.5
433.265	2611.36
433.641	2624.92
434.016	2678.25
434.392	2691.81
434.767	2719.83
435.143	2752.15
435.518	2792.14
435.894	2798.7
436.269	2859.49
436.644	2925.93
437.02	2937.68
437.395	2967.51
437.77	2996.21
438.145	3041.18
438.52	3065.81
438.895	3111.23
439.271	3104.45
439.646	3224.9
440.021	3236.65
440.395	3203.43
440.77	3215.64
441.145	3242.75
441.52	3352.13
441.895	3350.77
442.27	3358
442.645	3387.38
443.019	3428.06
443.394	3422.41
443.769	3467.83
444.143	3448.62
444.518	3547.6
444.892	3483.65
445.267	3554.38
445.641	3601.61
446.016	3612.24
446.39	3654.49
446.764	3673.25
447.139	3694.95
447.513	3771.1
447.887	3765.68
448.262	3789.86
448.636	3791.44
449.01	3852.23
449.384	3867.6
449.758	3903.08
450.132	3950.98
450.506	3946.46
450.88	4068.95
451.254	4071.21
451.628	4055.61
452.002	4154.82
452.376	4160.47
452.75	4202.28
453.123	4232.11
453.497	4343.74
453.871	4334.93
454.244	4427.58
454.618	4459.22
454.992	4521.14
455.365	4561.14
455.739	4707.57
456.112	4671.64
456.486	4736.05
456.859	4828.7
457.232	4876.38
457.606	4893.33
457.979	4933.1
458.352	5073.89
458.725	5114.12
459.099	5204.74
459.472	5300.1
459.845	5352.3
460.218	5420.78
460.591	5441.34
460.964	5472.98
461.337	5634.1
461.71	5670.94
462.083	5778.96
462.456	5786.64
462.829	5841.78
463.201	5970.37
463.574	5987.31
463.947	6072.74
464.32	6176.46
464.692	6207.2
465.065	6257.82
465.438	6373.97
465.81	6449
466.183	6505.49
466.555	6670.91
466.928	6760.18
467.3	6716.56
467.672	6875.88
468.045	7082.2
468.417	7051.47
468.789	7099.15
469.161	7185.7
469.534	7370.55
469.906	7498.91
470.278	7559.93
470.65	7663.65
471.022	7835.18
471.394	7948.39
471.766	8013.25
472.138	8182.74
472.51	8345.9
472.882	8441.94
473.253	8513.8
473.625	8636.96
473.997	8804.64
474.369	8954.24
474.74	9013
475.112	9163.28
475.484	9367.34
475.855	9493.21
476.227	9597.61
476.598	9828.8
476.97	9964.38
477.341	10209.8
477.713	10387.88
478.084	10404.83
478.455	10753.97
478.827	10742.9
479.198	11141.76
479.569	11173.17
479.94	11386.95
480.311	11530.9
480.682	11863.77
481.053	12184.67
481.424	12322.97
481.795	12463.75
482.166	12672.79
482.537	12817.87
482.908	13083.4
483.279	13168.59
483.65	13452.65
484.021	13741.23
484.391	13869.82
484.762	13989.59
485.133	14145.29
485.503	14366.3
485.874	14655.79
486.244	14740.08
486.615	15086.06
486.985	15293.28
487.356	15529.66
487.726	15793.61
488.097	16071.79
488.467	16139.14
488.837	16454.61
489.207	16610.54
489.578	16919.91
489.948	17030.19
490.318	17198.09
490.688	17355.83
491.058	17596.73
491.428	17940.22
491.798	18018.18
492.168	18437.61
492.538	18528.45
492.908	18629.02
493.278	18985.62
493.648	19022.9
494.017	19307.42
494.387	19464.25
494.757	19560.29
495.126	19913.73
495.496	19927.51
495.866	20099.94
496.235	20259.03
496.605	20488.18
496.974	20642.3
497.344	20761.84
497.713	20941.5
498.082	21094.26
498.452	21397.3
498.821	21531.31
499.19	21595.94
499.559	21866.44
499.928	22009.49
500.298	22117.96
500.667	22415.36
501.036	22314.57
501.405	22554.56
501.774	22604.5
502.143	22957.94
502.512	23016.25
502.88	23165.39
503.249	23227.09
503.618	23413.07
503.987	23501.2
504.356	23660.3
504.724	23924.02
505.093	24072.04
505.462	24013.06
505.83	24297.57
506.199	24565.13
506.567	24838.12
506.936	24826.37
507.304	25207.37
507.672	25262.51
508.041	25422.51
508.409	25566.69
508.777	25883.74
509.145	26029.5
509.514	26098.2
509.882	26242.6
510.25	26403.95
510.618	26653.44
510.986	26819.08
511.354	27055.69
511.722	27215
512.09	27468.11
512.458	27471.95
512.826	27737.25
513.193	27891.6
513.561	27946.51
513.929	28248.88
514.297	28550.56
514.664	28778.58
515.032	28895.86
515.4	29215.4
515.767	29363.65
516.135	29577.88
516.502	29377.66
516.869	29911.66
517.237	30031.65
517.604	30070.07
517.972	30498.08
518.339	30722.48
518.706	30880.22
519.073	31012.19
519.44	31268.23
519.808	31534.21
520.175	31655.57
520.542	31978.27
520.909	32315.66
521.276	32178.49
521.643	32465.49
522.009	32898.47
522.376	33168.29
522.743	33203.1
523.11	33621.84
523.477	33980.48
523.843	34067.93
524.21	34520.12
524.577	34711.76
524.943	34934.8
525.31	35181.8
525.676	35365.75
526.043	35508.8
526.409	35792.18
526.776	36197.14
527.142	36282.56
527.508	36517.59
527.874	36883
528.241	37138.59
528.607	37154.18
528.973	37481.85
529.339	37607.05
529.705	37947.38
530.071	38130.65
530.437	38517.76
530.803	38698.54
531.169	38820.8
531.535	38863.96
531.901	39067.57
532.267	39175.59
532.632	39498.98
532.998	39586.2
533.364	39803.15
533.73	40020.09
534.095	40404.26
534.461	40423.02
534.826	40619.62
535.192	40644.26
535.557	41105.26
535.923	41116.79
536.288	41318.59
536.653	41444.46
537.019	41512.48
537.384	41834.96
537.749	41926.48
538.114	41978.23
538.479	42098.68
538.845	42295.74
539.21	42267.26
539.575	42442.17
539.94	42550.42
540.305	42930.75
540.67	42869.73
541.034	43178.2
541.399	43275.37
541.764	43363.73
542.129	43425.65
542.494	43556.5
542.858	43852.99
543.223	43707.23
543.587	44160.32
543.952	44199.87
544.316	44330.03
544.681	44384.04
545.045	44595.56
545.41	44846.41
545.774	44884.37
546.138	45063.35
546.503	45029.9
546.867	45100.18
547.231	45409.55
547.595	45412.94
547.959	45576.78
548.324	45599.61
548.688	45801.63
549.052	46005.47
549.416	45997.56
549.779	46136.09
550.143	46298.12
550.507	46588.51
550.871	46723.87
551.235	46694.27
551.599	47038.66
551.962	46986.46
552.326	47070.3
552.689	47409.28
553.053	47367.02
553.417	47438.88
553.78	48091.29
554.143	47842.26
554.507	48029.37
554.87	48173.78
555.234	48522.02
555.597	48311.63
555.96	48538.96
556.323	48708.9
556.686	48800.43
557.05	49151.38
557.413	49127.42
557.776	49355.44
558.139	49430.24
558.502	49630.91
558.865	49625.49
559.228	50005.59
559.59	50096.66
559.953	50130.56
560.316	50492.58
560.679	50600.6
561.041	50779.58
561.404	50848.96
561.767	51118.11
562.129	50927.6
562.492	51395.39
562.854	51395.84
563.217	51441.26
563.579	51589.28
563.941	51814.58
564.304	51875.83
564.666	52083.28
565.028	52184.74
565.39	52271.97
565.753	52479.43
566.115	52525.07
566.477	52663.83
566.839	52699.76
567.201	53002.35
567.563	52936.59
567.925	53266.98
568.287	53230.37
568.648	53272.62
569.01	53432.62
569.372	53678.72
569.734	53530.7
570.095	53820.18
570.457	53876.45
570.819	53860.41
571.18	53989.67
571.542	54207.29
571.903	54267.63
572.265	54283.9
572.626	54420.62
572.987	54458.13
573.349	54523.89
573.71	54652.7
574.071	54734.28
574.432	54859.93
574.794	55025.12
575.155	54970.21
575.516	54962.3
575.877	55074.61
576.238	55113.71
576.599	55243.42
576.96	55227.6
577.32	55196.64
577.681	55368.39
578.042	55467.6
578.403	55423.75
578.763	55397.54
579.124	55542.4
579.485	55668.95
579.845	55654.48
580.206	55594.37
580.566	55596.18
580.927	55610.87
581.287	55766.12
581.648	55765.89
582.008	55808.15
582.368	55726.57
582.728	55824.87
583.089	55854.25
583.449	55782.16
583.809	55818.32
584.169	55830.98
584.529	55802.28
584.889	55989.62
585.249	55844.08
585.609	55763.18
585.969	55911.65
586.329	55808.38
586.688	55872.56
587.048	55863.52
587.408	55883.4
587.768	55845.44
588.127	55900.35
588.487	55825.33
588.846	56070.97
589.206	55850.64
589.565	55890.63
589.925	56037.52
590.284	55921.37
590.643	55900.13
591.003	56010.18
591.362	56058.99
591.721	56056.51
592.08	56106.22
592.44	56072.78
592.799	56072.1
593.158	56020.58
593.517	56075.49
593.876	56062.38
594.235	55988.03
594.593	56037.3
594.952	56122.95
595.311	56088.37
595.67	56165.2
596.029	56286.56
596.387	56207.01
596.746	56248.37
597.104	56213.11
597.463	56114.81
597.822	56292.21
598.18	56184.41
598.538	56153
598.897	56376.05
599.255	56173.57
599.613	56456.72
599.972	56344.41
600.33	56379.66
600.688	56265.77
601.046	56442.48
601.404	56563.39
601.762	56422.15
602.12	56610.84
602.478	56571.3
602.836	56477.06
603.194	56455.82
603.552	56571.52
603.91	56370.4
604.268	56613.78
604.625	56519.54
604.983	56646.77
605.341	56520.9
605.698	56602.25
606.056	56668.02
606.413	56723.16
606.771	56709.6
607.128	56786.66
607.485	56731.97
607.843	56745.98
608.2	56898.74
608.557	56926.99
608.914	56817.84
609.272	56926.54
609.629	56977.39
609.986	57073.43
610.343	56968.57
610.7	57138.96
611.057	57082.69
611.414	57106.42
611.771	57127.44
612.127	57240.2
612.484	57204.27
612.841	57264.16
613.198	57196.36
613.554	57177.15
613.911	57382.35
614.267	57418.73
614.624	57327.89
614.98	57399.3
615.337	57449.46
615.693	57383.48
616.05	57359.75
616.406	57550.25
616.762	57420.76
617.118	57442.23
617.475	57483.81
617.831	57482.46
618.187	57545.05
618.543	57576.01
618.899	57693.53
619.255	57675.67
619.611	57594.09
619.967	57705.28
620.323	57722
620.678	57692.17
621.034	57616.92
621.39	57634.09
621.746	57608.1
622.101	57853.75
622.457	57607.65
622.812	57707.08
623.168	57717.71
623.523	57705.5
623.879	57796.57
624.234	57667.09
624.589	57730.59
624.945	57790.7
625.3	57715.45
625.655	57762.68
626.01	57743.24
626.365	57747.08
626.72	57712.73
627.075	57702.79
627.43	57732.62
627.785	57667.99
628.14	57761.32
628.495	57731.26
628.85	57682.23
629.205	57588.22
629.559	57681.55
629.914	57581.21
630.269	57631.15
630.623	57548.22
630.978	57544.6
631.332	57600.42
631.687	57609.69
632.041	57485.4
632.396	57550.7
632.75	57357.49
633.104	57449.24
633.459	57385.51
633.813	57339.41
634.167	57355.23
634.521	57299.41
634.875	57362.69
635.229	57291.05
635.583	57117.95
635.937	57178.74
636.291	57116.59
636.645	57152.07
636.999	57083.6
637.352	57158.17
637.706	56992.07
638.06	57152.3
638.413	56990.04
638.767	57038.85
639.121	56996.37
639.474	56796.6
639.828	56881.57
640.181	56876.6
640.534	56843.6
640.888	56770.39
641.241	56618.3
641.594	56766.32
641.947	56729.26
642.301	56643.61
642.654	56688.35
643.007	56659.65
643.36	56560.9
643.713	56533.1
644.066	56655.13
644.419	56518.87
644.771	56397.29
645.124	56133.57
645.477	56120.46
645.83	55851.99
646.182	55697.87
646.535	55602.73
646.888	55591.66
647.24	55538.78
647.593	55663.52
647.945	55577.65
648.298	55436.64
648.65	55353.93
649.002	55227.15
649.355	55386.47
649.707	55334.04
650.059	55537.88
650.411	55828.26
650.763	55865.1
651.115	56118.65
651.467	55992.33
651.819	55977.64
652.171	55907.13
652.523	55861.26
652.875	55805.44
653.227	55660.13
653.578	55866.23
653.93	55759.34
654.282	55684.54
654.633	55594.37
654.985	55673.47
655.337	55678.21
655.688	55612.9
656.039	55779.23
656.391	55507.59
656.742	55591.89
657.094	55580.81
657.445	55604.77
657.796	55559.34
658.147	55533.13
658.498	55592.11
658.849	55494.94
659.2	55446.13
659.551	55483.64
659.902	55507.59
660.253	55380.59
660.604	55438.9
660.955	55376.3
661.306	55448.84
661.656	55346.24
662.007	55360.71
662.358	55360.03
662.708	55279.8
663.059	55330.42
663.409	55140.15
663.76	55446.58
664.11	55323.87
664.461	55289.97
664.811	55315.96
665.161	55282.97
665.511	55186.7
665.862	55187.38
666.212	55285.68
666.562	55301.27
666.912	55143.99
667.262	55138.79
667.612	55224.66
667.962	55112.58
668.312	55080.94
668.662	55199.58
669.011	55122.97
669.361	55105.8
669.711	55083.88
670.06	55045.46
670.41	55052.92
670.76	54996.42
671.109	55066.25
671.459	55012.69
671.808	54973.14
672.157	55040.49
672.507	54701.29
672.856	54867.39
673.205	54776.54
673.554	54976.31
673.904	54670.1
674.253	54998.46
674.602	54864
674.951	54412.48
675.3	54289.32
675.649	54759.82
675.998	54653.83
676.346	54691.57
676.695	54802.53
677.044	54556.21
677.393	54613.61
677.741	54643.21
678.09	54539.48
678.438	54497.23
678.787	54528.18
679.135	54437.79
679.484	54306.04
679.832	54425.59
680.181	54251.58
680.529	54376.78
680.877	54215.42
681.225	54238.7
681.573	54377.91
681.922	54176.56
682.27	54108.53
682.618	54147.63
682.966	53897.24
683.314	54019.95
683.661	53904.02
684.009	53805.04
684.357	53705.38
684.705	53612.95
685.053	53694.08
685.4	53691.82
685.748	53451.6
686.095	53474.43
686.443	53308.56
686.79	53323.24
687.138	53432.17
687.485	53304.71
687.832	53277.6
688.18	53274.66
688.527	53071.05
688.874	53118.28
689.221	53035.12
689.568	52888
689.915	52756.03
690.262	52856.14
690.609	52648.46
690.956	52629.48
691.303	52619.08
691.65	52402.59
691.997	52460.89
692.344	52247.57
692.69	52254.57
693.037	52180.68
693.383	51927.58
693.73	52127.34
694.077	51928.03
694.423	51834.47
694.769	51745.66
695.116	51622.72
695.462	51602.61
695.808	51505.67
696.155	51540.69
696.501	51240.81
696.847	51374.37
697.193	51025.45
697.539	51247.14
697.885	50849.19
698.231	50810.32
698.577	50870.43
698.923	50760.37
699.269	50601.51
699.614	50427.05
699.96	50323.55
700.306	50241.07
700.651	50216.89
700.997	50098.47
701.342	50103.67
701.688	49997.23
702.033	49741.87
702.379	49837.01
702.724	49705.03
703.069	49881.08
703.415	49335.55
703.76	49421.65
704.105	49288.32
704.45	49242.22
704.795	48900.76
705.14	48923.36
705.485	48934.66
705.83	48751.16
706.175	48807.43
706.52	48574.22
706.865	48554.56
707.209	48480.89
707.554	48270.5
707.899	48320.66
708.243	48137.84
708.588	48074.57
708.932	47848.13
709.277	47923.16
709.621	47817.4
709.966	47623.06
710.31	47695.6
710.654	47325.66
710.998	47399.11
711.342	47428.71
711.687	47259.9
712.031	47033.01
712.375	46925.45
712.719	47075.95
713.063	46962.06
713.407	47035.05
713.75	46723.42
714.094	46664.21
714.438	46588.96
714.782	46559.35
715.125	46481.84
715.469	46440.04
715.812	46309.64
716.156	46128.63
716.499	45937.45
716.843	46044.79
717.186	45804.8
717.53	46047.05
717.873	45939.71
718.216	45774.97
718.559	45537.46
718.902	45370.69
719.246	45538.36
719.589	45278.71
719.932	45290.24
720.275	45223.12
720.617	45196
720.96	45091.82
721.303	44892.73
721.646	45116
721.989	44800.08
722.331	44794.2
722.674	44682.34
723.016	44661.55
723.359	44555.79
723.701	44610.03
724.044	44340.43
724.386	44249.59
724.729	44437.83
725.071	44255.69
725.413	44190.15
725.755	44002.36
726.097	44069.93
726.439	43822.03
726.782	43881.46
727.124	44019.76
727.465	43670.62
727.807	43584.97
728.149	43484.41
728.491	43476.27
728.833	43617.29
729.175	43370.06
729.516	43166
729.858	43281.47
730.199	43206.22
730.541	43174.13
730.882	42999.67
731.224	43034.25
731.565	42813.46
731.906	42850.98
732.248	42863.86
732.589	42704.09
732.93	42622.28
733.271	42590.65
733.612	42517.65
733.953	42536.41
734.294	42350.65
734.635	42238.34
734.976	42431.33
735.317	42211.22
735.658	42312.23
735.999	42130.32
736.339	42049.64
736.68	42143.88
737.021	41873.38
737.361	41800.84
737.702	41803.32
738.042	41643.1
738.383	41716.09
738.723	41688.07
739.063	41678.81
739.404	41530.11
739.744	41418.93
740.084	41319.49
740.424	41171.7
740.764	41279.04
741.104	41385.71
741.444	41084.47
741.784	40914.98
742.124	41065.04
742.464	40977.58
742.804	40786.4
743.143	40735.78
743.483	40945.27
743.823	40465.05
744.162	40507.54
744.502	40523.81
744.841	40480.42
745.181	40461.89
745.52	40376.01
745.86	40354.32
746.199	40229.35
746.538	40237.49
746.877	40288.79
747.216	40192.52
747.556	40012.86
747.895	40047.21
748.234	39752.75
748.573	39809.7
748.911	39679.31
749.25	39611.74
749.589	39486.09
749.928	39501.46
750.267	39460.78
750.605	39252.88
750.944	39223.05
751.283	39111.64
751.621	39103.51
751.96	38949.16
752.298	38706.23
752.636	38793.91
752.975	38673.69
753.313	38492.45
753.651	38662.16
753.989	38419.91
754.327	38464.88
754.666	38147.37
755.004	38206.35
755.342	38291.55
755.679	38112.35
756.017	37863.54
756.355	37943.31
756.693	37801.85
757.031	37789.64
757.368	37652.02
757.706	37597.1
758.044	37317.79
758.381	37454.28
758.719	37126.83
759.056	37086.61
759.394	37018.14
759.731	36859.95
760.068	36752.38
760.405	36687.07
760.743	36631.25
761.08	36642.78
761.417	36310.13
761.754	36360.53
762.091	36305.84
762.428	36145.17
762.765	35855.46
763.102	35971.16
763.438	35859.98
763.775	35717.15
764.112	35721.45
764.449	35585.63
764.785	35412.98
765.122	35206.21
765.458	35048.47
765.795	35121.92
766.131	35063.16
766.467	34915.82
766.804	34760.12
767.14	34516.28
767.476	34432.22
767.812	34287.14
768.148	34446.45
768.485	34165.1
768.821	33885.56
769.157	33889.18
769.492	33781.84
769.828	33688.05
770.164	33420.72
770.5	33345.24
770.836	33402.41
771.171	33066.15
771.507	33150.44
771.842	32832.48
772.178	32878.58
772.513	32791.81
772.849	32630.68
773.184	32471.36
773.519	32514.07
773.855	32195.89
774.19	32165.16
774.525	32126.06
774.86	31901.44
775.195	32007.42
775.53	31815.79
775.865	31656.02
776.2	31499.41
776.535	31336.48
776.87	31334.22
777.205	31075.69
777.539	30929.48
777.874	30976.71
778.209	30702.37
778.543	30793.89
778.878	30509.38
779.212	30501.25
779.547	30337.63
779.881	30487.91
780.215	30171.09
780.55	30232.78
780.884	30163.4
781.218	29835.05
781.552	29931.54
781.886	29768.84
782.22	29624.66
782.554	29538.56
782.888	29287.49
783.222	29077.1
783.556	28987.61
783.889	29018.57
784.223	28735.42
784.557	28607.74
784.89	28755.53
785.224	28503.56
785.557	28349.44
785.891	28235.09
786.224	28296.56
786.558	28174.53
786.891	27861.99
787.224	27900.86
787.557	27785.16
787.891	27812.96
788.224	27662
788.557	27657.7
788.89	27432.17
789.223	27469.91
789.556	27295.68
789.888	27177.27
790.221	27045.97
790.554	26806.65
790.887	26989.02
791.219	26795.58
791.552	26645.08
791.884	26608.69
792.217	26436.72
792.549	26336.84
792.882	26110.18
793.214	26126.45
793.546	26156.95
793.879	25975.26
794.211	25876.51
794.543	25842.61
794.875	25940.24
795.207	25747.25
795.539	25557.42
795.871	25645.78
796.203	25222.06
796.535	25271.1
796.867	25229.52
797.198	25165.79
797.53	25113.37
797.862	25002.18
798.193	25023.2
798.525	24789.76
798.856	24741.62
799.188	24606.49
799.519	24322.43
799.85	24349.54
800.182	24381.63
800.513	24367.4
800.844	24070.23
801.175	24255.31
801.506	24190.45
801.837	23930.8
802.168	23930.35
802.499	23879.05
802.83	23766.06
803.161	23690.8
803.491	23685.61
803.822	23633.4
804.153	23617.81
804.483	23372.17
804.814	23285.16
805.145	23239.06
805.475	23219.86
805.805	23082.23
806.136	23139.86
806.466	23133.3
806.796	23026.64
807.126	22748.46
807.457	22743.48
807.787	22741.22
808.117	22632.98
808.447	22656.25
808.777	22623.26
809.107	22450.61
809.436	22402.02
809.766	22399.31
810.096	22365.19
810.426	22296.26
810.755	22205.87
811.085	22178.53
811.414	22157.74
811.744	21888.82
812.073	21976.5
812.403	21984.41
812.732	21769.72
813.061	21795.94
813.39	21614.47
813.719	21556.17
814.049	21756.62
814.378	21514.36
814.707	21359.11
815.036	21515.95
815.365	21267.82
815.693	21078.67
816.022	21268.95
816.351	21135.84
816.68	21005.68
817.008	21034.6
817.337	20789.41
817.665	20801.61
817.994	20926.81
818.322	20868.96
818.651	20743.54
818.979	20686.59
819.307	20742.86
819.636	20679.81
819.964	20572.24
820.292	20601.17
820.62	20630.55
820.948	20442.53
821.276	20567.95
821.604	20524.33
821.932	20510.55
822.259	20552.36
822.587	20527.95
822.915	20452.02
823.243	20473.26
823.57	20423.77
823.898	20429.42
824.225	20307.84
824.553	20317.33
824.88	20391.46
825.207	20389.2
825.535	20388.97
825.862	20413.6
826.189	20333.6
826.516	20467.16
826.843	20455.41
827.17	20387.16
827.497	20350.78
827.824	20394.39
828.151	20402.53
828.478	20383.77
828.805	20498.8
829.131	20389.65
829.458	20336.32
829.785	20080.73
830.111	20369.76
830.438	20273.72
830.764	20319.14
831.09	20294.96
831.417	20157.56
831.743	20261.74
832.069	20238.92
832.395	20233.04
832.722	20275.3
833.048	20107.4
833.374	20096.55
833.7	20095.19
834.026	20020.39
834.351	20125.25
834.677	20057.45
835.003	20059.94
835.329	20013.84
835.654	19999.38
835.98	19934.74
836.306	19942.65
836.631	19816.78
836.956	19838.93
837.282	19932.48
837.607	19760.96
837.932	19635.77
838.258	19806.61
838.583	19762.55
838.908	19589.89
839.233	19559.16
839.558	19557.8
839.883	19583.57
840.208	19449.33
840.533	19400.52
840.858	19542.66
841.182	19438.26
841.507	19416.57
841.832	19206.4
842.156	19242.56
842.481	19228.1
842.805	19119.17
843.13	19228.77
843.454	19044.15
843.778	18958.95
844.103	18981.1
844.427	18985.84
844.751	18930.25
845.075	18868.78
845.399	18803.7
845.723	18689.35
846.047	18770.71
846.371	18546.53
846.695	18577.04
847.019	18362.81
847.343	18266.09
847.666	18130.95
847.99	18210.27
848.313	18188.58
848.637	18043.04
848.96	18049.14
849.284	17935.7
849.607	17814.12
849.931	17766.21
850.254	17692.32
850.577	17558.76
850.9	17465.43
851.223	17469.72
851.546	17327.81
851.869	17290.07
852.192	17393.12
852.515	17133.01
852.838	17072.45
853.161	17100.47
853.483	17068.83
853.806	16982.73
854.129	16958.78
854.451	16834.03
854.774	16728.05
855.096	16827.71
855.419	16608.5
855.741	16696.19
856.063	16617.09
856.385	16391.11
856.708	16465.68
857.03	16313.6
857.352	16416.42
857.674	16248.06
857.996	16251
858.318	16151.57
858.64	16189.76
858.961	16158.12
859.283	16032.25
859.605	16060.04
859.926	15978.46
860.248	15930.56
860.57	15900.5
860.891	15885.81
861.212	15798.13
861.534	15764.23
861.855	15767.85
862.176	15682.2
862.498	15680.39
862.819	15662.09
863.14	15580.51
863.461	15561.53
863.782	15465.26
864.103	15510.23
864.424	15448.99
864.745	15435.2
865.065	15308.65
865.386	15338.25
865.707	15261.87
866.027	15396.78
866.348	15279.05
866.668	15242.89
866.989	15248.09
867.309	15152.95
867.63	15084.7
867.95	15086.51
868.27	15039.96
868.59	15057.81
868.91	14989.34
869.23	14994.08
869.55	14911.37
869.87	15063.91
870.19	14925.61
870.51	15025.95
870.83	14880.19
871.15	14719.29
871.469	14798.16
871.789	14929.9
872.109	14807.2
872.428	14651.72
872.748	14620.76
873.067	14734.88
873.386	14663.47
873.706	14666.18
874.025	14545.51
874.344	14544.15
874.663	14597.03
874.982	14505.06
875.301	14563.59
875.62	14469.35
875.939	14441.1
876.258	14409.69
876.577	14365.63
876.896	14300.09
877.214	14272.29
877.533	14329.69
877.852	14218.06
878.17	14289.47
878.489	14324.5
878.807	14230.49
879.125	14204.05
879.444	14123.37
879.762	14096.25
880.08	14160.88
880.398	14014
880.716	14042.24
881.034	13996.82
881.352	14013.54
881.67	14013.09
881.988	13954.56
882.306	13918.18
882.624	13926.09
882.941	13845.19
883.259	13846.99
883.577	13846.99
883.894	13746.43
884.212	13724.74
884.529	13723.61
884.846	13700.56
885.164	13672.31
885.481	13615.59
885.798	13638.19
886.115	13564.74
886.432	13484.29
886.75	13419.66
887.067	13481.35
887.383	13426.89
887.7	13449.72
888.017	13358.65
888.334	13381.24
888.651	13308.25
888.967	13313.22
889.284	13216.28
889.6	13158.65
889.917	13013.34
890.233	13061.93
890.55	13072.55
890.866	13086.34
891.182	13027.13
891.498	13049.05
891.815	12948.04
892.131	12867.81
892.447	12818.55
892.763	12743.97
893.079	12701.94
893.395	12767.25
893.71	12735.16
894.026	12703.07
894.342	12590.76
894.657	12543.53
894.973	12506.01
895.289	12564.54
895.604	12466.92
895.92	12405.68
896.235	12253.14
896.55	12366.13
896.865	12242.97
897.181	12270.09
897.496	12196.87
897.811	12176.08
898.126	12106.25
898.441	12011.34
898.756	11999.13
899.071	11917.55
899.386	11872.58
899.7	11786.03
900.015	11810.21
900.33	11688.41
900.644	11601.18
900.959	11802.3
901.273	11583.1
901.588	11567.05
901.902	11489.77
902.216	11517.79
902.531	11437.11
902.845	11442.31
903.159	11336.55
903.473	11292.26
903.787	11310.34
904.101	11278.93
904.415	11264.46
904.729	11156.22
905.042	11089.55
905.356	11097.24
905.67	11100.4
905.984	11054.3
906.297	11003.91
906.611	10908.31
906.924	10964.36
907.237	10889.78
907.551	10806.85
907.864	10706.29
908.177	10688.89
908.491	10676.46
908.804	10647.08
909.117	10480.3
909.43	10508.33
909.743	10475.11
910.056	10472.85
910.368	10381.32
910.681	10375.22
910.994	10345.62
911.307	10247.54
911.619	10216.58
911.932	10189.46
912.244	10138.39
912.557	10133.19
912.869	9999.64
913.181	10054.1
913.494	9936.36
913.806	9980.66
914.118	9915.8
914.43	9814.11
914.742	9847.33
915.054	9716.93
915.366	9723.26
915.678	9715.35
915.99	9654.11
916.302	9575.69
916.613	9612.98
916.925	9534.34
917.236	9490.27
917.548	9483.95
917.859	9501.35
918.171	9351.52
918.482	9349.71
918.794	9330.96
919.105	9286.66
919.416	9217.51
919.727	9168.02
920.038	9161.47
920.349	9036.73
920.66	9041.02
920.971	8974.13
921.282	8986.56
921.593	8934.36
921.903	8862.49
922.214	8861.59
922.525	8835.38
922.835	8733.23
923.146	8808.94
923.456	8710.86
923.767	8695.27
924.077	8688.03
924.387	8630.41
924.697	8528.49
925.008	8595.83
925.318	8561.94
925.628	8454.37
925.938	8453.69
926.248	8367.36
926.558	8357.87
926.867	8312.45
927.177	8307.03
927.487	8248.72
927.796	8110.2
928.106	8186.35
928.416	8129.86
928.725	8100.48
929.034	7987.26
929.344	8045.79
929.653	8018.67
929.962	7966.47
930.271	7874.72
930.581	7832.46
930.89	7788.85
931.199	7702.75
931.508	7789.53
931.817	7810.32
932.125	7757.66
932.434	7720.38
932.743	7656.87
933.051	7646.48
933.36	7627.95
933.669	7542.08
933.977	7524.45
934.286	7476.54
934.594	7455.3
934.902	7387.73
935.21	7385.92
935.519	7316.54
935.827	7308.41
936.135	7225.02
936.443	7182.09
936.751	7187.06
937.059	7173.72
937.367	7147.28
937.674	7182.09
937.982	7063.9
938.29	7045.14
938.597	7098.7
938.905	6970.34
939.213	6911.81
939.52	6921.08
939.827	6901.41
940.135	6903.45
940.442	6844.01
940.749	6837.24
941.056	6818.25
941.363	6710.69
941.67	6739.38
941.977	6646.28
942.284	6670.46
942.591	6684.7
942.898	6529.45
943.205	6592.5
943.511	6535.1
943.818	6559.95
944.125	6484.25
944.431	6442.67
944.738	6398.38
945.044	6374.87
945.35	6355.21
945.657	6359.06
945.963	6297.14
946.269	6303.92
946.575	6258.04
946.881	6215.1
947.187	6210.59
947.493	6162.9
947.799	6180.76
948.105	6174.65
948.41	6095.33
948.716	6101.21
949.022	6044.94
949.327	6002.46
949.633	5999.07
949.938	6010.36
950.244	5896.24
950.549	5938.05
950.854	5885.62
951.16	5855.34
951.465	5818.73
951.77	5807.66
952.075	5767.66
952.38	5739.86
952.685	5694.21
952.99	5716.59
953.294	5700.77
953.599	5617.15
953.904	5589.58
954.209	5586.42
954.513	5587.55
954.818	5508.23
955.122	5508.23
955.426	5476.82
955.731	5465.97
956.035	5414.67
956.339	5351.17
956.643	5416.48
956.948	5390.95
957.252	5345.3
957.556	5357.95
957.86	5313.89
958.163	5302.81
958.467	5270.95
958.771	5248.12
959.075	5236.15
959.378	5219.65
959.682	5143.27
959.985	5158.41
960.289	5141.69
960.592	5082.25
960.896	5094
961.199	5016.04
961.502	5017.62
961.805	4979.21
962.108	4964.74
962.411	4959.54
962.714	4967.45
963.017	4935.82
963.32	4941.47
963.623	4908.92
963.926	4850.85
964.228	4811.75
964.531	4790.06
964.833	4784.41
965.136	4732.66
965.438	4769.72
965.741	4708.25
966.043	4729.49
966.345	4686.78
966.648	4659.21
966.95	4652.66
967.252	4628.48
967.554	4615.6
967.856	4621.7
968.158	4567.01
968.46	4575.6
968.761	4521.59
969.063	4481.82
969.365	4450.41
969.666	4477.52
969.968	4427.36
970.269	4420.8
970.571	4397.53
970.872	4379
971.174	4317.08
971.475	4360.92
971.776	4275.95
972.077	4303.52
972.378	4292.9
972.679	4249.73
972.98	4232.78
973.281	4207.47
973.582	4208.15
973.883	4181.03
974.183	4169.51
974.484	4194.37
974.785	4130.87
975.085	4141.94
975.386	4114.37
975.686	4102.62
975.986	4047.7
976.287	4075.05
976.587	4025.33
976.887	3965.67
977.187	3986.69
977.487	4011.1
977.787	3974.26
978.087	3915.28
978.387	3870.53
978.687	3892.68
978.987	3854.49
979.286	3861.49
979.586	3850.42
979.885	3847.03
980.185	3795.96
980.484	3783.08
980.784	3753.93
981.083	3716.64
981.382	3757.09
981.682	3719.13
981.981	3722.29
982.28	3674.15
982.579	3621.73
982.878	3659.47
983.177	3671.67
983.475	3604.1
983.774	3593.7
984.073	3587.83
984.372	3542.86
984.67	3585.34
984.969	3551.45
985.267	3521.39
985.566	3498.79
985.864	3461.51
986.162	3489.75
986.461	3454.95
986.759	3410.88
987.057	3392.35
987.355	3405.91
987.653	3392.58
987.951	3361.85
988.249	3358.46
988.547	3344.67
988.844	3312.58
989.142	3310.32
989.44	3287.95
989.737	3265.58
990.035	3239.59
990.332	3251.57
990.63	3266.48
990.927	3186.94
991.224	3235.75
991.521	3226.71
991.819	3165.24
992.116	3159.37
992.413	3136.09
992.71	3133.83
993.006	3100.84
993.303	3112.59
993.6	3123.66
993.897	3085.24
994.193	3087.96
994.49	3030.56
994.787	2979.26
995.083	3055.19
995.379	2977.45
995.676	2976.32
995.972	2969.99
996.268	2925.93
996.565	2963.67
996.861	2913.04
997.157	2901.07
997.453	2849.77
997.749	2881.18
998.044	2862.65
998.34	2845.02
998.636	2801.18
998.932	2782.43
999.227	2781.97
999.523	2796.44
999.818	2713.95
1000.114	2734.97
1000.409	2758.47
1000.704	2684.8
1001	2713.05
1001.295	2665.37
1001.59	2687.06
1001.885	2679.38
1002.18	2655.42
1002.475	2650
1002.77	2605.93
1003.065	2557.12
1003.359	2615.43
1003.654	2563.45
1003.949	2518.7
1004.243	2556.9
1004.538	2481.64
1004.832	2498.59
1005.127	2509.67
1005.421	2474.64
1005.715	2455.66
1006.009	2454.3
1006.304	2442.55
1006.598	2415.66
1006.892	2398.93
1007.186	2375.21
1007.48	2347.64
1007.773	2353.74
1008.067	2323.46
1008.361	2358.48
1008.655	2305.83
1008.948	2304.02
1009.242	2310.12
1009.535	2251.37
1009.829	2303.34
1010.122	2240.29
1010.415	2239.39
1010.708	2216.11
1011.001	2209.56
1011.295	2220.63
1011.588	2198.04
1011.881	2173.18
1012.173	2173.4
1012.466	2144.7
1012.759	2099.73
1013.052	2113.52
1013.344	2097.25
1013.637	2084.37
1013.93	2064.25
1014.222	2054.54
1014.514	2061.09
1014.807	2095.21
1015.099	2005.27
1015.391	1985.39
1015.683	1969.11
1015.976	2014.09
1016.268	1965.73
1016.56	1965.73
1016.851	1953.97
1017.143	1960.53
1017.435	1897.7
1017.727	1929.57
1018.018	1885.95
1018.31	1884.82
1018.602	1887.54
1018.893	1891.83
1019.185	1837.82
1019.476	1854.54
1019.767	1829.91
1020.058	1806.86
1020.35	1814.54
1020.641	1755.11
1020.932	1768.67
1021.223	1806.63
1021.514	1755.34
1021.804	1739.74
1022.095	1743.58
1022.386	1680.08
1022.677	1723.92
1022.967	1680.99
1023.258	1695.22
1023.548	1630.37
1023.839	1635.79
1024.129	1665.39
1024.419	1622.01
1024.709	1610.93
1025	1599.41
1025.29	1604.83
1025.58	1567.77
1025.87	1589.01
1026.16	1579.97
1026.449	1577.49
1026.739	1556.24
1027.029	1516.92
1027.319	1533.19
1027.608	1521.9
1027.898	1493.42
1028.187	1495.91
1028.477	1512.86
1028.766	1489.81
1029.055	1470.14
1029.344	1422.01
1029.634	1436.02
1029.923	1437.15
1030.212	1417.26
1030.501	1393.31
1030.79	1373.2
1031.078	1361.67
1031.367	1381.11
1031.656	1387.89
1031.945	1376.36
1032.233	1358.06
1032.522	1357.15
1032.81	1337.95
1033.099	1323.93
1033.387	1318.51
1033.675	1290.26
1033.963	1263.6
1034.251	1283.48
1034.54	1284.61
1034.828	1284.39
1035.116	1259.08
1035.403	1245.97
1035.691	1268.12
1035.979	1231.96
1036.267	1236.93
1036.554	1209.13
1036.842	1193.77
1037.129	1193.77
1037.417	1199.87
1037.704	1211.62
1037.992	1181.11
1038.279	1170.27
1038.566	1156.03
1038.853	1156.03
1039.14	1156.03
