Data from breadboard_white_FLMS001491_00080.txt Node
Date: Wed Feb 08 10:48:15 GMT 2017
User: dcchb
Spectrometer: FLMS00149
Trigger mode: 0
Integration Time (sec): 2.000000E-2
Scans to average: 10
Electric dark correction enabled: true
Nonlinearity correction enabled: false
Boxcar width: 0
XAxis mode: Wavelengths
Number of Pixels in Spectrum: 2048
>>>>>Begin Spectral Data<<<<<
341.393	-9.27
341.776	-9.27
342.16	-9.27
342.543	-52.2
342.927	-58.08
343.31	-57.4
343.693	-82.94
344.077	-73.67
344.46	-65.76
344.843	-43.84
345.226	-28.25
345.61	-19.21
345.993	-16.04
346.376	-25.76
346.759	0.9
347.142	26.67
347.525	55.59
347.908	52.43
348.291	76.38
348.674	89.49
349.057	111.41
349.44	112.31
349.823	145.31
350.206	165.65
350.588	218.53
350.971	224.4
351.354	221.46
351.737	257.62
352.119	262.82
352.502	290.61
352.884	299.65
353.267	314.12
353.65	286.09
354.032	303.49
354.414	323.16
354.797	332.65
355.179	322.25
355.562	334.91
355.944	349.6
356.326	337.84
356.709	353.66
357.091	356.83
357.473	360.22
357.855	362.48
358.238	372.42
358.62	368.13
359.002	382.59
359.384	358.18
359.766	354.79
360.148	359.76
360.53	359.99
360.912	374.91
361.294	343.27
361.676	364.28
362.057	359.54
362.439	339.43
362.821	343.27
363.203	341.91
363.584	340.78
363.966	354.11
364.348	369.26
364.729	349.37
365.111	342.59
365.493	347.79
365.874	358.41
366.256	338.97
366.637	341.69
367.019	343.49
367.4	329.03
367.781	341.69
368.163	343.49
368.544	340.33
368.925	317.05
369.306	340.33
369.688	360.22
370.069	339.43
370.45	338.75
370.831	373.78
371.212	352.08
371.593	350.5
371.974	350.05
372.355	353.21
372.736	348.47
373.117	360.44
373.498	353.89
373.879	357.96
374.26	350.5
374.641	352.31
375.021	338.97
375.402	366.77
375.783	362.25
376.163	395.7
376.544	371.74
376.925	369.03
377.305	374.23
377.686	395.7
378.066	362.25
378.447	372.87
378.827	361.57
379.208	381.68
379.588	383.49
379.968	378.52
380.349	378.75
380.729	395.92
381.109	383.72
381.489	387.11
381.87	412.19
382.25	398.41
382.63	401.12
383.01	404.06
383.39	411.06
383.77	412.42
384.15	403.38
384.53	419.42
384.91	418.29
385.29	422.81
385.67	428.01
386.049	433.66
386.429	425.07
386.809	417.84
387.189	448.8
387.568	455.36
387.948	451.97
388.328	458.29
388.707	451.06
389.087	475.92
389.466	457.84
389.846	466.43
390.225	460.78
390.605	498.52
390.984	440.89
391.363	505.98
391.743	476.15
392.122	496.94
392.501	491.74
392.881	521.57
393.26	511.4
393.639	520.89
394.018	525.41
394.397	531.74
394.776	525.41
395.155	517.5
395.534	545.07
395.913	562.47
396.292	541.45
396.671	554.34
397.05	557.27
397.429	579.19
397.808	563.83
398.186	565.18
398.565	588.01
398.944	612.64
399.323	625.52
399.701	604.96
400.08	608.8
400.458	635.24
400.837	632.3
401.215	634.56
401.594	654.22
401.972	678.85
402.351	681.11
402.729	677.72
403.107	680.89
403.486	711.85
403.864	713.2
404.242	699.87
404.62	723.82
404.999	754.78
405.377	768.79
405.755	753.43
406.133	792.07
406.511	821.22
406.889	814.44
407.267	819.64
407.645	856.02
408.023	836.14
408.401	863.71
408.779	870.94
409.156	890.37
409.534	926.3
409.912	915.46
410.29	943.48
410.667	958.84
411.045	984.15
411.422	979.41
411.8	1022.12
412.178	1026.87
412.555	1051.5
412.933	1076.58
413.31	1081.33
413.687	1090.59
414.065	1137.15
414.442	1123.13
414.819	1146.41
415.197	1169.46
415.574	1187.54
415.951	1195.22
416.328	1227.76
416.705	1232.96
417.082	1249.91
417.46	1276.12
417.837	1293.98
418.214	1311.6
418.591	1320.64
418.967	1343.92
419.344	1337.59
419.721	1424.14
420.098	1397.25
420.475	1413.3
420.852	1437.25
421.228	1431.83
421.605	1456.68
421.982	1496.46
422.358	1482.22
422.735	1524.48
423.111	1519.06
423.488	1543.46
423.864	1568.32
424.241	1588.43
424.617	1609.22
424.994	1610.35
425.37	1659.39
425.746	1648.54
426.123	1684.25
426.499	1709.79
426.875	1712.95
427.251	1760.41
427.627	1780.74
428.003	1795.88
428.379	1824.81
428.756	1843.57
429.132	1876.33
429.507	1916.79
429.883	1908.42
430.259	1960.85
430.635	1989.1
431.011	2007.4
431.387	2040.4
431.763	2073.17
432.138	2079.72
432.514	2144.12
432.89	2145.03
433.265	2192.71
433.641	2234.74
434.016	2234.74
434.392	2305.48
434.767	2305.48
435.143	2315.87
435.518	2336.21
435.894	2397.45
436.269	2404.46
436.644	2440.61
437.02	2463.89
437.395	2473.38
437.77	2544.11
438.145	2571.23
438.52	2574.62
438.895	2635.18
439.271	2629.31
439.646	2679.48
440.021	2697.56
440.395	2747.27
440.77	2714.96
441.145	2743.2
441.52	2791.11
441.895	2801.73
442.27	2830.21
442.645	2818.01
443.019	2869.53
443.394	2888.51
443.769	2914.5
444.143	2895.74
444.518	2965.57
444.892	2966.93
445.267	3045.12
445.641	3021.39
446.016	3042.86
446.39	3081.5
446.764	3089.41
447.139	3105
447.513	3125.79
447.887	3165.34
448.262	3187.03
448.636	3199.69
449.01	3191.33
449.384	3296.86
449.758	3284.21
450.132	3346.58
450.506	3350.42
450.88	3400.14
451.254	3372.79
451.628	3430.19
452.002	3459.34
452.376	3551.32
452.75	3586.35
453.123	3571.21
453.497	3666.34
453.871	3661.82
454.244	3737.98
454.618	3734.59
454.992	3844.87
455.365	3863.4
455.739	3924.19
456.112	3972.55
456.486	4002.61
456.859	3999.89
457.232	4148.59
457.606	4149.72
457.979	4184.52
458.352	4303.16
458.725	4333.45
459.099	4331.19
459.472	4441.69
459.845	4498.86
460.218	4511.75
460.591	4537.51
460.964	4612.76
461.337	4698.18
461.71	4808.46
462.083	4834.45
462.456	4837.61
462.829	4888.69
463.201	5010.26
463.574	4988.34
463.947	5078.28
464.32	5208.9
464.692	5236.25
465.065	5259.97
465.438	5362.12
465.81	5386.98
466.183	5524.83
466.555	5601.89
466.928	5680.75
467.3	5671.26
467.672	5779.74
468.045	5923.69
468.417	5935.21
468.789	5960.3
469.161	6071.03
469.534	6137.69
469.906	6292.72
470.278	6335.65
470.65	6437.34
471.022	6589.66
471.394	6654.97
471.766	6729.31
472.138	6785.81
472.51	6954.85
472.882	7047.5
473.253	7100.6
473.625	7251.11
473.997	7414.95
474.369	7463.98
474.74	7537.88
475.112	7668.27
475.484	7825.1
475.855	7976.29
476.227	8067.58
476.598	8207.47
476.97	8311.65
477.341	8558.19
477.713	8665.76
478.084	8753.22
478.455	8999.09
478.827	9018.29
479.198	9290.38
479.569	9334.9
479.94	9632.06
480.311	9700.31
480.682	9886.75
481.053	10106.63
481.424	10304.36
481.795	10326.06
482.166	10545.03
482.537	10676.1
482.908	10901.86
483.279	10948.41
483.65	11247.84
484.021	11498.23
484.391	11648.96
484.762	11683.08
485.133	11812.8
485.503	12041.27
485.874	12224.54
486.244	12416.62
486.615	12653.23
486.985	12829.72
487.356	13046.89
487.726	13158.3
488.097	13454.34
488.467	13441.68
488.837	13749.92
489.207	13848.45
489.578	14062.46
489.948	14237.59
490.318	14443.69
490.688	14484.14
491.058	14770.46
491.428	14984.46
491.798	15057.01
492.168	15394.85
492.538	15465.13
492.908	15677.1
493.278	15814.5
493.648	15884.1
494.017	16134.49
494.387	16312.57
494.757	16393.02
495.126	16675.04
495.496	16773.34
495.866	16754.81
496.235	17107.57
496.605	17179.21
496.974	17270.28
497.344	17492.2
497.713	17504.62
498.082	17655.35
498.452	17837.05
498.821	18065.29
499.19	18073.42
499.559	18307.77
499.928	18483.13
500.298	18608.78
500.667	18847.41
501.036	18730.58
501.405	18934.19
501.774	18984.13
502.143	19249.89
502.512	19258.02
502.88	19418.92
503.249	19499.83
503.618	19643.33
503.987	19750.44
504.356	19813.04
504.724	20040.38
505.093	20168.06
505.462	20300.71
505.83	20457.09
506.199	20606.69
506.567	20815.5
506.936	20893.91
507.304	21081.71
507.672	21108.15
508.041	21317.86
508.409	21522.15
508.777	21709.94
509.145	21843.04
509.514	21850.5
509.882	22151.28
510.25	22211.17
510.618	22444.61
510.986	22504.49
511.354	22734.09
511.722	22897.48
512.09	23043.01
512.458	23063.12
512.826	23309.22
513.193	23489.33
513.561	23546.73
513.929	23836.44
514.297	24025.58
514.664	24130.21
515.032	24353.26
515.4	24511.22
515.767	24593.25
516.135	24741.27
516.502	24721.16
516.869	25117.53
517.237	25256.51
517.604	25248.6
517.972	25622.83
518.339	25820.34
518.706	25872.77
519.073	26066.21
519.44	26217.39
519.808	26583.93
520.175	26542.58
520.542	26992.96
520.909	27094.2
521.276	27129.23
521.643	27411.03
522.009	27635.43
522.376	27736.22
522.743	28022.54
523.11	28284
523.477	28424.11
523.843	28850.31
524.21	29011.21
524.577	29329.4
524.943	29415.5
525.31	29475.61
525.676	29848.48
526.043	29996.27
526.409	30193.1
526.776	30591.06
527.142	30611.85
527.508	30764.84
527.874	30902.24
528.241	31190.82
528.607	31299.29
528.973	31736.79
529.339	31540.19
529.705	31960.06
530.071	32141.98
530.437	32339.71
530.803	32585.58
531.169	32736.09
531.535	32706.71
531.901	32955.07
532.267	33151.44
532.632	33430.31
532.998	33549.4
533.364	33692.67
533.73	33840.01
534.095	34069.39
534.461	34011.76
534.826	34442.26
535.192	34478.42
535.557	34775.36
535.923	34699.65
536.288	34882.47
536.653	35224.84
537.019	35139.42
537.384	35290.6
537.749	35438.84
538.114	35503.7
538.479	35553.64
538.845	35860.98
539.21	35784.37
539.575	35948.66
539.94	36055.1
540.305	36231.14
540.67	36368.08
541.034	36450.79
541.399	36651.24
541.764	36828.41
542.129	36903.89
542.494	37051.91
542.858	37068.86
543.223	37168.06
543.587	37373.93
543.952	37437.21
544.316	37469.98
544.681	37659.12
545.045	37822.06
545.41	37931.43
545.774	38003.52
546.138	38120.81
546.503	38089.62
546.867	38221.59
547.231	38550.17
547.595	38529.83
547.959	38699.1
548.324	38866.77
548.688	38953.78
549.052	39124.39
549.416	39220.21
549.779	39319.64
550.143	39283.49
550.507	39612.07
550.871	39810.25
551.235	39726.87
551.599	40111.04
551.962	40060.64
552.326	40197.59
552.689	40363.46
553.053	40196.46
553.417	40427.19
553.78	40950.56
554.143	40750.34
554.507	41006.61
554.87	41101.29
555.234	41590.09
555.597	41308.52
555.96	41580.83
556.323	41731.33
556.686	41721.61
557.05	42203.41
557.413	42231.43
557.776	42384.87
558.139	42682.04
558.502	42723.62
558.865	42779.44
559.228	43156.61
559.59	43167.9
559.953	43261.01
560.316	43632.75
560.679	43714.1
561.041	43797.27
561.404	44182.57
561.767	44372.39
562.129	44222.11
562.492	44596.57
562.854	44619.84
563.217	44753.4
563.579	45029.55
563.941	45229.32
564.304	45389.09
564.666	45609.87
565.028	45578.46
565.39	45811.22
565.753	45986.59
566.115	46215.96
566.477	46371.89
566.839	46537.76
567.201	46733.46
567.563	46700.47
567.925	47175.26
568.287	47004.41
568.648	47142.26
569.01	47307.68
569.372	47575.25
569.734	47242.6
570.095	47706.54
570.457	47847.1
570.819	47889.36
571.18	47865.41
571.542	48086.65
571.903	48297.94
572.265	48343.59
572.626	48470.82
572.987	48551.04
573.349	48573.41
573.71	48796.91
574.071	48858.38
574.432	49086.17
574.794	49240.29
575.155	49156
575.516	49135.66
575.877	49316.67
576.238	49523.67
576.599	49508.3
576.96	49589.43
577.32	49630.11
577.681	49617.9
578.042	49813.83
578.403	49801.63
578.763	49790.1
579.124	49842.31
579.485	50055.86
579.845	50112.35
580.206	50127.27
580.566	50038.23
580.927	50203.2
581.287	50313.71
581.648	50142.41
582.008	50368.62
582.368	50377.43
582.728	50383.08
583.089	50322.74
583.449	50344.44
583.809	50390.77
584.169	50424.44
584.529	50163.2
584.889	50544.21
585.249	50315.06
585.609	50204.33
585.969	50387.38
586.329	50377.88
586.688	50419.24
587.048	50241.62
587.408	50287.94
587.768	50277.32
588.127	50414.49
588.487	50277.77
588.846	50561.16
589.206	50379.69
589.565	50338.56
589.925	50546.24
590.284	50388.96
590.643	50467.83
591.003	50467.37
591.362	50478.45
591.721	50462.18
592.08	50496.07
592.44	50561.16
592.799	50610.19
593.158	50615.39
593.517	50498.33
593.876	50626.24
594.235	50603.19
594.593	50597.99
594.952	50732.23
595.311	50567.03
595.67	50642.96
596.029	50815.84
596.387	50875.5
596.746	50904.65
597.104	50730.64
597.463	50777.87
597.822	50916.85
598.18	50701.94
598.538	50789.85
598.897	50986.68
599.255	50634.83
599.613	51099.22
599.972	50880.92
600.33	50958.43
600.688	50880.47
601.046	51020.35
601.404	51121.59
601.762	51025.55
602.12	51241.82
602.478	51136.28
602.836	51203.17
603.194	51060.13
603.552	51134.02
603.91	51010.86
604.268	51242.04
604.625	51123.4
604.983	51257.41
605.341	51009.96
605.698	51296.5
606.056	51317.52
606.413	51396.61
606.771	51484.75
607.128	51543.05
607.485	51316.16
607.843	51381.02
608.2	51634.57
608.557	51635.03
608.914	51473.9
609.272	51574.01
609.629	51742.59
609.986	51861.91
610.343	51731.97
610.7	51951.4
611.057	51861.01
611.414	51844.29
611.771	51859.88
612.127	51967
612.484	51989.14
612.841	52049.25
613.198	51910.5
613.554	52029.59
613.911	52159.76
614.267	52142.36
614.624	52181.23
614.98	52161.57
615.337	52335.12
615.693	52258.96
616.05	52270.72
616.406	52392.75
616.762	52384.16
617.118	52369.47
617.475	52272.3
617.831	52336.25
618.187	52472.29
618.543	52448.56
618.899	52646.53
619.255	52573.08
619.611	52395.01
619.967	52596.13
620.323	52678.39
620.678	52585.96
621.034	52412.41
621.39	52538.28
621.746	52424.84
622.101	52852.62
622.457	52530.14
622.812	52690.37
623.168	52730.82
623.523	52778.05
623.879	52825.73
624.234	52577.6
624.589	52670.03
624.945	52686.52
625.3	52694.66
625.655	52618.5
626.01	52667.99
626.365	52651.95
626.72	52657.15
627.075	52698.05
627.43	52532.86
627.785	52455.57
628.14	52540.77
628.495	52630.48
628.85	52504.38
629.205	52399.3
629.559	52647.2
629.914	52476.59
630.269	52447.66
630.623	52329.47
630.978	52328.57
631.332	52451.5
631.687	52500.77
632.041	52353.65
632.396	52325.18
632.75	52272.3
633.104	52355.01
633.459	52163.83
633.813	52158.85
634.167	52130.61
634.521	52151.4
634.875	52232.75
635.229	51988.24
635.583	51874.12
635.937	51920.22
636.291	51884.51
636.645	51868.69
636.999	51754.35
637.352	51932.42
637.706	51737.4
638.06	51808.13
638.413	51765.19
638.767	51659.66
639.121	51612.65
639.474	51458.76
639.828	51540.79
640.181	51460.79
640.534	51414.24
640.888	51437.07
641.241	51241.36
641.594	51306
641.947	51441.36
642.301	51318.88
642.654	51309.84
643.007	51220.57
643.36	51270.52
643.713	51003.4
644.066	51270.52
644.419	51018.55
644.771	50924.99
645.124	50657.88
645.477	50582.17
645.83	50420.6
646.182	50036.88
646.535	49897.22
646.888	49873.49
647.24	49581.75
647.593	49968.18
647.945	49794.17
648.298	49581.97
648.65	49533.61
649.002	49462.2
649.355	49622.2
649.707	49600.05
650.059	49876.2
650.411	50270.77
650.763	50296.98
651.115	50513.25
651.467	50398
651.819	50371.56
652.171	50206.14
652.523	50116.2
652.875	50220.15
653.227	50045.24
653.578	50316.64
653.93	50065.35
654.282	49990.1
654.633	49888.86
654.985	49955.07
655.337	49925.69
655.688	49961.17
656.039	50000.95
656.391	49706.26
656.742	49928.18
657.094	49815.41
657.445	49900.83
657.796	49865.58
658.147	49691.57
658.498	49693.83
658.849	49817.9
659.2	49699.94
659.551	49485.48
659.902	49765.47
660.253	49600.96
660.604	49730.9
660.955	49476.89
661.306	49617.23
661.656	49535.42
662.007	49478.7
662.358	49506.49
662.708	49517.12
663.059	49481.18
663.409	49226.95
663.76	49473.5
664.11	49444.58
664.461	49463.33
664.811	49400.28
665.161	49298.59
665.511	49243.9
665.862	49383.33
666.212	49423.56
666.562	49471.69
666.912	49272.83
667.262	49213.85
667.612	49214.3
667.962	49262.66
668.312	49203.45
668.662	49212.27
669.011	49243.68
669.361	49090.69
669.711	49129.33
670.06	49092.72
670.41	49113.74
670.76	49031.48
671.109	49053.63
671.459	49114.19
671.808	49049.78
672.157	48953.97
672.507	48880.75
672.856	48812.5
673.205	48898.15
673.554	48928.88
673.904	48763.92
674.253	49030.35
674.602	48928.43
674.951	48300.88
675.3	48100.43
675.649	48624.26
675.998	48619.51
676.346	48641.88
676.695	48753.29
677.044	48443.47
677.393	48574.09
677.741	48622.22
678.09	48582
678.438	48380.65
678.787	48510.36
679.135	48492.06
679.484	48209.81
679.832	48261.33
680.181	48140.66
680.529	48247.54
680.877	48001.9
681.225	47911.51
681.573	48318.28
681.922	47962.13
682.27	47846.65
682.618	47830.61
682.966	47692.76
683.314	47843.94
683.661	47702.47
684.009	47612.99
684.357	47334.35
684.705	47353.78
685.053	47409.6
685.4	47302.03
685.748	47178.87
686.095	47071.53
686.443	46865.21
686.79	46851.88
687.138	46887.13
687.485	46824.76
687.832	46792.89
688.18	46661.82
688.527	46575.27
688.874	46514.71
689.221	46500.02
689.568	46313.13
689.915	46239.69
690.262	46281.95
690.609	46104.78
690.956	45961.96
691.303	45908.4
691.65	45626.82
691.997	45861.39
692.344	45474.51
692.69	45507.28
693.037	45502.53
693.383	45081.07
693.73	45352.71
694.077	45102.09
694.423	44982.32
694.769	44833.4
695.116	44848.99
695.462	44650.13
695.808	44618.04
696.155	44656.68
696.501	44360.87
696.847	44262.56
697.193	44093.53
697.539	44128.56
697.885	43904.83
698.231	43856.7
698.577	43869.13
698.923	43625.07
699.269	43452.87
699.614	43307.79
699.96	43226.21
700.306	43350.27
700.651	43069.83
700.997	42915.93
701.342	42825.77
701.688	42800
702.033	42678.2
702.379	42701.02
702.724	42518.43
703.069	42550.97
703.415	42002.96
703.76	42187.37
704.105	42132
704.45	42131.77
704.795	41802.52
705.14	41752.35
705.485	41654.5
705.83	41528.63
706.175	41690.88
706.52	41308.97
706.865	41335.86
707.209	41131.35
707.554	41024.91
707.899	41247.05
708.243	40910.11
708.588	40953.05
708.932	40612.72
709.277	40665.82
709.621	40621.08
709.966	40356.23
710.31	40344.02
710.654	40073.07
710.998	40004.82
711.342	40133.18
711.687	39918.72
712.031	39834.66
712.375	39737.71
712.719	39838.27
713.063	39567.1
713.407	39736.58
713.75	39475.35
714.094	39449.36
714.438	39278.97
714.782	39331.17
715.125	39032.65
715.469	39276.26
715.812	38897.96
716.156	38735.48
716.499	38744.74
716.843	38798.98
717.186	38632.66
717.53	38663.84
717.873	38678.98
718.216	38518.31
718.559	38432.44
718.902	38189.28
719.246	38295.04
719.589	38096.17
719.932	38112.22
720.275	38043.97
720.617	37937.31
720.96	37899.57
721.303	37837.88
721.646	37836.75
721.989	37550.2
722.331	37812.57
722.674	37454.61
723.016	37608.28
723.359	37509.52
723.701	37491.9
724.044	37093.04
724.386	37021.63
724.729	37285.8
725.071	37024.34
725.413	36849.65
725.755	37004.9
726.097	36753.61
726.439	36636.32
726.782	36668.19
727.124	36844.45
727.465	36700.05
727.807	36611.92
728.149	36498.93
728.491	36394.98
728.833	36388.42
729.175	36309.1
729.516	36231.59
729.858	36205.83
730.199	36324.02
730.541	36157.24
730.882	36128.32
731.224	35967.42
731.565	35793.64
731.906	35762.68
732.248	35945.5
732.589	35753.86
732.93	35720.19
733.271	35525.39
733.612	35672.96
733.953	35723.13
734.294	35360.2
734.635	35323.14
734.976	35478.62
735.317	35331.5
735.658	35345.06
735.999	35180.77
736.339	35127.66
736.68	35163.6
737.021	34974.45
737.361	34844.06
737.702	34999.53
738.042	34902.59
738.383	34613.78
738.723	34873.43
739.063	34635.02
739.404	34755.47
739.744	34728.13
740.084	34607.23
740.424	34550.73
740.764	34365.65
741.104	34562.93
741.444	34287.91
741.784	34155.94
742.124	34340.11
742.464	34096.05
742.804	34171.76
743.143	34000.91
743.483	34054.47
743.823	33859.22
744.162	33819.22
744.502	34040.23
744.841	33768.6
745.181	33854.25
745.52	33777.42
745.86	33710.3
746.199	33620.13
746.538	33616.07
746.877	33544.88
747.216	33527.25
747.556	33387.6
747.895	33368.39
748.234	33283.87
748.573	33160.94
748.911	33073.48
749.25	32975.18
749.589	33019.02
749.928	33101.95
750.267	33022.18
750.605	32918.91
750.944	32702.19
751.283	32536.09
751.621	32726.6
751.96	32380.62
752.298	32504
752.636	32403.22
752.975	32236.44
753.313	32151.7
753.651	32242.09
753.989	32106.05
754.327	32087.52
754.666	31855.89
755.004	31735.21
755.342	31918.26
755.679	31762.33
756.017	31563.01
756.355	31633.07
756.693	31398.27
757.031	31480.98
757.368	31326.41
757.706	31316.46
758.044	31022.91
758.381	31224.04
758.719	31029.69
759.056	31103.36
759.394	30785.63
759.731	30628.57
760.068	30688.01
760.405	30640.32
760.743	30443.04
761.08	30541.12
761.417	30311.52
761.754	30303.61
762.091	30068.81
762.428	30156.04
762.765	29898.42
763.102	30058.64
763.438	29824.53
763.775	29646.45
764.112	29563.06
764.449	29733.46
764.785	29542.73
765.122	29262.28
765.458	29165.79
765.795	29139.57
766.131	29200.59
766.467	29156.52
766.804	28856.87
767.14	28664.11
767.476	28803.54
767.812	28603.54
768.148	28558.8
768.485	28380.04
768.821	28286.71
769.157	28366.71
769.492	27998.13
769.828	28152.71
770.164	27943.22
770.5	27819.83
770.836	27811.7
771.171	27655.77
771.507	27426.17
771.842	27326.29
772.178	27404.93
772.513	27294.65
772.849	27190.47
773.184	27079.29
773.519	27005.84
773.855	26924.94
774.19	26802.01
774.525	26633.2
774.86	26709.58
775.195	26571.05
775.53	26436.14
775.865	26222.81
776.2	26179.88
776.535	25892.88
776.87	26075.92
777.205	25867.34
777.539	25801.58
777.874	25687.01
778.209	25509.84
778.543	25449.95
778.878	25461.7
779.212	25372.21
779.547	25131.77
779.881	25215.38
780.215	25131.09
780.55	25122.05
780.884	24877.31
781.218	24775.85
781.552	24689.97
781.886	24658.79
782.22	24433.71
782.554	24459.24
782.888	24292.47
783.222	24169.53
783.556	24055.41
783.889	24032.14
784.223	23861.75
784.557	23799.15
784.89	23865.81
785.224	23711.47
785.557	23585.14
785.891	23498.37
786.224	23442.1
786.558	23468.76
786.891	23200.07
787.224	23195.55
787.557	23123.46
787.891	22994.65
788.224	23020.19
788.557	22914.43
788.89	22864.26
789.223	22883.01
789.556	22650.48
789.888	22560.76
790.221	22544.49
790.554	22400.77
790.887	22286.42
791.219	22294.78
791.552	22208
791.884	22113.99
792.217	22059.31
792.549	21873.78
792.882	21879.65
793.214	21728.47
793.546	21670.16
793.879	21604.4
794.211	21411.64
794.543	21598.53
794.875	21397.18
795.207	21390.17
795.539	21339.78
795.871	21149.27
796.203	21111.31
796.535	21064.76
796.867	21029.73
797.198	20829.28
797.53	20854.82
797.862	20709.96
798.193	20706.12
798.525	20636.75
798.856	20658.89
799.188	20469.52
799.519	20380.71
799.85	20305
800.182	20275.17
800.513	20247.83
800.844	20145.91
801.175	20213.48
801.506	20291.22
801.837	20154.95
802.168	19947.95
802.499	20000.38
802.83	19793.83
803.161	19756.77
803.491	19779.14
803.822	19643.78
804.153	19548.86
804.483	19408.08
804.814	19279.95
805.145	19418.7
805.475	19332.37
805.805	19180.96
806.136	19302.32
806.466	19270.91
806.796	19143
807.126	19049.67
807.457	18979.16
807.787	18949.33
808.117	18870.69
808.447	18813.52
808.777	18821.43
809.107	18760.41
809.436	18622.34
809.766	18602.9
810.096	18545.73
810.426	18528.1
810.755	18556.35
811.085	18364.04
811.414	18393.87
811.744	18299.41
812.073	18209.92
812.403	18252.4
812.732	18127.88
813.061	18090.15
813.39	18017.15
813.719	17962.69
814.049	18058.51
814.378	18008.79
814.707	17868
815.036	17870.26
815.365	17790.49
815.693	17565.19
816.022	17595.7
816.351	17567.67
816.68	17515.25
817.008	17538.52
817.337	17326.32
817.665	17343.72
817.994	17324.52
818.322	17292.88
818.651	17182.6
818.979	17258.3
819.307	17282.48
819.636	17321.35
819.964	17054.47
820.292	17139.66
820.62	17109.15
820.948	17071.64
821.276	17113.45
821.604	17153
821.932	17072.09
822.259	17047.24
822.587	17094.01
822.915	16959.78
823.243	17100.57
823.57	16942.15
823.898	16986.22
824.225	16956.39
824.553	16967.46
824.88	17048.14
825.207	17087.01
825.535	16938.54
825.862	17035.03
826.189	16926.56
826.516	16963.85
826.843	17083.62
827.17	17009.5
827.497	17019.44
827.824	17020.57
828.151	17012.66
828.478	16900.12
828.805	17084.07
829.131	16969.27
829.458	16883.17
829.785	16813.12
830.111	16840.24
830.438	16878.88
830.764	16865.32
831.09	16899.44
831.417	16743.74
831.743	16812.44
832.069	16834.13
832.395	16786.68
832.722	16890.18
833.048	16733.35
833.374	16786.68
833.7	16681.37
834.026	16729.05
834.351	16738.99
834.677	16588.72
835.003	16727.24
835.329	16721.59
835.654	16652.9
835.98	16594.82
836.306	16542.62
836.631	16547.36
836.956	16539.68
837.282	16531.09
837.607	16434.82
837.932	16459.68
838.258	16428.72
838.583	16358.21
838.908	16324.32
839.233	16370.64
839.558	16240.7
839.883	16140.37
840.208	16203.19
840.533	16191.44
840.858	16171.1
841.182	16146.02
841.507	16226.47
841.832	16018.34
842.156	16073.48
842.481	16047.04
842.805	16002.07
843.13	15940.6
843.454	15807.27
843.778	15798.45
844.103	15779.25
844.427	15724.33
844.751	15661.74
845.075	15758
845.399	15629.87
845.723	15574.28
846.047	15575.64
846.371	15458.12
846.695	15416.77
847.019	15307.85
847.343	15303.1
847.666	15136.1
847.99	15130.68
848.313	15177
848.637	15013.84
848.96	15009.55
849.284	15036.44
849.607	14856.33
849.931	14806.16
850.254	14706.28
850.577	14623.8
850.9	14635.1
851.223	14507.87
851.546	14444.37
851.869	14278.04
852.192	14402.56
852.515	14223.13
852.838	14211.6
853.161	14184.03
853.483	14105.17
853.806	14103.13
854.129	14117.59
854.451	13935.68
854.774	13873.76
855.096	13893.19
855.419	13842.12
855.741	13836.47
856.063	13732.75
856.385	13777.04
856.708	13691.84
857.03	13617.04
857.352	13567.1
857.674	13525.97
857.996	13488.46
858.318	13422.7
858.64	13451.62
858.961	13388.8
859.283	13376.6
859.605	13310.84
859.926	13331.4
860.248	13331.17
860.57	13233.32
860.891	13222.03
861.212	13102.25
861.534	13111.75
861.855	13189.71
862.176	13191.97
862.498	13095.47
862.819	12959.66
863.14	13056.15
863.461	12918.3
863.782	12944.07
864.103	12982.48
864.424	12853.45
864.745	12935.93
865.065	12847.57
865.386	12845.76
865.707	12770.74
866.027	12721.47
866.348	12676.05
866.668	12686.67
866.989	12636.73
867.309	12531.2
867.63	12566
867.95	12502.95
868.27	12548.82
868.59	12466.34
868.91	12494.59
869.23	12407.81
869.55	12320.35
869.87	12514.25
870.19	12427.7
870.51	12385.89
870.83	12397.87
871.15	12299.11
871.469	12287.59
871.789	12321.71
872.109	12309.28
872.428	12285.55
872.748	12206.23
873.067	12267.93
873.386	12176.85
873.706	12237.19
874.025	12123.98
874.344	12121.72
874.663	12086.24
874.982	12092.56
875.301	12117.42
875.62	12064.77
875.939	12019.12
876.258	11979.12
876.577	11955.62
876.896	11901.16
877.214	11922.62
877.533	11925.34
877.852	11898.44
878.17	11903.87
878.489	11886.69
878.807	11987.48
879.125	11856.86
879.444	11897.09
879.762	11744.32
880.08	11721.73
880.398	11704.55
880.716	11699.13
881.034	11713.59
881.352	11751.78
881.67	11582.29
881.988	11632.69
882.306	11615.06
882.624	11568.96
882.941	11572.13
883.259	11499.58
883.577	11443.77
883.894	11429.53
884.212	11472.01
884.529	11470.66
884.846	11378.91
885.164	11452.81
885.481	11371.9
885.798	11322.87
886.115	11285.35
886.432	11311.57
886.75	11240.16
887.067	11252.81
887.383	11263.66
887.7	11257.78
888.017	11154.28
888.334	11137.79
888.651	11110.22
888.967	11171.91
889.284	10994.51
889.6	10945.25
889.917	10894.4
890.233	10905.48
890.55	10874.97
890.866	10907.74
891.182	10826.61
891.498	10832.71
891.815	10775.99
892.131	10715.65
892.447	10730.57
892.763	10646.27
893.079	10681.3
893.395	10593.62
893.71	10552.26
894.026	10560.4
894.342	10554.98
894.657	10479.5
894.973	10465.04
895.289	10391.14
895.604	10430.01
895.92	10309.56
896.235	10229.11
896.55	10272.95
896.865	10277.92
897.181	10212.84
897.496	10245.15
897.811	10128.1
898.126	10152.95
898.441	10085.61
898.756	10020.98
899.071	9986.63
899.386	10004.03
899.7	9926.74
900.015	9877.93
900.33	9875.67
900.644	9803.36
900.959	9813.08
901.273	9790.48
901.588	9758.16
901.902	9710.25
902.216	9548.68
902.531	9622.8
902.845	9600.88
903.159	9488.56
903.473	9498.51
903.787	9490.15
904.101	9458.06
904.415	9439.3
904.729	9422.13
905.042	9374.22
905.356	9317.04
905.67	9274.56
905.984	9274.56
906.297	9245.86
906.611	9112.53
906.924	9208.8
907.237	9121.79
907.551	9125.41
907.864	9006.32
908.177	8921.8
908.491	8960.44
908.804	8979.2
909.117	8834.34
909.43	8844.51
909.743	8792.76
910.056	8761.58
910.368	8739.43
910.681	8668.47
910.994	8652.88
911.307	8617.85
911.619	8584.18
911.932	8600.9
912.244	8562.94
912.557	8476.61
912.869	8435.03
913.181	8430.06
913.494	8446.33
913.806	8347.8
914.118	8303.06
914.43	8222.16
914.742	8228.71
915.054	8153.46
915.366	8205.66
915.678	8165.89
915.99	8122.27
916.302	8050.86
916.613	7999.79
916.925	8019
917.236	7942.39
917.548	7946.68
917.859	7941.03
918.171	7907.36
918.482	7858.32
918.794	7732.9
919.105	7827.14
919.416	7690.87
919.727	7732.45
920.038	7670.53
920.349	7653.81
920.66	7624.88
920.971	7575.62
921.282	7567.94
921.593	7507.6
921.903	7457.66
922.214	7463.76
922.525	7421.05
922.835	7452.69
923.146	7361.61
923.456	7368.39
923.767	7262.63
924.077	7224.44
924.387	7260.37
924.697	7163.2
925.008	7200.71
925.318	7173.6
925.628	7100.38
925.938	7108.06
926.248	7029.42
926.558	6987.61
926.867	7027.61
927.177	6916.65
927.487	6928.86
927.796	6833.94
928.106	6850.22
928.416	6836.88
928.725	6817.22
929.034	6760.05
929.344	6707.62
929.653	6716.89
929.962	6645.02
930.271	6651.12
930.581	6657.9
930.89	6604.57
931.199	6550.11
931.508	6531.13
931.817	6552.14
932.125	6541.07
932.434	6452.94
932.743	6439.83
933.051	6414.52
933.36	6448.19
933.669	6329.1
933.977	6327.07
934.286	6299.72
934.594	6280.51
934.902	6254.98
935.21	6207.75
935.519	6199.84
935.827	6144.02
936.135	6169.56
936.443	6043.46
936.751	6085.26
937.059	6016.34
937.367	6036
937.674	6087.98
937.982	5991.71
938.29	5972.72
938.597	5982.44
938.905	5875.33
939.213	5860.86
939.52	5768.89
939.827	5824.25
940.135	5788.77
940.442	5728.44
940.749	5693.41
941.056	5764.37
941.363	5669.91
941.67	5629.23
941.977	5629.23
942.284	5626.52
942.591	5591.27
942.898	5568.22
943.205	5561.66
943.511	5520.53
943.818	5520.08
944.125	5514.88
944.431	5449.12
944.738	5457.94
945.044	5400.76
945.35	5361.21
945.657	5367.54
945.963	5358.05
946.269	5317.83
946.575	5310.37
946.881	5273.53
947.187	5245.51
947.493	5224.27
947.799	5219.98
948.105	5160.99
948.41	5128.23
948.716	5189.24
949.022	5100.2
949.327	5135.91
949.633	5039.64
949.938	5061.56
950.244	5047.1
950.549	5057.04
950.854	4980.21
951.16	4970.04
951.465	4918.74
951.77	4918.74
952.075	4874
952.38	4906.76
952.685	4884.84
952.99	4810.49
953.294	4853.66
953.599	4791.51
953.904	4748.12
954.209	4741.12
954.513	4759.65
954.818	4702.93
955.122	4724.85
955.426	4682.14
955.731	4681.91
956.035	4653.21
956.339	4596.26
956.643	4601.91
956.948	4553.55
957.252	4532.31
957.556	4489.6
957.86	4502.48
958.163	4517.17
958.467	4483.27
958.771	4424.74
959.075	4448.24
959.378	4449.83
959.682	4380.45
959.985	4354.69
960.289	4336.61
960.592	4311.98
960.896	4335.03
961.199	4280.57
961.502	4226.1
961.805	4260.9
962.108	4227.23
962.411	4179.78
962.714	4169.38
963.017	4171.87
963.32	4133
963.623	4116.95
963.926	4133.22
964.228	4119.21
964.531	4046.22
964.833	4050.97
965.136	4066.11
965.438	4047.13
965.741	4043.74
966.043	3993.34
966.345	3984.75
966.648	3974.36
966.95	3975.49
967.252	3932.1
967.554	3933.91
967.856	3887.13
968.158	3890.29
968.46	3883.97
968.761	3878.09
969.063	3848.03
969.365	3829.05
969.666	3799.22
969.968	3763.06
970.269	3770.52
970.571	3773.46
970.872	3751.31
971.174	3708.38
971.475	3742.95
971.776	3707.93
972.077	3653.01
972.378	3662.05
972.679	3657.08
972.98	3628.61
973.281	3610.3
973.582	3594.93
973.883	3561.04
974.183	3608.04
974.484	3522.62
974.785	3527.59
975.085	3542.05
975.386	3530.08
975.686	3499.12
975.986	3462.06
976.287	3466.12
976.587	3437.88
976.887	3446.24
977.187	3428.38
977.487	3394.49
977.787	3396.97
978.087	3401.94
978.387	3351.1
978.687	3318.78
978.987	3291.89
979.286	3319.23
979.586	3310.42
979.885	3307.03
980.185	3256.86
980.484	3267.71
980.784	3226.36
981.083	3263.87
981.382	3187.03
981.682	3192.46
981.981	3175.51
982.28	3112.91
982.579	3131.9
982.878	3137.54
983.177	3125.34
983.475	3110.2
983.774	3075.63
984.073	3105.23
984.372	3067.72
984.67	3094.16
984.969	3060.94
985.267	3009.86
985.566	3057.55
985.864	2997.44
986.162	3027.27
986.461	2973.48
986.759	2947.49
987.057	2900.71
987.355	2929.64
987.653	2991.56
987.951	2926.48
988.249	2880.6
988.547	2882.64
988.844	2868.85
989.142	2867.04
989.44	2833.15
989.737	2817.1
990.035	2793.82
990.332	2823.2
990.63	2794.95
990.927	2754.05
991.224	2696.2
991.521	2764
991.819	2753.6
992.116	2720.15
992.413	2731.23
992.71	2677.9
993.006	2669.53
993.303	2657.56
993.6	2679.48
993.897	2677.67
994.193	2647.61
994.49	2614.39
994.787	2611
995.083	2615.75
995.379	2594.28
995.676	2558.8
995.972	2547.28
996.268	2543.66
996.565	2515.87
996.861	2512.7
997.157	2486.49
997.453	2510.89
997.749	2442.65
998.044	2441.97
998.34	2446.26
998.636	2452.59
998.932	2420.28
999.227	2399.94
999.523	2359.94
999.818	2403.33
1000.114	2350.67
1000.409	2397.9
1000.704	2354.51
1001	2358.13
1001.295	2333.5
1001.59	2352.48
1001.885	2291.92
1002.18	2277
1002.475	2282.43
1002.77	2271.8
1003.065	2233.84
1003.359	2250.34
1003.654	2220.96
1003.949	2209.89
1004.243	2231.58
1004.538	2182.09
1004.832	2187.29
1005.127	2171.47
1005.421	2110.45
1005.715	2170.79
1006.009	2103.22
1006.304	2126.05
1006.598	2093.73
1006.892	2078.36
1007.186	2079.27
1007.48	2086.27
1007.773	2051.02
1008.067	2049.21
1008.361	2034.3
1008.655	1988.87
1008.948	2011.02
1009.242	1991.81
1009.535	1971.47
1009.829	1982.55
1010.122	1957.46
1010.415	1943.68
1010.708	1950.68
1011.001	1919.27
1011.295	1931.02
1011.588	1888.99
1011.881	1878.82
1012.173	1874.3
1012.466	1861.42
1012.759	1863.91
1013.052	1857.13
1013.344	1831.14
1013.637	1837.69
1013.93	1814.19
1014.222	1831.82
1014.514	1799.27
1014.807	1801.31
1015.099	1767.64
1015.391	1755.89
1015.683	1737.13
1015.976	1780.74
1016.268	1752.5
1016.56	1737.13
1016.851	1714.31
1017.143	1718.82
1017.435	1673.18
1017.727	1682.44
1018.018	1671.37
1018.31	1662.78
1018.602	1635.66
1018.893	1645.83
1019.185	1640.86
1019.476	1622.33
1019.767	1594.76
1020.058	1609.22
1020.35	1577.13
1020.641	1599.51
1020.932	1569.45
1021.223	1552.5
1021.514	1551.82
1021.804	1510.69
1022.095	1513.86
1022.386	1505.27
1022.677	1507.31
1022.967	1481.32
1023.258	1478.61
1023.548	1454.43
1023.839	1453.07
1024.129	1464.37
1024.419	1440.64
1024.709	1467.31
1025	1410.13
1025.29	1421.88
1025.58	1406.97
1025.87	1389.34
1026.16	1384.6
1026.449	1381.43
1026.739	1375.56
1027.029	1366.74
1027.319	1373.3
1027.608	1345.05
1027.898	1340.08
1028.187	1316.35
1028.477	1340.08
1028.766	1305.95
1029.055	1303.92
1029.344	1319.97
1029.634	1329.46
1029.923	1288.33
1030.212	1274.99
1030.501	1274.09
1030.79	1244.26
1031.078	1279.97
1031.367	1255.79
1031.656	1209.91
1031.945	1216.69
1032.233	1245.84
1032.522	1204.04
1032.81	1217.14
1033.099	1180.08
1033.387	1189.57
1033.675	1203.81
1033.963	1163.36
1034.251	1168.56
1034.54	1120.65
1034.828	1169.91
1035.116	1126.3
1035.403	1113.64
1035.691	1123.13
1035.979	1106.64
1036.267	1106.41
1036.554	1077.49
1036.842	1090.14
1037.129	1100.54
1037.417	1074.1
1037.704	1059.86
1037.992	1064.6
1038.279	1048.79
1038.566	1047.43
1038.853	1047.43
1039.14	1047.43
