Data from breadboard_black_back_FLMS001491_00079.txt Node
Date: Wed Feb 08 10:50:54 GMT 2017
User: dcchb
Spectrometer: FLMS00149
Trigger mode: 0
Integration Time (sec): 2.000000E-2
Scans to average: 10
Electric dark correction enabled: true
Nonlinearity correction enabled: false
Boxcar width: 0
XAxis mode: Wavelengths
Number of Pixels in Spectrum: 2048
>>>>>Begin Spectral Data<<<<<
341.393	-15.96
341.776	-15.96
342.16	-15.96
342.543	-54.38
342.927	-70.42
343.31	-80.59
343.693	-97.54
344.077	-51.89
344.46	-46.47
344.843	-57.54
345.226	-35.62
345.61	-37.43
345.993	-2.63
346.376	1.21
346.759	17.94
347.142	36.02
347.525	48.22
347.908	65.85
348.291	76.01
348.674	72.85
349.057	91.61
349.44	123.25
349.823	139.74
350.206	171.83
350.588	231.04
350.971	222.9
351.354	226.97
351.737	242.34
352.119	266.97
352.502	261.32
352.884	271.04
353.267	280.08
353.65	298.38
354.032	282.56
354.414	324.82
354.797	331.15
355.179	323.92
355.562	334.31
355.944	324.14
356.326	337.25
356.709	361.88
357.091	342.45
357.473	339.06
357.855	356.46
358.238	343.58
358.62	352.84
359.002	344.71
359.384	345.84
359.766	352.17
360.148	363.92
360.53	337.93
360.912	325.5
361.294	338.38
361.676	361.21
362.057	354.43
362.439	329.79
362.821	368.44
363.203	344.71
363.584	338.38
363.966	351.71
364.348	344.71
364.729	345.61
365.111	335.44
365.493	341.09
365.874	336.8
366.256	318.72
366.637	332.05
367.019	334.31
367.4	352.17
367.781	329.12
368.163	343.35
368.544	327.99
368.925	332.51
369.306	333.18
369.688	349.23
370.069	346.97
370.45	356.69
370.831	341.32
371.212	353.07
371.593	345.61
371.974	328.66
372.355	350.81
372.736	344.93
373.117	369.34
373.498	351.26
373.879	366.63
374.26	328.89
374.641	340.87
375.021	339.96
375.402	351.49
375.783	359.85
376.163	379.51
376.544	377.93
376.925	375.89
377.305	377.25
377.686	356.91
378.066	355.78
378.447	370.7
378.827	380.64
379.208	381.32
379.588	375.44
379.968	383.58
380.349	390.58
380.729	383.35
381.109	373.63
381.489	397.36
381.87	377.48
382.25	396.01
382.63	411.6
383.01	389.68
383.39	410.92
383.77	383.35
384.15	405.5
384.53	415.67
384.91	408.44
385.29	440.07
385.67	432.62
386.049	444.59
386.429	432.84
386.809	422.9
387.189	421.54
387.568	436.91
387.948	451.37
388.328	451.82
388.707	463.58
389.087	456.8
389.466	462.9
389.846	447.08
390.225	453.86
390.605	481.65
390.984	479.39
391.363	480.98
391.743	480.52
392.122	464.03
392.501	514.42
392.881	491.15
393.26	506.06
393.639	509.68
394.018	484.37
394.397	514.87
394.776	481.88
395.155	507.42
395.534	503.12
395.913	533.86
396.292	530.24
396.671	529.34
397.05	538.38
397.429	552.39
397.808	530.92
398.186	546.29
398.565	542.22
398.944	540.86
399.323	569.79
399.701	552.84
400.08	565.72
400.458	566.4
400.837	576.34
401.215	579.73
401.594	587.19
401.972	595.1
402.351	594.42
402.729	576.57
403.107	598.71
403.486	595.78
403.864	606.17
404.242	621.09
404.62	623.57
404.999	621.09
405.377	649.11
405.755	650.92
406.133	683.68
406.511	669.67
406.889	645.72
407.267	664.93
407.645	691.14
408.023	698.15
408.401	697.92
408.779	722.55
409.156	711.03
409.534	687.52
409.912	697.02
410.29	721.65
410.667	736.11
411.045	732.04
411.422	770.69
411.8	748.99
412.178	763.23
412.555	779.95
412.933	789.44
413.31	785.15
413.687	807.75
414.065	817.92
414.442	822.44
414.819	814.3
415.197	823.79
415.574	829.22
415.951	852.27
416.328	854.75
416.705	841.64
417.082	842.32
417.46	875.32
417.837	894.07
418.214	893.85
418.591	907.41
418.967	903.34
419.344	932.72
419.721	938.59
420.098	936.78
420.475	948.31
420.852	937.24
421.228	965.26
421.605	948.08
421.982	987.86
422.358	962.32
422.735	1005.48
423.111	1002.32
423.488	1035.54
423.864	1030.57
424.241	1026.95
424.617	1027.63
424.994	1037.57
425.37	1064.01
425.746	1048.42
426.123	1112.37
426.499	1099.26
426.875	1106.5
427.251	1135.65
427.627	1144.01
428.003	1134.07
428.379	1159.83
428.756	1156.44
429.132	1200.51
429.507	1222.65
429.883	1227.4
430.259	1248.87
430.635	1224.69
431.011	1243.89
431.387	1317.56
431.763	1304.91
432.138	1310.11
432.514	1310.11
432.89	1326.83
433.265	1370.22
433.641	1355.53
434.016	1381.74
434.392	1407.28
434.767	1432.36
435.143	1429.43
435.518	1464.68
435.894	1429.65
436.269	1527.73
436.644	1508.07
437.02	1528.86
437.395	1556.65
437.77	1539.93
438.145	1579.7
438.52	1585.13
438.895	1634.62
439.271	1599.82
439.646	1655.63
440.021	1668.06
440.395	1660.38
440.77	1624.22
441.145	1684.79
441.52	1713.03
441.895	1689.31
442.27	1723.2
442.645	1693.6
443.019	1741.96
443.394	1758
443.769	1779.92
444.143	1776.76
444.518	1803.65
444.892	1796.2
445.267	1823.09
445.641	1789.42
446.016	1827.61
446.39	1831.68
446.764	1865.8
447.139	1859.24
447.513	1880.94
447.887	1871.67
448.262	1903.76
448.636	1914.16
449.01	1931.11
449.384	1974.72
449.758	1974.5
450.132	1988.73
450.506	1977.43
450.88	2011.78
451.254	2040.94
451.628	2037.55
452.002	2080.03
452.376	2103.08
452.75	2135.62
453.123	2128.84
453.497	2173.81
453.871	2229.86
454.244	2207.71
454.618	2225.56
454.992	2277.54
455.365	2260.82
455.739	2306.01
456.112	2336.75
456.486	2376.29
456.859	2379.01
457.232	2442.28
457.606	2466.46
457.979	2466.23
458.352	2512.79
458.725	2589.85
459.099	2568.38
459.472	2644.31
459.845	2653.57
460.218	2686.57
460.591	2717.53
460.964	2706
461.337	2778.77
461.71	2830.52
462.083	2857.18
462.456	2845.43
462.829	2859.44
463.201	2939.44
463.574	2962.94
463.947	2969.95
464.32	3049.95
464.692	3049.27
465.065	3083.17
465.438	3151.41
465.81	3225.08
466.183	3249.26
466.555	3311.64
466.928	3291.3
467.3	3285.42
467.672	3373.1
468.045	3439.99
468.417	3507.56
468.789	3497.39
469.161	3531.29
469.534	3578.75
469.906	3694.45
470.278	3728.12
470.65	3735.81
471.022	3835.92
471.394	3884.73
471.766	3887.89
472.138	3956.36
472.51	4045.4
472.882	4090.37
473.253	4120.88
473.625	4221.22
473.997	4258.05
474.369	4327.88
474.74	4339.63
475.112	4457.59
475.484	4548.67
475.855	4574.88
476.227	4623.69
476.598	4723.35
476.97	4810.81
477.341	4876.79
477.713	4994.53
478.084	4986.62
478.455	5159.05
478.827	5206.5
479.198	5335.99
479.569	5358.81
479.94	5526.49
480.311	5482.2
480.682	5612.37
481.053	5775.3
481.424	5936.2
481.795	5898.23
482.166	6041.51
482.537	6140.49
482.908	6226.81
483.279	6333.7
483.65	6439.01
484.021	6483.76
484.391	6618.44
484.762	6671.77
485.133	6739.34
485.503	6809.4
485.874	7010.97
486.244	7089.62
486.615	7157.18
486.985	7282.15
487.356	7370.29
487.726	7440.34
488.097	7646.89
488.467	7612.77
488.837	7816.38
489.207	7928.69
489.578	8008.69
489.948	8065.18
490.318	8277.83
490.688	8186.54
491.058	8423.82
491.428	8463.82
491.798	8568.22
492.168	8728.22
492.538	8719.4
492.908	8916.91
493.278	9008.89
493.648	9053.63
494.017	9107.87
494.387	9210.69
494.757	9290.91
495.126	9396.9
495.496	9459.72
495.866	9573.39
496.235	9661.75
496.605	9689.1
496.974	9757.57
497.344	9882.54
497.713	9966.38
498.082	10058.35
498.452	10132.47
498.821	10174.96
499.19	10170.89
499.559	10363.43
499.928	10406.82
500.298	10473.71
500.667	10600.71
501.036	10621.5
501.405	10737.88
501.774	10709.18
502.143	10820.82
502.512	10852.45
502.88	11005.45
503.249	11009.74
503.618	11101.26
503.987	11138.32
504.356	11230.52
504.724	11334.7
505.093	11353.23
505.462	11477.07
505.83	11521.36
506.199	11644.3
506.567	11785.54
506.936	11781.7
507.304	11997.06
507.672	12039.09
508.041	12126.32
508.409	12204.51
508.777	12253.32
509.145	12389.36
509.514	12387.78
509.882	12452.64
510.25	12495.12
510.618	12620.54
510.986	12814.89
511.354	12853.98
511.722	12978.95
512.09	13070.93
512.458	13067.09
512.826	13196.8
513.193	13247.87
513.561	13336.46
513.929	13452.39
514.297	13553.63
514.664	13656.9
515.032	13753.4
515.4	13954.29
515.767	13958.59
516.135	14073.61
516.502	14062.99
516.869	14234.74
517.237	14281.74
517.604	14375.53
517.972	14486.03
518.339	14626.59
518.706	14629.3
519.073	14719.47
519.44	14833.59
519.808	14936.64
520.175	14976.19
520.542	15310.19
520.909	15344.31
521.276	15402.39
521.643	15591.09
522.009	15750.86
522.376	15748.15
522.743	15944.98
523.11	16032.66
523.477	16185.2
523.843	16257.51
524.21	16389.94
524.577	16586.99
524.943	16721.45
525.31	16841.45
525.676	17010.48
526.043	16995.34
526.409	17111.05
526.776	17363.47
527.142	17348.1
527.508	17499.74
527.874	17554.43
528.241	17794.42
528.607	17866.51
528.973	18035.77
529.339	18030.35
529.705	18319.83
530.071	18394.86
530.437	18389.66
530.803	18615.19
531.169	18635.75
531.535	18651.35
531.901	18748.29
532.267	18862.64
532.632	19021.05
532.998	19078.68
533.364	19123.65
533.73	19287.71
534.095	19318.45
534.461	19435.28
534.826	19509.63
535.192	19607.93
535.557	19803.41
535.923	19864.2
536.288	19897.64
536.653	19990.29
537.019	20004.08
537.384	20090.4
537.749	20209.27
538.114	20333.79
538.479	20258.54
538.845	20429.6
539.21	20482.26
539.575	20571.75
539.94	20527.68
540.305	20649.94
540.67	20739.88
541.034	20823.49
541.399	20933.55
541.764	20990.27
542.129	21121.56
542.494	21127.44
542.858	21280.88
543.223	21333.54
543.587	21452.4
543.952	21476.36
544.316	21564.72
544.681	21570.37
545.045	21676.58
545.41	21805.39
545.774	21851.49
546.138	21828.89
546.503	21945.72
546.867	21909.34
547.231	22122.67
547.595	22274.3
547.959	22338.48
548.324	22195.21
548.688	22387.29
549.052	22575.99
549.416	22576.89
549.779	22568.08
550.143	22705.25
550.507	22755.64
550.871	22843.33
551.235	22823.44
551.599	22972.14
551.962	23134.17
552.326	23178.46
552.689	23339.58
553.053	23194.05
553.417	23417.1
553.78	23656.86
554.143	23565.11
554.507	23657.09
554.87	23783.87
555.234	24009.85
555.597	23961.94
555.96	23954.94
556.323	24202.16
556.686	24153.12
557.05	24337.3
557.413	24479.22
557.776	24510.17
558.139	24596.95
558.502	24671.3
558.865	24729.38
559.228	24961.01
559.59	25019.99
559.953	25092.08
560.316	25442.35
560.679	25388.34
561.041	25584.27
561.404	25678.51
561.767	25792.4
562.129	25772.51
562.492	26018.38
562.854	25992.17
563.217	26116.46
563.579	26210.7
563.941	26429.45
564.304	26459.28
564.666	26643.45
565.028	26628.54
565.39	26909.66
565.753	26987.4
566.115	27034.63
566.477	27174.06
566.839	27142.42
567.201	27460.38
567.563	27475.75
567.925	27687.72
568.287	27667.15
568.648	27700.15
569.01	27877.32
569.372	28019.46
569.734	27990.31
570.095	28138.33
570.457	28276.86
570.819	28317.98
571.18	28360.92
571.542	28549.62
571.903	28507.13
572.265	28649.5
572.626	28748.93
572.987	28743.06
573.349	28892.21
573.71	28946.22
574.071	29049.49
574.432	29169.94
574.794	29445.64
575.155	29348.92
575.516	29313.89
575.877	29473.89
576.238	29453.55
576.599	29649.25
576.96	29609.02
577.32	29695.8
577.681	29662.58
578.042	29750.94
578.403	29770.83
578.763	29852.41
579.124	29809.7
579.485	30007.66
579.845	30079.07
580.206	30088.11
580.566	30000.65
580.927	30147.09
581.287	30202.68
581.648	30119.74
582.008	30260.08
582.368	30186.64
582.728	30348.21
583.089	30265.73
583.449	30215.56
583.809	30237.71
584.169	30346.63
584.529	30301.66
584.889	30500.53
585.249	30333.75
585.609	30259.4
585.969	30598.15
586.329	30456.23
586.688	30529
587.048	30487.42
587.408	30384.37
587.768	30402.68
588.127	30402
588.487	30367.87
588.846	30634.53
589.206	30400.42
589.565	30397.7
589.925	30576.91
590.284	30525.61
590.643	30510.69
591.003	30609.22
591.362	30664.14
591.721	30547.3
592.08	30638.83
592.44	30715.89
592.799	30706.4
593.158	30659.39
593.517	30735.77
593.876	30648.32
594.235	30656.91
594.593	30756.11
594.952	30712.05
595.311	30819.61
595.67	30889.44
596.029	30969.67
596.387	30816.22
596.746	31051.92
597.104	30819.84
597.463	30826.39
597.822	30904.36
598.18	30854.41
598.538	30940.74
598.897	31081.08
599.255	30822.55
599.613	31197
599.972	31100.06
600.33	31159.27
600.688	31030.68
601.046	31137.12
601.404	31238.59
601.762	31190
602.12	31339.6
602.478	31397.23
602.836	31355.19
603.194	31199.26
603.552	31270.22
603.91	31216.89
604.268	31319.71
604.625	31375.76
604.983	31460.73
605.341	31280.84
605.698	31449.88
606.056	31499.6
606.413	31459.6
606.771	31475.87
607.128	31638.8
607.485	31431.12
607.843	31542.76
608.2	31808.06
608.557	31845.58
608.914	31832.92
609.272	31880.6
609.629	31970.54
609.986	32077.43
610.343	31841.06
610.7	32061.84
611.057	31961.05
611.414	32035.4
611.771	32011.45
612.127	32170.76
612.484	32117.43
612.841	32232.68
613.198	32262.29
613.554	32210.76
613.911	32363.08
614.267	32315.85
614.624	32312.68
614.98	32354.04
615.337	32458.44
615.693	32403.75
616.05	32487.14
616.406	32507.7
616.762	32635.16
617.118	32538.66
617.475	32489.85
617.831	32649.62
618.187	32696.4
618.543	32820.01
618.899	32884.87
619.255	32812.78
619.611	32874.02
619.967	32913.12
620.323	32919.67
620.678	32813.01
621.034	32661.6
621.39	32832.44
621.746	32718.09
622.101	33116.73
622.457	32814.82
622.812	32880.12
623.168	33133.45
623.523	33081.93
623.879	32988.82
624.234	32746.34
624.589	32907.69
624.945	33108.37
625.3	33009.16
625.655	32954.7
626.01	32955.6
626.365	32996.51
626.72	32849.62
627.075	32956.28
627.43	32823.85
627.785	32697.3
628.14	32954.47
628.495	32832.22
628.85	32835.61
629.205	32792.44
629.559	32889.16
629.914	32795.61
630.269	32757.19
630.623	32725.33
630.978	32728.26
631.332	32776.17
631.687	32728.49
632.041	32754.25
632.396	32836.06
632.75	32502.51
633.104	32572.56
633.459	32455.73
633.813	32514.48
634.167	32504.54
634.521	32453.69
634.875	32297.31
635.229	32332.79
635.583	32287.15
635.937	32292.57
636.291	32312.23
636.645	32321.95
636.999	32133.25
637.352	32211.67
637.706	32085.79
638.06	32273.59
638.413	32148.17
638.767	32083.31
639.121	32151.56
639.474	31828.85
639.828	31918.12
640.181	32022.52
640.534	31926.93
640.888	31817.55
641.241	31608.07
641.594	31809.64
641.947	31809.19
642.301	31715.64
642.654	31746.37
643.007	31667.95
643.36	31639.7
643.713	31548.86
644.066	31753.15
644.419	31499.82
644.771	31328.3
645.124	31091.92
645.477	30974.86
645.83	30811.25
646.182	30643.12
646.535	30443.8
646.888	30541.65
647.24	30428.44
647.593	30433.86
647.945	30434.31
648.298	30204.49
648.65	30137.82
649.002	30221.21
649.355	30277.93
649.707	30286.52
650.059	30470.24
650.411	30820.52
650.763	30593.86
651.115	31112.04
651.467	30980.51
651.819	30921.08
652.171	30844.7
652.523	30722.44
652.875	30696.68
653.227	30786.39
653.578	30850.35
653.93	30784.81
654.282	30492.39
654.633	30425.27
654.985	30586.4
655.337	30528.1
655.688	30652.16
656.039	30689.67
656.391	30441.32
656.742	30535.1
657.094	30427.08
657.445	30542.56
657.796	30492.84
658.147	30392.73
658.498	30488.32
658.849	30434.99
659.2	30408.32
659.551	30197.71
659.902	30438.38
660.253	30355.9
660.604	30408.55
660.955	30163.36
661.306	30317.03
661.656	30284.49
662.007	30332.62
662.358	30187.54
662.708	30139.41
663.059	30266.86
663.409	29855.12
663.76	30230.93
664.11	30230.7
664.461	30309.8
664.811	30207.65
665.161	30123.13
665.511	30049.69
665.862	30005.62
666.212	30143.47
666.562	30062.57
666.912	30118.39
667.262	29968.56
667.612	30051.5
667.962	30050.82
668.312	30012.63
668.662	30161.78
669.011	30019.63
669.361	29930.37
669.711	29802.46
670.06	29835.91
670.41	29910.26
670.76	29804.72
671.109	29986.41
671.459	29900.09
671.808	29629.14
672.157	29819.41
672.507	29850.37
672.856	29718.17
673.205	29732.86
673.554	29780.54
673.904	29657.16
674.253	29882.46
674.602	29804.72
674.951	29352.99
675.3	29143.05
675.649	29604.5
675.998	29485.64
676.346	29421.68
676.695	29618.29
677.044	29357.05
677.393	29481.8
677.741	29463.04
678.09	29343.27
678.438	29376.04
678.787	29457.39
679.135	29424.62
679.484	29025.08
679.832	29311.63
680.181	29179.43
680.529	29117.96
680.877	29134.91
681.225	29152.54
681.573	29252.2
681.922	29031.19
682.27	28965.42
682.618	28934.92
682.966	28958.42
683.314	28926.33
683.661	28955.93
684.009	28778.31
684.357	28735.37
684.705	28642.27
685.053	28596.85
685.4	28571.31
685.748	28362.05
686.095	28450.41
686.443	28205.67
686.79	28275.95
687.138	28316.4
687.485	28322.28
687.832	28106.24
688.18	28308.27
688.527	28023.75
688.874	28127.48
689.221	28030.53
689.568	27917.32
689.915	27692.92
690.262	27932.91
690.609	27753.03
690.956	27725.68
691.303	27691.33
691.65	27532.69
691.997	27533.15
692.344	27366.6
692.69	27400.27
693.037	27458.35
693.383	27134.29
693.73	27249.54
694.077	27024.91
694.423	27087.96
694.769	26878.7
695.116	26849.1
695.462	26931.13
695.808	26796.22
696.155	26752.15
696.501	26592.83
696.847	26643.68
697.193	26481.87
697.539	26546.51
697.885	26286.85
698.231	26254.99
698.577	26266.29
698.923	26185.38
699.269	26064.71
699.614	25956.46
699.96	25820.2
700.306	25913.53
700.651	25755.57
700.997	25709.69
701.342	25624.5
701.688	25709.24
702.033	25527.78
702.379	25432.86
702.724	25468.34
703.069	25457.95
703.415	25257.5
703.76	25299.53
704.105	25103.38
704.45	25117.39
704.795	24995.59
705.14	24934.34
705.485	24855.7
705.83	24829.71
706.175	24784.07
706.52	24720.56
706.865	24646.22
707.209	24612.09
707.554	24554.47
707.899	24455.26
708.243	24455.71
708.588	24378.88
708.932	24290.29
709.277	24311.99
709.621	24241.93
709.966	24079.45
710.31	24121.03
710.654	23945.9
710.998	23948.38
711.342	23994.71
711.687	23882.17
712.031	23816.41
712.375	23705.9
712.719	23731.89
713.063	23707.94
713.407	23808.72
713.75	23621.84
714.094	23640.59
714.438	23461.61
714.782	23513.36
715.125	23407.6
715.469	23326.7
715.812	23274.5
716.156	23195.63
716.499	23215.75
716.843	23191.79
717.186	23049.87
717.53	23049.65
717.873	23151.79
718.216	23105.47
718.559	22904.79
718.902	22826.83
719.246	22939.14
719.589	22849.2
719.932	22743.44
720.275	22746.38
720.617	22676.55
720.96	22635.65
721.303	22626.16
721.646	22646.27
721.989	22471.81
722.331	22556.78
722.674	22471.13
723.016	22426.84
723.359	22318.37
723.701	22446.95
724.044	22229.33
724.386	22201.08
724.729	22305.71
725.071	22177.81
725.413	22198.15
725.755	22185.26
726.097	22063.91
726.439	22027.98
726.782	21958.38
727.124	22178.03
727.465	21884.03
727.807	21867.31
728.149	21802.9
728.491	21784.6
728.833	21830.47
729.175	21718.38
729.516	21724.03
729.858	21680.64
730.199	21593.42
730.541	21645.84
730.882	21565.85
731.224	21633.64
731.565	21544.38
731.906	21467.32
732.248	21505.73
732.589	21385.29
732.93	21349.35
733.271	21371.95
733.612	21385.29
733.953	21507.99
734.294	21215.8
734.635	21350.26
734.976	21343.93
735.317	21207.44
735.658	21266.87
735.999	21180.54
736.339	21112.52
736.68	21088.8
737.021	21052.64
737.361	20871.17
737.702	20967.44
738.042	20897.16
738.383	20889.03
738.723	20933.77
739.063	20872.53
739.404	20853.32
739.744	20781.46
740.084	20693.78
740.424	20667.56
740.764	20631.86
741.104	20688.35
741.444	20638.19
741.784	20556.15
742.124	20521.81
742.464	20548.25
742.804	20574.69
743.143	20388.02
743.483	20451.75
743.823	20390.96
744.162	20368.36
744.502	20395.93
744.841	20400.9
745.181	20381.7
745.52	20277.07
745.86	20249.27
746.199	20123.62
746.538	20292.21
746.877	20253.11
747.216	20144.64
747.556	20071.65
747.895	20002.27
748.234	19973.8
748.573	19972.89
748.911	20036.17
749.25	19889.05
749.589	19783.29
749.928	19877.98
750.267	19896.51
750.605	19894.7
750.944	19693.8
751.283	19644.54
751.621	19704.2
751.96	19465.11
752.298	19590.98
752.636	19541.49
752.975	19399.35
753.313	19343.08
753.651	19355.06
753.989	19295.62
754.327	19317.32
754.666	19074.61
755.004	19116.42
755.342	19197.32
755.679	19065.8
756.017	19061.96
756.355	19101.05
756.693	19027.16
757.031	19001.85
757.368	18929.76
757.706	18899.7
758.044	18741.96
758.381	18816.09
758.719	18692.7
759.056	18814.28
759.394	18743.55
759.731	18592.36
760.068	18603.89
760.405	18457.23
760.743	18358.25
761.08	18485.25
761.417	18297.23
761.754	18287.51
762.091	18243.45
762.428	18157.12
762.765	18115.09
763.102	18144.92
763.438	18075.32
763.775	17941.31
764.112	17893.63
764.449	17898.82
764.785	17823.8
765.122	17717.13
765.458	17616.34
765.795	17583.58
766.131	17557.14
766.467	17566.18
766.804	17503.13
767.14	17418.84
767.476	17357.59
767.812	17288.44
768.148	17277.37
768.485	17290.7
768.821	17068.56
769.157	17145.62
769.492	17042.8
769.828	16965.97
770.164	16932.29
770.5	16806.42
770.836	16763.03
771.171	16707.67
771.507	16615.69
771.842	16621.34
772.178	16487.33
772.513	16515.58
772.849	16337.28
773.184	16338.86
773.519	16418.64
773.855	16286.66
774.19	16254.57
774.525	16063.39
774.86	16156.27
775.195	16071.53
775.53	16128.93
775.865	15920.12
776.2	15869.72
776.535	15736.85
776.87	15768.94
777.205	15681.93
777.539	15547.7
777.874	15692.33
778.209	15518.77
778.543	15428.83
778.878	15335.73
779.212	15308.38
779.547	15213.47
779.881	15241.04
780.215	15150.19
780.55	15171.89
780.884	15094.15
781.218	15085.34
781.552	14944.55
781.886	15088.95
782.22	14872.24
782.554	14763.99
782.888	14655.97
783.222	14726.25
783.556	14568.52
783.889	14661.62
784.223	14545.92
784.557	14529.19
784.89	14568.52
785.224	14401.29
785.557	14346.37
785.891	14183.67
786.224	14218.47
786.558	14267.05
786.891	14137.79
787.224	14122.43
787.557	13978.02
787.891	14048.08
788.224	14006.5
788.557	13974.63
788.89	13884.92
789.223	13860.29
789.556	13777.58
789.888	13788.87
790.221	13730.8
790.554	13607.86
790.887	13634.75
791.219	13604.02
791.552	13483.57
791.884	13439.28
792.217	13417.13
792.549	13377.36
792.882	13270.47
793.214	13210.81
793.546	13242
793.879	13115.9
794.211	13042.68
794.543	13158.83
794.875	13015.11
795.207	13077.48
795.539	13002.91
795.871	12960.87
796.203	12832.74
796.535	12764.27
796.867	12768.56
797.198	12743.93
797.53	12775.57
797.862	12667.1
798.193	12775.79
798.525	12503.03
798.856	12636.14
799.188	12437.5
799.519	12394.11
799.85	12452.19
800.182	12435.24
800.513	12451.51
800.844	12347.56
801.175	12390.27
801.506	12383.04
801.837	12187.33
802.168	12217.16
802.499	12038.64
802.83	12081.57
803.161	12000.67
803.491	12031.18
803.822	12025.08
804.153	11978.3
804.483	11833.67
804.814	11888.59
805.145	11858.53
805.475	11788.93
805.805	11782.83
806.136	11825.54
806.466	11812.43
806.796	11752.09
807.126	11643.17
807.457	11638.65
807.787	11641.81
808.117	11588.71
808.447	11505.54
808.777	11567.01
809.107	11514.13
809.436	11437.07
809.766	11462.83
810.096	11446.56
810.426	11362.05
810.755	11343.29
811.085	11389.16
811.414	11321.14
811.744	11211.99
812.073	11153.24
812.403	11212.9
812.732	11137.42
813.061	11140.58
813.39	11150.07
813.719	11080.02
814.049	11051.55
814.378	11028.72
814.707	11041.38
815.036	11020.81
815.365	10935.62
815.693	10869.18
816.022	10826.24
816.351	10763.64
816.68	10811.78
817.008	10805.9
817.337	10715.96
817.665	10700.37
817.994	10788.28
818.322	10715.28
818.651	10625.57
818.979	10570.43
819.307	10621.27
819.636	10582.63
819.964	10529.98
820.292	10576.98
820.62	10593.7
820.948	10520.03
821.276	10586.93
821.604	10525.68
821.932	10561.84
822.259	10551.22
822.587	10501.5
822.915	10470.32
823.243	10504.44
823.57	10474.16
823.898	10515.51
824.225	10515.06
824.553	10503.99
824.88	10459.24
825.207	10453.6
825.535	10450.66
825.862	10465.12
826.189	10398.91
826.516	10502.86
826.843	10474.39
827.17	10481.84
827.497	10541.28
827.824	10530.2
828.151	10513.25
828.478	10426.03
828.805	10472.35
829.131	10482.75
829.458	10453.14
829.785	10466.02
830.111	10495.85
830.438	10505.8
830.764	10500.37
831.09	10488.4
831.417	10405.46
831.743	10487.49
832.069	10405.91
832.395	10381.73
832.722	10405.69
833.048	10331.56
833.374	10403.88
833.7	10317.33
834.026	10393.26
834.351	10386.03
834.677	10314.84
835.003	10306.48
835.329	10373.37
835.654	10340.6
835.98	10219.03
836.306	10365.24
836.631	10264.22
836.956	10319.36
837.282	10224
837.607	10254.5
837.932	10206.82
838.258	10229.19
838.583	10143.09
838.908	10142.42
839.233	10188.97
839.558	10159.14
839.883	10118.24
840.208	10111.68
840.533	10127.73
840.858	10045.24
841.182	10024.91
841.507	10007.28
841.832	10000.5
842.156	9942.87
842.481	9914.4
842.805	9893.61
843.13	9891.12
843.454	9865.14
843.778	9856.55
844.103	9808.19
844.427	9809.32
844.751	9759.6
845.075	9757.12
845.399	9763.22
845.723	9723.44
846.047	9716.21
846.371	9637.8
846.695	9638.02
847.019	9587.86
847.343	9526.61
847.666	9522.32
847.99	9433.74
848.313	9436.67
848.637	9355.09
848.96	9367.52
849.284	9301.31
849.607	9279.16
849.931	9270.12
850.254	9187.87
850.577	9120.75
850.9	9115.78
851.223	9097.47
851.546	8987.65
851.869	8997.59
852.192	9026.74
852.515	8964.37
852.838	8822.45
853.161	8924.82
853.483	8847.54
853.806	8804.82
854.129	8870.36
854.451	8742
854.774	8684.6
855.096	8653.87
855.419	8635.79
855.741	8629.46
856.063	8600.76
856.385	8576.81
856.708	8554.44
857.03	8542.46
857.352	8491.61
857.674	8448
857.996	8510.82
858.318	8487.09
858.64	8482.8
858.961	8392.41
859.283	8421.78
859.605	8335.91
859.926	8387.89
860.248	8369.81
860.57	8338.62
860.891	8276.93
861.212	8299.75
861.534	8194.9
861.855	8221.79
862.176	8216.82
862.498	8184.28
862.819	8146.31
863.14	8175.46
863.461	8213.88
863.782	8121
864.103	8187.89
864.424	8158.29
864.745	8114
865.065	8005.75
865.386	7995.35
865.707	8106.09
866.027	8050.95
866.348	7987.45
866.668	8089.36
866.989	7998.52
867.309	7940.67
867.63	7931.18
867.95	7968.01
868.27	7909.03
868.59	7936.15
868.91	7903.15
869.23	7813.44
869.55	7857.28
869.87	7885.98
870.19	7894.34
870.51	7850.05
870.83	7824.51
871.15	7795.36
871.469	7812.76
871.789	7832.87
872.109	7808.24
872.428	7813.89
872.748	7770.5
873.067	7728.24
873.386	7805.76
873.706	7744.97
874.025	7677.17
874.344	7693.22
874.663	7697.51
874.982	7710.84
875.301	7661.35
875.62	7623.39
875.939	7690.05
876.258	7657.51
876.577	7597.85
876.896	7684.85
877.214	7592.2
877.533	7570.06
877.852	7540.23
878.17	7576.38
878.489	7587.46
878.807	7628.58
879.125	7541.81
879.444	7574.35
879.762	7518.53
880.08	7521.69
880.398	7429.49
880.716	7464.07
881.034	7480.11
881.352	7415.03
881.67	7420.45
881.988	7417.06
882.306	7359.21
882.624	7345.88
882.941	7342.72
883.259	7293.68
883.577	7311.3
883.894	7313.56
884.212	7351.98
884.529	7287.35
884.846	7227.92
885.164	7243.28
885.481	7232.21
885.798	7210.97
886.115	7180.69
886.432	7226.11
886.75	7159.44
887.067	7142.27
887.383	7142.27
887.7	7125.1
888.017	7084.19
888.334	7076.96
888.651	7067.7
888.967	7084.42
889.284	7036.51
889.6	7040.8
889.917	6954.25
890.233	6960.81
890.55	6928.49
890.866	6999
891.182	6904.31
891.498	6888.04
891.815	6901.82
892.131	6815.05
892.447	6788.61
892.763	6804.65
893.079	6757.2
893.395	6832.67
893.71	6770.53
894.026	6715.39
894.342	6685.33
894.657	6681.94
894.973	6654.15
895.289	6665.9
895.604	6657.54
895.92	6577.31
896.235	6575.05
896.55	6592.68
896.865	6582.96
897.181	6574.6
897.496	6552.91
897.811	6472.68
898.126	6481.27
898.441	6499.12
898.756	6448.28
899.071	6425.9
899.386	6395.85
899.7	6380.93
900.015	6360.14
900.33	6364.89
900.644	6351.78
900.959	6316.08
901.273	6305.91
901.588	6296.87
901.902	6202.63
902.216	6161.73
902.531	6197.89
902.845	6136.42
903.159	6102.07
903.473	6089.64
903.787	6093.71
904.101	6043.77
904.415	6071.34
904.729	6068.63
905.042	6001.51
905.356	5973.71
905.67	6020.72
905.984	5986.14
906.297	5955.86
906.611	5882.87
906.924	5910.66
907.237	5879.93
907.551	5858.24
907.864	5846.03
908.177	5771.01
908.491	5890.33
908.804	5784.79
909.117	5731.91
909.43	5708.41
909.743	5686.94
910.056	5652.82
910.368	5644.91
910.681	5635.42
910.994	5615.76
911.307	5590.22
911.619	5536.44
911.932	5578.47
912.244	5541.63
912.557	5481.97
912.869	5457.57
913.181	5452.82
913.494	5425.48
913.806	5415.08
914.118	5422.77
914.43	5424.35
914.742	5387.06
915.054	5294.41
915.366	5308.42
915.678	5305.93
915.99	5291.47
916.302	5215.99
916.613	5225.03
916.925	5171.47
917.236	5228.2
917.548	5166.05
917.859	5169.21
918.171	5102.78
918.482	5071.59
918.794	5062.78
919.105	5072.27
919.416	5048.77
919.727	5039.73
920.038	4987.3
920.349	4992.04
920.66	4978.03
920.971	4925.38
921.282	4938.49
921.593	4862.78
921.903	4926.96
922.214	4846.74
922.525	4865.27
922.835	4812.84
923.146	4817.81
923.456	4759.28
923.767	4778.04
924.077	4732.16
924.387	4782.56
924.697	4706.4
925.008	4746.4
925.318	4654.88
925.628	4685.39
925.938	4635.22
926.248	4608.55
926.558	4578.04
926.867	4599.74
927.177	4570.59
927.487	4543.02
927.796	4525.16
928.106	4466.18
928.416	4492.62
928.725	4453.98
929.034	4435.22
929.344	4432.74
929.653	4442.23
929.962	4396.35
930.271	4393.87
930.581	4348.44
930.89	4338.73
931.199	4337.82
931.508	4335.11
931.817	4357.71
932.125	4282.68
932.434	4248.79
932.743	4176.7
933.051	4222.57
933.36	4180.54
933.669	4147.09
933.977	4185.29
934.286	4098.28
934.594	4176.7
934.902	4120.2
935.21	4069.36
935.519	4078.4
935.827	4075.23
936.135	4043.14
936.443	4030.26
936.751	3994.1
937.059	4046.53
937.367	3960.88
937.674	3981.22
937.982	3969.7
938.29	3928.34
938.597	3933.09
938.905	3884.28
939.213	3893.77
939.52	3862.81
939.827	3859.87
940.135	3840.44
940.442	3794.11
940.749	3788.23
941.056	3796.14
941.363	3781.45
941.67	3792.53
941.977	3796.14
942.284	3700.1
942.591	3754.79
942.898	3691.29
943.205	3678.86
943.511	3651.74
943.818	3710.04
944.125	3616.94
944.431	3614.23
944.738	3580.56
945.044	3595.92
945.35	3562.25
945.657	3535.36
945.963	3538.3
946.269	3533.78
946.575	3539.88
946.881	3534.46
947.187	3471.18
947.493	3453.78
947.799	3473.89
948.105	3445.87
948.41	3411.29
948.716	3404.29
949.022	3407.9
949.327	3392.31
949.633	3328.81
949.938	3353.67
950.244	3350.51
950.549	3361.13
950.854	3323.39
951.16	3305.31
951.465	3281.13
951.77	3304.18
952.075	3260.11
952.38	3251.07
952.685	3216.5
952.99	3226.21
953.294	3236.16
953.599	3174.92
953.904	3209.27
954.209	3169.04
954.513	3156.61
954.818	3158.87
955.122	3142.15
955.426	3127.69
955.731	3126.78
956.035	3097.86
956.339	3081.13
956.643	3078.87
956.948	3072.77
957.252	3085.43
957.556	3034.58
957.86	3001.14
958.163	3006.56
958.467	3014.02
958.771	2982.15
959.075	2944.41
959.378	2933.34
959.682	2979.89
959.985	2927.47
960.289	2900.8
960.592	2906.9
960.896	2853.12
961.199	2904.19
961.502	2890.63
961.805	2886.11
962.108	2822.61
962.411	2829.84
962.714	2820.35
963.017	2823.51
963.32	2807.24
963.623	2807.02
963.926	2787.58
964.228	2773.8
964.531	2744.19
964.833	2748.71
965.136	2769.5
965.438	2722.27
965.741	2723.85
966.043	2713.01
966.345	2699.67
966.648	2642.05
966.95	2667.13
967.252	2667.81
967.554	2674.59
967.856	2638.43
968.158	2616.06
968.46	2618.77
968.761	2578.32
969.063	2569.73
969.365	2571.09
969.666	2579
969.968	2576.29
970.269	2552.11
970.571	2532.22
970.872	2522.96
971.174	2500.81
971.475	2503.07
971.776	2488.38
972.077	2480.7
972.378	2468.27
972.679	2474.6
972.98	2447.03
973.281	2475.95
973.582	2472.11
973.883	2423.75
974.183	2440.25
974.484	2393.47
974.785	2405.67
975.085	2407.93
975.386	2386.46
975.686	2350.08
975.986	2377.2
976.287	2335.16
976.587	2370.42
976.887	2338.55
977.187	2304.43
977.487	2306.92
977.787	2306.24
978.087	2314.37
978.387	2269.18
978.687	2276.86
978.987	2277.54
979.286	2239.35
979.586	2215.85
979.885	2253.58
980.185	2199.57
980.484	2241.16
980.784	2217.88
981.083	2182.17
981.382	2226.92
981.682	2174.26
981.981	2176.98
982.28	2177.65
982.579	2144.21
982.878	2140.82
983.177	2149.63
983.475	2160.71
983.774	2130.2
984.073	2115.51
984.372	2082.52
984.67	2110.31
984.969	2093.82
985.267	2075.96
985.566	2076.19
985.864	2046.13
986.162	2039.81
986.461	2041.61
986.759	2029.86
987.057	2003.2
987.355	2018.11
987.653	2009.75
987.951	1996.19
988.249	1988.06
988.547	2004.78
988.844	1973.82
989.142	1981.73
989.44	1941.28
989.737	1947.15
990.035	1932.46
990.332	1929.3
990.63	1911.67
990.927	1902.86
991.224	1898.34
991.521	1905.12
991.819	1938.34
992.116	1886.36
992.413	1871.45
992.71	1861.73
993.006	1845.69
993.303	1825.57
993.6	1842.3
993.897	1830.09
994.193	1838.91
994.49	1828.51
994.787	1813.6
995.083	1789.42
995.379	1772.92
995.676	1761.39
995.972	1785.57
996.268	1766.37
996.565	1744.22
996.861	1743.99
997.157	1741.73
997.453	1747.61
997.749	1725.92
998.044	1704.67
998.34	1731.34
998.636	1679.36
998.932	1697.44
999.227	1697.44
999.523	1706.71
999.818	1663.09
1000.114	1659.7
1000.409	1661.28
1000.704	1651.34
1001	1653.15
1001.295	1652.7
1001.59	1617.9
1001.885	1629.87
1002.18	1605.69
1002.475	1608.86
1002.77	1598.91
1003.065	1568.86
1003.359	1590.55
1003.654	1583.09
1003.949	1550.1
1004.243	1567.5
1004.538	1527.28
1004.832	1563.43
1005.127	1515.07
1005.421	1484.79
1005.715	1539.48
1006.009	1514.4
1006.304	1492.47
1006.598	1476.43
1006.892	1486.83
1007.186	1491.57
1007.48	1487.73
1007.773	1452.7
1008.067	1468.97
1008.361	1461.52
1008.655	1429.2
1008.948	1420.16
1009.242	1443.44
1009.535	1408.64
1009.829	1396.43
1010.122	1398.92
1010.415	1381.07
1010.708	1376.32
1011.001	1396.43
1011.295	1384.68
1011.588	1342.87
1011.881	1360.5
1012.173	1370.9
1012.466	1329.99
1012.759	1316.21
1013.052	1348.52
1013.344	1335.19
1013.637	1318.47
1013.93	1327.96
1014.222	1297.45
1014.514	1340.16
1014.807	1287.28
1015.099	1286.83
1015.391	1285.93
1015.683	1294.97
1015.976	1264.46
1016.268	1264.46
1016.56	1247.74
1016.851	1236.66
1017.143	1211.13
1017.435	1216.55
1017.727	1234.4
1018.018	1207.28
1018.31	1192.6
1018.602	1196.66
1018.893	1173.61
1019.185	1185.14
1019.476	1176.78
1019.767	1162.31
1020.058	1164.35
1020.35	1168.64
1020.641	1126.16
1020.932	1134.52
1021.223	1122.32
1021.514	1108.08
1021.804	1121.41
1022.095	1126.83
1022.386	1081.41
1022.677	1085.93
1022.967	1087.74
1023.258	1081.41
1023.548	1086.16
1023.839	1094.29
1024.129	1072.6
1024.419	1076.44
1024.709	1072.15
1025	1054.75
1025.29	1028.98
1025.58	1047.51
1025.87	1036.44
1026.16	1022.88
1026.449	997.12
1026.739	1007.06
1027.029	1017.01
1027.319	1006.16
1027.608	1003.22
1027.898	1012.49
1028.187	956.9
1028.477	984.92
1028.766	988.99
1029.055	959.83
1029.344	971.58
1029.634	968.19
1029.923	916.9
1030.212	979.72
1030.501	958.48
1030.79	926.84
1031.078	928.42
1031.367	944.01
1031.656	928.42
1031.945	917.8
1032.233	924.58
1032.522	896.56
1032.81	910.12
1033.099	885.49
1033.387	893.17
1033.675	888.2
1033.963	883.9
1034.251	885.94
1034.54	855.2
1034.828	881.64
1035.116	855.2
1035.403	884.36
1035.691	876.22
1035.979	840.29
1036.267	843.9
1036.554	850.68
1036.842	831.02
1037.129	822.21
1037.417	828.31
1037.704	819.5
1037.992	801.19
1038.279	789.89
1038.566	803.68
1038.853	803.68
1039.14	803.68
