Data from breadboard_white_FLMS001491_00072.txt Node
Date: Wed Feb 08 10:48:14 GMT 2017
User: dcchb
Spectrometer: FLMS00149
Trigger mode: 0
Integration Time (sec): 2.000000E-2
Scans to average: 10
Electric dark correction enabled: true
Nonlinearity correction enabled: false
Boxcar width: 0
XAxis mode: Wavelengths
Number of Pixels in Spectrum: 2048
>>>>>Begin Spectral Data<<<<<
341.393	-1.05
341.776	-1.05
342.16	-1.05
342.543	-49.86
342.927	-38.78
343.31	-70.2
343.693	-55.06
344.077	-66.13
344.46	-53.47
344.843	-54.83
345.226	-62.51
345.61	-25.9
345.993	-20.25
346.376	-3.76
346.759	29.91
347.142	22.46
347.525	35.11
347.908	61.33
348.291	65.39
348.674	87.99
349.057	109.91
349.44	106.3
349.823	142.45
350.206	175
350.588	209.34
350.971	218.84
351.354	252.51
351.737	247.99
352.119	270.13
352.502	276.46
352.884	292.51
353.267	296.8
353.65	285.27
354.032	328.66
354.414	312.17
354.797	337.25
355.179	317.59
355.562	360.08
355.944	342.67
356.326	339.28
356.709	349.45
357.091	349
357.473	349.68
357.855	363.69
358.238	349.23
358.62	361.21
359.002	360.3
359.384	365.27
359.766	336.12
360.148	372.28
360.53	366.85
360.912	351.26
361.294	357.82
361.676	332.73
362.057	345.16
362.439	350.36
362.821	350.36
363.203	355.33
363.584	345.16
363.966	338.15
364.348	355.33
364.729	348.1
365.111	345.61
365.493	343.13
365.874	352.17
366.256	351.04
366.637	358.72
367.019	326.18
367.4	351.04
367.781	316.69
368.163	350.13
368.544	343.8
368.925	353.3
369.306	345.61
369.688	337.25
370.069	329.79
370.45	333.41
370.831	356.91
371.212	349.91
371.593	355.56
371.974	345.16
372.355	345.39
372.736	349.45
373.117	332.05
373.498	360.53
373.879	354.43
374.26	339.06
374.641	348.1
375.021	339.28
375.402	365.5
375.783	374.76
376.163	363.01
376.544	393.75
376.925	365.72
377.305	370.24
377.686	363.47
378.066	382.22
378.447	371.6
378.827	381.09
379.208	381.77
379.588	376.35
379.968	388.32
380.349	381.54
380.729	400.07
381.109	384.93
381.489	380.19
381.87	394.88
382.25	396.46
382.63	384.93
383.01	401.66
383.39	391.71
383.77	388.1
384.15	420.86
384.53	406.63
384.91	402.56
385.29	432.62
385.67	407.31
386.049	442.56
386.429	438.72
386.809	442.11
387.189	436.68
387.568	421.32
387.948	440.07
388.328	458.38
388.707	454.54
389.087	444.59
389.466	450.47
389.846	473.74
390.225	466.74
390.605	490.24
390.984	470.81
391.363	472.39
391.743	485.27
392.122	485.95
392.501	479.39
392.881	507.19
393.26	505.83
393.639	522.1
394.018	518.72
394.397	532.27
394.776	536.79
395.155	538.38
395.534	535.66
395.913	526.4
396.292	556.68
396.671	548.77
397.05	546.29
397.429	566.85
397.808	577.92
398.186	568.43
398.565	583.12
398.944	600.75
399.323	609.11
399.701	610.01
400.08	617.02
400.458	635.77
400.837	641.65
401.215	656.56
401.594	641.88
401.972	651.14
402.351	659.73
402.729	694.98
403.107	713.51
403.486	714.42
403.864	705.83
404.242	711.48
404.62	723
404.999	752.16
405.377	777.92
405.755	761.87
406.133	780.86
406.511	803.23
406.889	800.97
407.267	809.33
407.645	837.12
408.023	870.34
408.401	863.79
408.779	871.02
409.156	875.99
409.534	896.56
409.912	917.35
410.29	988.99
410.667	955.99
411.045	988.76
411.422	988.08
411.8	1030.57
412.178	1042.32
412.555	1042.09
412.933	1087.06
413.31	1100.85
413.687	1127.29
414.065	1114.18
414.442	1135.65
414.819	1150.79
415.197	1182.65
415.574	1185.14
415.951	1214.97
416.328	1214.29
416.705	1241.41
417.082	1227.17
417.46	1248.19
417.837	1265.81
418.214	1293.84
418.591	1307.17
418.967	1335.87
419.344	1357.34
419.721	1362.31
420.098	1402.53
420.475	1408.64
420.852	1439.37
421.228	1463.55
421.605	1465.58
421.982	1480.05
422.358	1522.3
422.735	1503.32
423.111	1545.81
423.488	1561.4
423.864	1562.76
424.241	1591.46
424.617	1606.37
424.994	1640.95
425.37	1627.16
425.746	1666.48
426.123	1698.12
426.499	1696.99
426.875	1712.81
427.251	1767.27
427.627	1790.55
428.003	1799.81
428.379	1839.81
428.756	1873.71
429.132	1882.3
429.507	1890.66
429.883	1937.21
430.259	1957.55
430.635	1973.37
431.011	1989.86
431.387	2021.5
431.763	2084.78
432.138	2060.82
432.514	2136.98
432.89	2121.38
433.265	2207.03
433.641	2203.42
434.016	2236.41
434.392	2253.81
434.767	2303.98
435.143	2345.56
435.518	2371.1
435.894	2368.84
436.269	2392.11
436.644	2451.32
437.02	2480.02
437.395	2502.39
437.77	2527.7
438.145	2577.42
438.52	2527.7
438.895	2603.86
439.271	2680.01
439.646	2682.27
440.021	2732.44
440.395	2700.58
440.77	2699.45
441.145	2748.04
441.52	2808.37
441.895	2778.32
442.27	2806.11
442.645	2826.45
443.019	2904.19
443.394	2847.69
443.769	2891.53
444.143	2901.48
444.518	2989.38
444.892	2959.78
445.267	2991.64
445.641	3007.92
446.016	3047.69
446.39	3078.2
446.764	3102.38
447.139	3136.05
447.513	3125.88
447.887	3157.52
448.262	3177.18
448.636	3178.53
449.01	3265.99
449.384	3275.7
449.758	3310.51
450.132	3373.33
450.506	3357.06
450.88	3397.96
451.254	3372.88
451.628	3452.2
452.002	3486.55
452.376	3518.18
452.75	3570.84
453.123	3533.55
453.497	3662.59
453.871	3685.41
454.244	3738.52
454.618	3771.06
454.992	3790.27
455.365	3814
455.739	3924.73
456.112	3955.69
456.486	4030.71
456.859	4050.83
457.232	4126.98
457.606	4089.47
457.979	4184.38
458.352	4279.07
458.725	4323.13
459.099	4342.8
459.472	4460.53
459.845	4457.14
460.218	4480.42
460.591	4543.47
460.964	4596.35
461.337	4720.41
461.71	4780.3
462.083	4842.22
462.456	4834.99
462.829	4916.11
463.201	4926.96
463.574	4976.68
463.947	5045.83
464.32	5186.39
464.692	5215.09
465.065	5213.06
465.438	5366.72
465.81	5391.13
466.183	5443.78
466.555	5606.04
466.928	5579.15
467.3	5630.45
467.672	5763.78
468.045	5935.97
468.417	5903.43
468.789	5961.28
469.161	6072.24
469.534	6153.6
469.906	6293.25
470.278	6264.78
470.65	6390.2
471.022	6465.68
471.394	6663.64
471.766	6709.74
472.138	6786.8
472.51	6935.04
472.882	7074.02
473.253	7062.95
473.625	7191.76
473.997	7414.35
474.369	7436.95
474.74	7530.06
475.112	7686.66
475.484	7749.03
475.855	7939.31
476.227	8058.4
476.598	8260.21
476.97	8312.63
477.341	8511.27
477.713	8640.99
478.084	8736.35
478.455	8946.29
478.827	9008.44
479.198	9219.5
479.569	9290.01
479.94	9565.48
480.311	9648.87
480.682	9817.45
481.053	10076.2
481.424	10289.53
481.795	10348.29
482.166	10490.66
482.537	10639.13
482.908	10900.82
483.279	11032.34
483.65	11125.44
484.021	11385.32
484.391	11609.5
484.762	11627.8
485.133	11813.11
485.503	12010.16
485.874	12267.56
486.244	12401.79
486.615	12592.52
486.985	12762.24
487.356	13034.77
487.726	13160.19
488.097	13407.87
488.467	13384.14
488.837	13714.53
489.207	13851.92
489.578	14079.49
489.948	14173.05
490.318	14394.28
490.688	14503.43
491.058	14688.74
491.428	15019.12
491.798	15154.94
492.168	15377.31
492.538	15494.37
492.908	15669.96
493.278	15804.19
493.648	15783.85
494.017	15955.15
494.387	16238.98
494.757	16355.13
495.126	16584.73
495.496	16655.69
495.866	16846.2
496.235	17025.4
496.605	17133.19
496.974	17245.06
497.344	17415.45
497.713	17554.65
498.082	17723.69
498.452	17812.5
498.821	17867.19
499.19	18024.47
499.559	18290.45
499.928	18433.27
500.298	18431.92
500.667	18617.22
501.036	18582.42
501.405	18929.08
501.774	18917.78
502.143	19162.07
502.512	19341.5
502.88	19367.26
503.249	19442.74
503.618	19626.24
503.987	19823.52
504.356	19903.74
504.724	19948.71
505.093	20096.05
505.462	20156.39
505.83	20385.76
506.199	20570.84
506.567	20806.54
506.936	20843.6
507.304	21032.98
507.672	21150.04
508.041	21237.72
508.409	21367.43
508.777	21712.96
509.145	21768.1
509.514	21861.2
509.882	22035.66
510.25	22152.95
510.618	22246.05
510.986	22360.4
511.354	22677
511.722	22851.91
512.09	23093.94
512.458	23075.18
512.826	23385.91
513.193	23397.44
513.561	23512.23
513.929	23730.08
514.297	23855.05
514.664	23942.28
515.032	24268.37
515.4	24545.2
515.767	24461.36
516.135	24838.75
516.502	24704.97
516.869	25085.3
517.237	25282.81
517.604	25237.16
517.972	25611.61
518.339	25752.85
518.706	25869.91
519.073	25985.62
519.44	26064.26
519.808	26534.3
520.175	26533.62
520.542	26939.04
520.909	27069.88
521.276	27064.91
521.643	27297.9
522.009	27499.7
522.376	27808.85
522.743	27866.24
523.11	28315.27
523.477	28502.84
523.843	28686.11
524.21	29047
524.577	29263.72
524.943	29334.68
525.31	29594.11
525.676	29856.7
526.043	29898.28
526.409	30145.28
526.776	30429.57
527.142	30496.23
527.508	30617.58
527.874	30933.96
528.241	31124.01
528.607	31313.84
528.973	31622.3
529.339	31628.41
529.705	31954.05
530.071	32222.97
530.437	32372.57
530.803	32587.93
531.169	32808.04
531.535	32733.46
531.901	32844.42
532.267	33007.58
532.632	33355.82
532.998	33397.17
533.364	33677.62
533.73	33682.36
534.095	33968.91
534.461	34229.47
534.826	34198.73
535.192	34388.79
535.557	34719.17
535.923	34632.39
536.288	34950.13
536.653	34892.5
537.019	35078.48
537.384	35185.15
537.749	35334.97
538.114	35370
538.479	35530.68
538.845	35745.36
539.21	35734.96
539.575	35935.19
539.94	35963.21
540.305	36369.52
540.67	36181.73
541.034	36333.14
541.399	36525.9
541.764	36623.98
542.129	36851.55
542.494	36923.86
542.858	37034.37
543.223	37181.48
543.587	37449.27
543.952	37285.66
544.316	37503.28
544.681	37514.8
545.045	37794.35
545.41	37895.59
545.774	37889.71
546.138	38056.49
546.503	38110.04
546.867	38188.46
547.231	38443.59
547.595	38634.1
547.959	38654.44
548.324	38828.44
548.688	38888.78
549.052	39129.23
549.416	39031.83
549.779	39189.34
550.143	39284.02
550.507	39440.18
550.871	39575.54
551.235	39750.45
551.599	39957.23
551.962	40005.36
552.326	40069.09
552.689	40340.27
553.053	40269.08
553.417	40371
553.78	40873.81
554.143	40823.87
554.507	40980.48
554.87	41109.06
555.234	41499.78
555.597	41245.33
555.96	41371.2
556.323	41709.04
556.686	41810.74
557.05	41924.63
557.413	42161.24
557.776	42144.97
558.139	42481
558.502	42620.66
558.865	42740.88
559.228	43141.1
559.59	43095.9
559.953	43209.34
560.316	43538.37
560.679	43730.69
561.041	43796.22
561.404	43993.96
561.767	44268.53
562.129	44262.2
562.492	44548.74
562.854	44601.62
563.217	44648.18
563.579	44878.45
563.941	45095.4
564.304	45260.36
564.666	45499.91
565.028	45506.91
565.39	45565.21
565.753	46033.45
566.115	46146.22
566.477	46213.33
566.839	46351.63
567.201	46621.46
567.563	46691.96
567.925	46937.38
568.287	46922.69
568.648	47038.17
569.01	47202.23
569.372	47484.03
569.734	47377.82
570.095	47663.01
570.457	47741.88
570.819	47805.83
571.18	47813.06
571.542	48052.38
571.903	48240.4
572.265	48433.84
572.626	48433.61
572.987	48397.68
573.349	48573.95
573.71	48735.3
574.071	48742.98
574.432	48869.76
574.794	49146.82
575.155	49172.8
575.516	49092.13
575.877	49230.88
576.238	49399.69
576.599	49493.92
576.96	49438.33
577.32	49544.09
577.681	49619.8
578.042	49726.91
578.403	49755.39
578.763	49723.52
579.124	49862.73
579.485	50017.75
579.845	50042.84
580.206	50040.58
580.566	49911.77
580.927	50095.94
581.287	50245.09
581.648	50065.44
582.008	50249.16
582.368	50348.37
582.728	50345.65
583.089	50196.28
583.449	50296.62
583.809	50196.28
584.169	50253.23
584.529	50206.22
584.889	50475.14
585.249	50301.36
585.609	50160.8
585.969	50474.46
586.329	50278.76
586.688	50233.57
587.048	50209.16
587.408	50297.75
587.768	50326.22
588.127	50334.81
588.487	50202.83
588.846	50458.65
589.206	50274.7
589.565	50167.35
589.925	50435.37
590.284	50288.71
590.643	50333.22
591.003	50447.57
591.362	50507.01
591.721	50449.61
592.08	50462.03
592.44	50517.17
592.799	50539.32
593.158	50545.42
593.517	50614.57
593.876	50617.74
594.235	50457.52
594.593	50608.02
594.952	50553.78
595.311	50436.72
595.67	50548.81
596.029	50871.97
596.387	50752.2
596.746	50875.13
597.104	50664.52
597.463	50711.29
597.822	50742.93
598.18	50632.88
598.538	50728.69
598.897	50855.7
599.255	50582.71
599.613	51073.32
599.972	50841.23
600.33	50940.44
600.688	50771.86
601.046	50929.14
601.404	51095.46
601.762	50982.47
602.12	51052.53
602.478	51073.77
602.836	51184.05
603.194	50967.78
603.552	51126.88
603.91	51042.81
604.268	51190.6
604.625	51038.29
604.983	51190.15
605.341	51025.41
605.698	51251.39
606.056	51354.21
606.413	51278.96
606.771	51429.01
607.128	51489.8
607.485	51253.65
607.843	51438.28
608.2	51473.76
608.557	51553.98
608.914	51419.52
609.272	51641.21
609.629	51648.9
609.986	51778.61
610.343	51561.21
610.7	51843.69
611.057	51761.66
611.414	51731.83
611.771	51839.4
612.127	51906.52
612.484	51934.99
612.841	52032.61
613.198	51903.58
613.554	51986.29
613.911	52099.51
614.267	52147.87
614.624	52033.07
614.98	52186.74
615.337	52183.12
615.693	52198.71
616.05	52110.58
616.406	52289.11
616.762	52239.39
617.118	52182.89
617.475	52259.95
617.831	52266.06
618.187	52315.55
618.543	52423.11
618.899	52518.25
619.255	52458.14
619.611	52490.23
619.967	52561.64
620.323	52665.14
620.678	52409.78
621.034	52400.74
621.39	52423.34
621.746	52424.47
622.101	52775.87
622.457	52520.51
622.812	52617.01
623.168	52546.05
623.523	52681.41
623.879	52690.9
624.234	52540.85
624.589	52632.83
624.945	52606.61
625.3	52621.75
625.655	52590.34
626.01	52609.55
626.365	52584.92
626.72	52555.09
627.075	52551.25
627.43	52567.52
627.785	52453.39
628.14	52475.99
628.495	52535.2
628.85	52447.07
629.205	52332.72
629.559	52580.62
629.914	52395.54
630.269	52466.95
630.623	52254.08
630.978	52296.34
631.332	52418.14
631.687	52479.83
632.041	52240.29
632.396	52328.43
632.75	52182.89
633.104	52297.01
633.459	52176.34
633.813	52069.45
634.167	52134.53
634.521	52047.98
634.875	52113.97
635.229	52046.4
635.583	51869
635.937	51854.31
636.291	51716.92
636.645	51726.18
636.999	51726.18
637.352	51827.65
637.706	51542.23
638.06	51785.39
638.413	51690.7
638.767	51603.47
639.121	51607.32
639.474	51434.44
639.828	51494.78
640.181	51594.43
640.534	51438.73
640.888	51377.04
641.241	51157.84
641.594	51149.02
641.947	51357.6
642.301	51315.8
642.654	51182.24
643.007	51216.37
643.36	51159.87
643.713	51008.24
644.066	51115.12
644.419	50957.39
644.771	50888.92
645.124	50578.64
645.477	50460.68
645.83	50243.74
646.182	50018.66
646.535	49876.97
646.888	49828.38
647.24	49665.67
647.593	49831.32
647.945	49722.85
648.298	49605.33
648.65	49509.07
649.002	49372.8
649.355	49559.91
649.707	49585.22
650.059	49789.28
650.411	50159.9
650.763	50172.1
651.115	50419.55
651.467	50424.97
651.819	50335.94
652.171	50266.79
652.523	50035.38
652.875	50149.73
653.227	49873.12
653.578	50196.96
653.93	50139.78
654.282	49949.28
654.633	49900.69
654.985	49923.74
655.337	49869.06
655.688	49879.23
656.039	49947.47
656.391	49666.12
656.742	49786.12
657.094	49695.73
657.445	49913.57
657.796	49712.9
658.147	49558.78
658.498	49672.68
658.849	49627.93
659.2	49693.47
659.551	49575.05
659.902	49639.46
660.253	49646.69
660.604	49618.67
660.955	49364.66
661.306	49497.31
661.656	49390.42
662.007	49505.9
662.358	49369.86
662.708	49397.66
663.059	49373.93
663.409	49166.93
663.76	49394.72
664.11	49284.21
664.461	49236.3
664.811	49332.57
665.161	49333.7
665.511	49256.64
665.862	49233.59
666.212	49305.45
666.562	49237.21
666.912	49204.21
667.262	49226.81
667.612	49147.95
667.962	49231.56
668.312	49141.17
668.662	49264.33
669.011	49130.77
669.361	49057.33
669.711	49061.17
670.06	49125.57
670.41	49055.52
670.76	48980.49
671.109	49145.46
671.459	48960.83
671.808	48958.57
672.157	48871.79
672.507	48659.37
672.856	48695.08
673.205	48760.84
673.554	48827.28
673.904	48711.8
674.253	48801.51
674.602	48751.35
674.951	48204.02
675.3	48038.82
675.649	48531.46
675.998	48558.58
676.346	48523.33
676.695	48641.52
677.044	48371.02
677.393	48536.89
677.741	48507.51
678.09	48507.28
678.438	48310.9
678.787	48307.97
679.135	48429.77
679.484	48102.1
679.832	48275.65
680.181	48005.15
680.529	48128.08
680.877	48039.27
681.225	48041.99
681.573	48182.77
681.922	47832.95
682.27	47819.39
682.618	47793.86
682.966	47667.76
683.314	47752.28
683.661	47597.7
684.009	47513.41
684.357	47392.96
684.705	47325.39
685.053	47321.33
685.4	47262.34
685.748	46961.34
686.095	47062.8
686.443	46765.63
686.79	46786.88
687.138	46807.44
687.485	46815.35
687.832	46564.06
688.18	46731.29
688.527	46422.82
688.874	46484.06
689.221	46280.45
689.568	46244.07
689.915	46107.12
690.262	46077.29
690.609	46083.17
690.956	45986.45
691.303	45883.62
691.65	45620.81
691.997	45771.54
692.344	45458.55
692.69	45326.8
693.037	45430.75
693.383	45185.56
693.73	45321.83
694.077	44930.43
694.423	44941.28
694.769	44844.1
695.116	44775.4
695.462	44846.36
695.808	44604.34
696.155	44629.19
696.501	44314.4
696.847	44197.57
697.193	43988.31
697.539	44053.62
697.885	43750.57
698.231	43658.15
698.577	43642.78
698.923	43528.66
699.269	43348.1
699.614	43069.01
699.96	43133.19
700.306	43243.92
700.651	43138.39
700.997	42804.38
701.342	42816.59
701.688	42748.34
702.033	42594.45
702.379	42741.11
702.724	42423.38
703.069	42511.06
703.415	42071.52
703.76	42083.27
704.105	42122.82
704.45	41922.15
704.795	41677.63
705.14	41594.02
705.485	41514.93
705.83	41408.04
706.175	41400.58
706.52	41302.95
706.865	41233.8
707.209	41224.09
707.554	40933.25
707.899	41175.27
708.243	40824.1
708.588	40763.08
708.932	40515.86
709.277	40541.84
709.621	40513.6
709.966	40290.1
710.31	40274.73
710.654	39919.71
710.998	40007.85
711.342	40078.35
711.687	39913.61
712.031	39758.36
712.375	39615.99
712.719	39623.45
713.063	39622.55
713.407	39660.74
713.75	39346.39
714.094	39317.02
714.438	39262.56
714.782	39200.64
715.125	39171.03
715.469	39203.8
715.812	38876.8
716.156	38831.38
716.499	38677.49
716.843	38705.28
717.186	38464.61
717.53	38714.77
717.873	38592.52
718.216	38494.89
718.559	38314.33
718.902	38169.25
719.246	38314.78
719.589	38109.82
719.932	38055.58
720.275	37937.62
720.617	37913.89
720.96	37884.74
721.303	37793.89
721.646	37872.99
721.989	37579.21
722.331	37586.67
722.674	37468.48
723.016	37591.41
723.359	37374.7
723.701	37391.87
724.044	37075.95
724.386	36946.68
724.729	37022.16
725.071	37047.47
725.413	36983.75
725.755	36980.81
726.097	36739.46
726.439	36682.28
726.782	36746.46
727.124	36870.3
727.465	36510.99
727.807	36562.51
728.149	36463.98
728.491	36384.66
728.833	36315.97
729.175	36355.96
729.516	36113.94
729.858	36162.98
730.199	36210.21
730.541	36067.84
730.882	35931.8
731.224	36068.97
731.565	35754.85
731.906	35846.37
732.248	35893.38
732.589	35671.92
732.93	35657.9
733.271	35541.98
733.612	35577.68
733.953	35663.33
734.294	35392.37
734.635	35315.99
734.976	35349.21
735.317	35168.88
735.658	35164.81
735.999	35266.73
736.339	35090.46
736.68	35117.35
737.021	35002.55
737.361	34713.52
737.702	34892.05
738.042	34824.93
738.383	34742
738.723	34850.47
739.063	34567.99
739.404	34556.46
739.744	34671.94
740.084	34462.23
740.424	34591.27
740.764	34434.21
741.104	34395.79
741.444	34191.28
741.784	34145.18
742.124	34255.46
742.464	34141.11
742.804	34168.9
743.143	33980.43
743.483	33967.33
743.823	33747.22
744.162	33850.04
744.502	33801.46
744.841	33636.26
745.181	33827.67
745.52	33670.61
745.86	33757.84
746.199	33564.4
746.538	33606.66
746.877	33524.85
747.216	33453.67
747.556	33243.05
747.895	33234.92
748.234	33182.94
748.573	33135.03
748.911	33051.42
749.25	33073.34
749.589	32877.64
749.928	32926.22
750.267	32947.24
750.605	32751.09
750.944	32675.61
751.283	32609.4
751.621	32609.17
751.96	32415.96
752.298	32373.7
752.636	32536.86
752.975	32239.46
753.313	32063.87
753.651	32250.31
753.989	32122.4
754.327	32009.41
754.666	31753.37
755.004	31831.79
755.342	31828.17
755.679	31879.92
756.017	31638.12
756.355	31629.99
756.693	31337.34
757.031	31490.1
757.368	31266.16
757.706	31222.31
758.044	31263.9
758.381	31097.35
758.719	31016.44
759.056	31038.82
759.394	30909.78
759.731	30660.3
760.068	30573.74
760.405	30472.28
760.743	30470.02
761.08	30417.36
761.417	30331.04
761.754	30211.04
762.091	30130.59
762.428	30109.58
762.765	29998.39
763.102	29970.82
763.438	29764.5
763.775	29622.13
764.112	29627.55
764.449	29640.66
764.785	29367
765.122	29103.27
765.458	29196.83
765.795	29178.75
766.131	29091.98
766.467	28952.54
766.804	28790.29
767.14	28614.02
767.476	28698.54
767.812	28431.88
768.148	28644.76
768.485	28303.52
768.821	28339.45
769.157	28185.56
769.492	28184.88
769.828	27978.56
770.164	27827.83
770.5	27882.52
770.836	27672.35
771.171	27433.71
771.507	27441.85
771.842	27251.8
772.178	27332.93
772.513	27185.36
772.849	27132.03
773.184	26944.24
773.519	27080.95
773.855	26856.55
774.19	26781.08
774.525	26645.03
774.86	26605.03
775.195	26567.97
775.53	26410.69
775.865	26251.6
776.2	26074.2
776.535	25946.07
776.87	25932.74
777.205	25861.78
777.539	25730.26
777.874	25717.83
778.209	25497.04
778.543	25502.69
778.878	25316.48
779.212	25422.02
779.547	25281.68
779.881	25238.07
780.215	25045.75
780.55	25072.42
780.884	24819.32
781.218	24834.91
781.552	24797.17
781.886	24600.79
782.22	24489.16
782.554	24407.8
782.888	24196.74
783.222	24072.22
783.556	23968.95
783.889	23921.26
784.223	23798.1
784.557	23845.79
784.89	23795.39
785.224	23684.21
785.557	23575.51
785.891	23488.96
786.224	23400.6
786.558	23438.11
786.891	23165.13
787.224	23009.42
787.557	23078.12
787.891	23020.5
788.224	22866.15
788.557	23014.85
788.89	22802.65
789.223	22811.91
789.556	22545.93
789.888	22478.36
790.221	22495.76
790.554	22327.86
790.887	22354.75
791.219	22227.07
791.552	22107.75
791.884	22010.13
792.217	21969.45
792.549	21757.25
792.882	21738.72
793.214	21558.39
793.546	21679.29
793.879	21555.68
794.211	21365.17
794.543	21442.91
794.875	21507.99
795.207	21538.95
795.539	21285.4
795.871	21175.57
796.203	21010.61
796.535	20950.95
796.867	20892.87
797.198	20822.81
797.53	20711.18
797.862	20685.87
798.193	20695.36
798.525	20593.22
798.856	20619.66
799.188	20449.94
799.519	20400.45
799.85	20250.63
800.182	20275.94
800.513	20180.12
800.844	20072.1
801.175	20116.17
801.506	20097.86
801.837	20070.52
802.168	19935.61
802.499	19986.23
802.83	19847.92
803.161	19700.13
803.491	19653.81
803.822	19690.87
804.153	19614.71
804.483	19387.37
804.814	19345.79
805.145	19226.7
805.475	19231.67
805.805	19186.02
806.136	19183.08
806.466	19255.17
806.796	19158.68
807.126	18992.81
807.457	18908.06
807.787	19011.79
808.117	18871.45
808.447	18816.54
808.777	18752.13
809.107	18625.81
809.436	18592.82
809.766	18614.28
810.096	18431.46
810.426	18482.76
810.755	18498.81
811.085	18488.41
811.414	18352.14
811.744	18210.91
812.073	18181.08
812.403	18267.85
812.732	18156.22
813.061	18155.77
813.39	17982.66
813.719	17872.16
814.049	17995.32
814.378	17887.52
814.707	17764.59
815.036	17854.53
815.365	17708.77
815.693	17601.2
816.022	17619.73
816.351	17482.34
816.68	17399.4
817.008	17494.31
817.337	17374.54
817.665	17364.37
817.994	17291.61
818.322	17431.94
818.651	17196.47
818.979	17224.04
819.307	17176.58
819.636	17219.29
819.964	17115.11
820.292	17081.22
820.62	17081.67
820.948	17038.96
821.276	17091.16
821.604	17102.69
821.932	17112.4
822.259	17033.08
822.587	16988.79
822.915	16920.54
823.243	17066.98
823.57	16959.64
823.898	17016.36
824.225	16933.2
824.553	16941.33
824.88	16958.06
825.207	17000.99
825.535	16903.6
825.862	16930.04
826.189	16994.67
826.516	16935.23
826.843	17052.07
827.17	17058.17
827.497	17014.33
827.824	17096.81
828.151	16957.15
828.478	16995.8
828.805	16956.7
829.131	16917.38
829.458	16864.5
829.785	16751.73
830.111	16767.33
830.438	16876.03
830.764	16873.09
831.09	16876.48
831.417	16755.8
831.743	16870.38
832.069	16836.7
832.395	16810.94
832.722	16820.66
833.048	16738.18
833.374	16760.32
833.7	16794.67
834.026	16705.63
834.351	16732.98
834.677	16711.06
835.003	16666.31
835.329	16700.44
835.654	16613.43
835.98	16526.2
836.306	16562.81
836.631	16510.61
836.956	16585.64
837.282	16638.29
837.607	16394.91
837.932	16342.03
838.258	16400.33
838.583	16336.38
838.908	16229.71
839.233	16311.97
839.558	16273.56
839.883	16283.95
840.208	16118.08
840.533	16134.8
840.858	16139.1
841.182	16145.65
841.507	16174.35
841.832	16019.1
842.156	15945.88
842.481	16037.63
842.805	15954.02
843.13	15912.43
843.454	15815.04
843.778	15773.91
844.103	15793.79
844.427	15800.8
844.751	15735.26
845.075	15627.24
845.399	15717.41
845.723	15556.51
846.047	15532.56
846.371	15443.52
846.695	15455.5
847.019	15199.69
847.343	15230.87
847.666	15140.03
847.99	15110.42
848.313	15088.05
848.637	15085.11
848.96	15008.28
849.284	14955.17
849.607	14838.79
849.931	14726.93
850.254	14667.27
850.577	14651.22
850.9	14434.28
851.223	14484.9
851.546	14386.83
851.869	14310.44
852.192	14352.02
852.515	14175.76
852.838	14201.97
853.161	14081.75
853.483	14090.56
853.806	14056.89
854.129	13999.94
854.451	14028.87
854.774	13943.67
855.096	13835.43
855.419	13814.41
855.741	13802.43
856.063	13708.2
856.385	13634.98
856.708	13686.05
857.03	13626.62
857.352	13618.71
857.674	13584.81
857.996	13451.71
858.318	13382.11
858.64	13381.88
858.961	13403.12
859.283	13389.56
859.605	13312.28
859.926	13321.77
860.248	13265.27
860.57	13195.9
860.891	13256.23
861.212	13125.16
861.534	13139.4
861.855	13060.76
862.176	13063.24
862.498	13049.01
862.819	13082.45
863.14	12881.33
863.461	12893.76
863.782	12876.81
864.103	12889.92
864.424	12953.87
864.745	12877.94
865.065	12783.48
865.386	12773.76
865.707	12772.63
866.027	12779.18
866.348	12751.16
866.668	12656.02
866.989	12661.45
867.309	12492.86
867.63	12596.59
867.95	12548
868.27	12445.41
868.59	12481.56
868.91	12456.48
869.23	12516.37
869.55	12375.8
869.87	12520.89
870.19	12322.25
870.51	12391.4
870.83	12365.86
871.15	12255.58
871.469	12278.63
871.789	12344.84
872.109	12310.04
872.428	12209.71
872.748	12215.36
873.067	12287.9
873.386	12250.16
873.706	12114.57
874.025	12122.03
874.344	12117.05
874.663	12147.79
874.982	12080.22
875.301	12039.09
875.62	12051.07
875.939	12020.33
876.258	12049.49
876.577	11896.27
876.896	12006.77
877.214	11938.08
877.533	11873.44
877.852	11929.26
878.17	11919.55
878.489	11868.02
878.807	11847.23
879.125	11840.9
879.444	11845.42
879.762	11827.34
880.08	11871.41
880.398	11727.91
880.716	11758.42
881.034	11677.52
881.352	11708.48
881.67	11644.3
881.988	11625.32
882.306	11623.51
882.624	11557.75
882.941	11481.59
883.259	11472.78
883.577	11477.98
883.894	11469.61
884.212	11427.35
884.529	11438.2
884.846	11380.8
885.164	11420.8
885.481	11315.04
885.798	11373.12
886.115	11353.91
886.432	11293.35
886.75	11261.71
887.067	11244.31
887.383	11217.42
887.7	11143.07
888.017	11169.96
888.334	11180.81
888.651	11069.85
888.967	11068.95
889.284	10994.15
889.6	10946.92
889.917	10873.47
890.233	10947.82
890.55	10897.65
890.866	10895.39
891.182	10819.91
891.498	10910.53
891.815	10753.93
892.131	10704.21
892.447	10684.78
892.763	10601.84
893.079	10574.27
893.395	10611.78
893.71	10539.69
894.026	10576.3
894.342	10484.78
894.657	10397.78
894.973	10410.43
895.289	10452.69
895.604	10412.92
895.92	10254.96
896.235	10266.93
896.55	10230.32
896.865	10267.61
897.181	10254.05
897.496	10139.48
897.811	10090.89
898.126	10121.85
898.441	10052.93
898.756	10015.19
899.071	9949.65
899.386	10016.32
899.7	9929.99
900.015	9836.44
900.33	9770.9
900.644	9756.89
900.959	9791.69
901.273	9708.76
901.588	9753.05
901.902	9719.6
902.216	9630.57
902.531	9638.48
902.845	9670.79
903.159	9500.85
903.473	9580.4
903.787	9478.71
904.101	9460.4
904.415	9400.06
904.729	9369.78
905.042	9326.17
905.356	9365.04
905.67	9314.42
905.984	9254.08
906.297	9221.99
906.611	9191.48
906.924	9137.7
907.237	9179.5
907.551	9075.55
907.864	9062.9
908.177	9022.9
908.491	8974.54
908.804	8890.47
909.117	8876.24
909.43	8830.81
909.743	8829.68
910.056	8774.09
910.368	8765.73
910.681	8722.12
910.994	8650.93
911.307	8667.43
911.619	8541.78
911.932	8558.05
912.244	8516.25
912.557	8534.32
912.869	8459.3
913.181	8348.57
913.494	8373.2
913.806	8334.1
914.118	8296.82
914.43	8255.91
914.742	8245.97
915.054	8227.44
915.366	8150.15
915.678	8142.92
915.99	8057.95
916.302	8038.29
916.613	8007.78
916.925	8031.06
917.236	8021.57
917.548	7923.49
917.859	7899.31
918.171	7923.27
918.482	7837.62
918.794	7853.21
919.105	7792.65
919.416	7712.65
919.727	7659.77
920.038	7714.23
920.349	7617.74
920.66	7578.64
920.971	7589.72
921.282	7592.88
921.593	7528.47
921.903	7512.43
922.214	7507.23
922.525	7403.28
922.835	7430.4
923.146	7373.22
923.456	7312.43
923.767	7234.02
924.077	7232.89
924.387	7236.28
924.697	7151.31
925.008	7217.75
925.318	7091.88
925.628	7137.07
925.938	7099.56
926.248	7056.4
926.558	7019.56
926.867	6914.93
927.177	6993.35
927.487	6914.48
927.796	6846.68
928.106	6841.94
928.416	6879.45
928.725	6837.42
929.034	6769.4
929.344	6745.22
929.653	6742.73
929.962	6639.23
930.271	6656.63
930.581	6596.75
930.89	6618.44
931.199	6504.55
931.508	6507.48
931.817	6548.84
932.125	6477.88
932.434	6457.99
932.743	6440.82
933.051	6405.11
933.36	6447.37
933.669	6362.18
933.977	6312.91
934.286	6347.71
934.594	6287.83
934.902	6216.87
935.21	6202.18
935.519	6202.63
935.827	6153.37
936.135	6147.72
936.443	6080.15
936.751	6032.92
937.059	6036.08
937.367	6046.93
937.674	5995.41
937.982	5964.45
938.29	5916.99
938.597	5921.28
938.905	5853.04
939.213	5843.32
939.52	5773.49
939.827	5800.16
940.135	5842.87
940.442	5742.31
940.749	5757.22
941.056	5727.17
941.363	5653.5
941.67	5653.04
941.977	5648.3
942.284	5615.98
942.591	5619.15
942.898	5598.36
943.205	5569.2
943.511	5488.53
943.818	5481.52
944.125	5450.11
944.431	5378.93
944.738	5449.21
945.044	5404.01
945.35	5410.11
945.657	5360.17
945.963	5332.37
946.269	5274.97
946.575	5304.35
946.881	5258.25
947.187	5224.35
947.493	5251.02
947.799	5201.3
948.105	5211.47
948.41	5192.04
948.716	5128.76
949.022	5119.5
949.327	5119.5
949.633	5061.42
949.938	5097.13
950.244	5023.68
950.549	4971.93
950.854	4956.11
951.16	4965.15
951.465	4970.12
951.77	4931.93
952.075	4893.52
952.38	4899.39
952.685	4844.48
952.99	4854.19
953.294	4854.42
953.599	4776.46
953.904	4769.22
954.209	4752.5
954.513	4734.42
954.818	4725.61
955.122	4697.14
955.426	4632.96
955.731	4640.64
956.035	4660.53
956.339	4596.57
956.643	4561.55
956.948	4578.95
957.252	4537.37
957.556	4547.76
957.86	4514.99
958.163	4523.36
958.467	4451.72
958.771	4456.69
959.075	4434.09
959.378	4407.88
959.682	4381.44
959.985	4383.47
960.289	4370.82
960.592	4318.16
960.896	4296.24
961.199	4267.54
961.502	4306.19
961.805	4289.92
962.108	4221.22
962.411	4207.43
962.714	4155.46
963.017	4150.71
963.32	4175.34
963.623	4143.93
963.926	4137.38
964.228	4091.05
964.531	4077.94
964.833	4105.29
965.136	4039.53
965.438	4050.6
965.741	4030.94
966.043	4014.44
966.345	3972.18
966.648	3958.85
966.95	3993.2
967.252	3972.86
967.554	3905.07
967.856	3906.2
968.158	3892.19
968.46	3868.46
968.761	3852.86
969.063	3829.81
969.365	3812.64
969.666	3802.02
969.968	3793.88
970.269	3757.5
970.571	3726.31
970.872	3794.56
971.174	3701.68
971.475	3685.41
971.776	3709.82
972.077	3693.77
972.378	3669.82
972.679	3685.64
972.98	3658.07
973.281	3628.24
973.582	3617.62
973.883	3603.83
974.183	3576.49
974.484	3573.1
974.785	3529.26
975.085	3503.72
975.386	3506.89
975.686	3526.77
975.986	3484.96
976.287	3463.27
976.587	3419.43
976.887	3422.82
977.187	3397.74
977.487	3400
977.787	3367.91
978.087	3367.91
978.387	3344.86
978.687	3340.34
978.987	3311.41
979.286	3293.33
979.586	3320.68
979.885	3260.11
980.185	3257.63
980.484	3220.79
980.784	3208.81
981.083	3232.77
981.382	3217.18
981.682	3214.01
981.981	3153.67
982.28	3166.33
982.579	3169.94
982.878	3125.2
983.177	3156.84
983.475	3107.57
983.774	3067.57
984.073	3059.89
984.372	3019.89
984.67	3042.72
984.969	3079.78
985.267	3036.39
985.566	3029.16
985.864	2966.79
986.162	3004.98
986.461	2964.3
986.759	2972.21
987.057	2931.99
987.355	2898.77
987.653	2913.91
987.951	2896.28
988.249	2865.77
988.547	2863.74
988.844	2825.55
989.142	2837.3
989.44	2817.19
989.737	2842.5
990.035	2821.71
990.332	2810.18
990.63	2812.44
990.927	2763.4
991.224	2753.46
991.521	2742.16
991.819	2721.6
992.116	2710.07
992.413	2710.07
992.71	2686.34
993.006	2705.32
993.303	2657.64
993.6	2649.28
993.897	2671.65
994.193	2611.54
994.49	2637.76
994.787	2547.36
995.083	2585.78
995.379	2554.82
995.676	2532.45
995.972	2559.11
996.268	2516.4
996.565	2481.6
996.861	2514.14
997.157	2528.61
997.453	2481.83
997.749	2481.15
998.044	2428.72
998.34	2440.02
998.636	2411.77
998.932	2400.02
999.227	2379.68
999.523	2391.66
999.818	2374.26
1000.114	2366.58
1000.409	2352.34
1000.704	2368.38
1001	2336.07
1001.295	2357.08
1001.59	2309.63
1001.885	2315.28
1002.18	2303.75
1002.475	2281.61
1002.77	2301.49
1003.065	2263.75
1003.359	2242.51
1003.654	2189.86
1003.949	2216.75
1004.243	2187.6
1004.538	2202.96
1004.832	2181.5
1005.127	2166.13
1005.421	2161.16
1005.715	2118.22
1006.009	2134.04
1006.304	2140.14
1006.598	2099.92
1006.892	2086.36
1007.186	2078.67
1007.48	2046.36
1007.773	2048.62
1008.067	2050.2
1008.361	2008.17
1008.655	1995.96
1008.948	2025.79
1009.242	1984.44
1009.535	2005.68
1009.829	1976.3
1010.122	1971.11
1010.415	1942.18
1010.708	1942.41
1011.001	1948.06
1011.295	1927.72
1011.588	1882.3
1011.881	1868.28
1012.173	1892.46
1012.466	1865.35
1012.759	1836.19
1013.052	1866.93
1013.344	1841.17
1013.637	1778.12
1013.93	1825.35
1014.222	1782.86
1014.514	1808.4
1014.807	1773.37
1015.099	1786.03
1015.391	1743.32
1015.683	1776.08
1015.976	1763.43
1016.268	1743.99
1016.56	1719.59
1016.851	1696.99
1017.143	1711.23
1017.435	1685.01
1017.727	1661.51
1018.018	1678.23
1018.31	1655.41
1018.602	1660.15
1018.893	1650.44
1019.185	1633.94
1019.476	1605.69
1019.767	1623.32
1020.058	1584.45
1020.35	1569.31
1020.641	1575.64
1020.932	1558.91
1021.223	1533.15
1021.514	1515.07
1021.804	1517.78
1022.095	1512.81
1022.386	1534.96
1022.677	1499.48
1022.967	1501.51
1023.258	1470.78
1023.548	1473.72
1023.839	1456.54
1024.129	1465.13
1024.419	1440.5
1024.709	1417.67
1025	1446.83
1025.29	1424.45
1025.58	1402.76
1025.87	1390.1
1026.16	1366.38
1026.449	1363.89
1026.739	1362.53
1027.029	1378.81
1027.319	1350.33
1027.608	1368.64
1027.898	1326.15
1028.187	1313.5
1028.477	1318.92
1028.766	1320.28
1029.055	1302.88
1029.344	1299.49
1029.634	1275.98
1029.923	1276.44
1030.212	1290.67
1030.501	1249.54
1030.79	1282.54
1031.078	1233.95
1031.367	1239.6
1031.656	1222.88
1031.945	1228.08
1032.233	1217.91
1032.522	1198.47
1032.81	1212.26
1033.099	1177
1033.387	1167.74
1033.675	1174.29
1033.963	1159.15
1034.251	1150.11
1034.54	1153.27
1034.828	1164.8
1035.116	1114.63
1035.403	1135.65
1035.691	1114.63
1035.979	1144.01
1036.267	1083.67
1036.554	1089.55
1036.842	1077.34
1037.129	1098.59
1037.417	1066.05
1037.704	1085.25
1037.992	1059.49
1038.279	1071.24
1038.566	1041.41
1038.853	1041.41
1039.14	1041.41
