Data from breadboard_white_FLMS001491_00082.txt Node
Date: Wed Feb 08 10:48:23 GMT 2017
User: dcchb
Spectrometer: FLMS00149
Trigger mode: 0
Integration Time (sec): 2.000000E-2
Scans to average: 10
Electric dark correction enabled: true
Nonlinearity correction enabled: false
Boxcar width: 0
XAxis mode: Wavelengths
Number of Pixels in Spectrum: 2048
>>>>>Begin Spectral Data<<<<<
341.393	-6.92
341.776	-6.92
342.16	-6.92
342.543	-45.79
342.927	-51.21
343.31	-74.04
343.693	-70.65
344.077	-53.7
344.46	-45.79
344.843	-55.96
345.226	-52.57
345.61	-47.6
345.993	-31.33
346.376	-6.47
346.759	0.99
347.142	32.85
347.525	55.45
347.908	72.85
348.291	85.96
348.674	84.15
349.057	105.84
349.44	143.81
349.823	115.79
350.206	165.96
350.588	213.19
350.971	221.1
351.354	232.17
351.737	263.58
352.119	294.77
352.502	281.43
352.884	291.83
353.267	292.73
353.65	308.55
354.032	317.36
354.414	324.37
354.797	326.86
355.179	325.27
355.562	350.36
355.944	363.47
356.326	353.07
356.709	341.54
357.091	353.75
357.473	365.27
357.855	353.07
358.238	366.63
358.62	343.13
359.002	361.43
359.384	361.21
359.766	378.61
360.148	374.54
360.53	377.93
360.912	373.86
361.294	365.05
361.676	358.72
362.057	352.62
362.439	343.35
362.821	331.38
363.203	361.43
363.584	354.2
363.966	351.04
364.348	353.52
364.729	342
365.111	358.27
365.493	356.91
365.874	360.3
366.256	340.64
366.637	356.01
367.019	344.48
367.4	362.79
367.781	345.39
368.163	358.27
368.544	349.91
368.925	355.78
369.306	339.74
369.688	346.29
370.069	362.79
370.45	349
370.831	353.07
371.212	353.75
371.593	350.13
371.974	349.45
372.355	356.91
372.736	363.24
373.117	352.62
373.498	339.06
373.879	346.52
374.26	360.53
374.641	372.96
375.021	366.63
375.402	369.79
375.783	376.12
376.163	401.2
376.544	381.77
376.925	366.85
377.305	391.94
377.686	380.64
378.066	364.82
378.447	374.99
378.827	391.71
379.208	396.46
379.588	406.4
379.968	391.71
380.349	416.8
380.729	400.53
381.109	392.39
381.489	395.55
381.87	436.01
382.25	400.53
382.63	441.43
383.01	421.32
383.39	421.54
383.77	412.05
384.15	433.07
384.53	435.55
384.91	439.17
385.29	449.56
385.67	433.29
386.049	420.19
386.429	451.82
386.809	438.72
387.189	451.37
387.568	448.43
387.948	452.28
388.328	458.38
388.707	465.61
389.087	468.77
389.466	458.6
389.846	492.28
390.225	488.89
390.605	498.6
390.984	507.42
391.363	485.27
391.743	512.84
392.122	513.07
392.501	513.07
392.881	530.69
393.26	516.23
393.639	530.92
394.018	555.55
394.397	549.67
394.776	556
395.155	560.07
395.534	556
395.913	563.01
396.292	554.19
396.671	588.77
397.05	562.78
397.429	612.72
397.808	619.05
398.186	602.1
398.565	623.12
398.944	627.64
399.323	621.31
399.701	645.04
400.08	633.51
400.458	626.28
400.837	684.13
401.215	656.56
401.594	679.84
401.972	690.46
402.351	729.56
402.729	735.43
403.107	717.58
403.486	723.23
403.864	750.8
404.242	742.89
404.62	734.08
404.999	759.16
405.377	803.91
405.755	814.3
406.133	814.98
406.511	829.44
406.889	857.92
407.267	865.6
407.645	853.62
408.023	883
408.401	887.75
408.779	913.51
409.156	967.52
409.534	953.28
409.912	972.94
410.29	974.97
410.667	989.21
411.045	1020.62
411.422	1032.83
411.8	1032.37
412.178	1089.32
412.555	1088.42
412.933	1104.69
413.31	1152.37
413.687	1129.09
414.065	1159.15
414.442	1178.13
414.819	1205.7
415.197	1243.22
415.574	1247.51
415.951	1262.2
416.328	1298.81
416.705	1296.77
417.082	1332.25
417.46	1304.46
417.837	1353.72
418.214	1381.52
418.591	1375.19
418.967	1412.7
419.344	1433.04
419.721	1410.67
420.098	1466.49
420.475	1482.53
420.852	1502.42
421.228	1528.63
421.605	1562.3
421.982	1525.47
422.358	1598.01
422.735	1613.15
423.111	1611.57
423.488	1605.47
423.864	1640.49
424.241	1685.92
424.617	1666.03
424.994	1674.17
425.37	1726.14
425.746	1701.96
426.123	1720.72
426.499	1763.65
426.875	1755.29
427.251	1835.74
427.627	1890.66
428.003	1911.22
428.379	1901.5
428.756	1948.73
429.132	1959.36
429.507	1992.12
429.883	2012.91
430.259	2030.31
430.635	2054.04
431.011	2073.02
431.387	2154.38
431.763	2163.42
432.138	2198.67
432.514	2210.87
432.89	2233.25
433.265	2261.04
433.641	2350.76
434.016	2334.71
434.392	2354.83
434.767	2400.02
435.143	2424.88
435.518	2413.81
435.894	2499.45
436.269	2494.03
436.644	2549.85
437.02	2561.15
437.395	2547.14
437.77	2631.2
438.145	2640.47
438.52	2679.79
438.895	2698.77
439.271	2728.15
439.646	2816.96
440.021	2786.45
440.395	2809.05
440.77	2821.71
441.145	2871.65
441.52	2922.95
441.895	2922.72
442.27	2929.05
442.645	2933.11
443.019	2998.88
443.394	2975.6
443.769	3000.01
444.143	3008.82
444.518	3101.47
444.892	3027.35
445.267	3098.53
445.641	3122.94
446.016	3119.1
446.39	3169.04
446.764	3210.62
447.139	3244.52
447.513	3217.63
447.887	3301.92
448.262	3322.48
448.636	3295.82
449.01	3341.69
449.384	3360.22
449.758	3396.15
450.132	3454.23
450.506	3474.34
450.88	3512.08
451.254	3476.83
451.628	3586.88
452.002	3609.03
452.376	3637.05
452.75	3658.97
453.123	3681.57
453.497	3774.67
453.871	3817.61
454.244	3829.14
454.618	3901.9
454.992	3924.05
455.365	3992.97
455.739	4088.34
456.112	4093.99
456.486	4119.07
456.859	4145.51
457.232	4263.48
457.606	4249.24
457.979	4332.17
458.352	4427.99
458.725	4412.4
459.099	4473.87
459.472	4560.42
459.845	4594.77
460.218	4689.9
460.591	4689.45
460.964	4717.47
461.337	4845.38
461.71	4919.05
462.083	4919.73
462.456	5010.8
462.829	5018.94
463.201	5112.49
463.574	5177.58
463.947	5231.81
464.32	5344.13
464.692	5367.63
465.065	5425.7
465.438	5528.07
465.81	5571.01
466.183	5646.49
466.555	5761.74
466.928	5762.65
467.3	5808.52
467.672	5897.78
468.045	6055.29
468.417	6035.18
468.789	6127.61
469.161	6242.86
469.534	6300.03
469.906	6481.72
470.278	6514.49
470.65	6584.32
471.022	6692.79
471.394	6825.89
471.766	6870.86
472.138	6951.77
472.51	7134.59
472.882	7236.73
473.253	7294.81
473.625	7415.48
473.997	7606.66
474.369	7659.32
474.74	7780.22
475.112	7880.1
475.484	8023.15
475.855	8140.89
476.227	8232.41
476.598	8504.95
476.97	8583.14
477.341	8732.06
477.713	8876.24
478.084	8891.83
478.455	9118.94
478.827	9216.11
479.198	9463.34
479.569	9489.1
479.94	9802.31
480.311	9852.48
480.682	10078.92
481.053	10299.25
481.424	10426.93
481.795	10581.28
482.166	10666.7
482.537	10866.92
482.908	11066.91
483.279	11202.5
483.65	11431.65
484.021	11658.99
484.391	11802.49
484.762	11898.53
485.133	12057.85
485.503	12229.14
485.874	12467.33
486.244	12625.29
486.615	12867.54
486.985	12986.41
487.356	13261.43
487.726	13328.1
488.097	13691.48
488.467	13676.56
488.837	14017.8
489.207	14177.11
489.578	14430.44
489.948	14502.98
490.318	14661.39
490.688	14669.3
491.058	15001.95
491.428	15184.54
491.798	15330.08
492.168	15657.53
492.538	15704.76
492.908	15896.62
493.278	16103.84
493.648	16152.88
494.017	16281.01
494.387	16423.83
494.757	16699.98
495.126	16850.94
495.496	16950.83
495.866	17098.39
496.235	17303.13
496.605	17491.83
496.974	17537.7
497.344	17737.7
497.713	17704.93
498.082	18020.63
498.452	18205.93
498.821	18278.7
499.19	18413.16
499.559	18572.48
499.928	18648.63
500.298	18708.52
500.667	19000.26
501.036	19018.12
501.405	19128.85
501.774	19152.35
502.143	19477.31
502.512	19525.45
502.88	19766.57
503.249	19733.35
503.618	19950.75
503.987	20001.14
504.356	20233
504.724	20328.14
505.093	20393.67
505.462	20467.12
505.83	20686.32
506.199	20899.2
506.567	21272.75
506.936	21001.79
507.304	21378.28
507.672	21399.75
508.041	21624.15
508.409	21709.12
508.777	21917.47
509.145	22081.99
509.514	22226.84
509.882	22345.94
510.25	22493.96
510.618	22731.92
510.986	22806.26
511.354	22942.98
511.722	23182.75
512.09	23454.38
512.458	23268.85
512.826	23645.11
513.193	23782.28
513.561	23806.46
513.929	24115.38
514.297	24311.54
514.664	24533.9
515.032	24607.8
515.4	24803.05
515.767	24854.12
516.135	25043.95
516.502	24967.56
516.869	25467.21
517.237	25551.96
517.604	25679.18
517.972	25952.85
518.339	26076.01
518.706	26160.53
519.073	26292.05
519.44	26535.21
519.808	26767.06
520.175	26839.15
520.542	27179.03
520.909	27292.02
521.276	27442.3
521.643	27725.68
522.009	27916.41
522.376	28124.09
522.743	28369.73
523.11	28609.28
523.477	28866.44
523.843	29044.52
524.21	29330.39
524.577	29632.3
524.943	29739.19
525.31	29873.65
525.676	30187.54
526.043	30326.29
526.409	30463.24
526.776	30914.98
527.142	30954.07
527.508	31075.88
527.874	31415.3
528.241	31597.67
528.607	31760.38
528.973	32173.02
529.339	32178
529.705	32359.23
530.071	32674.25
530.437	32766
530.803	32928.94
531.169	33160.79
531.535	33150.63
531.901	33300.9
532.267	33560.56
532.632	33672.19
532.998	33845.52
533.364	34069.25
533.73	34186.98
534.095	34410.03
534.461	34558.05
534.826	34714.88
535.192	34965.49
535.557	35222.89
535.923	35134.08
536.288	35320.74
536.653	35350.79
537.019	35473.28
537.384	35655.19
537.749	35770.9
538.114	36085.46
538.479	35926.82
538.845	36165.24
539.21	36190.55
539.575	36432.12
539.94	36493.14
540.305	36768.16
540.67	36775.16
541.034	36968.15
541.399	37119.33
541.764	37162.05
542.129	37283.17
542.494	37410.4
542.858	37672.31
543.223	37552.09
543.587	37990.5
543.952	37786.44
544.316	38080.44
544.681	38185.75
545.045	38279.53
545.41	38512.07
545.774	38460.77
546.138	38682.23
546.503	38641.33
546.867	38785.73
547.231	39212.39
547.595	39128.1
547.959	39310.01
548.324	39502.77
548.688	39538.93
549.052	39644.69
549.416	39737.8
549.779	39769.43
550.143	39974.17
550.507	40253.94
550.871	40412.58
551.235	40385.01
551.599	40657.32
551.962	40664.55
552.326	40854.15
552.689	41023.19
553.053	40900.7
553.417	41090.53
553.78	41723.51
554.143	41425.44
554.507	41710.63
554.87	41862.03
555.234	42230.39
555.597	42147.23
555.96	42258.86
556.323	42394.22
556.686	42508.8
557.05	42805.51
557.413	42963.93
557.776	43016.81
558.139	43336.8
558.502	43372.96
558.865	43529.34
559.228	43883.22
559.59	43903.79
559.953	43967.97
560.316	44417.45
560.679	44538.8
561.041	44681.62
561.404	44785.8
561.767	45101.95
562.129	45023.08
562.492	45468.27
562.854	45383.52
563.217	45589.39
563.579	45677.98
563.941	46038.2
564.304	46191.19
564.666	46472.99
565.028	46433.89
565.39	46590.27
565.753	46814.22
566.115	47040.43
566.477	47127.89
566.839	47397.71
567.201	47482.68
567.563	47600.42
567.925	47710.24
568.287	47786.85
568.648	47810.81
569.01	48247.4
569.372	48403.78
569.734	48355.42
570.095	48597
570.457	48745.47
570.819	48762.64
571.18	48736.88
571.542	49052.35
571.903	49021.85
572.265	49187.27
572.626	49302.29
572.987	49391.55
573.349	49500.7
573.71	49599.68
574.071	49622.73
574.432	49900.92
574.794	50018.66
575.155	50136.85
575.516	50019.79
575.877	50074.02
576.238	50184.98
576.599	50395.82
576.96	50346.11
577.32	50406.89
577.681	50546.55
578.042	50590.17
578.403	50547.46
578.763	50623.84
579.124	50732.99
579.485	50806.43
579.845	50902.93
580.206	50917.84
580.566	50882.81
580.927	50858.41
581.287	51125.29
581.648	50960.1
582.008	51092.75
582.368	51075.58
582.728	51130.04
583.089	51112.64
583.449	51080.78
583.809	51070.15
584.169	51139.76
584.529	51073.09
584.889	51359.64
585.249	51181.56
585.609	51095.01
585.969	51221.34
586.329	51095.69
586.688	51195.12
587.048	51158.06
587.408	51201
587.768	51089.59
588.127	51180.21
588.487	51055.92
588.846	51477.83
589.206	51303.59
589.565	51217.27
589.925	51363.93
590.284	51307.21
590.643	51313.09
591.003	51355.12
591.362	51497.71
591.721	51459.3
592.08	51417.49
592.44	51444.16
592.799	51429.47
593.158	51415.91
593.517	51527.09
593.876	51522.35
594.235	51477.15
594.593	51481.44
594.952	51565.28
595.311	51390.37
595.67	51503.14
596.029	51769.57
596.387	51666.52
596.746	51711.72
597.104	51528.22
597.463	51548.56
597.822	51704.49
598.18	51605.96
598.538	51573.87
598.897	51774.32
599.255	51477.38
599.613	51899.06
599.972	51753.3
600.33	51918.95
600.688	51737.03
601.046	51864.26
601.404	51958.72
601.762	51938.83
602.12	52018.38
602.478	52038.94
602.836	52057.02
603.194	51921.43
603.552	52093.18
603.91	51970.24
604.268	52109.9
604.625	52025.16
604.983	52183.12
605.341	52012.73
605.698	52224.7
606.056	52233.29
606.413	52249.11
606.771	52325.71
607.128	52298.14
607.485	52285.94
607.843	52299.95
608.2	52460.63
608.557	52552.6
608.914	52352.83
609.272	52584.46
609.629	52624.46
609.986	52646.84
610.343	52551.7
610.7	52759.15
611.057	52705.37
611.414	52718.7
611.771	52818.58
612.127	52900.84
612.484	52862.2
612.841	52891.35
613.198	52825.81
613.554	52894.29
613.911	52991.23
614.267	52960.05
614.624	53055.64
614.98	53058.8
615.337	53190.78
615.693	53045.47
616.05	53076.88
616.406	53216.76
616.762	53120.5
617.118	53113.72
617.475	53265.12
617.831	53284.79
618.187	53310.1
618.543	53351.45
618.899	53441.17
619.255	53467.83
619.611	53394.16
619.967	53456.53
620.323	53527.04
620.678	53423.31
621.034	53341.06
621.39	53381.28
621.746	53294.95
622.101	53736.98
622.457	53374.95
622.812	53540.15
623.168	53602.97
623.523	53595.74
623.879	53638
624.234	53397.32
624.589	53527.26
624.945	53542.86
625.3	53569.75
625.655	53556.87
626.01	53538.34
626.365	53539.47
626.72	53490.2
627.075	53503.31
627.43	53515.74
627.785	53411.11
628.14	53474.38
628.495	53430.77
628.85	53412.24
629.205	53268.51
629.559	53515.06
629.914	53318
630.269	53412.92
630.623	53174.51
630.978	53215.63
631.332	53348.06
631.687	53438.91
632.041	53229.87
632.396	53364.78
632.75	53205.24
633.104	53190.78
633.459	53099.03
633.813	53131.8
634.167	53007.5
634.521	53060.16
634.875	53088.18
635.229	52945.81
635.583	52806.83
635.937	52854.74
636.291	52866.94
636.645	52878.47
636.999	52817
637.352	52793.95
637.706	52640.28
638.06	52795.76
638.413	52631.7
638.767	52578.82
639.121	52667.85
639.474	52490
639.828	52571.13
640.181	52442.55
640.534	52523.9
640.888	52372.72
641.241	52257.24
641.594	52342.44
641.947	52391.25
642.301	52337.24
642.654	52327.52
643.007	52276.45
643.36	52221.76
643.713	52191.48
644.066	52188.32
644.419	52054.54
644.771	51845.28
645.124	51515.79
645.477	51531.39
645.83	51235.35
646.182	51048.23
646.535	50980.89
646.888	50982.7
647.24	50965.3
647.593	51088.91
647.945	51026.31
648.298	50779.77
648.65	50630.17
649.002	50593.1
649.355	50616.38
649.707	50636.95
650.059	50873.32
650.411	51246.65
650.763	51249.81
651.115	51490.93
651.467	51447.32
651.819	51354.67
652.171	51395.8
652.523	51178.85
652.875	51269.25
653.227	51082.81
653.578	51291.17
653.93	51203.94
654.282	51043.71
654.633	50924.85
654.985	51025.41
655.337	51065.86
655.688	51065.18
656.039	51143.82
656.391	50814.57
656.742	50897.05
657.094	50838.3
657.445	50969.59
657.796	50962.36
658.147	50807.11
658.498	50857.5
658.849	50793.55
659.2	50826.32
659.551	50719.2
659.902	50783.16
660.253	50743.16
660.604	50861.12
660.955	50614.57
661.306	50791.74
661.656	50694.57
662.007	50644.4
662.358	50626.78
662.708	50622.93
663.059	50596.27
663.409	50408.48
663.76	50569.15
664.11	50591.3
664.461	50500.45
664.811	50631.52
665.161	50583.61
665.511	50389.95
665.862	50588.13
666.212	50618.41
666.562	50461.81
666.912	50422.04
667.262	50384.3
667.612	50382.04
667.962	50394.24
668.312	50319.21
668.662	50590.84
669.011	50417.06
669.361	50313.11
669.711	50251.42
670.06	50305.2
670.41	50168.94
670.76	50212.32
671.109	50402.83
671.459	50234.7
671.808	50177.75
672.157	50269.72
672.507	49926
672.856	49955.83
673.205	50063.63
673.554	50165.55
673.904	49967.13
674.253	50176.39
674.602	50036.06
674.951	49618.22
675.3	49255.96
675.649	49925.78
675.998	49786.35
676.346	49900.24
676.695	50006.68
677.044	49568.72
677.393	49731.21
677.741	49736.86
678.09	49783.18
678.438	49613.02
678.787	49669.74
679.135	49613.47
679.484	49425.9
679.832	49539.35
680.181	49347.49
680.529	49425.23
680.877	49350.65
681.225	49347.04
681.573	49446.47
681.922	49324.21
682.27	49008.74
682.618	49210.09
682.966	48980.27
683.314	49059.13
683.661	48954.28
684.009	48804
684.357	48774.4
684.705	48605.59
685.053	48726.49
685.4	48674.96
685.748	48392.26
686.095	48375.99
686.443	48252.15
686.79	48144.58
687.138	48284.92
687.485	48237.69
687.832	48137.8
688.18	48053.74
688.527	47911.37
688.874	47788.66
689.221	47810.35
689.568	47757.7
689.915	47575.56
690.262	47686.06
690.609	47452.85
690.956	47388.44
691.303	47315.45
691.65	47135.12
691.997	47176.25
692.344	46892.64
692.69	46799.98
693.037	46922.24
693.383	46558.41
693.73	46737.61
694.077	46374.68
694.423	46430.95
694.769	46265.31
695.116	46372.2
695.462	46189.15
695.808	45899.22
696.155	46060.34
696.501	45640.69
696.847	45733.35
697.193	45477.31
697.539	45612.22
697.885	45288.39
698.231	45124.55
698.577	45266.24
698.923	45071.89
699.269	44955.74
699.614	44780.6
699.96	44601.17
700.306	44697.89
700.651	44487.05
700.997	44398.24
701.342	44394.85
701.688	44214.74
702.033	44063.56
702.379	44220.39
702.724	43975.65
703.069	44026.95
703.415	43624.25
703.76	43553.74
704.105	43448.21
704.45	43459.28
704.795	43186.75
705.14	43201.21
705.485	43055.9
705.83	42891.84
706.175	43010.25
706.52	42703.14
706.865	42618.85
707.209	42609.81
707.554	42507.67
707.899	42590.83
708.243	42301.12
708.588	42411.17
708.932	42099.54
709.277	41911.53
709.621	42081.01
709.966	41704.3
710.31	41822.71
710.654	41486.45
710.998	41591.31
711.342	41619.1
711.687	41461.82
712.031	41270.41
712.375	41189.51
712.719	41051.89
713.063	40990.42
713.407	41184.76
713.75	40838.56
714.094	40963.75
714.438	40784.55
714.782	40734.83
715.125	40537.1
715.469	40608.73
715.812	40309.08
716.156	40224.34
716.499	40343.88
716.843	40273.83
717.186	39975.3
717.53	40243.32
717.873	40070.22
718.216	40023.21
718.559	39991.8
718.902	39710.91
719.246	39675.65
719.589	39454.87
719.932	39363.34
720.275	39496
720.617	39364.25
720.96	39244.48
721.303	39281.31
721.646	39175.1
721.989	39023.47
722.331	39245.38
722.674	38906.18
723.016	38834.77
723.359	38678.39
723.701	38890.36
724.044	38647.66
724.386	38437.04
724.729	38732.63
725.071	38448.11
725.413	38392.52
725.755	38434.33
726.097	38284.05
726.439	38007.67
726.782	38117.05
727.124	38257.61
727.465	37902.82
727.807	38030.95
728.149	37952.76
728.491	37787.11
728.833	37855.36
729.175	37679.77
729.516	37584.18
729.858	37496.73
730.199	37589.6
730.541	37492.21
730.882	37348.48
731.224	37468.03
731.565	37124.53
731.906	37259.22
732.248	37228.94
732.589	37115.72
732.93	36998.66
733.271	36986.23
733.612	37004.76
733.953	36970.19
734.294	36815.39
734.635	36854.48
734.976	36831.21
735.317	36718.89
735.658	36567.94
735.999	36465.57
736.339	36508.28
736.68	36555.51
737.021	36376.53
737.361	36217.66
737.702	36372.69
738.042	36265.12
738.383	36112.13
738.723	36222.86
739.063	36191.9
739.404	36092.47
739.744	35959.37
740.084	35933.38
740.424	35831.23
740.764	35841.4
741.104	35955.07
741.444	35720.28
741.784	35605.48
742.124	35642.76
742.464	35532.48
742.804	35435.76
743.143	35304.02
743.483	35517.34
743.823	35251.59
744.162	35192.15
744.502	35210.91
744.841	35022.44
745.181	35112.61
745.52	34897.92
745.86	34917.81
746.199	34784.03
746.538	34814.08
746.877	34888.88
747.216	34799.62
747.556	34767.98
747.895	34555.56
748.234	34480.53
748.573	34382.01
748.911	34371.38
749.25	34415
749.589	34146.98
749.928	34237.6
750.267	34152.18
750.605	34066.76
750.944	33956.03
751.283	33877.39
751.621	33825.86
751.96	33738.41
752.298	33761.91
752.636	33788.57
752.975	33541.58
753.313	33411.86
753.651	33571.18
753.989	33331.86
754.327	33180.23
754.666	33144.3
755.004	33140.46
755.342	33010.06
755.679	33072.66
756.017	32744.99
756.355	32849.16
756.693	32699.34
757.031	32745.44
757.368	32549.29
757.706	32545.44
758.044	32452.79
758.381	32333.7
758.719	32284.89
759.056	32279.46
759.394	32055.97
759.731	31967.38
760.068	31961.05
760.405	31681.74
760.743	31605.36
761.08	31806.25
761.417	31398.58
761.754	31537.11
762.091	31242.43
762.428	31378.92
762.765	31133.5
763.102	31208.53
763.438	31031.59
763.775	30795.21
764.112	31005.82
764.449	30869.33
764.785	30757.92
765.122	30468.21
765.458	30422.11
765.795	30416.46
766.131	30306.41
766.467	30214.66
766.804	29915.46
767.14	30002.23
767.476	29922.69
767.812	29664.84
768.148	29754.78
768.485	29509.59
768.821	29422.81
769.157	29311.86
769.492	29368.13
769.828	29212.2
770.164	28956.61
770.5	29015.37
770.836	28878.65
771.171	28707.35
771.507	28698.31
771.842	28533.12
772.178	28538.32
772.513	28328.15
772.849	28307.82
773.184	28250.42
773.519	28162.06
773.855	27924.77
774.19	27844.55
774.525	27629.64
774.86	27796.42
775.195	27636.65
775.53	27619.92
775.865	27384.68
776.2	27271.01
776.535	27009.54
776.87	27113.04
777.205	26938.59
777.539	26849.1
777.874	26795.54
778.209	26737.46
778.543	26466.51
778.878	26401.42
779.212	26355.78
779.547	26158.49
779.881	26346.06
780.215	26020.87
780.55	26118.72
780.884	25882.12
781.218	25859.52
781.552	25831.72
781.886	25629.69
782.22	25479.19
782.554	25457.04
782.888	25146.77
783.222	25113.55
783.556	25040.78
783.889	24991.74
784.223	24880.79
784.557	24786.1
784.89	24867.68
785.224	24644.63
785.557	24552.21
785.891	24437.18
786.224	24432.44
786.558	24423.17
786.891	24083.75
787.224	24022.73
787.557	24034.71
787.891	23933.01
788.224	23930.53
788.557	23951.55
788.89	23842.17
789.223	23697.77
789.556	23625
789.888	23533.03
790.221	23491.67
790.554	23280.83
790.887	23220.27
791.219	23108.18
791.552	23195.41
791.884	23003.1
792.217	22975.53
792.549	22905.92
792.882	22628.87
793.214	22586.38
793.546	22595.42
793.879	22491.02
794.211	22385.94
794.543	22398.82
794.875	22328.76
795.207	22461.64
795.539	22197.47
795.871	22221.42
796.203	22033.86
796.535	21874.76
796.867	21856.46
797.198	21738.72
797.53	21813.75
797.862	21499.86
798.193	21614.43
798.525	21413.08
798.856	21415.11
799.188	21226.87
799.519	21141.9
799.85	21060.55
800.182	21140.32
800.513	21110.94
800.844	20992.08
801.175	20981.23
801.506	20952.53
801.837	20826.2
802.168	20652.65
802.499	20687.68
802.83	20530.39
803.161	20481.58
803.491	20504.18
803.822	20479.55
804.153	20232.1
804.483	20205.2
804.814	20128.82
805.145	20152.78
805.475	20084.98
805.805	20015.6
806.136	20087.47
806.466	19956.85
806.796	20031.2
807.126	19774.71
807.457	19660.81
807.787	19670.3
808.117	19739
808.447	19515.5
808.777	19612.9
809.107	19469.86
809.436	19334.72
809.766	19467.6
810.096	19371.55
810.426	19309.63
810.755	19320.25
811.085	19248.62
811.414	19226.25
811.744	18859.02
812.073	18983.54
812.403	18961.17
812.732	18865.13
813.061	18826.48
813.39	18868.52
813.719	18755.98
814.049	18819.7
814.378	18682.08
814.707	18608.86
815.036	18632.59
815.365	18466.94
815.693	18436.44
816.022	18362.09
816.351	18401.63
816.68	18250
817.008	18278.7
817.337	18106.95
817.665	18087.52
817.994	18129.78
818.322	18180.85
818.651	17993.96
818.979	17881.87
819.307	18017.92
819.636	17907.64
819.964	17775.66
820.292	17854.76
820.62	17811.59
820.948	17851.59
821.276	17845.49
821.604	17774.31
821.932	17781.09
822.259	17771.82
822.587	17762.33
822.915	17697.92
823.243	17687.53
823.57	17732.73
823.898	17752.61
824.225	17617.93
824.553	17681.43
824.88	17704.7
825.207	17698.83
825.535	17606.63
825.862	17654.31
826.189	17663.12
826.516	17688.43
826.843	17667.42
827.17	17742.9
827.497	17709
827.824	17641.43
828.151	17685.5
828.478	17600.3
828.805	17697.47
829.131	17622.67
829.458	17614.54
829.785	17429.91
830.111	17570.7
830.438	17650.92
830.764	17542.9
831.09	17587.87
831.417	17476.69
831.743	17584.93
832.069	17583.8
832.395	17483.47
832.722	17592.62
833.048	17479.63
833.374	17486.18
833.7	17428.78
834.026	17445.5
834.351	17433.52
834.677	17345.39
835.003	17460.64
835.329	17384.49
835.654	17404.15
835.98	17235.79
836.306	17290.48
836.631	17255
836.956	17281.44
837.282	17164.38
837.607	17228.78
837.932	17210.03
838.258	17180.65
838.583	17095
838.908	16973.65
839.233	17061.33
839.558	17034.67
839.883	16923.48
840.208	16871.28
840.533	16895.01
840.858	16801.22
841.182	16870.38
841.507	16881.22
841.832	16727.1
842.156	16652.98
842.481	16673.32
842.805	16572.3
843.13	16555.81
843.454	16493.66
843.778	16469.71
844.103	16399.65
844.427	16355.36
844.751	16414.12
845.075	16337.73
845.399	16276.72
845.723	16120.79
846.047	16224.29
846.371	16105.88
846.695	16152.2
847.019	15956.73
847.343	15947.01
847.666	15926.9
847.99	15817.75
848.313	15808.93
848.637	15679.9
848.96	15647.58
849.284	15510.64
849.607	15398.1
849.931	15421.37
850.254	15293.69
850.577	15297.99
850.9	15131.89
851.223	15137.99
851.546	15017.99
851.869	14932.57
852.192	15055.96
852.515	14871.56
852.838	14788.85
853.161	14731
853.483	14671.79
853.806	14626.37
854.129	14671.79
854.451	14606.93
854.774	14520.15
855.096	14456.88
855.419	14468.18
855.741	14447.39
856.063	14405.36
856.385	14289.88
856.708	14195.19
857.03	14205.59
857.352	14208.52
857.674	14096.21
857.996	14148.64
858.318	13945.25
858.64	14018.93
858.961	14032.71
859.283	13903.67
859.605	13883.56
859.926	13908.42
860.248	13898.93
860.57	13730.8
860.891	13903.22
861.212	13741.19
861.534	13774.41
861.855	13613.29
862.176	13673.17
862.498	13590.69
862.819	13610.57
863.14	13503.01
863.461	13453.06
863.782	13485.38
864.103	13531.48
864.424	13398.15
864.745	13408.55
865.065	13305.95
865.386	13268.21
865.707	13267.08
866.027	13287.19
866.348	13245.39
866.668	13248.78
866.989	13173.07
867.309	13062.57
867.63	13133.75
867.95	13054.88
868.27	12951.16
868.59	12978.05
868.91	12964.04
869.23	12913.42
869.55	12855.57
869.87	13026.63
870.19	12937.37
870.51	12898.05
870.83	12862.12
871.15	12800.2
871.469	12838.39
871.789	12849.01
872.109	12789.8
872.428	12708.68
872.748	12807.43
873.067	12765.17
873.386	12755.23
873.706	12686.08
874.025	12681.56
874.344	12582.13
874.663	12673.88
874.982	12524.28
875.301	12595.23
875.62	12517.5
875.939	12464.39
876.258	12477.72
876.577	12386.2
876.896	12431.17
877.214	12421
877.533	12414.67
877.852	12369.03
878.17	12370.61
878.489	12384.39
878.807	12265.98
879.125	12323.83
879.444	12237.5
879.762	12176.49
880.08	12210.16
880.398	12162.02
880.716	12277.05
881.034	12151.18
881.352	12189.14
881.67	12140.78
881.988	12201.35
882.306	12017.85
882.624	12028.7
882.941	12053.78
883.259	12033.67
883.577	11889.72
883.894	11930.39
884.212	11935.82
884.529	11866.44
884.846	11855.82
885.164	11790.28
885.481	11758.87
885.798	11795.48
886.115	11721.58
886.432	11730.4
886.75	11731.3
887.067	11652.89
887.383	11611.98
887.7	11645.2
888.017	11602.72
888.334	11603.4
888.651	11618.54
888.967	11518.88
889.284	11511.65
889.6	11413.57
889.917	11415.15
890.233	11388.71
890.55	11239.34
890.866	11330.86
891.182	11312.1
891.498	11213.12
891.815	11263.52
892.131	11144.2
892.447	11213.35
892.763	11099.68
893.079	11099.91
893.395	11047.03
893.71	11005.9
894.026	10957.08
894.342	10885.22
894.657	10886.8
894.973	10837.31
895.289	10874.83
895.604	10813.81
895.92	10725
896.235	10674.15
896.55	10759.35
896.865	10704.66
897.181	10676.87
897.496	10637.77
897.811	10565.46
898.126	10549.19
898.441	10444.56
898.756	10446.82
899.071	10415.4
899.386	10390.55
899.7	10377.44
900.015	10298.12
900.33	10183.77
900.644	10244.11
900.959	10177.9
901.273	10101.06
901.588	10167.28
901.902	10034.17
902.216	10066.26
902.531	10032.14
902.845	9971.12
903.159	9916.21
903.473	9915.98
903.787	9809.54
904.101	9855.64
904.415	9741.3
904.729	9764.35
905.042	9718.02
905.356	9651.58
905.67	9634.41
905.984	9701.52
906.297	9630.79
906.611	9453.62
906.924	9473.51
907.237	9458.59
907.551	9451.59
907.864	9386.96
908.177	9370.69
908.491	9392.38
908.804	9329.1
909.117	9280.29
909.43	9156.45
909.743	9179.73
910.056	9164.59
910.368	9093.63
910.681	9081.65
910.994	9043.01
911.307	8958.72
911.619	8916.01
911.932	8886.4
912.244	8862.45
912.557	8817.71
912.869	8757.59
913.181	8806.63
913.494	8716.69
913.806	8654.55
914.118	8651.16
914.43	8531.61
914.742	8643.25
915.054	8527.09
915.366	8453.2
915.678	8530.48
915.99	8397.6
916.302	8344.72
916.613	8327.78
916.925	8320.77
917.236	8262.01
917.548	8285.52
917.859	8238.51
918.171	8146.54
918.482	8135.69
918.794	8119.42
919.105	8021.57
919.416	8043.04
919.727	8010.72
920.038	7955.81
920.349	7993.77
920.66	7881.01
920.971	7919.88
921.282	7856.38
921.593	7780.67
921.903	7779.09
922.214	7772.76
922.525	7731.18
922.835	7729.37
923.146	7720.11
923.456	7593.33
923.767	7531.19
924.077	7482.37
924.387	7454.13
924.697	7478.31
925.008	7453.22
925.318	7408.03
925.628	7410.74
925.938	7356.5
926.248	7289.38
926.558	7269.72
926.867	7264.75
927.177	7199.44
927.487	7138.43
927.796	7126
928.106	7070.63
928.416	7081.48
928.725	7045.1
929.034	6986.12
929.344	6985.44
929.653	6922.84
929.962	6899.11
930.271	6878.1
930.581	6881.03
930.89	6791.77
931.199	6768.72
931.508	6768.72
931.817	6800.13
932.125	6790.41
932.434	6690.3
932.743	6660.25
933.051	6649.18
933.36	6627.71
933.669	6601.04
933.977	6563.98
934.286	6541.61
934.594	6521.04
934.902	6469.07
935.21	6434.27
935.519	6438.33
935.827	6403.53
936.135	6378.45
936.443	6272.24
936.751	6257.77
937.059	6284.44
937.367	6220.26
937.674	6232.92
937.982	6191.11
938.29	6147.49
938.597	6136.65
938.905	6075.86
939.213	6089.19
939.52	6045.35
939.827	6078.79
940.135	5993.37
940.442	5960.61
940.749	5946.37
941.056	5890.33
941.363	5868.86
941.67	5893.26
941.977	5868.63
942.284	5786.15
942.591	5799.71
942.898	5794.51
943.205	5750.67
943.511	5714.51
943.818	5700.27
944.125	5678.13
944.431	5655.53
944.738	5595.64
945.044	5634.74
945.35	5565.59
945.657	5547.96
945.963	5597.68
946.269	5524.01
946.575	5452.37
946.881	5452.14
947.187	5457.79
947.493	5448.08
947.799	5422.77
948.105	5392.03
948.41	5312.71
948.716	5351.36
949.022	5289.89
949.327	5288.53
949.633	5197.69
949.938	5239.04
950.244	5215.54
950.549	5151.81
950.854	5161.3
951.16	5179.38
951.465	5140.51
951.77	5105.49
952.075	5106.39
952.38	5026.62
952.685	5049.44
952.99	5016.45
953.294	4971.48
953.599	4967.64
953.904	4921.31
954.209	4896.45
954.513	4872.27
954.818	4882.89
955.122	4894.19
955.426	4827.08
955.731	4834.31
956.035	4789.79
956.339	4764.71
956.643	4706.63
956.948	4730.58
957.252	4683.58
957.556	4729
957.86	4599.29
958.163	4630.47
958.467	4659.17
958.771	4565.61
959.075	4585.73
959.378	4564.94
959.682	4566.74
959.985	4478.16
960.289	4473.19
960.592	4443.13
960.896	4457.37
961.199	4392.74
961.502	4398.16
961.805	4362.91
962.108	4388.67
962.411	4376.24
962.714	4318.62
963.017	4344.38
963.32	4332.85
963.623	4277.94
963.926	4238.84
964.228	4211.27
964.531	4237.94
964.833	4220.76
965.136	4182.35
965.438	4174.66
965.741	4155.91
966.043	4129.02
966.345	4108.68
966.648	4095.34
966.95	4086.3
967.252	4113.2
967.554	4057.38
967.856	4008.57
968.158	3999.75
968.46	3991.39
968.761	3971.96
969.063	3947.33
969.365	3918.63
969.666	3916.37
969.968	3896.48
970.269	3908.23
970.571	3834.79
970.872	3875.69
971.174	3836.59
971.475	3829.14
971.776	3798.85
972.077	3794.79
972.378	3796.37
972.679	3762.7
972.98	3761.79
973.281	3769.93
973.582	3676.6
973.883	3678.18
974.183	3650.16
974.484	3676.82
974.785	3656.94
975.085	3619.88
975.386	3618.97
975.686	3625.3
975.986	3585.08
976.287	3563.83
976.587	3497.62
976.887	3516.38
977.187	3514.34
977.487	3497.39
977.787	3455.14
978.087	3502.59
978.387	3493.33
978.687	3442.03
978.987	3427.57
979.286	3387.57
979.586	3399.77
979.885	3411.75
980.185	3381.46
980.484	3351.86
980.784	3326.1
981.083	3294.24
981.382	3281.81
981.682	3279.09
981.981	3249.72
982.28	3259.21
982.579	3200
982.878	3249.72
983.177	3210.62
983.475	3214.92
983.774	3159.1
984.073	3186.67
984.372	3149.61
984.67	3110.96
984.969	3138.99
985.267	3120
985.566	3061.25
985.864	3099.21
986.162	3064.64
986.461	3044.52
986.759	3026.67
987.057	3007.01
987.355	2991.87
987.653	3003.85
987.951	2966.79
988.249	2955.04
988.547	2977.86
988.844	2912.1
989.142	2917.07
989.44	2898.54
989.737	2906.9
990.035	2897.18
990.332	2863.06
990.63	2845.66
990.927	2835.04
991.224	2835.04
991.521	2800.69
991.819	2802.04
992.116	2793.68
992.413	2775.15
992.71	2786.23
993.006	2760.69
993.303	2712.1
993.6	2729.28
993.897	2736.06
994.193	2659.68
994.49	2725.44
994.787	2711.2
995.083	2655.16
995.379	2621.94
995.676	2622.84
995.972	2608.6
996.268	2581.49
996.565	2561.83
996.861	2565.67
997.157	2567.47
997.453	2555.72
997.749	2573.58
998.044	2531.77
998.34	2526.12
998.636	2472.11
998.932	2480.7
999.227	2477.76
999.523	2467.36
999.818	2437.31
1000.114	2419.46
1000.409	2382.17
1000.704	2428.5
1001	2366.35
1001.295	2386.01
1001.59	2344.88
1001.885	2330.42
1002.18	2347.37
1002.475	2346.24
1002.77	2317.54
1003.065	2313.7
1003.359	2309.18
1003.654	2272.57
1003.949	2287.71
1004.243	2269.63
1004.538	2229.63
1004.832	2271.89
1005.127	2221.27
1005.421	2203.87
1005.715	2186.24
1006.009	2190.54
1006.304	2148.73
1006.598	2146.47
1006.892	2117.32
1007.186	2119.58
1007.48	2117.77
1007.773	2106.02
1008.067	2099.92
1008.361	2090.65
1008.655	2072.12
1008.948	2099.01
1009.242	2048.62
1009.535	2026.47
1009.829	2008.62
1010.122	2020.14
1010.415	2002.07
1010.708	1998.45
1011.001	1957.1
1011.295	1968.39
1011.588	1960.26
1011.881	1949.86
1012.173	1932.46
1012.466	1890.66
1012.759	1899.24
1013.052	1927.72
1013.344	1874.39
1013.637	1864.67
1013.93	1884.55
1014.222	1882.52
1014.514	1815.4
1014.807	1801.62
1015.099	1778.57
1015.391	1772.69
1015.683	1784.9
1015.976	1785.35
1016.268	1732.02
1016.56	1743.32
1016.851	1720.27
1017.143	1749.87
1017.435	1724.56
1017.727	1720.49
1018.018	1728.63
1018.31	1685.92
1018.602	1685.24
1018.893	1652.92
1019.185	1633.04
1019.476	1615.64
1019.767	1630.78
1020.058	1651.34
1020.35	1617.44
1020.641	1619.93
1020.932	1572.02
1021.223	1597.56
1021.514	1562.98
1021.804	1533.83
1022.095	1575.64
1022.386	1577.44
1022.677	1513.27
1022.967	1511.91
1023.258	1477.11
1023.548	1508.52
1023.839	1468.75
1024.129	1462.42
1024.419	1465.36
1024.709	1454.28
1025	1451.8
1025.29	1436.66
1025.58	1432.36
1025.87	1431.46
1026.16	1393.49
1026.449	1422.19
1026.739	1405.25
1027.029	1354.63
1027.319	1401.4
1027.608	1334.29
1027.898	1343.78
1028.187	1342.2
1028.477	1351.69
1028.766	1319.37
1029.055	1325.93
1029.344	1298.13
1029.634	1300.84
1029.923	1279.83
1030.212	1264.46
1030.501	1257.23
1030.79	1254.06
1031.078	1240.73
1031.367	1226.49
1031.656	1230.56
1031.945	1253.61
1032.233	1238.47
1032.522	1197.57
1032.81	1206.15
1033.099	1175.2
1033.387	1186.49
1033.675	1191.92
1033.963	1186.95
1034.251	1168.42
1034.54	1181.07
1034.828	1135.65
1035.116	1134.97
1035.403	1137.23
1035.691	1146.04
1035.979	1127.74
1036.267	1105.59
1036.554	1098.59
1036.842	1101.3
1037.129	1115.08
1037.417	1077.8
1037.704	1061.3
1037.992	1055.88
1038.279	1027.63
1038.566	1068.31
1038.853	1068.31
1039.14	1068.31
