Data from breadboard_black_back_FLMS001491_00099.txt Node
Date: Wed Feb 08 10:51:12 GMT 2017
User: dcchb
Spectrometer: FLMS00149
Trigger mode: 0
Integration Time (sec): 2.000000E-2
Scans to average: 10
Electric dark correction enabled: true
Nonlinearity correction enabled: false
Boxcar width: 0
XAxis mode: Wavelengths
Number of Pixels in Spectrum: 2048
>>>>>Begin Spectral Data<<<<<
341.393	-8.11
341.776	-8.11
342.16	-8.11
342.543	-55.56
342.927	-60.08
343.31	-70.7
343.693	-68.67
344.077	-56.47
344.46	-54.43
344.843	-48.56
345.226	-33.42
345.61	-42.46
345.993	2.97
346.376	-0.65
346.759	5.45
347.142	15.85
347.525	46.81
347.908	53.59
348.291	71.66
348.674	95.17
349.057	83.87
349.44	130.42
349.823	164.77
350.206	162.74
350.588	186.24
350.971	207.25
351.354	210.87
351.737	247.48
352.119	242.51
352.502	266.46
352.884	286.35
353.267	271.21
353.65	266.46
354.032	299.68
354.414	316.63
354.797	301.94
355.179	309.85
355.562	321.38
355.944	308.49
356.326	328.16
356.709	323.64
357.091	321.15
357.473	346.01
357.855	335.61
358.238	315.73
358.62	337.65
359.002	357.08
359.384	348.72
359.766	345.78
360.148	334.03
360.53	328.38
360.912	338.32
361.294	331.09
361.676	347.14
362.057	337.87
362.439	324.99
362.821	346.23
363.203	338.1
363.584	327.7
363.966	335.84
364.348	351.21
364.729	339
365.111	344.65
365.493	323.41
365.874	317.31
366.256	335.39
366.637	352.34
367.019	318.66
367.4	324.54
367.781	374.03
368.163	318.89
368.544	346.91
368.925	332.9
369.306	348.49
369.688	324.54
370.069	353.01
370.45	341.49
370.831	324.54
371.212	334.26
371.593	346.23
371.974	343.75
372.355	329.74
372.736	330.64
373.117	358.66
373.498	365.67
373.879	338.55
374.26	353.69
374.641	348.49
375.021	328.38
375.402	361.37
375.783	346.01
376.163	382.62
376.544	360.24
376.925	378.78
377.305	361.37
377.686	356.63
378.066	366.12
378.447	351.21
378.827	361.15
379.208	370.41
379.588	367.02
379.968	362.5
380.349	358.44
380.729	369.06
381.109	353.47
381.489	388.49
381.87	399.57
382.25	384.2
382.63	366.8
383.01	400.24
383.39	410.86
383.77	398.89
384.15	391.88
384.53	414.71
384.91	400.92
385.29	408.15
385.67	406.57
386.049	402.5
386.429	409.28
386.809	413.58
387.189	410.64
387.568	411.77
387.948	413.35
388.328	415.16
388.707	426.23
389.087	433.01
389.466	442.28
389.846	441.6
390.225	451.09
390.605	454.03
390.984	438.66
391.363	478.66
391.743	461.71
392.122	458.55
392.501	453.8
392.881	456.06
393.26	466
393.639	473.01
394.018	487.47
394.397	476.85
394.776	480.92
395.155	491.77
395.534	504.65
395.913	486.8
396.292	511.65
396.671	481.6
397.05	508.26
397.429	496.74
397.808	526.34
398.186	510.98
398.565	532.67
398.944	520.47
399.323	520.24
399.701	527.25
400.08	529.51
400.458	528.15
400.837	542.61
401.215	547.81
401.594	530.64
401.972	542.84
402.351	546.45
402.729	548.49
403.107	536.96
403.486	551.88
403.864	548.71
404.242	581.93
404.62	599.11
404.999	603.63
405.377	583.52
405.755	589.17
406.133	590.97
406.511	632.55
406.889	608.83
407.267	619
407.645	604.31
408.023	643.85
408.401	620.35
408.779	630.52
409.156	644.31
409.534	652.67
409.912	664.87
410.29	682.95
410.667	670.97
411.045	675.26
411.422	675.04
411.8	692.67
412.178	727.69
412.555	717.3
412.933	719.11
413.31	728.6
413.687	737.18
414.065	725.66
414.442	754.58
414.819	753.91
415.197	756.62
415.574	769.95
415.951	745.32
416.328	787.35
416.705	774.92
417.082	765.43
417.46	792.1
417.837	824.87
418.214	809.27
418.591	813.57
418.967	806.33
419.344	834.13
419.721	827.58
420.098	833.68
420.475	870.74
420.852	868.25
421.228	850.18
421.605	876.62
421.982	856.73
422.358	889.95
422.735	902.15
423.111	912.77
423.488	933.79
423.864	938.53
424.241	938.99
424.617	940.79
424.994	967.01
425.37	962.26
425.746	948.7
426.123	1006.56
426.499	981.92
426.875	1001.13
427.251	1002.26
427.627	1020.34
428.003	1024.41
428.379	1038.19
428.756	1062.83
429.132	1076.84
429.507	1080.68
429.883	1083.62
430.259	1117.74
430.635	1108.93
431.011	1130.39
431.387	1149.15
431.763	1172.65
432.138	1150.28
432.514	1178.08
432.89	1214.01
433.265	1215.14
433.641	1228.02
434.016	1224.4
434.392	1248.36
434.767	1285.42
435.143	1271.63
435.518	1290.39
435.894	1315.93
436.269	1313.44
436.644	1349.6
437.02	1336.26
437.395	1353.44
437.77	1371.07
438.145	1403.61
438.52	1425.98
438.895	1430.05
439.271	1421.91
439.646	1452.65
440.021	1437.5
440.395	1492.64
440.77	1448.35
441.145	1495.13
441.52	1522.25
441.895	1511.85
442.27	1515.69
442.645	1531.29
443.019	1557.73
443.394	1548.91
443.769	1559.99
444.143	1577.39
444.518	1575.58
444.892	1589.36
445.267	1588.01
445.641	1647.89
446.016	1609.93
446.39	1629.14
446.764	1635.24
447.139	1680.44
447.513	1646.54
447.887	1695.58
448.262	1686.31
448.636	1665.97
449.01	1716.59
449.384	1739.64
449.758	1749.59
450.132	1754.11
450.506	1761.79
450.88	1794.11
451.254	1787.1
451.628	1810.15
452.002	1836.36
452.376	1863.03
452.75	1931.05
453.123	1870.04
453.497	1917.27
453.871	1959.98
454.244	1966.98
454.618	1958.17
454.992	2012.4
455.365	1992.97
455.739	2071.39
456.112	2076.36
456.486	2095.57
456.859	2104.15
457.232	2178.95
457.606	2155.23
457.979	2192.74
458.352	2270.48
458.725	2238.84
459.099	2278.39
459.472	2277.26
459.845	2345.5
460.218	2378.27
460.591	2371.72
460.964	2400.42
461.337	2445.16
461.71	2493.3
462.083	2507.76
462.456	2513.86
462.829	2531.04
463.201	2590.02
463.574	2582.11
463.947	2610.13
464.32	2670.24
464.692	2699.39
465.065	2722.67
465.438	2780.29
465.81	2773.97
466.183	2831.37
466.555	2849.67
466.928	2916.34
467.3	2887.64
467.672	2966.5
468.045	3037.46
468.417	3033.85
468.789	3067.29
469.161	3091.92
469.534	3173.05
469.906	3228.64
470.278	3246.95
470.65	3301.86
471.022	3369.88
471.394	3411.69
471.766	3417.57
472.138	3460.05
472.51	3556.54
472.882	3616.66
473.253	3640.84
473.625	3721.96
473.997	3751.57
474.369	3811.91
474.74	3827.27
475.112	3898.91
475.484	3979.13
475.855	4069.98
476.227	4079.69
476.598	4146.36
476.97	4233.82
477.341	4317.65
477.713	4352.23
478.084	4423.19
478.455	4531.21
478.827	4552
479.198	4664.31
479.569	4705.89
479.94	4796.51
480.311	4883.97
480.682	4955.83
481.053	5069.27
481.424	5186.56
481.795	5177.52
482.166	5254.13
482.537	5373.45
482.908	5471.3
483.279	5508.36
483.65	5640.78
484.021	5726.21
484.391	5785.86
484.762	5878.52
485.133	5942.92
485.503	6011.17
485.874	6199.64
486.244	6217.94
486.615	6271.05
486.985	6339.52
487.356	6464.49
487.726	6554.88
488.097	6674.43
488.467	6706.07
488.837	6918.94
489.207	6921.43
489.578	7058.83
489.948	7106.73
490.318	7231.25
490.688	7151.48
491.058	7326.16
491.428	7432.6
491.798	7521.64
492.168	7701.75
492.538	7757.79
492.908	7776.77
493.278	7940.61
493.648	7896.77
494.017	8028.29
494.387	8109.65
494.757	8176.76
495.126	8231.22
495.496	8299.92
495.866	8340.83
496.235	8454.27
496.605	8500.6
496.974	8584.66
497.344	8647.03
497.713	8684.09
498.082	8825.11
498.452	8880.7
498.821	8987.14
499.19	8942.17
499.559	9068.26
499.928	9107.81
500.298	9197.3
500.667	9287.92
501.036	9328.6
501.405	9366.11
501.774	9439.33
502.143	9508.93
502.512	9515.48
502.88	9666.21
503.249	9635.71
503.618	9789.38
503.987	9803.84
504.356	9880.9
504.724	10020.78
505.093	10032.31
505.462	10068.92
505.83	10125.64
506.199	10284.73
506.567	10362.47
506.936	10354.56
507.304	10474.56
507.672	10579.86
508.041	10661.67
508.409	10668.22
508.777	10770.14
509.145	10871.61
509.514	10870.7
509.882	10962.23
510.25	10983.02
510.618	11113.86
510.986	11119.06
511.354	11287.87
511.722	11334.65
512.09	11503.45
512.458	11524.7
512.826	11610.34
513.193	11630.91
513.561	11692.15
513.929	11838.14
514.297	11954.52
514.664	12076.55
515.032	12088.75
515.4	12185.24
515.767	12234.06
516.135	12318.35
516.502	12285.35
516.869	12526.93
517.237	12605.8
517.604	12608.28
517.972	12748.85
518.339	12879.24
518.706	12890.76
519.073	12975.28
519.44	13163.07
519.808	13179.34
520.175	13262.96
520.542	13430.86
520.909	13548.82
521.276	13622.49
521.643	13652.55
522.009	13777.52
522.376	13992.2
522.743	13934.13
523.11	14150.62
523.477	14292.99
523.843	14360.33
524.21	14576.59
524.577	14620.66
524.943	14724.39
525.31	14783.14
525.676	14986.3
526.043	15023.59
526.409	15076.47
526.776	15179.52
527.142	15372.96
527.508	15435.78
527.874	15561.65
528.241	15619.5
528.607	15746.51
528.973	15888.42
529.339	15923.68
529.705	16113.95
530.071	16157.12
530.437	16211.81
530.803	16395.76
531.169	16445.25
531.535	16473.72
531.901	16525.47
532.267	16714.62
532.632	16825.12
532.998	16871.9
533.364	16965.23
533.73	16985.12
534.095	17148.28
534.461	17224.21
534.826	17224.43
535.192	17410.42
535.557	17572.22
535.923	17546.23
536.288	17639.79
536.653	17753.23
537.019	17650.41
537.384	17744.87
537.749	17974.02
538.114	17952.1
538.479	17961.59
538.845	18091.76
539.21	18107.12
539.575	18154.13
539.94	18242.49
540.305	18322.03
540.67	18360.68
541.034	18551.86
541.399	18594.34
541.764	18606.32
542.129	18714.11
542.494	18743.26
542.858	18828.01
543.223	18800.21
543.587	18980.09
543.952	18941.23
544.316	19127.66
544.681	19109.58
545.045	19140.32
545.41	19317.03
545.774	19444.04
546.138	19389.35
546.503	19439.07
546.867	19495.56
547.231	19692.39
547.595	19734.42
547.959	19661.88
548.324	19851.26
548.688	19926.96
549.052	19982.78
549.416	19986.85
549.779	20099.39
550.143	20194.07
550.507	20343.9
550.871	20295.54
551.235	20307.29
551.599	20507.74
551.962	20559.04
552.326	20621.86
552.689	20743.44
553.053	20699.6
553.417	20736.43
553.78	21060.04
554.143	20961.51
554.507	21061.85
554.87	21126.93
555.234	21427.26
555.597	21247.38
555.96	21445.57
556.323	21470.2
556.686	21606.47
557.05	21697.76
557.413	21804.43
557.776	21918.1
558.139	21983.63
558.502	22027.7
558.865	22100.01
559.228	22293.68
559.59	22419.78
559.953	22476.5
560.316	22671.3
560.679	22659.77
561.041	22815.02
561.404	22802.14
561.767	23045.3
562.129	22951.74
562.492	23239.87
562.854	23249.36
563.217	23230.15
563.579	23393.76
563.941	23511.5
564.304	23594.66
564.666	23825.84
565.028	23808.89
565.39	23988.55
565.753	24088.43
566.115	24071.71
566.477	24274.42
566.839	24350.12
567.201	24492.27
567.563	24601.87
567.925	24706.5
568.287	24741.98
568.648	24658.14
569.01	24891.8
569.372	25092.25
569.734	24997.11
570.095	25181.29
570.457	25280.72
570.819	25403.65
571.18	25325.24
571.542	25514.84
571.903	25638.45
572.265	25666.25
572.626	25707.15
572.987	25789.41
573.349	25818.56
573.71	26074.14
574.071	26058.55
574.432	26118.21
574.794	26395.94
575.155	26307.59
575.516	26207.25
575.877	26444.53
576.238	26474.36
576.599	26470.29
576.96	26614.24
577.32	26591.19
577.681	26708.25
578.042	26735.14
578.403	26823.05
578.763	26906.89
579.124	26858.53
579.485	26944.18
579.845	27032.54
580.206	27070.95
580.566	27066.44
580.927	27064.4
581.287	27166.09
581.648	27096.94
582.008	27214.23
582.368	27075.25
582.728	27216.26
583.089	27134.91
583.449	27353.66
583.809	27148.24
584.169	27338.29
584.529	27181.46
584.889	27510.72
585.249	27378.74
585.609	27298.75
585.969	27476.37
586.329	27374
586.688	27345.75
587.048	27362.25
587.408	27331.06
587.768	27324.28
588.127	27270.5
588.487	27269.82
588.846	27565.41
589.206	27426.2
589.565	27447.44
589.925	27615.12
590.284	27465.29
590.643	27523.15
591.003	27575.35
591.362	27598.17
591.721	27594.33
592.08	27528.12
592.44	27557.04
592.799	27750.49
593.158	27611.96
593.517	27576.25
593.876	27663.26
594.235	27616.03
594.593	27786.19
594.952	27644.5
595.311	27638.4
595.67	27822.57
596.029	27919.97
596.387	27937.37
596.746	27949.58
597.104	27917.03
597.463	27901.44
597.822	27973.76
598.18	27857.37
598.538	27867.77
598.897	28041.1
599.255	27818.28
599.613	28308.44
599.972	28046.3
600.33	28027.54
600.688	27908.9
601.046	28056.24
601.404	28110.93
601.762	28156.35
602.12	28204.26
602.478	28412.39
602.836	28414.65
603.194	28112.74
603.552	28207.65
603.91	28262.79
604.268	28370.81
604.625	28202.9
604.983	28417.81
605.341	28333.29
605.698	28356.8
606.056	28475.44
606.413	28457.59
606.771	28571.71
607.128	28503.23
607.485	28480.41
607.843	28497.81
608.2	28735.32
608.557	28893.05
608.914	28747.52
609.272	28853.05
609.629	28862.09
609.986	28951.13
610.343	28882.21
610.7	29063.67
611.057	28948.87
611.414	28942.32
611.771	28957.23
612.127	29030
612.484	29069.55
612.841	29220.28
613.198	29093.73
613.554	29213.27
613.911	29288.75
614.267	29335.98
614.624	29348.41
614.98	29231.35
615.337	29415.75
615.693	29415.75
616.05	29308.18
616.406	29640.15
616.762	29441.06
617.118	29441.97
617.475	29446.49
617.831	29542.3
618.187	29712.24
618.543	29537.56
618.899	29704.33
619.255	29691.22
619.611	29784.56
619.967	29812.13
620.323	29822.52
620.678	29676.31
621.034	29697.1
621.39	29656.88
621.746	29638.12
622.101	29985
622.457	29835.85
622.812	29782.97
623.168	30073.81
623.523	29909.52
623.879	29976.87
624.234	29836.08
624.589	29888.28
624.945	29829.98
625.3	29865.91
625.655	29769.41
626.01	29937.55
626.365	29887.15
626.72	29864.55
627.075	29842.86
627.43	29858.23
627.785	29731.68
628.14	29937.32
628.495	29810.77
628.85	29959.92
629.205	29710.89
629.559	29905.68
629.914	29808.28
630.269	29721.51
630.623	29665.69
630.978	29638.57
631.332	29693.03
631.687	29826.36
632.041	29602.64
632.396	29684.9
632.75	29480.16
633.104	29735.07
633.459	29573.26
633.813	29491
634.167	29517.67
634.521	29402.19
634.875	29516.99
635.229	29531.68
635.583	29216.21
635.937	29310.67
636.291	29319.71
636.645	29452.14
636.999	29287.17
637.352	29218.02
637.706	29146.83
638.06	29295.98
638.413	29270.45
638.767	29150
639.121	29221.63
639.474	29032.49
639.828	29041.52
640.181	29157.45
640.534	29086.5
640.888	28877.69
641.241	28833.85
641.594	28834.3
641.947	28898.93
642.301	28823.68
642.654	28776.67
643.007	28857.35
643.36	28827.74
643.713	28816.45
644.066	28822.55
644.419	28709.1
644.771	28535.55
645.124	28380.98
645.477	28205.84
645.83	28030.03
646.182	27879.3
646.535	27900.54
646.888	27809.01
647.24	27653.09
647.593	27783.03
647.945	27652.86
648.298	27532.41
648.65	27525.18
649.002	27521.79
649.355	27684.05
649.707	27540.32
650.059	27709.58
650.411	27932.4
650.763	28072.28
651.115	28187.54
651.467	28127.42
651.819	28149.12
652.171	28107.76
652.523	27985.28
652.875	27919.07
653.227	28004.26
653.578	28049.91
653.93	27983.25
654.282	27924.27
654.633	27842.69
654.985	27916.58
655.337	27861.67
655.688	27849.24
656.039	28020.76
656.391	27744.38
656.742	27803.82
657.094	27867.77
657.445	27851.5
657.796	27847.88
658.147	27752.07
658.498	27717.49
658.849	27621.45
659.2	27787.77
659.551	27681.33
659.902	27744.38
660.253	27665.74
660.604	27674.55
660.955	27605.86
661.306	27593.65
661.656	27592.3
662.007	27648.79
662.358	27544.16
662.708	27594.78
663.059	27564.05
663.409	27407.22
663.76	27605.63
664.11	27551.85
664.461	27545.07
664.811	27499.87
665.161	27505.52
665.511	27418.06
665.862	27477.5
666.212	27515.24
666.562	27603.14
666.912	27465.29
667.262	27465.75
667.612	27474.79
667.962	27388.46
668.312	27430.49
668.662	27524.28
669.011	27452.41
669.361	27490.6
669.711	27361.79
670.06	27263.04
670.41	27373.32
670.76	27371.51
671.109	27427.33
671.459	27379.42
671.808	27272.31
672.157	27368.57
672.507	27194.57
672.856	27238.18
673.205	27162.03
673.554	27207.45
673.904	27129.71
674.253	27315.47
674.602	27147.56
674.951	26891.52
675.3	26776.95
675.649	27126.32
675.998	26990.28
676.346	26990.96
676.695	27216.49
677.044	26874.58
677.393	26982.82
677.741	27004.74
678.09	26898.3
678.438	26840.45
678.787	26947.57
679.135	26936.27
679.484	26716.61
679.832	26942.37
680.181	26613.79
680.529	26805.2
680.877	26722.72
681.225	26682.26
681.573	26814.46
681.922	26604.53
682.27	26494.25
682.618	26612.44
682.966	26428.71
683.314	26535.15
683.661	26520.46
684.009	26207.25
684.357	26311.2
684.705	26102.17
685.053	26262.16
685.4	26176.06
685.748	26149.4
686.095	25997.31
686.443	26027.37
686.79	25781.72
687.138	25933.13
687.485	25988.5
687.832	25809.52
688.18	25884.77
688.527	25661.05
688.874	25720.48
689.221	25685.68
689.568	25538.79
689.915	25580.15
690.262	25452.69
690.609	25514.16
690.956	25321.4
691.303	25414.5
691.65	25266.93
691.997	25230.1
692.344	25080.5
692.69	25043.44
693.037	25079.37
693.383	24891.13
693.73	24965.93
694.077	24796.44
694.423	24707.63
694.769	24583.11
695.116	24654.97
695.462	24646.61
695.808	24513.96
696.155	24603.68
696.501	24463.34
696.847	24456.33
697.193	24123.69
697.539	24263.35
697.885	24064.48
698.231	24098.38
698.577	24114.2
698.923	24084.82
699.269	24029.45
699.614	23814.77
699.96	23693.64
700.306	23772.96
700.651	23678.5
700.997	23596.92
701.342	23536.13
701.688	23596.47
702.033	23521.44
702.379	23388.57
702.724	23346.53
703.069	23382.69
703.415	23184.73
703.76	23157.39
704.105	23221.11
704.45	23030.84
704.795	22976.83
705.14	22921.91
705.485	22888.24
705.83	22795.14
706.175	22846.66
706.52	22735.93
706.865	22591.52
707.209	22640.79
707.554	22587.91
707.899	22608.7
708.243	22388.14
708.588	22386.11
708.932	22358.54
709.277	22183.85
709.621	22295.71
709.966	22085.32
710.31	22208.94
710.654	22062.05
710.998	22102.27
711.342	21962.84
711.687	21975.04
712.031	21883.29
712.375	21828.61
712.719	21873.13
713.063	21823.18
713.407	21829.74
713.75	21704.32
714.094	21703.64
714.438	21515.39
714.782	21677.65
715.125	21558.33
715.469	21601.95
715.812	21369.18
716.156	21339.58
716.499	21347.72
716.843	21325.34
717.186	21258
717.53	21339.58
717.873	21326.93
718.216	21300.94
718.559	21082.86
718.902	21053.03
719.246	21062.07
719.589	20987.05
719.932	20965.13
720.275	20910.66
720.617	20851.68
720.96	20874.06
721.303	20823.44
721.646	20742.08
721.989	20632.71
722.331	20603.1
722.674	20621.41
723.016	20780.95
723.359	20611.92
723.701	20651.46
724.044	20525.14
724.386	20387.06
724.729	20498.47
725.071	20359.94
725.413	20371.92
725.755	20439.04
726.097	20320.17
726.439	20306.61
726.782	20283.79
727.124	20288.99
727.465	20225.94
727.807	20154.3
728.149	20097.58
728.491	20084.92
728.833	20068.43
729.175	20080.4
729.516	20060.29
729.858	19944.36
730.199	20036.79
730.541	19975.77
730.882	19863.91
731.224	19913.63
731.565	19791.37
731.906	19832.73
732.248	19818.26
732.589	19668.21
732.93	19672.73
733.271	19748.21
733.612	19689.68
733.953	19791.15
734.294	19651.04
734.635	19538.27
734.976	19604.48
735.317	19425.96
735.658	19449.46
735.999	19446.52
736.339	19420.76
736.68	19469.12
737.021	19389.8
737.361	19232.06
737.702	19413.76
738.042	19287.43
738.383	19293.31
738.723	19397.48
739.063	19214.21
739.404	19242.69
739.744	19122.92
740.084	18954.56
740.424	19131.95
740.764	19086.76
741.104	19176.02
741.444	19054.67
741.784	18822.36
742.124	18964.28
742.464	18951.62
742.804	18910.94
743.143	18962.24
743.483	18993.88
743.823	18829.36
744.162	18730.84
744.502	18747.56
744.841	18661.68
745.181	18792.3
745.52	18672.98
745.86	18688.35
746.199	18598.64
746.538	18617.62
746.877	18590.05
747.216	18701.01
747.556	18594.79
747.895	18590.05
748.234	18491.97
748.573	18481.58
748.911	18427.79
749.25	18462.14
749.589	18478.64
749.928	18358.64
750.267	18354.57
750.605	18225.09
750.944	18219.66
751.283	18093.56
751.621	18190.51
751.96	18108.25
752.298	18091.98
752.636	18111.87
752.975	17906.22
753.313	17861.93
753.651	17982.38
753.989	17882.95
754.327	17900.57
754.666	17713.01
755.004	17650.19
755.342	17702.84
755.679	17698.55
756.017	17675.5
756.355	17713.23
756.693	17494.48
757.031	17576.06
757.368	17501.26
757.706	17430.3
758.044	17390.53
758.381	17315.28
758.719	17340.59
759.056	17363.19
759.394	17237.09
759.731	17134.49
760.068	17152.35
760.405	17049.3
760.743	17005
761.08	16978.11
761.417	16894.95
761.754	16906.7
762.091	16930.43
762.428	16895.18
762.765	16717.78
763.102	16734.28
763.438	16631.68
763.775	16543.55
764.112	16493.15
764.449	16532.25
764.785	16461.74
765.122	16370.9
765.458	16311.46
765.795	16344.91
766.131	16292.93
766.467	16154.63
766.804	16159.83
767.14	16101.07
767.476	16113.05
767.812	15948.99
768.148	16026.73
768.485	15842.78
768.821	15779.5
769.157	15807.97
769.492	15702.21
769.828	15767.3
770.164	15599.84
770.5	15549.68
770.836	15663.57
771.171	15480.75
771.507	15490.24
771.842	15384.26
772.178	15449.79
772.513	15273.75
772.849	15225.39
773.184	15159.86
773.519	15092.06
773.855	15109.46
774.19	14983.14
774.525	14971.84
774.86	14992.4
775.195	14972.74
775.53	14895.46
775.865	14761.9
776.2	14669.7
776.535	14606.42
776.87	14622.69
777.205	14546.31
777.539	14463.83
777.874	14483.26
778.209	14300.67
778.543	14321.91
778.878	14160.56
779.212	14199.2
779.547	14149.71
779.881	14347.45
780.215	14034.46
780.55	14090.05
780.884	14097.96
781.218	13976.16
781.552	13997.17
781.886	13866.56
782.22	13753.11
782.554	13681.25
782.888	13640.57
783.222	13589.95
783.556	13560.35
783.889	13557.64
784.223	13466.11
784.557	13397.87
784.89	13473.12
785.224	13297.76
785.557	13254.37
785.891	13217.99
786.224	13223.86
786.558	13140.47
786.891	13097.76
787.224	13027.93
787.557	12963.3
787.891	12963.53
788.224	12977.99
788.557	12984.77
788.89	12826.81
789.223	12860.03
789.556	12801.05
789.888	12705.91
790.221	12794.04
790.554	12616.87
790.887	12617.1
791.219	12566.03
791.552	12611
791.884	12495.07
792.217	12438.35
792.549	12403.32
792.882	12267.73
793.214	12299.82
793.546	12317.44
793.879	12246.71
794.211	12187.5
794.543	12174.62
794.875	12154.96
795.207	12206.03
795.539	12039.03
795.871	12095.08
796.203	11955.87
796.535	11892.37
796.867	11909.32
797.198	11808.98
797.53	11838.14
797.862	11750.23
798.193	11785.48
798.525	11790
798.856	11716.1
799.188	11641.08
799.519	11516.11
799.85	11480.86
800.182	11554.3
800.513	11540.06
800.844	11417.81
801.175	11493.06
801.506	11480.4
801.837	11387.98
802.168	11329.67
802.499	11304.36
802.83	11189.56
803.161	11147.76
803.491	11236.34
803.822	11198.83
804.153	11176.91
804.483	11041.32
804.814	11066.18
805.145	11033.64
805.475	10976.24
805.805	10943.92
806.136	10919.06
806.466	11012.62
806.796	10890.82
807.126	10881.55
807.457	10870.48
807.787	10770.14
808.117	10774.43
808.447	10646.53
808.777	10783.25
809.107	10736.24
809.436	10693.53
809.766	10705.74
810.096	10601.56
810.426	10571.05
810.755	10576.47
811.085	10546.64
811.414	10476.59
811.744	10466.19
812.073	10542.58
812.403	10437.04
812.732	10338.06
813.061	10380.32
813.39	10336.93
813.719	10272.75
814.049	10374.9
814.378	10270.27
814.707	10228.91
815.036	10278.85
815.365	10143.26
815.693	10092.42
816.022	10083.6
816.351	10058.52
816.68	10005.41
817.008	10007
817.337	9975.13
817.665	9908.24
817.994	9913.67
818.322	9990.27
818.651	9962.93
818.979	9936.26
819.307	10000.44
819.636	9840.22
819.964	9787.79
820.292	9837.28
820.62	9805.42
820.948	9786.44
821.276	9881.12
821.604	9756.16
821.932	9814.23
822.259	9861.92
822.587	9833.22
822.915	9741.02
823.243	9747.34
823.57	9725.87
823.898	9801.35
824.225	9736.27
824.553	9793.22
824.88	9710.28
825.207	9797.28
825.535	9768.81
825.862	9774.01
826.189	9727
826.516	9762.03
826.843	9759.32
827.17	9767
827.497	9758.64
827.824	9768.58
828.151	9800.67
828.478	9833.67
828.805	9834.12
829.131	9798.19
829.458	9739.89
829.785	9736.72
830.111	9691.3
830.438	9769.71
830.764	9706.89
831.09	9752.99
831.417	9693.78
831.743	9716.16
832.069	9725.87
832.395	9696.72
832.722	9694.46
833.048	9673.22
833.374	9734.46
833.7	9618.08
834.026	9663.05
834.351	9691.52
834.677	9664.41
835.003	9654.46
835.329	9622.83
835.654	9567.01
835.98	9560.23
836.306	9590.28
836.631	9624.63
836.956	9578.99
837.282	9591.64
837.607	9539.89
837.932	9505.99
838.258	9564.97
838.583	9530.85
838.908	9416.73
839.233	9454.92
839.558	9487.24
839.883	9430.97
840.208	9426.67
840.533	9408.14
840.858	9392.1
841.182	9384.64
841.507	9379.44
841.832	9273.91
842.156	9319.78
842.481	9272.78
842.805	9337.18
843.13	9270.29
843.454	9252.44
843.778	9183.97
844.103	9155.49
844.427	9181.48
844.751	9195.72
845.075	9096.74
845.399	9160.24
845.723	9087.47
846.047	9073.69
846.371	8999.57
846.695	9054.25
847.019	8901.04
847.343	8968.38
847.666	8879.12
847.99	8837.99
848.313	8811.77
848.637	8772.68
848.96	8735.62
849.284	8698.56
849.607	8696.52
849.931	8604.77
850.254	8625.79
850.577	8649.52
850.9	8487.71
851.223	8505.79
851.546	8479.13
851.869	8377.44
852.192	8450.2
852.515	8366.59
852.838	8337.89
853.161	8358.9
853.483	8281.39
853.806	8222.64
854.129	8263.09
854.451	8197.1
854.774	8182.41
855.096	8190.1
855.419	8143.99
855.741	8103.77
856.063	8070.78
856.385	8077.56
856.708	8064.9
857.03	7989.42
857.352	8038.46
857.674	7996.88
857.996	7970.21
858.318	7900.84
858.64	7927.73
858.961	7868.97
859.283	7873.49
859.605	7892.48
859.926	7860.61
860.248	7837.79
860.57	7795.98
860.891	7802.99
861.212	7715.31
861.534	7763.44
861.855	7744.68
862.176	7697.45
862.498	7697
862.819	7657.91
863.14	7671.92
863.461	7629.88
863.782	7656.1
864.103	7651.13
864.424	7625.59
864.745	7645.93
865.065	7564.58
865.386	7593.95
865.707	7552.6
866.027	7523.67
866.348	7503.11
866.668	7542.2
866.989	7474.63
867.309	7520.06
867.63	7512.6
867.95	7528.87
868.27	7397.12
868.59	7425.6
868.91	7405.26
869.23	7338.59
869.55	7393.96
869.87	7401.64
870.19	7379.27
870.51	7416.33
870.83	7356.9
871.15	7288.65
871.469	7337.69
871.789	7331.81
872.109	7343.56
872.428	7216.79
872.748	7243.23
873.067	7248.65
873.386	7331.13
873.706	7266.5
874.025	7254.07
874.344	7212.04
874.663	7196.22
874.982	7217.24
875.301	7212.72
875.62	7187.18
875.939	7125.26
876.258	7142.44
876.577	7167.52
876.896	7153.96
877.214	7116
877.533	7155.55
877.852	7109.22
878.17	7137.02
878.489	7112.84
878.807	7104.93
879.125	7071.48
879.444	6996.91
879.762	7032.84
880.08	7023.35
880.398	7003.46
880.716	7061.54
881.034	7002.56
881.352	7022.67
881.67	6941.77
881.988	6994.19
882.306	6940.86
882.624	6930.24
882.941	6904.71
883.259	6894.76
883.577	6854.09
883.894	6848.66
884.212	6851.83
884.529	6813.41
884.846	6829.91
885.164	6821.54
885.481	6772.28
885.798	6799.4
886.115	6730.92
886.432	6756.01
886.75	6708.1
887.067	6740.19
887.383	6698.61
887.7	6711.72
888.017	6654.99
888.334	6628.1
888.651	6593.53
888.967	6589.23
889.284	6580.87
889.6	6581.55
889.917	6491.38
890.233	6527.54
890.55	6550.82
890.866	6523.47
891.182	6521.21
891.498	6520.31
891.815	6503.81
892.131	6398.28
892.447	6479.63
892.763	6483.02
893.079	6382.69
893.395	6379.75
893.71	6346.75
894.026	6364.61
894.342	6353.99
894.657	6279.86
894.973	6293.65
895.289	6280.77
895.604	6282.8
895.92	6213.65
896.235	6227.66
896.55	6213.2
896.865	6243.48
897.181	6165.97
897.496	6149.7
897.811	6149.7
898.126	6045.74
898.441	6049.59
898.756	6064.95
899.071	6025.41
899.386	6072.41
899.7	5993.32
900.015	5982.7
900.33	5872.64
900.644	5946.09
900.959	5944.96
901.273	5898.4
901.588	5799.88
901.902	5866.77
902.216	5815.69
902.531	5802.36
902.845	5799.42
903.159	5796.94
903.473	5750.61
903.787	5711.74
904.101	5701.57
904.415	5655.92
904.729	5682.59
905.042	5624.06
905.356	5612.08
905.67	5599.43
905.984	5634.46
906.297	5576.83
906.611	5576.83
906.924	5528.92
907.237	5550.39
907.551	5491.41
907.864	5497.28
908.177	5484.4
908.491	5458.87
908.804	5451.86
909.117	5370.06
909.43	5403.73
909.743	5310.4
910.056	5397.85
910.368	5288.93
910.681	5269.72
910.994	5255.26
911.307	5222.94
911.619	5194.02
911.932	5234.24
912.244	5228.59
912.557	5177.97
912.869	5159.89
913.181	5125.09
913.494	5121.93
913.806	5095.04
914.118	5074.7
914.43	4985.89
914.742	5040.12
915.054	5045.55
915.366	5006.68
915.678	4996.51
915.99	4980.91
916.302	4938.43
916.613	4896.85
916.925	4865.44
917.236	4820.47
917.548	4871.09
917.859	4887.13
918.171	4838.55
918.482	4831.54
918.794	4799.9
919.105	4754.25
919.416	4723.97
919.727	4739.34
920.038	4718.77
920.349	4645.1
920.66	4694.14
920.971	4637.65
921.282	4669.51
921.593	4617.76
921.903	4594.26
922.214	4599.91
922.525	4578.89
922.835	4533.47
923.146	4527.14
923.456	4508.38
923.767	4463.19
924.077	4467.03
924.387	4439.46
924.697	4432.23
925.008	4430.87
925.318	4410.76
925.628	4380.25
925.938	4425.67
926.248	4362.63
926.558	4357.2
926.867	4317.65
927.177	4320.37
927.487	4297.54
927.796	4252.57
928.106	4239.24
928.416	4229.3
928.725	4210.31
929.034	4185.91
929.344	4246.47
929.653	4183.87
929.962	4166.47
930.271	4153.82
930.581	4084.89
930.89	4111.78
931.199	4051.9
931.508	4090.32
931.817	4026.36
932.125	4008.51
932.434	3999.25
932.743	3975.06
933.051	3941.62
933.36	4006.48
933.669	3946.82
933.977	3865.24
934.286	3958.57
934.594	3945.01
934.902	3865.24
935.21	3826.14
935.519	3844.9
935.827	3869.08
936.135	3807.61
936.443	3765.8
936.751	3793.6
937.059	3767.84
937.367	3748.86
937.674	3715.86
937.982	3722.42
938.29	3719.93
938.597	3737.11
938.905	3664.34
939.213	3691.23
939.52	3667.73
939.827	3643.1
940.135	3641.29
940.442	3600.39
940.749	3621.4
941.056	3583.89
941.363	3594.74
941.67	3545.92
941.977	3530.1
942.284	3504.57
942.591	3536.21
942.898	3485.36
943.205	3495.76
943.511	3462.76
943.818	3459.15
944.125	3415.53
944.431	3424.8
944.738	3402.42
945.044	3390.9
945.35	3375.98
945.657	3359.04
945.963	3321.07
946.269	3363.1
946.575	3325.36
946.881	3327.4
947.187	3342.99
947.493	3289.21
947.799	3298.25
948.105	3279.94
948.41	3249.89
948.716	3237.68
949.022	3265.93
949.327	3204.46
949.633	3184.35
949.938	3174.63
950.244	3208.08
950.549	3119.27
950.854	3128.99
951.16	3100.29
951.465	3166.95
951.77	3096.44
952.075	3071.36
952.38	3081.3
952.685	3094.18
952.99	3061.64
953.294	3036.78
953.599	3009.44
953.904	3040.85
954.209	2999.5
954.513	3007.86
954.818	2987.97
955.122	3001.31
955.426	2958.82
955.731	2961.98
956.035	2941.42
956.339	2965.6
956.643	2938.03
956.948	2895.09
957.252	2933.06
957.556	2905.49
957.86	2853.29
958.163	2793.63
958.467	2811.93
958.771	2854.42
959.075	2783.23
959.378	2810.12
959.682	2837.92
959.985	2795.89
960.289	2752.95
960.592	2757.24
960.896	2761.09
961.199	2716.34
961.502	2759.96
961.805	2717.92
962.108	2691.03
962.411	2688.32
962.714	2669.79
963.017	2630.69
963.32	2690.8
963.623	2644.03
963.926	2642.44
964.228	2652.39
964.531	2656.68
964.833	2644.93
965.136	2573.29
965.438	2588.43
965.741	2533.97
966.043	2559.73
966.345	2578.04
966.648	2534.88
966.95	2554.54
967.252	2499.85
967.554	2494.65
967.856	2540.3
968.158	2487.87
968.46	2483.13
968.761	2495.1
969.063	2454.2
969.365	2458.72
969.666	2451.49
969.968	2406.29
970.269	2416.46
970.571	2404.26
970.872	2389.34
971.174	2394.77
971.475	2416.24
971.776	2380.3
972.077	2387.08
972.378	2357.03
972.679	2362.68
972.98	2344.15
973.281	2326.07
973.582	2325.39
973.883	2300.76
974.183	2303.92
974.484	2292.4
974.785	2266.18
975.085	2248.1
975.386	2253.3
975.686	2242.23
975.986	2256.92
976.287	2237.26
976.587	2227.54
976.887	2248.56
977.187	2178.95
977.487	2208.33
977.787	2174.66
978.087	2192.06
978.387	2187.77
978.687	2171.04
978.987	2158.84
979.286	2182.34
979.586	2151.16
979.885	2097.6
980.185	2074.1
980.484	2099.63
980.784	2098.73
981.083	2072.97
981.382	2084.95
981.682	2070.93
981.981	2047.43
982.28	2037.26
982.579	2049.69
982.878	2026.64
983.177	2034.33
983.475	2033.42
983.774	2025.06
984.073	2027.55
984.372	2012.63
984.67	1978.51
984.969	2018.96
985.267	1989.35
985.566	1972.41
985.864	1958.17
986.162	1962.24
986.461	1941.22
986.759	1938.06
987.057	1926.53
987.355	1913.65
987.653	1900.09
987.951	1909.58
988.249	1936.25
988.547	1904.61
988.844	1872.52
989.142	1869.13
989.44	1884.05
989.737	1851.28
990.035	1861.45
990.332	1890.6
990.63	1811.73
990.927	1826.19
991.224	1821.22
991.521	1828.91
991.819	1812.86
992.116	1813.77
992.413	1766.76
992.71	1771.06
993.006	1766.99
993.303	1769.02
993.6	1748.46
993.897	1776.03
994.193	1738.51
994.49	1743.26
994.787	1711.85
995.083	1731.28
995.379	1708.68
995.676	1701.23
995.972	1711.17
996.268	1657.61
996.565	1724.95
996.861	1678.63
997.157	1670.94
997.453	1666.2
997.749	1679.08
998.044	1618.29
998.34	1627.1
998.636	1598.18
998.932	1609.48
999.227	1617.61
999.523	1618.06
999.818	1581.23
1000.114	1583.04
1000.409	1596.14
1000.704	1578.74
1001	1568.35
1001.295	1564.05
1001.59	1567.67
1001.885	1586.43
1002.18	1530.38
1002.475	1540.33
1002.77	1535.13
1003.065	1507.79
1003.359	1511.63
1003.654	1510.5
1003.949	1506.2
1004.243	1515.24
1004.538	1449.93
1004.832	1469.37
1005.127	1462.81
1005.421	1449.93
1005.715	1448.8
1006.009	1449.26
1006.304	1415.58
1006.598	1404.29
1006.892	1428.24
1007.186	1417.39
1007.48	1430.05
1007.773	1399.54
1008.067	1379.43
1008.361	1370.16
1008.655	1360.9
1008.948	1386.66
1009.242	1363.16
1009.535	1364.29
1009.829	1349.15
1010.122	1337.39
1010.415	1331.97
1010.708	1330.39
1011.001	1317.73
1011.295	1291.29
1011.588	1321.35
1011.881	1282.48
1012.173	1274.12
1012.466	1286.55
1012.759	1264.4
1013.052	1264.63
1013.344	1250.62
1013.637	1249.94
1013.93	1219.21
1014.222	1248.36
1014.514	1245.42
1014.807	1237.51
1015.099	1241.58
1015.391	1225.08
1015.683	1203.16
1015.976	1191.41
1016.268	1193.44
1016.56	1202.93
1016.851	1154.35
1017.143	1211.75
1017.435	1183.27
1017.727	1164.52
1018.018	1172.2
1018.31	1142.82
1018.602	1141.02
1018.893	1151.41
1019.185	1108.02
1019.476	1137.4
1019.767	1120.45
1020.058	1091.3
1020.35	1103.73
1020.641	1116.61
1020.932	1102.15
1021.223	1072.99
1021.514	1103.5
1021.804	1055.14
1022.095	1072.32
1022.386	1044.29
1022.677	1077.29
1022.967	1021.02
1023.258	1057.4
1023.548	1065.76
1023.839	1047.68
1024.129	1015.59
1024.419	1013.33
1024.709	1010.62
1025	995.93
1025.29	995.93
1025.58	1011.3
1025.87	1014.46
1026.16	971.3
1026.449	1000.45
1026.739	972.66
1027.029	973.56
1027.319	968.82
1027.608	946.22
1027.898	968.36
1028.187	931.76
1028.477	957.29
1028.766	941.25
1029.055	931.3
1029.344	922.04
1029.634	938.08
1029.923	921.59
1030.212	911.87
1030.501	906.67
1030.79	895.6
1031.078	898.76
1031.367	879.55
1031.656	871.42
1031.945	871.42
1032.233	875.71
1032.522	859.21
1032.81	875.26
1033.099	846.11
1033.387	853.57
1033.675	863.06
1033.963	854.24
1034.251	870.97
1034.54	835.94
1034.828	809.95
1035.116	830.97
1035.403	801.59
1035.691	812.89
1035.979	827.8
1036.267	807.24
1036.554	796.84
1036.842	808.59
1037.129	786
1037.417	789.84
1037.704	779.44
1037.992	786
1038.279	767.92
1038.566	800.46
1038.853	800.46
1039.14	800.46
