Data from breadboard_white_FLMS001491_00060.txt Node
Date: Wed Feb 08 10:47:57 GMT 2017
User: dcchb
Spectrometer: FLMS00149
Trigger mode: 0
Integration Time (sec): 2.000000E-2
Scans to average: 10
Electric dark correction enabled: true
Nonlinearity correction enabled: false
Boxcar width: 0
XAxis mode: Wavelengths
Number of Pixels in Spectrum: 2048
>>>>>Begin Spectral Data<<<<<
341.393	-10.52
341.776	-10.52
342.16	-10.52
342.543	-65.89
342.927	-66.11
343.31	-75.83
343.693	-65.44
344.077	-79.67
344.46	-64.98
344.843	-52.56
345.226	-43.06
345.61	-44.19
345.993	-29.73
346.376	4.39
346.759	12.98
347.142	55.92
347.525	43.71
347.908	58.63
348.291	70.15
348.674	115.8
349.057	93.88
349.44	113.99
349.823	166.42
350.206	165.07
350.588	237.61
350.971	230.15
351.354	238.96
351.737	261.33
352.119	274.22
352.502	268.34
352.884	302.69
353.267	292.07
353.65	310.83
354.032	316.7
354.414	325.97
354.797	314.89
355.179	347.21
355.562	334.1
355.944	326.64
356.326	341.11
356.709	353.99
357.091	366.19
357.473	347.43
357.855	342.46
358.238	360.54
358.62	352.63
359.002	372.97
359.384	379.98
359.766	369.35
360.148	368
360.53	346.76
360.912	368.22
361.294	345.85
361.676	358.96
362.057	365.51
362.439	358.28
362.821	372.74
363.203	353.76
363.584	354.89
363.966	341.11
364.348	341.11
364.729	344.95
365.111	368.22
365.493	354.89
365.874	374.1
366.256	335.46
366.637	341.78
367.019	357.6
367.4	332.29
367.781	340.65
368.163	345.17
368.544	342.46
368.925	353.54
369.306	354.44
369.688	346.08
370.069	371.39
370.45	357.38
370.831	360.77
371.212	354.89
371.593	350.15
371.974	363.93
372.355	347.43
372.736	365.96
373.117	365.06
373.498	367.77
373.879	377.49
374.26	363.93
374.641	358.06
375.021	364.61
375.402	370.71
375.783	370.48
376.163	388.79
376.544	419.07
376.925	399.18
377.305	381.56
377.686	390.6
378.066	390.37
378.447	385.17
378.827	394.66
379.208	379.75
379.588	412.29
379.968	410.71
380.349	426.98
380.729	412.74
381.109	403.03
381.489	415.46
381.87	407.55
382.25	415
382.63	413.2
383.01	417.72
383.39	405.51
383.77	432.86
384.15	441.67
384.53	435.34
384.91	441.9
385.29	452.52
385.67	458.17
386.049	474.89
386.429	464.72
386.809	460.88
387.189	469.01
387.568	480.99
387.948	463.14
388.328	480.54
388.707	496.81
389.087	484.83
389.466	492.06
389.846	490.48
390.225	482.35
390.605	484.15
390.984	507.88
391.363	527.09
391.743	548.11
392.122	538.39
392.501	528.22
392.881	529.58
393.26	573.87
393.639	573.42
394.018	570.48
394.397	572.06
394.776	588.78
395.155	569.8
395.534	584.72
395.913	589.24
396.292	608.67
396.671	608.44
397.05	629.01
397.429	619.07
397.808	636.92
398.186	641.66
398.565	646.86
398.944	673.53
399.323	664.94
399.701	657.93
400.08	695.22
400.458	711.49
400.837	697.93
401.215	727.54
401.594	716.46
401.972	757.82
402.351	738.61
402.729	753.3
403.107	774.54
403.486	781.1
403.864	822
404.242	826.07
404.62	812.96
404.999	844.82
405.377	842.34
405.755	869.45
406.133	872.17
406.511	899.28
406.889	905.84
407.267	931.83
407.645	934.31
408.023	989.45
408.401	1004.59
408.779	1009.11
409.156	1050.47
409.534	1045.04
409.912	1068.32
410.29	1088.88
410.667	1074.87
411.045	1146.74
411.422	1127.07
411.8	1188.99
412.178	1195.32
412.555	1240.07
412.933	1245.26
413.31	1268.31
413.687	1284.36
414.065	1297.01
414.442	1328.43
414.819	1349.89
415.197	1395.77
415.574	1389.21
415.951	1409.33
416.328	1414.07
416.705	1458.37
417.082	1454.98
417.46	1474.18
417.837	1522.77
418.214	1486.84
418.591	1563.67
418.967	1583.11
419.344	1566.16
419.721	1634.41
420.098	1621.75
420.475	1627.17
420.852	1694.74
421.228	1686.38
421.605	1720.28
421.982	1750.79
422.358	1768.64
422.735	1763.89
423.111	1793.27
423.488	1809.77
423.864	1828.3
424.241	1878.02
424.617	1883.44
424.994	1908.52
425.37	1927.96
425.746	1925.7
426.123	2011.8
426.499	2028.07
426.875	2016.09
427.251	2072.81
427.627	2094.51
428.003	2099.93
428.379	2140.16
428.756	2206.82
429.132	2218.35
429.507	2240.27
429.883	2268.74
430.259	2332.47
430.635	2287.72
431.011	2343.54
431.387	2443.65
431.763	2478.45
432.138	2460.6
432.514	2505.8
432.89	2527.26
433.265	2611.1
433.641	2641.39
434.016	2693.81
434.392	2698.78
434.767	2739.46
435.143	2767.26
435.518	2807.48
435.894	2847.71
436.269	2868.72
436.644	2873.47
437.02	2946.01
437.395	2958.44
437.77	2983.52
438.145	3043.41
438.52	3095.16
438.895	3146.46
439.271	3103.75
439.646	3135.61
440.021	3240.01
440.395	3251.31
440.77	3226.23
441.145	3263.52
441.52	3303.74
441.895	3361.14
442.27	3405.21
442.645	3368.82
443.019	3396.39
443.394	3440.46
443.769	3510.06
444.143	3457.64
444.518	3511.42
444.892	3558.2
445.267	3593.68
445.641	3585.09
446.016	3594.58
446.39	3619.89
446.764	3671.87
447.139	3688.59
447.513	3683.17
447.887	3731.98
448.262	3761.13
448.636	3771.75
449.01	3846.33
449.384	3910.73
449.758	3899.88
450.132	3966.1
450.506	3959.77
450.88	4026.43
451.254	4015.59
451.628	4094.68
452.002	4135.58
452.376	4154.57
452.75	4237.95
453.123	4246.77
453.497	4307.56
453.871	4365.41
454.244	4473.2
454.618	4505.07
454.992	4524.5
455.365	4526.76
455.739	4681.33
456.112	4710.71
456.486	4747.09
456.859	4830.93
457.232	4911.83
457.606	4918.61
457.979	4963.58
458.352	5064.15
458.725	5121.32
459.099	5182.56
459.472	5280.41
459.845	5267.76
460.218	5420.52
460.591	5436.34
460.964	5473.18
461.337	5657.58
461.71	5669.1
462.083	5742.55
462.456	5828.87
462.829	5827.52
463.201	5913.84
463.574	5970.11
463.947	6071.58
464.32	6171.46
464.692	6246.26
465.065	6298.01
465.438	6347.73
465.81	6481.28
466.183	6501.17
466.555	6683.99
466.928	6702.75
467.3	6728.96
467.672	6789.98
468.045	6995.85
468.417	7063.42
468.789	7096.64
469.161	7210.3
469.534	7354.48
469.906	7469.06
470.278	7565.78
470.65	7737.07
471.022	7807.8
471.394	7951.3
471.766	8052.32
472.138	8156.95
472.51	8375.7
472.882	8379.77
473.253	8569.14
473.625	8664.05
473.997	8836.7
474.369	8872.63
474.74	8995.79
475.112	9186.07
475.484	9420.64
475.855	9483.24
476.227	9711.93
476.598	9866.73
476.97	9941.53
477.341	10268.76
477.713	10344.91
478.084	10442.99
478.455	10728.86
478.827	10729.31
479.198	11077.77
479.569	11067.6
479.94	11451.55
480.311	11613.8
480.682	11855.83
481.053	12081.14
481.424	12325.88
481.795	12441.58
482.166	12602.03
482.537	12808.8
482.908	13055.35
483.279	13219.41
483.65	13383.7
484.021	13702.34
484.391	13803.13
484.762	14000.86
485.133	14131.48
485.503	14324.47
485.874	14618.25
486.244	14811.01
486.615	15037.22
486.985	15232.69
487.356	15521.95
487.726	15657.99
488.097	15999.45
488.467	16105.21
488.837	16408.48
489.207	16559.89
489.578	16926.66
489.948	17014.57
490.318	17246.65
490.688	17359.19
491.058	17569.13
491.428	17895
491.798	18074.43
492.168	18430.8
492.538	18458.37
492.908	18715.54
493.278	18908.53
493.648	19055.87
494.017	19306.03
494.387	19419.7
494.757	19597.1
495.126	19854.94
495.496	20014.71
495.866	20068.72
496.235	20250.87
496.605	20569.5
496.974	20666.67
497.344	20830.51
497.713	20961.81
498.082	21175.81
498.452	21338.29
498.821	21545.52
499.19	21512.08
499.559	21769.02
499.928	22004.94
500.298	22147.31
500.667	22341.66
501.036	22359.74
501.405	22478.38
501.774	22660.07
502.143	22905.26
502.512	22891.47
502.88	23176.89
503.249	23291.69
503.618	23385.25
503.987	23554.28
504.356	23680.61
504.724	23793.82
505.093	23960.37
505.462	24164.44
505.83	24434.48
506.199	24662.95
506.567	24912.44
506.936	24900.24
507.304	25065.88
507.672	25205.09
508.041	25449.83
508.409	25659.09
508.777	25831.96
509.145	26003.26
509.514	26004.84
509.882	26354.21
510.25	26341.78
510.618	26628.78
510.986	26700.41
511.354	26883.23
511.722	27251.36
512.09	27425.59
512.458	27485.48
512.826	27724.79
513.193	27910.78
513.561	28094.28
513.929	28321.16
514.297	28507.82
514.664	28777.87
515.032	28844.09
515.4	29084.98
515.767	29218.31
516.135	29505.09
516.502	29529.72
516.869	29997.73
517.237	29970.38
517.604	29952.98
517.972	30255.57
518.339	30635.45
518.706	30719.29
519.073	30951.38
519.44	31181.88
519.808	31495.32
520.175	31593.84
520.542	32000.16
520.909	32192.25
521.276	32157.9
521.643	32605.12
522.009	32752.68
522.376	33114.48
522.743	33247.13
523.11	33647.8
523.477	34030.16
523.843	34221.12
524.21	34552.41
524.577	34748.79
524.943	34943.81
525.31	35159.4
525.676	35466.28
526.043	35596
526.409	35833.28
526.776	36323.66
527.142	36292.03
527.508	36469.87
527.874	36795.29
528.241	37108.73
528.607	37102.85
528.973	37508.49
529.339	37621.93
529.705	38007.69
530.071	38266.89
530.437	38401.8
530.803	38593.89
531.169	38727.22
531.535	38836.82
531.901	39044.27
532.267	39257.37
532.632	39451.04
532.998	39537.82
533.364	39951.82
533.73	40105.26
534.095	40283.56
534.461	40472.48
534.826	40665.92
535.192	40685.36
535.557	41133.48
535.923	41122.18
536.288	41337.99
536.653	41615.28
537.019	41455.96
537.384	41651.43
537.749	41937.3
538.114	41916.06
538.479	41976.4
538.845	42297.07
539.21	42223.62
539.575	42488.93
539.94	42726.21
540.305	42990.38
540.67	42915.81
541.034	43059.98
541.399	43309.24
541.764	43322.8
542.129	43447.32
542.494	43639.4
542.858	43794.65
543.223	43878.49
543.587	44147.64
543.952	44106.96
544.316	44283.91
544.681	44226.51
545.045	44658.81
545.41	44778.13
545.774	44887.51
546.138	44913.49
546.503	45068.52
546.867	45073.49
547.231	45340.38
547.595	45472.58
547.959	45533.82
548.324	45677.09
548.688	45885.45
549.052	45899.46
549.416	46030.98
549.779	46013.35
550.143	46237.75
550.507	46575.15
550.871	46649.49
551.235	46716.38
551.599	46964.74
551.962	47087
552.326	47218.07
552.689	47431.17
553.053	47251.51
553.417	47431.17
553.78	47969.46
554.143	47800.42
554.507	48162
554.87	48199.51
555.234	48533.06
555.597	48320.41
555.96	48624.36
556.323	48792.26
556.686	48740.96
557.05	49122.65
557.413	49180.5
557.776	49207.62
558.139	49615.97
558.502	49599.02
558.865	49708.62
559.228	50030.65
559.59	50018.44
559.953	50162.17
560.316	50489.84
560.679	50436.51
561.041	50752.89
561.404	50818.65
561.767	51048.02
562.129	50936.16
562.492	51373.44
562.854	51415.47
563.217	51315.13
563.579	51525.07
563.941	51753.99
564.304	51892.52
564.666	52063.81
565.028	52144.72
565.39	52204.15
565.753	52551.94
566.115	52555.1
566.477	52657.92
566.839	52790.12
567.201	52937.01
567.563	53034.41
567.925	53155.76
568.287	53153.73
568.648	53353.05
569.01	53466.49
569.372	53653.38
569.734	53527.05
570.095	53847.72
570.457	53900.6
570.819	53967.72
571.18	54038
571.542	54209.29
571.903	54153.93
572.265	54350.31
572.626	54464.88
572.987	54451.1
573.349	54528.38
573.71	54711.65
574.071	54785.78
574.432	54792.56
574.794	54980.57
575.155	54965.66
575.516	54939.45
575.877	55037.07
576.238	55115.49
576.599	55234.13
576.96	55265.54
577.32	55284.52
577.681	55400.45
578.042	55463.05
578.403	55388.25
578.763	55436.16
579.124	55459.21
579.485	55602.48
579.845	55705.07
580.206	55605.19
580.566	55620.78
580.927	55661.46
581.287	55725.41
581.648	55677.5
582.008	55797.95
582.368	55788.91
582.728	55786.43
583.089	55799.08
583.449	55731.74
583.809	55798.18
584.169	55843.15
584.529	55751.63
584.889	55960.21
585.249	55796.82
585.609	55752.08
585.969	56000.21
586.329	55848.57
586.688	55910.72
587.048	55864.39
587.408	55889.48
587.768	55965.41
588.127	55906.2
588.487	55783.49
588.846	56127.89
589.206	55855.58
589.565	55840.89
589.925	55995.69
590.284	55864.39
590.643	55884.96
591.003	55998.17
591.362	56119.75
591.721	55974.9
592.08	55983.26
592.44	56025.07
592.799	56126.98
593.158	56021.22
593.517	56064.84
593.876	56074.56
594.235	56083.6
594.593	56112.3
594.952	56140.54
595.311	56025.29
595.67	56071.62
596.029	56220.54
596.387	56225.06
596.746	56252.63
597.104	56157.94
597.463	56110.94
597.822	56229.58
598.18	56165.85
598.538	56168.11
598.897	56428.45
599.255	56071.17
599.613	56503.25
599.972	56280.43
600.33	56423.02
600.688	56331.27
601.046	56411.5
601.404	56447.2
601.762	56426.41
602.12	56571.49
602.478	56595.9
602.836	56566.07
603.194	56462.12
603.552	56505.51
603.91	56455.79
604.268	56580.98
604.625	56456.02
604.983	56647.2
605.341	56520.19
605.698	56634.77
606.056	56684.71
606.413	56639.97
606.771	56755.44
607.128	56747.53
607.485	56747.99
607.843	56670.25
608.2	56822.56
608.557	56935.55
608.914	56877.47
609.272	56970.35
609.629	56994.76
609.986	57056.45
610.343	56884.7
610.7	57122.44
611.057	57112.04
611.414	57100.29
611.771	57088.09
612.127	57155.88
612.484	57232.04
612.841	57257.8
613.198	57173.74
613.554	57183.23
613.911	57346.16
614.267	57358.36
614.624	57323.11
614.98	57309.1
615.337	57431.13
615.693	57376.22
616.05	57376.9
616.406	57540.51
616.762	57455.31
617.118	57484.01
617.475	57541.86
617.831	57555.42
618.187	57553.84
618.543	57594.97
618.899	57687.4
619.255	57657.11
619.611	57665.25
619.967	57726.26
620.323	57764.91
620.678	57652.82
621.034	57622.54
621.39	57622.76
621.746	57563.33
622.101	57841.29
622.457	57612.6
622.812	57691.46
623.168	57735.3
623.523	57759.48
623.879	57840.61
624.234	57613.73
624.589	57709.54
624.945	57776.43
625.3	57817.56
625.655	57746.83
626.01	57731.01
626.365	57810.56
626.72	57684.68
627.075	57643.33
627.43	57690.79
627.785	57638.13
628.14	57640.17
628.495	57724.68
628.85	57656.44
629.205	57554.29
629.559	57761.97
629.914	57588.87
630.269	57618.47
630.623	57543.9
630.978	57498.7
631.332	57581.18
631.687	57617.34
632.041	57493.05
632.396	57539.83
632.75	57450.11
633.104	57462.77
633.459	57355.88
633.813	57320.17
634.167	57326.05
634.521	57294.41
634.875	57291.02
635.229	57276.56
635.583	57190.69
635.937	57191.14
636.291	57130.57
636.645	57226.62
636.999	57047.86
637.352	57107.75
637.706	57006.06
638.06	57114.76
638.413	57000.63
638.767	56924.25
639.121	57011.93
639.474	56807.19
639.828	56870.47
640.181	56913.4
640.534	56806.51
640.888	56780.3
641.241	56655.56
641.594	56679.74
641.947	56797.25
642.301	56691.72
642.654	56690.13
643.007	56634.99
643.36	56621.89
643.713	56553.87
644.066	56647.87
644.419	56499.4
644.771	56376.24
645.124	56218.73
645.477	56099.19
645.83	55884.05
646.182	55718.18
646.535	55582.59
646.888	55647.9
647.24	55423.95
647.593	55704.17
647.945	55530.16
648.298	55426.89
648.65	55375.37
649.002	55287.68
649.355	55329.72
649.707	55407.46
650.059	55476.83
650.411	55732.19
650.763	55870.95
651.115	56129.7
651.467	55999.53
651.819	55934.45
652.171	55828.91
652.523	55848.35
652.875	55786.65
653.227	55710.72
653.578	55866.43
653.93	55803.38
654.282	55609.71
654.633	55630.27
654.985	55711.4
655.337	55719.99
655.688	55670.95
656.039	55755.47
656.391	55467.57
656.742	55552.54
657.094	55550.5
657.445	55687.45
657.796	55570.62
658.147	55553.44
658.498	55463.5
658.849	55593.67
659.2	55401.13
659.551	55429.6
659.902	55436.38
660.253	55433.22
660.604	55467.79
660.955	55359.55
661.306	55475.48
661.656	55328.59
662.007	55326.55
662.358	55305.76
662.708	55326.55
663.059	55335.82
663.409	55165.43
663.76	55344.63
664.11	55348.7
664.461	55290.17
664.811	55297.63
665.161	55229.38
665.511	55157.74
665.862	55214.01
666.212	55248.36
666.562	55304.18
666.912	55135.6
667.262	55190.29
667.612	55221.92
667.962	55147.8
668.312	55061.25
668.662	55273
669.011	55105.54
669.361	55089.05
669.711	55049.27
670.06	54993
670.41	54930.18
670.76	55020.12
671.109	54991.65
671.459	54981.93
671.808	54956.39
672.157	55011.31
672.507	54757.3
672.856	54772.22
673.205	54848.6
673.554	54926.34
673.904	54716.63
674.253	54907.81
674.602	54804.99
674.951	54418.1
675.3	54271.44
675.649	54651.09
675.998	54678.89
676.346	54663.75
676.695	54743.07
677.044	54532
677.393	54622.17
677.741	54613.58
678.09	54604.31
678.438	54456.07
678.787	54538.1
679.135	54535.16
679.484	54272.34
679.832	54488.61
680.181	54153.03
680.529	54351.66
680.877	54202.29
681.225	54200.93
681.573	54336.98
681.922	54144.44
682.27	53943.99
682.618	53999.58
682.966	53991.67
683.314	54028.51
683.661	53969.98
684.009	53819.47
684.357	53757.33
684.705	53614.28
685.053	53764.79
685.4	53685.92
685.748	53527.96
686.095	53509.2
686.443	53322.31
686.79	53311.47
687.138	53479.82
687.485	53387.17
687.832	53261.07
688.18	53295.87
688.527	53045.94
688.874	53132.04
689.221	52988.99
689.568	52920.06
689.915	52876.45
690.262	52861.53
690.609	52668.32
690.956	52577.93
691.303	52598.04
691.65	52485.72
691.997	52440.98
692.344	52236.69
692.69	52106.98
693.037	52240.31
693.383	51957.38
693.73	52082.8
694.077	51830.15
694.423	51910.82
694.769	51773.88
695.116	51624.05
695.462	51671.06
695.808	51538.4
696.155	51504.96
696.501	51219.54
696.847	51226.1
697.193	51087.12
697.539	51163.05
697.885	50888.93
698.231	50775.94
698.577	50738.2
698.923	50679.22
699.269	50526
699.614	50427.93
699.96	50357.64
700.306	50347.48
700.651	50177.54
700.997	50182.51
701.342	50093.7
701.688	49968.5
702.033	49848.51
702.379	49837.88
702.724	49667.27
703.069	49766.47
703.415	49387.95
703.76	49471.34
704.105	49379.82
704.45	49213.49
704.795	48961.07
705.14	48908.87
705.485	48883.11
705.83	48740.96
706.175	48879.94
706.52	48636.79
706.865	48460.97
707.209	48484.7
707.554	48247.87
707.899	48378.71
708.243	48121.09
708.588	48143.01
708.932	47879.07
709.277	47754.32
709.621	47806.07
709.966	47711.16
710.31	47681.11
710.654	47285.18
710.998	47470.94
711.342	47242.25
711.687	47257.16
712.031	47062.59
712.375	46833.44
712.719	47047.68
713.063	46983.95
713.407	46978.07
713.75	46762.94
714.094	46646.78
714.438	46528.59
714.782	46601.36
715.125	46397.97
715.469	46441.14
715.812	46087.02
716.156	46077.31
716.499	46187.36
716.843	46153.01
717.186	45821.72
717.53	45800.48
717.873	45943.98
718.216	45758.9
718.559	45729.07
718.902	45302.18
719.246	45592.35
719.589	45422.63
719.932	45188.06
720.275	45219.7
720.617	45084.34
720.96	44971.35
721.303	45041.85
721.646	45055.41
721.989	44709.88
722.331	44810.22
722.674	44693.16
723.016	44703.1
723.359	44566.38
723.701	44628.08
724.044	44370.01
724.386	44327.29
724.729	44416.11
725.071	44294.75
725.413	44238.03
725.755	44113.97
726.097	44001.43
726.439	43758.27
726.782	43730.02
727.124	43952.16
727.465	43572.74
727.807	43686.18
728.149	43607.99
728.491	43379.3
728.833	43510.82
729.175	43212.3
729.516	43258.62
729.858	43220.21
730.199	43221.11
730.541	43229.92
730.882	43081.45
731.224	43123.71
731.565	42904.96
731.906	42812.76
732.248	42899.54
732.589	42598.75
732.93	42583.39
733.271	42569.38
733.612	42487.34
733.953	42569.38
734.294	42319.44
734.635	42110.86
734.976	42312.21
735.317	42046.22
735.658	42196.05
735.999	42022.72
736.339	41987.47
736.68	42156.28
737.021	41847.36
737.361	41699.57
737.702	41843.52
738.042	41832.67
738.383	41733.92
738.723	41744.54
739.063	41523.75
739.404	41467.94
739.744	41520.59
740.084	41222.07
740.424	41262.29
740.764	41130.77
741.104	41241.95
741.444	41129.19
741.784	41031.11
742.124	40955.18
742.464	40928.51
742.804	40820.72
743.143	40793.6
743.483	40738.01
743.823	40496.44
744.162	40496.44
744.502	40563.33
744.841	40266.84
745.181	40492.37
745.52	40271.58
745.86	40316.1
746.199	40276.33
746.538	40079.95
746.877	40226.39
747.216	40152.72
747.556	39962.89
747.895	40001.08
748.234	39732.84
748.573	39693.29
748.911	39574.2
749.25	39660.07
749.589	39470.7
749.928	39297.37
750.267	39445.84
750.605	39214.89
750.944	39194.55
751.283	39160.2
751.621	39156.58
751.96	38823.94
752.298	38854.44
752.636	38909.13
752.975	38650.83
753.313	38418.75
753.651	38604.51
753.989	38388.47
754.327	38361.12
754.666	38115.25
755.004	38205.42
755.342	38205.65
755.679	38095.59
756.017	37817.41
756.355	37971.98
756.693	37719.56
757.031	37769.95
757.368	37645.66
757.706	37536.51
758.044	37363.86
758.381	37388.95
758.719	37199.35
759.056	37228.72
759.394	37098.11
759.731	36856.53
760.068	36810.43
760.405	36544.45
760.743	36563.43
761.08	36575.18
761.417	36329.99
761.754	36428.52
762.091	36362.98
762.428	36180.62
762.765	35876.44
763.102	35917.8
763.438	35735.66
763.775	35725.49
764.112	35685.26
764.449	35501.31
764.785	35400.98
765.122	35175.45
765.458	35012.96
765.795	35020.42
766.131	35022.68
766.467	34887.54
766.804	34693.42
767.14	34388.8
767.476	34458.4
767.812	34290.04
768.148	34360.33
768.485	34137.51
768.821	33988.81
769.157	33919.21
769.492	33822.49
769.828	33668.82
770.164	33444.19
770.5	33407.81
770.836	33309.51
771.171	33009.17
771.507	33119.23
771.842	32794.26
772.178	32880.82
772.513	32782.74
772.849	32608.06
773.184	32476.31
773.519	32512.92
773.855	32312.02
774.19	32274.05
774.525	32065.7
774.86	32051.23
775.195	31968.98
775.53	31720.62
775.865	31506.84
776.2	31461.42
776.535	31252.38
776.87	31363.12
777.205	31124.93
777.539	31020.07
777.874	31088.55
778.209	30861.43
778.543	30709.8
778.878	30645.17
779.212	30557.71
779.547	30385.51
779.881	30477.94
780.215	30210.15
780.55	30335.8
780.884	30031.63
781.218	29889.26
781.552	29969.93
781.886	29765.19
782.22	29565.2
782.554	29347.8
782.888	29195.26
783.222	29083.63
783.556	28927.47
783.889	28949.17
784.223	28733.13
784.557	28870.3
784.89	28678.44
785.224	28606.8
785.557	28362.52
785.891	28263.76
786.224	28350.31
786.558	28139.7
786.891	27962.75
787.224	27831.91
787.557	27744.68
787.891	27738.8
788.224	27745.81
788.557	27592.82
788.89	27518.47
789.223	27381.98
789.556	27169.78
789.888	27167.29
790.221	27068.99
790.554	26847.75
790.887	26855.66
791.219	26826.51
791.552	26741.99
791.884	26572.06
792.217	26512.17
792.549	26430.59
792.882	26207.77
793.214	26090.71
793.546	26182.91
793.879	25923.26
794.211	25806.2
794.543	25902.92
794.875	25678.75
795.207	25871.06
795.539	25705.64
795.871	25677.84
796.203	25271.75
796.535	25229.49
796.867	25158.53
797.198	25109.27
797.53	25042.15
797.862	24979.33
798.193	25039.89
798.525	24860.46
798.856	24705.66
799.188	24584.76
799.519	24449.63
799.85	24387.48
800.182	24432.68
800.513	24401.72
800.844	24096.41
801.175	24285.56
801.506	24159.01
801.837	24004.44
802.168	24038.11
802.499	23878.34
802.83	23714.73
803.161	23691.45
803.491	23686.93
803.822	23725.12
804.153	23496.2
804.483	23312.93
804.814	23198.58
805.145	23288.98
805.475	23359.03
805.805	23072.71
806.136	23265.48
806.466	23159.04
806.796	23074.52
807.126	22877.46
807.457	22765.15
807.787	22855.77
808.117	22735.09
808.447	22635.44
808.777	22609
809.107	22491.71
809.436	22374.2
809.766	22444.93
810.096	22307.53
810.426	22310.7
810.755	22277.93
811.085	22211.72
811.414	22156.58
811.744	21997.26
812.073	21956.36
812.403	21919.52
812.732	21822.58
813.061	21782.13
813.39	21677.95
813.719	21664.16
814.049	21649.93
814.378	21639.3
814.707	21454
815.036	21465.07
815.365	21293.32
815.693	21222.82
816.022	21268.47
816.351	21134.91
816.68	20973.78
817.008	21185.76
817.337	20882.71
817.665	20898.53
817.994	20868.25
818.322	20855.37
818.651	20697.18
818.979	20621.25
819.307	20718.88
819.636	20708.25
819.964	20540.58
820.292	20609.27
820.62	20539.67
820.948	20546
821.276	20508.03
821.604	20507.58
821.932	20562.95
822.259	20570.18
822.587	20546
822.915	20379.68
823.243	20550.74
823.57	20409.51
823.898	20420.13
824.225	20322.05
824.553	20392.56
824.88	20411.31
825.207	20364.31
825.535	20384.65
825.862	20454.25
826.189	20334.93
826.516	20340.13
826.843	20400.01
827.17	20447.02
827.497	20409.96
827.824	20472.1
828.151	20334.71
828.478	20358.21
828.805	20415.16
829.131	20294.71
829.458	20278.44
829.785	20229.85
830.111	20235.5
830.438	20331.54
830.764	20301.71
831.09	20391.88
831.417	20257.42
831.743	20178.1
832.069	20209.29
832.395	20157.31
832.722	20292.45
833.048	20082.51
833.374	20083.41
833.7	20094.94
834.026	20099.68
834.351	20074.37
834.677	20015.84
835.003	20133.81
835.329	20156.86
835.654	20040.25
835.98	19859.24
836.306	19956.64
836.631	19832.8
836.956	19865.57
837.282	19916.19
837.607	19760.48
837.932	19668.06
838.258	19685.68
838.583	19743.53
838.908	19690.88
839.233	19645.91
839.558	19576.53
839.883	19511.68
840.208	19505.57
840.533	19466.25
840.858	19479.59
841.182	19499.93
841.507	19474.62
841.832	19259.48
842.156	19288.63
842.481	19212.7
842.805	19189.88
843.13	19068.52
843.454	19171.8
843.778	18965.25
844.103	18958.02
844.427	18953.27
844.751	19024.01
845.075	18810.68
845.399	18808.87
845.723	18768.42
846.047	18734.52
846.371	18583.79
846.695	18559.16
847.019	18374.76
847.343	18366.62
847.666	18139.06
847.99	18160.75
848.313	18217.02
848.637	17962.56
848.96	18030.59
849.284	18037.59
849.607	17761.89
849.931	17786.52
850.254	17689.35
850.577	17576.13
850.9	17542.46
851.223	17471.28
851.546	17394.9
851.869	17328.68
852.192	17383.37
852.515	17168.91
852.838	17072.19
853.161	17141.34
853.483	16942.7
853.806	16966.66
854.129	16987.45
854.451	16828.13
854.774	16740.9
855.096	16673.56
855.419	16648.02
855.741	16626.1
856.063	16521.92
856.385	16494.81
856.708	16419.78
857.03	16359.67
857.352	16277.19
857.674	16306.79
857.996	16214.14
858.318	16147.02
858.64	16134.14
858.961	16102.05
859.283	16131.65
859.605	15933.92
859.926	16034.03
860.248	15886.69
860.57	15712.23
860.891	15880.81
861.212	15753.36
861.534	15772.79
861.855	15696.86
862.176	15663.87
862.498	15676.52
862.819	15621.61
863.14	15516.08
863.461	15513.59
863.782	15474.04
864.103	15542.97
864.424	15373.71
864.745	15444.44
865.065	15419.13
865.386	15307.04
865.707	15315.63
866.027	15290.32
866.348	15333.26
866.668	15297.1
866.989	15178.46
867.309	15105.01
867.63	15127.38
867.95	15084.22
868.27	15009.2
868.59	15002.87
868.91	15017.33
869.23	15023.21
869.55	14870.44
869.87	15034.73
870.19	14914.73
870.51	14911.8
870.83	14934.85
871.15	14784.79
871.469	14801.07
871.789	14820.05
872.109	14783.21
872.428	14703.89
872.748	14762.87
873.067	14578.47
873.386	14706.38
873.706	14628.64
874.025	14547.51
874.344	14630
874.663	14643.33
874.982	14605.36
875.301	14413.05
875.62	14429.1
875.939	14413.96
876.258	14393.62
876.577	14288.31
876.896	14333.73
877.214	14294.64
877.533	14278.59
877.852	14320.85
878.17	14237.92
878.489	14250.8
878.807	14285.15
879.125	14278.14
879.444	14140.97
879.762	14123.12
880.08	14053.74
880.398	14095.55
880.716	14133.29
881.034	14001.99
881.352	14051.93
881.67	14026.4
881.988	14074.98
882.306	13997.24
882.624	13844.93
882.941	13831.6
883.259	13820.07
883.577	13778.72
883.894	13726.29
884.212	13674.54
884.529	13743.92
884.846	13713.18
885.164	13668.89
885.481	13627.76
885.798	13695.33
886.115	13534.43
886.432	13545.73
886.75	13501.66
887.067	13523.36
887.383	13504.83
887.7	13448.33
888.017	13342.12
888.334	13402.68
888.651	13284.72
888.967	13265.29
889.284	13261.45
889.6	13221.9
889.917	13122.47
890.233	13141.67
890.55	13051.06
890.866	13053.09
891.182	13034.11
891.498	12951.4
891.815	12923.37
892.131	12910.49
892.447	12837.95
892.763	12766.77
893.079	12811.06
893.395	12741.01
893.71	12767.22
894.026	12646.55
894.342	12591.86
894.657	12501.24
894.973	12503.95
895.289	12544.18
895.604	12452.88
895.92	12336.72
896.235	12323.39
896.55	12357.97
896.865	12331.75
897.181	12216.5
897.496	12202.94
897.811	12205.43
898.126	12067.35
898.441	12082.49
898.756	12070.97
899.071	11925.66
899.386	11923.18
899.7	11815.38
900.015	11826.45
900.33	11715.5
900.644	11663.75
900.959	11676.85
901.273	11627.14
901.588	11597.53
901.902	11578.55
902.216	11511.21
902.531	11497.88
902.845	11471.66
903.159	11359.8
903.473	11280.48
903.787	11314.38
904.101	11242.29
904.415	11265.11
904.729	11232.35
905.042	11158.45
905.356	11126.13
905.67	11067.83
905.984	11041.16
906.297	10985.57
906.611	10949.42
906.924	10920.49
907.237	10842.3
907.551	10802.07
907.864	10736.31
908.177	10721.62
908.491	10678.24
908.804	10590.55
909.117	10625.81
909.43	10556.21
909.743	10434.63
910.056	10516.66
910.368	10387.85
910.681	10328.64
910.994	10275.76
911.307	10236.44
911.619	10114.18
911.932	10226.27
912.244	10127.74
912.557	10042.09
912.869	10117.8
913.181	10069.21
913.494	10052.04
913.806	9963
914.118	9924.58
914.43	9871.7
914.742	9812.27
915.054	9750.58
915.366	9723.91
915.678	9704.7
915.99	9668.77
916.302	9602.78
916.613	9539.96
916.925	9482.34
917.236	9466.52
917.548	9433.98
917.859	9534.09
918.171	9361.89
918.482	9350.81
918.794	9306.52
919.105	9292.51
919.416	9245.05
919.727	9178.39
920.038	9124.38
920.349	9093.87
920.66	9101.33
920.971	8987.21
921.282	9063.59
921.593	8947.21
921.903	8846.19
922.214	8850.26
922.525	8841.67
922.835	8736.82
923.146	8701.11
923.456	8729.36
923.767	8672.87
924.077	8669.7
924.387	8652.98
924.697	8536.82
925.008	8524.17
925.318	8563.72
925.628	8441.91
925.938	8469.93
926.248	8374.79
926.558	8347.9
926.867	8288.02
927.177	8262.48
927.487	8229.04
927.796	8129.15
928.106	8182.26
928.416	8139.77
928.725	8050.28
929.034	8054.8
929.344	8046.89
929.653	7978.87
929.962	7971.64
930.271	7929.38
930.581	7882.83
930.89	7816.84
931.199	7744.75
931.508	7783.17
931.817	7771.42
932.125	7798.31
932.434	7749.27
932.743	7655.72
933.051	7595.15
933.36	7547.25
933.669	7527.58
933.977	7407.81
934.286	7523.29
934.594	7466.12
934.902	7404.2
935.21	7293.47
935.519	7392.9
935.827	7322.62
936.135	7293.92
936.443	7194.71
936.751	7144.54
937.059	7192
937.367	7168.72
937.674	7135.28
937.982	7114.94
938.29	7073.36
938.597	7053.47
938.905	6940.48
939.213	6955.62
939.52	6965.57
939.827	6935.96
940.135	6836.76
940.442	6836.53
940.749	6855.51
941.056	6766.7
941.363	6696.65
941.67	6735.97
941.977	6682.41
942.284	6618
942.591	6592.92
942.898	6564.22
943.205	6546.37
943.511	6540.27
943.818	6467.27
944.125	6476.76
944.431	6485.8
944.738	6443.77
945.044	6397.9
945.35	6366.26
945.657	6303.89
945.963	6361.51
946.269	6302.76
946.575	6246.04
946.881	6204
947.187	6234.96
947.493	6205.36
947.799	6175.98
948.105	6089.88
948.41	6039.26
948.716	6094.85
949.022	6083.33
949.327	6041.07
949.633	5939.83
949.938	6008.53
950.244	5957.91
950.549	5947.06
950.854	5841.98
951.16	5897.34
951.465	5835.2
951.77	5813.28
952.075	5777.57
952.38	5770.79
952.685	5782.09
952.99	5646.5
953.294	5685.6
953.599	5669.1
953.904	5602.89
954.209	5598.37
954.513	5601.53
954.818	5564.47
955.122	5547.98
955.426	5445.38
955.731	5427.75
956.035	5419.84
956.339	5440.63
956.643	5393.4
956.948	5365.61
957.252	5335.33
957.556	5344.14
957.86	5289.23
958.163	5277.7
958.467	5225.72
958.771	5281.54
959.075	5213.07
959.378	5248.1
959.682	5178.04
959.985	5141.21
960.289	5126.97
960.592	5092.39
960.896	5063.69
961.199	5104.15
961.502	5044.71
961.805	5052.62
962.108	4953.64
962.411	4945.51
962.714	4958.16
963.017	4910.7
963.32	4905.96
963.623	4893.76
963.926	4890.59
964.228	4869.35
964.531	4829.12
964.833	4810.37
965.136	4746.87
965.438	4737.83
965.741	4726.53
966.043	4703.7
966.345	4667.77
966.648	4651.5
966.95	4646.53
967.252	4597.94
967.554	4648.56
967.856	4549.58
968.158	4509.81
968.46	4519.3
968.761	4528.12
969.063	4526.99
969.365	4495.12
969.666	4455.35
969.968	4454.67
970.269	4426.65
970.571	4410.83
970.872	4362.24
971.174	4375.35
971.475	4346.65
971.776	4322.02
972.077	4299.42
972.378	4269.82
972.679	4253.55
972.98	4288.12
973.281	4230.27
973.582	4237.73
973.883	4152.76
974.183	4160.89
974.484	4163.61
974.785	4126.77
975.085	4140.33
975.386	4102.14
975.686	4080.67
975.986	4038.41
976.287	4052.65
976.587	4006.1
976.887	3998.19
977.187	3975.14
977.487	3936.27
977.787	3925.42
978.087	3927
978.387	3871.41
978.687	3890.39
978.987	3894.46
979.286	3887.91
979.586	3868.25
979.885	3797.51
980.185	3753.9
980.484	3775.37
980.784	3749.6
981.083	3742.15
981.382	3749.15
981.682	3758.19
981.981	3685.65
982.28	3702.37
982.579	3634.35
982.878	3678.19
983.177	3628.25
983.475	3592.55
983.774	3625.31
984.073	3574.69
984.372	3597.07
984.67	3544.41
984.969	3549.84
985.267	3543.06
985.566	3523.4
985.864	3484.3
986.162	3479.1
986.461	3457.64
986.759	3459.44
987.057	3389.39
987.355	3419.9
987.653	3420.8
987.951	3347.13
988.249	3360.24
988.547	3343.97
988.844	3335.15
989.142	3299.67
989.44	3294.02
989.737	3306.9
990.035	3276.4
990.332	3268.49
990.63	3229.84
990.927	3245.44
991.224	3177.64
991.521	3229.17
991.819	3188.72
992.116	3162.5
992.413	3147.36
992.71	3118.66
993.006	3091.09
993.303	3102.16
993.6	3095.16
993.897	3086.12
994.193	3066.23
994.49	3022.39
994.787	3046.12
995.083	3014.93
995.379	2992.11
995.676	2999.12
995.972	2963.64
996.268	2953.24
996.565	2909.85
996.861	2927.48
997.157	2889.06
997.453	2873.24
997.749	2869.4
998.044	2848.39
998.34	2853.36
998.636	2849.74
998.932	2788.95
999.227	2835.96
999.523	2783.53
999.818	2779.01
1000.114	2760.93
1000.409	2734.26
1000.704	2724.1
1001	2759.57
1001.295	2711.89
1001.59	2682.97
1001.885	2640.26
1002.18	2632.12
1002.475	2639.58
1002.77	2602.29
1003.065	2574.95
1003.359	2589.64
1003.654	2546.7
1003.949	2527.26
1004.243	2515.29
1004.538	2528.62
1004.832	2474.84
1005.127	2489.07
1005.421	2494.04
1005.715	2459.24
1006.009	2448.4
1006.304	2415.63
1006.598	2424.67
1006.892	2380.83
1007.186	2413.14
1007.48	2361.84
1007.773	2360.71
1008.067	2342.86
1008.361	2331.56
1008.655	2337.21
1008.948	2277.78
1009.242	2287.27
1009.535	2265.8
1009.829	2290.66
1010.122	2227.16
1010.415	2246.37
1010.708	2250.44
1011.001	2201.4
1011.295	2200.49
1011.588	2198.69
1011.881	2165.92
1012.173	2168.18
1012.466	2151.68
1012.759	2109.87
1013.052	2155.97
1013.344	2123.88
1013.637	2090.89
1013.93	2090.67
1014.222	2072.36
1014.514	2063.32
1014.807	2040.05
1015.099	2038.24
1015.391	2010.67
1015.683	2027.39
1015.976	2016.54
1016.268	1978.35
1016.56	1977.22
1016.851	1962.76
1017.143	1938.35
1017.435	1925.25
1017.727	1923.21
1018.018	1909.65
1018.31	1891.12
1018.602	1876.66
1018.893	1876.89
1019.185	1844.8
1019.476	1885.02
1019.767	1839.15
1020.058	1823.1
1020.35	1817.9
1020.641	1776.55
1020.932	1762.99
1021.223	1766.15
1021.514	1747.85
1021.804	1716.21
1022.095	1695.2
1022.386	1751.24
1022.677	1717.57
1022.967	1700.17
1023.258	1677.12
1023.548	1676.44
1023.839	1650
1024.129	1652.48
1024.419	1660.62
1024.709	1611.36
1025	1628.76
1025.29	1610.45
1025.58	1570.23
1025.87	1565.71
1026.16	1595.99
1026.449	1581.3
1026.739	1563.9
1027.029	1540.4
1027.319	1513.05
1027.608	1539.95
1027.898	1506.5
1028.187	1471.25
1028.477	1481.87
1028.766	1460.4
1029.055	1462.89
1029.344	1465.6
1029.634	1451.13
1029.923	1449.33
1030.212	1475.54
1030.501	1426.05
1030.79	1411.36
1031.078	1394.86
1031.367	1365.94
1031.656	1381.53
1031.945	1358.48
1032.233	1364.58
1032.522	1350.35
1032.81	1348.76
1033.099	1316.9
1033.387	1320.52
1033.675	1309.67
1033.963	1330.01
1034.251	1282.55
1034.54	1248.43
1034.828	1312.15
1035.116	1268.54
1035.403	1252.5
1035.691	1259.5
1035.979	1241.2
1036.267	1208.43
1036.554	1229.67
1036.842	1217.24
1037.129	1212.95
1037.417	1203.68
1037.704	1198.03
1037.992	1178.15
1038.279	1187.41
1038.566	1188.09
1038.853	1188.09
1039.14	1188.09
