Data from breadboard_black_back_FLMS001491_00048.txt Node
Date: Wed Feb 08 10:50:27 GMT 2017
User: dcchb
Spectrometer: FLMS00149
Trigger mode: 0
Integration Time (sec): 2.000000E-2
Scans to average: 10
Electric dark correction enabled: true
Nonlinearity correction enabled: false
Boxcar width: 0
XAxis mode: Wavelengths
Number of Pixels in Spectrum: 2048
>>>>>Begin Spectral Data<<<<<
341.393	-19.53
341.776	-19.53
342.16	-19.53
342.543	-74.22
342.927	-57.72
343.31	-76.26
343.693	-50.72
344.077	-56.37
344.46	-55.46
344.843	-65.18
345.226	-47.33
345.61	-24.05
345.993	-32.41
346.376	-5.75
346.759	14.14
347.142	36.06
347.525	39.67
347.908	61.82
348.291	64.08
348.674	88.94
349.057	108.82
349.44	123.97
349.823	129.84
350.206	176.17
350.588	188.82
350.971	238.31
351.354	236.73
351.737	256.17
352.119	248.26
352.502	291.19
352.884	282.61
353.267	276.28
353.65	283.96
354.032	280.57
354.414	310.4
354.797	318.31
355.179	311.31
355.562	324.86
355.944	336.62
356.326	340.23
356.709	335.94
357.091	354.02
357.473	333.68
357.855	321.25
358.238	333.45
358.62	330.51
359.002	349.72
359.384	341.81
359.766	341.36
360.148	355.37
360.53	347.69
360.912	329.84
361.294	347.01
361.676	334.13
362.057	334.58
362.439	326.67
362.821	346.56
363.203	336.39
363.584	346.78
363.966	333.68
364.348	338.88
364.729	336.39
365.111	326.67
365.493	346.11
365.874	348.37
366.256	359.67
366.637	347.91
367.019	309.72
367.4	357.18
367.781	328.48
368.163	322.38
368.544	320.8
368.925	323.28
369.306	332.55
369.688	347.46
370.069	329.16
370.45	315.83
370.831	331.42
371.212	325.32
371.593	349.5
371.974	334.36
372.355	346.56
372.736	360.57
373.117	337.75
373.498	359.21
373.879	343.17
374.26	352.89
374.641	349.5
375.021	336.84
375.402	367.35
375.783	356.05
376.163	376.16
376.544	383.39
376.925	370.96
377.305	333.9
377.686	348.37
378.066	358.54
378.447	362.6
378.827	375.71
379.208	398.53
379.588	382.72
379.968	382.26
380.349	381.36
380.729	377.97
381.109	387.69
381.489	403.05
381.87	406.9
382.25	399.44
382.63	384.07
383.01	389.04
383.39	411.87
383.77	414.13
384.15	401.7
384.53	412.32
384.91	425.2
385.29	427.23
385.67	417.97
386.049	418.87
386.429	448.25
386.809	422.04
387.189	441.92
387.568	448.25
387.948	436.05
388.328	439.21
388.707	469.72
389.087	439.21
389.466	459.32
389.846	457.97
390.225	451.19
390.605	467.46
390.984	460.68
391.363	484.41
391.743	462.71
392.122	489.38
392.501	470.17
392.881	483.28
393.26	509.27
393.639	509.27
394.018	501.13
394.397	500.45
394.776	495.71
395.155	515.37
395.534	498.19
395.913	510.4
396.292	517.18
396.671	543.39
397.05	562.15
397.429	530.73
397.808	544.52
398.186	537.97
398.565	566.67
398.944	532.99
399.323	548.36
399.701	557.17
400.08	557.63
400.458	544.52
400.837	586.1
401.215	569.38
401.594	574.58
401.972	577.97
402.351	591.98
402.729	577.06
403.107	611.64
403.486	612.31
403.864	590.39
404.242	616.83
404.62	613.9
404.999	625.2
405.377	623.61
405.755	660.9
406.133	647.12
406.511	641.24
406.889	660.67
407.267	673.78
407.645	685.76
408.023	679.88
408.401	665.65
408.779	691.86
409.156	700.22
409.534	712.42
409.912	718.07
410.29	727.34
410.667	753.1
411.045	753.78
411.422	745.19
411.8	757.17
412.178	761.46
412.555	790.84
412.933	764.17
413.31	771.18
413.687	813.67
414.065	812.31
414.442	826.55
414.819	831.74
415.197	812.99
415.574	870.61
415.951	857.28
416.328	858.18
416.705	879.65
417.082	858.18
417.46	923.94
417.837	892.08
418.214	883.72
418.591	884.17
418.967	886.88
419.344	921.68
419.721	916.94
420.098	938.86
420.475	936.6
420.852	970.5
421.228	946.77
421.605	970.72
421.982	971.18
422.358	992.42
422.735	991.97
423.111	989.93
423.488	1000.1
423.864	1023.6
424.241	1037.61
424.617	1071.29
424.994	1069.48
425.37	1068.57
425.746	1065.64
426.123	1084.17
426.499	1112.19
426.875	1115.58
427.251	1138.85
427.627	1140.44
428.003	1144.28
428.379	1153.09
428.756	1169.36
429.132	1203.49
429.507	1188.12
429.883	1217.04
430.259	1224.73
430.635	1211.39
431.011	1262.01
431.387	1259.53
431.763	1299.53
432.138	1310.38
432.514	1329.13
432.89	1326.42
433.265	1350.83
433.641	1381.11
434.016	1391.95
434.392	1389.24
434.767	1441.67
435.143	1425.85
435.518	1451.39
435.894	1468.79
436.269	1485.51
436.644	1487.77
437.02	1512.86
437.395	1500.2
437.77	1529.8
438.145	1560.09
438.52	1571.16
438.895	1597.6
439.271	1606.64
439.646	1615.9
440.021	1649.8
440.395	1664.72
440.77	1614.1
441.145	1671.72
441.52	1671.27
441.895	1674.21
442.27	1709.01
442.645	1701.33
443.019	1736.13
443.394	1703.13
443.769	1754.88
444.143	1735.67
444.518	1768.67
444.892	1772.96
445.267	1791.04
445.641	1826.75
446.016	1826.07
446.39	1829.46
446.764	1836.91
447.139	1822.9
447.513	1876.69
447.887	1869.46
448.262	1870.59
448.636	1913.98
449.01	1905.61
449.384	1929.34
449.758	1960.98
450.132	1996.01
450.506	1981.77
450.88	2026.06
451.254	2020.86
451.628	2027.19
452.002	2035.1
452.376	2045.27
452.75	2115.78
453.123	2093.63
453.497	2158.04
453.871	2157.58
454.244	2200.97
454.618	2240.97
454.992	2276.45
455.365	2244.14
455.739	2340.18
456.112	2373.85
456.486	2360.52
456.859	2361.42
457.232	2421.76
457.606	2465.6
457.979	2438.93
458.352	2506.28
458.725	2560.96
459.099	2551.92
459.472	2577.69
459.845	2616.78
460.218	2644.13
460.591	2668.08
460.964	2662.2
461.337	2779.04
461.71	2783.56
462.083	2839.15
462.456	2840.96
462.829	2830.11
463.201	2913.5
463.574	2925.47
463.947	2967.96
464.32	3035.75
464.692	3057.45
465.065	3040.95
465.438	3121.85
465.81	3177.22
466.183	3142.42
466.555	3266.03
466.928	3261.96
467.3	3289.08
467.672	3350.55
468.045	3423.09
468.417	3470.32
468.789	3431.45
469.161	3484.56
469.534	3583.54
469.906	3642.29
470.278	3691.56
470.65	3695.4
471.022	3786.24
471.394	3837.54
471.766	3892.45
472.138	3950.31
472.51	3997.54
472.882	4095.39
473.253	4099.68
473.625	4172.45
473.997	4273.01
474.369	4254.7
474.74	4302.39
475.112	4472.1
475.484	4443.17
475.855	4554.13
476.227	4613.11
476.598	4764.3
476.97	4761.13
477.341	4865.54
477.713	4970.62
478.084	4937.17
478.455	5119.99
478.827	5162.7
479.198	5299.2
479.569	5299.87
479.94	5440.89
480.311	5483.82
480.682	5640.2
481.053	5730.6
481.424	5858.73
481.795	5888.79
482.166	6020.76
482.537	6060.08
482.908	6132.62
483.279	6209
483.65	6365.16
484.021	6489.45
484.391	6510.69
484.762	6675.88
485.133	6711.36
485.503	6759.05
485.874	6938.02
486.244	6938.93
486.615	7133.5
486.985	7160.62
487.356	7346.83
487.726	7409.2
488.097	7552.7
488.467	7611.9
488.837	7692.58
489.207	7880.6
489.578	7929.18
489.948	8009.86
490.318	8083.08
490.688	8159.69
491.058	8307.03
491.428	8457.53
491.798	8455.05
492.168	8668.6
492.538	8777.52
492.908	8876.05
493.278	8922.83
493.648	8903.62
494.017	9108.14
494.387	9178.42
494.757	9250.28
495.126	9352.88
495.496	9359.66
495.866	9442.14
496.235	9528.69
496.605	9617.73
496.974	9694.79
497.344	9759.64
497.713	9855.69
498.082	9934.78
498.452	10078.96
498.821	10131.84
499.19	10119.41
499.559	10287.09
499.928	10363.02
500.298	10390.81
500.667	10459.97
501.036	10449.34
501.405	10612.96
501.774	10627.64
502.143	10763.46
502.512	10836.68
502.88	10964.36
503.249	10939.73
503.618	11013.17
503.987	11125.48
504.356	11250.9
504.724	11265.82
505.093	11229.66
505.462	11376.55
505.83	11443.22
506.199	11528.41
506.567	11627.62
506.936	11678.46
507.304	11919.14
507.672	11934.5
508.041	11958
508.409	11997.33
508.777	12102.63
509.145	12258.34
509.514	12338.56
509.882	12400.25
510.25	12449.07
510.618	12505.11
510.986	12571.1
511.354	12659.68
511.722	12808.15
512.09	12938.32
512.458	13016.96
512.826	13112.55
513.193	13121.82
513.561	13136.96
513.929	13333.34
514.297	13531.52
514.664	13632.99
515.032	13689.03
515.4	13750.95
515.767	13874.11
516.135	13930.83
516.502	13846.54
516.869	14151.62
517.237	14173.99
517.604	14209.92
517.972	14417.15
518.339	14417.83
518.706	14555
519.073	14656.92
519.44	14675
519.808	14983.01
520.175	14927.87
520.542	15114.08
520.909	15166.96
521.276	15201.99
521.643	15437.69
522.009	15550.68
522.376	15613.05
522.743	15786.6
523.11	15964.45
523.477	16055.98
523.843	16181.17
524.21	16277.67
524.577	16450.09
524.943	16540.71
525.31	16636.07
525.676	16889.63
526.043	16997.87
526.409	16955.39
526.776	17169.17
527.142	17303.85
527.508	17319.45
527.874	17521.93
528.241	17510.85
528.607	17674.01
528.973	17866.32
529.339	17867
529.705	18085.08
530.071	18255.92
530.437	18234.9
530.803	18404.16
531.169	18558.51
531.535	18522.13
531.901	18660.43
532.267	18741.33
532.632	18855.68
532.998	18988.78
533.364	19045.95
533.73	19085.05
534.095	19198.94
534.461	19290.69
534.826	19419.96
535.192	19527.3
535.557	19686.16
535.923	19786.5
536.288	19710.8
536.653	19873.73
537.019	19860.85
537.384	20043.44
537.749	20133.61
538.114	20121.63
538.479	20100.84
538.845	20282.08
539.21	20298.12
539.575	20410.21
539.94	20437.1
540.305	20633.48
540.67	20582.18
541.034	20618.57
541.399	20754.38
541.764	20915.51
542.129	20951.89
542.494	20943.53
542.858	21119.57
543.223	21090.87
543.587	21275.95
543.952	21274.6
544.316	21313.01
544.681	21337.42
545.045	21446.12
545.41	21633
545.774	21754.13
546.138	21673.68
546.503	21761.81
546.867	21825.32
547.231	22007.91
547.595	22058.53
547.959	22136.04
548.324	22220.56
548.688	22254.68
549.052	22389.82
549.416	22439.54
549.779	22525.41
550.143	22388.46
550.507	22675.46
550.871	22762.24
551.235	22680.43
551.599	22936.25
551.962	22952.29
552.326	23017.15
552.689	23133.08
553.053	23147.77
553.417	23131.72
553.78	23536.23
554.143	23462.79
554.507	23670.01
554.87	23724.02
555.234	23846.96
555.597	23811.7
555.96	23964.47
556.323	23969.89
556.686	24088.99
557.05	24262.31
557.413	24242.88
557.776	24308.64
558.139	24447.85
558.502	24592.93
558.865	24670.21
559.228	24850.1
559.59	24907.04
559.953	24956.53
560.316	25230.2
560.679	25277.88
561.041	25471.32
561.404	25528.27
561.767	25599
562.129	25531.66
562.492	25961.93
562.854	25852.78
563.217	25934.36
563.579	26057.97
563.941	26222.71
564.304	26360.11
564.666	26477.85
565.028	26490.28
565.39	26771.85
565.753	26859.99
566.115	26891.4
566.477	27075.35
566.839	27162.35
567.201	27316.47
567.563	27290.26
567.925	27523.25
568.287	27515.34
568.648	27621.32
569.01	27644.6
569.372	27886.17
569.734	27775.89
570.095	28059.28
570.457	28144.25
570.819	28181.76
571.18	28289.55
571.542	28418.14
571.903	28461.53
572.265	28553.5
572.626	28586.95
572.987	28722.54
573.349	28881.63
573.71	28823.1
574.071	29066.26
574.432	29058.12
574.794	29248.17
575.155	29168.4
575.516	29191.45
575.877	29442.29
576.238	29355.29
576.599	29506.02
576.96	29493.36
577.32	29594.6
577.681	29582.63
578.042	29829.63
578.403	29895.84
578.763	29726.8
579.124	29759.57
579.485	29961.83
579.845	29941.94
580.206	30049.51
580.566	29893.35
580.927	30078.66
581.287	30200.01
581.648	29976.97
582.008	30267.58
582.368	30226.9
582.728	30322.27
583.089	30241.14
583.449	30079.34
583.809	30155.49
584.169	30222.84
584.529	30198.66
584.889	30474.35
585.249	30264.42
585.609	30169.05
585.969	30382.61
586.329	30334.47
586.688	30366.79
587.048	30214.47
587.408	30391.19
587.768	30351.87
588.127	30355.26
588.487	30391.87
588.846	30521.58
589.206	30322.04
589.565	30341.02
589.925	30577.85
590.284	30423.06
590.643	30411.53
591.003	30677.06
591.362	30560.45
591.721	30531.75
592.08	30579.44
592.44	30579.21
592.799	30623.28
593.158	30478.87
593.517	30555.48
593.876	30557.97
594.235	30449.04
594.593	30510.74
594.952	30742.82
595.311	30602.49
595.67	30614.46
596.029	30845.19
596.387	30773.78
596.746	30864.17
597.104	30828.02
597.463	30848.36
597.822	30859.65
598.18	30706.44
598.538	30826.89
598.897	31058.07
599.255	30721.58
599.613	31188.91
599.972	30900.11
600.33	31001.57
600.688	30921.12
601.046	30978.07
601.404	31063.04
601.762	31209.02
602.12	31258.51
602.478	31202.02
602.836	31323.6
603.194	31121.79
603.552	31242.47
603.91	31234.79
604.268	31230.94
604.625	31214
604.983	31331.73
605.341	31200.21
605.698	31399.98
606.056	31427.1
606.413	31430.94
606.771	31433.88
607.128	31552.97
607.485	31469.13
607.843	31512.74
608.2	31661.44
608.557	31794.77
608.914	31695.79
609.272	31768.33
609.629	31899.85
609.986	31862.11
610.343	31850.36
610.7	32043.35
611.057	32034.31
611.414	31918.16
611.771	31982.34
612.127	32114.31
612.484	32014.65
612.841	32159.96
613.198	32108.66
613.554	32101.66
613.911	32117.7
614.267	32300.52
614.624	32241.99
614.98	32353.85
615.337	32389.56
615.693	32400.86
616.05	32299.84
616.406	32632.26
616.762	32477.92
617.118	32375.1
617.475	32422.1
617.831	32552.49
618.187	32523.79
618.543	32763.79
618.899	32748.64
619.255	32708.87
619.611	32611.7
619.967	32751.81
620.323	32965.36
620.678	32733.73
621.034	32583
621.39	32709.55
621.746	32625.94
622.101	32996.1
622.457	32685.14
622.812	32804.01
623.168	32971.92
623.523	32829.32
623.879	32832.48
624.234	32758.59
624.589	32868.19
624.945	32934.63
625.3	32892.37
625.655	32872.94
626.01	32911.35
626.365	32844.01
626.72	32784.8
627.075	32906.15
627.43	32806.27
627.785	32900.5
628.14	32830.22
628.495	32845.37
628.85	32759.27
629.205	32769.43
629.559	32924.23
629.914	32777.57
630.269	32765.37
630.623	32615.77
630.978	32660.74
631.332	32662.32
631.687	32798.36
632.041	32554.3
632.396	32560.63
632.75	32472.95
633.104	32666.84
633.459	32482.21
633.813	32343.01
634.167	32505.94
634.521	32395.21
634.875	32555.43
635.229	32341.2
635.583	32283.12
635.937	32339.16
636.291	32318.15
636.645	32264.82
636.999	32153.18
637.352	32332.61
637.706	32100.75
638.06	32283.57
638.413	32063.69
638.767	31956.12
639.121	32013.75
639.474	31885.84
639.828	31794.77
640.181	32016.91
640.534	31930.14
640.888	31788.22
641.241	31557.49
641.594	31771.72
641.947	31776.92
642.301	31641.56
642.654	31560.43
643.007	31637.04
643.36	31686.07
643.713	31576.47
644.066	31594.78
644.419	31585.96
644.771	31303.48
645.124	30979.65
645.477	30944.85
645.83	30835.25
646.182	30572.88
646.535	30409.27
646.888	30470.74
647.24	30357.52
647.593	30460.34
647.945	30229.84
648.298	30161.59
648.65	30097.64
649.002	30023.52
649.355	30225.55
649.707	30185.55
650.059	30330.63
650.411	30770.62
650.763	30663.5
651.115	30959.99
651.467	30892.65
651.819	30886.77
652.171	30802.26
652.523	30722.94
652.875	30684.97
653.227	30544.18
653.578	30776.72
653.93	30756.38
654.282	30616.27
654.633	30414.47
654.985	30490.85
655.337	30579.21
655.688	30438.65
656.039	30601.13
656.391	30373.34
656.742	30458.76
657.094	30393.23
657.445	30519.78
657.796	30378.76
658.147	30462.15
658.498	30281.59
658.849	30455.6
659.2	30368.14
659.551	30311.19
659.902	30444.52
660.253	30461.93
660.604	30380.57
660.955	30242.95
661.306	30219.9
661.656	30225.77
662.007	30119.79
662.358	30230.97
662.708	30158.66
663.059	30073.01
663.409	29977.87
663.76	30269.61
664.11	30228.26
664.461	30123.85
664.811	30089.73
665.161	30161.14
665.511	30115.04
665.862	30040.24
666.212	30262.38
666.562	30115.04
666.912	30009.73
667.262	29933.13
667.612	30101.26
667.962	29971.99
668.312	29798.89
668.662	30123.63
669.011	29943.97
669.361	29942.16
669.711	30080.92
670.06	29879.79
670.41	29842.28
670.76	29882.51
671.109	29871.43
671.459	29794.37
671.808	29828.72
672.157	29861.49
672.507	29608.39
672.856	29618.56
673.205	29676.41
673.554	29747.37
673.904	29608.39
674.253	29857.87
674.602	29614.49
674.951	29263.76
675.3	29027.84
675.649	29516.41
675.998	29512.12
676.346	29549.41
676.695	29613.81
677.044	29362.97
677.393	29445.45
677.741	29469.18
678.09	29312.8
678.438	29299.7
678.787	29419.24
679.135	29397.32
679.484	29198
679.832	29312.8
680.181	29128.17
680.529	29266.7
680.877	29017.44
681.225	29050.89
681.573	29312.12
681.922	28984
682.27	28931.8
682.618	29015.64
682.966	28830.78
683.314	28903.77
683.661	28774.74
684.009	28710.33
684.357	28490.45
684.705	28587.85
685.053	28554.86
685.4	28542.2
685.748	28434.18
686.095	28413.62
686.443	28231.02
686.79	28280.06
687.138	28228.54
687.485	28265.82
687.832	28136.56
688.18	28314.86
688.527	27973.4
688.874	27959.17
689.221	27923.23
689.568	27774.76
689.915	27795.78
690.262	27792.84
690.609	27749
690.956	27628.78
691.303	27533.87
691.65	27411.61
691.997	27504.26
692.344	27335.68
692.69	27323.7
693.037	27285.96
693.383	27107.21
693.73	27135.46
694.077	27104.27
694.423	26852.3
694.769	26852.53
695.116	26999.64
695.462	26720.1
695.808	26659.31
696.155	26817.5
696.501	26575.93
696.847	26462.48
697.193	26325.99
697.539	26316.05
697.885	26276.72
698.231	26224.97
698.577	26232.43
698.923	26119.67
699.269	26070.18
699.614	25980.23
699.96	25822.5
700.306	25716.29
700.651	25685.33
700.997	25667.47
701.342	25605.1
701.688	25658.21
702.033	25498.21
702.379	25443.98
702.724	25365.11
703.069	25474.94
703.415	25241.27
703.76	25205.79
704.105	25145.23
704.45	25052.35
704.795	24881.96
705.14	24998.34
705.485	24834.73
705.83	24740.95
706.175	24805.8
706.52	24654.17
706.865	24633.38
707.209	24667.95
707.554	24547.96
707.899	24490.78
708.243	24387.51
708.588	24408.52
708.932	24264.8
709.277	24304.57
709.621	24260.51
709.966	24180.96
710.31	24180.51
710.654	23895.32
710.998	23940.51
711.342	23832.49
711.687	23915.2
712.031	23772.16
712.375	23704.59
712.719	23680.41
713.063	23668.43
713.407	23691.26
713.75	23600.86
714.094	23503.92
714.438	23476.12
714.782	23490.13
715.125	23359.06
715.469	23494.88
715.812	23334.43
716.156	23084.94
716.499	23094.66
716.843	23246.3
717.186	23132.85
717.53	23246.75
717.873	23257.14
718.216	23112.29
718.559	22973.53
718.902	22917.49
719.246	22799.08
719.589	22780.77
719.932	22703.71
720.275	22714.33
720.617	22726.08
720.96	22726.54
721.303	22610.15
721.646	22597.95
721.989	22577.61
722.331	22537.39
722.674	22431.85
723.016	22428.69
723.359	22506.43
723.701	22392.53
724.044	22307.56
724.386	22106.66
724.729	22255.81
725.071	22079.77
725.413	22180.33
725.755	22072.09
726.097	21967.69
726.439	21951.87
726.782	22004.97
727.124	22100.11
727.465	21925.43
727.807	21890.85
728.149	21891.08
728.491	21834.81
728.833	21792.77
729.175	21728.6
729.516	21707.35
729.858	21723.85
730.199	21710.06
730.541	21671.2
730.882	21626.45
731.224	21674.13
731.565	21482.5
731.906	21511.2
732.248	21394.59
732.589	21354.59
732.93	21332.45
733.271	21295.61
733.612	21371.77
733.953	21310.53
734.294	21292.9
734.635	21216.29
734.976	21257.65
735.317	21082.28
735.658	21192.56
735.999	21159.57
736.339	20976.75
736.68	21053.36
737.021	20975.85
737.361	20887.94
737.702	21078.89
738.042	20918.9
738.383	20880.26
738.723	20931.78
739.063	20823.31
739.404	20866.47
739.744	20841.84
740.084	20680.71
740.424	20697.21
740.764	20610.66
741.104	20743.54
741.444	20634.39
741.784	20387.84
742.124	20561.39
742.464	20492.7
742.804	20510.32
743.143	20504.22
743.483	20464.22
743.823	20361.85
744.162	20353.49
744.502	20271.91
744.841	20211.8
745.181	20270.55
745.52	20259.03
745.86	20289.31
746.199	20213.15
746.538	20188.3
746.877	20205.92
747.216	20147.85
747.556	20056.77
747.895	20065.81
748.234	20039.15
748.573	19989.21
748.911	19879.83
749.25	20014.06
749.589	19787.63
749.928	19763.45
750.267	19839.61
750.605	19749.89
750.944	19672.83
751.283	19592.61
751.621	19631.02
751.96	19515.77
752.298	19459.5
752.636	19456.56
752.975	19415.89
753.313	19345.83
753.651	19497.02
753.989	19156.46
754.327	19196.23
754.666	19153.75
755.004	19186.06
755.342	19149.45
755.679	19217.47
756.017	19069.23
756.355	19095.9
756.693	19014.99
757.031	19019.29
757.368	18860.42
757.706	18868.33
758.044	18756.02
758.381	18745.17
758.719	18632.63
759.056	18756.7
759.394	18671.95
759.731	18482.58
760.068	18541.11
760.405	18437.16
760.743	18325.75
761.08	18392.19
761.417	18271.29
761.754	18222.92
762.091	18255.69
762.428	18201.91
762.765	18095.24
763.102	18079.2
763.438	17950.16
763.775	17959.2
764.112	17891.18
764.449	17914.46
764.785	17794.91
765.122	17686.67
765.458	17566.9
765.795	17550.85
766.131	17550.17
766.467	17574.13
766.804	17468.14
767.14	17381.37
767.476	17333.46
767.812	17241.03
768.148	17260.24
768.485	17189.51
768.821	17046.46
769.157	17010.08
769.492	17030.19
769.828	16981.15
770.164	16800.36
770.5	16805.33
770.836	16792
771.171	16644.66
771.507	16617.54
771.842	16529.41
772.178	16652.57
772.513	16411.22
772.849	16406.93
773.184	16387.04
773.519	16344.56
773.855	16274.5
774.19	16183.2
774.525	16223.66
774.86	16107.95
775.195	16200.61
775.53	15940.05
775.865	15924.45
776.2	15843.55
776.535	15670.45
776.87	15750.45
777.205	15719.26
777.539	15636.78
777.874	15610.34
778.209	15444.01
778.543	15474.75
778.878	15355.88
779.212	15359.72
779.547	15279.05
779.881	15342.32
780.215	15177.13
780.55	15212.61
780.884	15071.6
781.218	15137.36
781.552	15009.9
781.886	14921.09
782.22	14834.77
782.554	14819.4
782.888	14698.72
783.222	14604.04
783.556	14653.75
783.889	14526.98
784.223	14429.58
784.557	14472.51
784.89	14409.01
785.224	14405.62
785.557	14288.56
785.891	14272.97
786.224	14257.83
786.558	14219.19
786.891	14051.28
787.224	14067.1
787.557	14035.92
787.891	13979.42
788.224	14010.61
788.557	13888.58
788.89	13800.67
789.223	13803.15
789.556	13741.91
789.888	13770.84
790.221	13694.23
790.554	13599.54
790.887	13634.34
791.219	13562.26
791.552	13562.26
791.884	13426.67
792.217	13371.98
792.549	13376.5
792.882	13245.88
793.214	13231.87
793.546	13232.32
793.879	13133.57
794.211	13062.16
794.543	13170.85
794.875	13010.18
795.207	12992.78
795.539	12983.29
795.871	12890.64
796.203	12858.77
796.535	12849.96
796.867	12753.92
797.198	12745.55
797.53	12748.27
797.862	12656.97
798.193	12694.48
798.525	12613.13
798.856	12623.75
799.188	12476.86
799.519	12451.78
799.85	12417.43
800.182	12416.07
800.513	12460.36
800.844	12228.96
801.175	12342.63
801.506	12306.92
801.837	12221.73
802.168	12211.33
802.499	12161.84
802.83	12115.06
803.161	12084.56
803.491	11990.09
803.822	11919.36
804.153	11948.97
804.483	11845.01
804.814	11853.83
805.145	11878.01
805.475	11849.76
805.805	11752.13
806.136	11826.93
806.466	11808.86
806.796	11692.02
807.126	11694.06
807.457	11684.11
807.787	11649.09
808.117	11569.99
808.447	11505.59
808.777	11584.68
809.107	11523.44
809.436	11379.94
809.766	11411.35
810.096	11392.37
810.426	11360.51
810.755	11298.36
811.085	11265.82
811.414	11301.52
811.744	11180.4
812.073	11267.63
812.403	11239.15
812.732	11168.42
813.061	11112.15
813.39	11048.88
813.719	11083.9
814.049	11032.61
814.378	11024.02
814.707	10985.15
815.036	11021.76
815.365	10905.83
815.693	10874.87
816.022	10863.8
816.351	10751.03
816.68	10724.36
817.008	10720.98
817.337	10664.71
817.665	10703.57
817.994	10741.09
818.322	10732.95
818.651	10631.49
818.979	10540.41
819.307	10630.36
819.636	10519.62
819.964	10555.1
820.292	10498.83
820.62	10499.29
820.948	10500.19
821.276	10593.75
821.604	10533.64
821.932	10557.36
822.259	10445.95
822.587	10445.28
822.915	10479.4
823.243	10523.47
823.57	10463.35
823.898	10460.87
824.225	10401.21
824.553	10430.14
824.88	10516.46
825.207	10463.81
825.535	10464.94
825.862	10555.56
826.189	10430.14
826.516	10543.13
826.843	10535.67
827.17	10471.49
827.497	10500.64
827.824	10498.83
828.151	10494.09
828.478	10463.58
828.805	10472.17
829.131	10382
829.458	10436.46
829.785	10408.67
830.111	10394.66
830.438	10456.58
830.764	10442.34
831.09	10452.73
831.417	10411.83
831.743	10494.54
832.069	10419.74
832.395	10379.74
832.722	10392.17
833.048	10356.69
833.374	10382.9
833.7	10314.43
834.026	10307.65
834.351	10392.4
834.677	10382.23
835.003	10377.48
835.329	10398.5
835.654	10354.66
835.98	10291.38
836.306	10235.79
836.631	10239.41
836.956	10308.33
837.282	10220.42
837.607	10204.38
837.932	10109.01
838.258	10218.84
838.583	10143.59
838.908	10094.1
839.233	10160.31
839.558	10111.5
839.883	10106.3
840.208	10017.26
840.533	10108.34
840.858	10011.16
841.182	10036.25
841.507	10037.38
841.832	9944.27
842.156	9973.88
842.481	9947.21
842.805	9922.58
843.13	9892.52
843.454	9842.13
843.778	9821.34
844.103	9849.59
844.427	9827.67
844.751	9774.11
845.075	9783.37
845.399	9732.53
845.723	9690.49
846.047	9720.55
846.371	9597.84
846.695	9626.09
847.019	9568.69
847.343	9549.48
847.666	9377.51
847.99	9389.94
848.313	9379.77
848.637	9331.86
848.96	9315.14
849.284	9312.42
849.607	9320.79
849.931	9287.11
850.254	9208.02
850.577	9162.6
850.9	9041.7
851.223	9080.11
851.546	8989.72
851.869	8983.17
852.192	9045.54
852.515	8888.71
852.838	8870.4
853.161	8916.05
853.483	8911.53
853.806	8827.24
854.129	8744.76
854.451	8761.93
854.774	8735.72
855.096	8736.85
855.419	8640.13
855.741	8645.78
856.063	8564.2
856.385	8582.5
856.708	8559.22
857.03	8539.11
857.352	8544.08
857.674	8472.22
857.996	8452.33
858.318	8394.93
858.64	8373.92
858.961	8339.12
859.283	8377.08
859.605	8326.01
859.926	8365.33
860.248	8316.52
860.57	8343.18
860.891	8295.73
861.212	8259.8
861.534	8238.55
861.855	8263.64
862.176	8237.88
862.498	8220.7
862.819	8154.49
863.14	8186.58
863.461	8170.08
863.782	8091.44
864.103	8195.39
864.424	8058.67
864.745	8137.09
865.065	8042.85
865.386	8022.52
865.707	8001.5
866.027	8087.82
866.348	8086.02
866.668	8031.1
866.989	7991.78
867.309	7948.39
867.63	7947.49
867.95	7946.58
868.27	7877.66
868.59	7945
868.91	7915.4
869.23	7893.03
869.55	7864.55
869.87	7926.47
870.19	7860.49
870.51	7844.44
870.83	7905.68
871.15	7823.88
871.469	7785.46
871.789	7840.82
872.109	7833.37
872.428	7747.72
872.748	7788.85
873.067	7755.18
873.386	7739.36
873.706	7806.7
874.025	7677.44
874.344	7718.57
874.663	7683.54
874.982	7710.21
875.301	7698.23
875.62	7652.13
875.939	7618.01
876.258	7653.71
876.577	7654.16
876.896	7643.09
877.214	7614.84
877.533	7576.2
877.852	7573.71
878.17	7599.02
878.489	7530.55
878.807	7540.95
879.125	7492.81
879.444	7486.26
879.762	7479.7
880.08	7500.49
880.398	7398.12
880.716	7506.6
881.034	7444.9
881.352	7500.49
881.67	7428.41
881.988	7418.01
882.306	7354.06
882.624	7376.88
882.941	7318.8
883.259	7291.46
883.577	7303.66
883.894	7272.03
884.212	7265.92
884.529	7265.7
884.846	7198.81
885.164	7240.16
885.481	7152.48
885.798	7170.33
886.115	7145.25
886.432	7194.06
886.75	7157.68
887.067	7197.23
887.383	7124.91
887.7	7211.91
888.017	7128.53
888.334	7070
888.651	7058.47
888.967	7048.3
889.284	6993.39
889.6	7019.6
889.917	6958.36
890.233	6976.89
890.55	6933.28
890.866	6914.97
891.182	6857.12
891.498	6872.71
891.815	6828.87
892.131	6822.09
892.447	6803.34
892.763	6743.9
893.079	6730.8
893.395	6767.41
893.71	6713.17
894.026	6692.83
894.342	6755.2
894.657	6679.73
894.973	6661.19
895.289	6698.48
895.604	6700.29
895.92	6618.48
896.235	6606.73
896.55	6606.51
896.865	6555.89
897.181	6493.74
897.496	6508.43
897.811	6493.52
898.126	6455.1
898.441	6429.79
898.756	6403.8
899.071	6423.69
899.386	6451.71
899.7	6302.33
900.015	6347.53
900.33	6304.37
900.644	6278.38
900.959	6323.12
901.273	6234.09
901.588	6235.9
901.902	6242.67
902.216	6179.17
902.531	6152.51
902.845	6105.5
903.159	6144.15
903.473	6120.87
903.787	6053.08
904.101	6029.35
904.415	6084.94
904.729	6033.41
905.042	5936.47
905.356	5995.9
905.67	5969.91
905.984	5900.31
906.297	5882.23
906.611	5886.75
906.924	5848.33
907.237	5825.06
907.551	5868.9
907.864	5829.58
908.177	5796.36
908.491	5788
908.804	5801.1
909.117	5762.01
909.43	5699.19
909.743	5677.94
910.056	5644.05
910.368	5645.18
910.681	5615.35
910.994	5590.49
911.307	5594.78
911.619	5530.6
911.932	5549.13
912.244	5544.84
912.557	5505.29
912.869	5460.32
913.181	5457.84
913.494	5447.67
913.806	5395.69
914.118	5397.73
914.43	5357.5
914.742	5376.03
915.054	5315.92
915.366	5296.71
915.678	5271.4
915.99	5256.49
916.302	5216.04
916.613	5230.5
916.925	5185.53
917.236	5199.76
917.548	5198.41
917.859	5143.27
918.171	5108.47
918.482	5097.62
918.794	5005.87
919.105	5045.64
919.416	5008.36
919.727	5053.33
920.038	4984.63
920.349	4960.22
920.66	4936.49
920.971	4948.7
921.282	4952.99
921.593	4914.12
921.903	4860.56
922.214	4886.1
922.525	4816.05
922.835	4807.91
923.146	4800.23
923.456	4746.44
923.767	4750.28
924.077	4747.57
924.387	4774.24
924.697	4703.96
925.008	4675.71
925.318	4635.49
925.628	4673.45
925.938	4644.52
926.248	4546.22
926.558	4565.43
926.867	4600.23
927.177	4524.98
927.487	4582.83
927.796	4493.79
928.106	4500.35
928.416	4511.87
928.725	4500.8
929.034	4435.26
929.344	4416.73
929.653	4397.98
929.962	4382.38
930.271	4373.35
930.581	4363.18
930.89	4303.06
931.199	4294.93
931.508	4294.03
931.817	4262.16
932.125	4298.77
932.434	4266.91
932.743	4206.12
933.051	4190.98
933.36	4178.1
933.669	4158.21
933.977	4183.07
934.286	4135.39
934.594	4152.56
934.902	4105.1
935.21	4078.21
935.519	4056.29
935.827	4100.81
936.135	4064.88
936.443	4004.32
936.751	4042.05
937.059	3978.78
937.367	3970.64
937.674	3916.63
937.982	3964.99
938.29	3954.83
938.597	3931.1
938.905	3874.6
939.213	3877.99
939.52	3868.5
939.827	3855.17
940.135	3859.69
940.442	3823.3
940.749	3785.56
941.056	3768.39
941.363	3727.26
941.67	3798.22
941.977	3729.07
942.284	3711.22
942.591	3720.93
942.898	3693.36
943.205	3713.02
943.511	3634.38
943.818	3645.91
944.125	3612.01
944.431	3654.49
944.738	3608.85
945.044	3568.85
945.35	3577.89
945.657	3569.3
945.963	3558.45
946.269	3547.83
946.575	3529.07
946.881	3531.11
947.187	3490.66
947.493	3446.82
947.799	3450.43
948.105	3431.22
948.41	3407.5
948.716	3404.33
949.022	3406.82
949.327	3423.31
949.633	3358.68
949.938	3394.39
950.244	3362.98
950.549	3317.1
950.854	3282.53
951.16	3333.6
951.465	3299.02
951.77	3318.23
952.075	3279.36
952.38	3248.18
952.685	3277.33
952.99	3201.62
953.294	3211.79
953.599	3169.99
953.904	3148.74
954.209	3187.39
954.513	3155.07
954.818	3137.45
955.122	3131.8
955.426	3150.78
955.731	3119.59
956.035	3111.01
956.339	3088.41
956.643	3068.3
956.948	3076.88
957.252	3011.57
957.556	3006.38
957.86	3029.65
958.163	3038.69
958.467	3049.99
958.771	2997.11
959.075	2975.64
959.378	2960.73
959.682	2962.31
959.985	2948.98
960.289	2925.47
960.592	2904.01
960.896	2866.49
961.199	2864.68
961.502	2870.11
961.805	2853.39
962.108	2828.75
962.411	2835.08
962.714	2788.75
963.017	2819.04
963.32	2819.71
963.623	2798.02
963.926	2793.27
964.228	2746.27
964.531	2719.38
964.833	2716.89
965.136	2717.57
965.438	2687.51
965.741	2702.65
966.043	2721.19
966.345	2706.95
966.648	2666.27
966.95	2664.46
967.252	2626.95
967.554	2652.03
967.856	2638.48
968.158	2622.88
968.46	2598.93
968.761	2572.94
969.063	2602.32
969.365	2598.48
969.666	2543.56
969.968	2548.76
970.269	2532.72
970.571	2555.09
970.872	2536.78
971.174	2489.55
971.475	2502.21
971.776	2504.24
972.077	2520.51
972.378	2492.49
972.679	2468.76
972.98	2449.33
973.281	2463.57
973.582	2435.09
973.883	2403.23
974.183	2413.4
974.484	2388.54
974.785	2406.84
975.085	2417.01
975.386	2405.94
975.686	2351.93
975.986	2373.85
976.287	2354.42
976.587	2360.07
976.887	2304.02
977.187	2337.47
977.487	2328.88
977.787	2297.24
978.087	2268.54
978.387	2285.72
978.687	2252.5
978.987	2276.45
979.286	2260.63
979.586	2276.45
979.885	2222.44
980.185	2191.48
980.484	2188.09
980.784	2228.32
981.083	2210.69
981.382	2195.78
981.682	2188.09
981.981	2167.53
982.28	2148.09
982.579	2182.44
982.878	2120.75
983.177	2146.51
983.475	2151.26
983.774	2099.28
984.073	2123.46
984.372	2099.96
984.67	2064.48
984.969	2079.85
985.267	2086.85
985.566	2087.08
985.864	2056.34
986.162	2047.08
986.461	2055.89
986.759	2014.54
987.057	1998.49
987.355	1999.62
987.653	1982.67
987.951	1993.75
988.249	1993.3
988.547	1960.08
988.844	1972.73
989.142	1976.35
989.44	1957.36
989.737	1964.14
990.035	1961.66
990.332	1909.91
990.63	1934.99
990.927	1917.59
991.224	1898.38
991.521	1863.81
991.819	1862.23
992.116	1873.07
992.413	1895.67
992.71	1878.04
993.006	1847.76
993.303	1858.84
993.6	1859.74
993.897	1849.8
994.193	1814.09
994.49	1795.56
994.787	1822.45
995.083	1808.44
995.379	1787.88
995.676	1772.51
995.972	1808.44
996.268	1781.32
996.565	1738.16
996.861	1760.08
997.157	1735.45
997.453	1732.28
997.749	1711.04
998.044	1709.69
998.34	1721.89
998.636	1704.04
998.932	1716.01
999.227	1686.86
999.523	1673.3
999.818	1713.3
1000.114	1648.22
1000.409	1663.59
1000.704	1631.27
1001	1624.94
1001.295	1649.12
1001.59	1634.66
1001.885	1641.67
1002.18	1599.41
1002.475	1597.83
1002.77	1626.07
1003.065	1604.15
1003.359	1577.94
1003.654	1570.03
1003.949	1553.08
1004.243	1562.35
1004.538	1530.48
1004.832	1533.65
1005.127	1535.68
1005.421	1514.66
1005.715	1509.47
1006.009	1499.3
1006.304	1475.34
1006.598	1511.27
1006.892	1459.75
1007.186	1455.68
1007.48	1453.87
1007.773	1473.08
1008.067	1443.48
1008.361	1437.83
1008.655	1421.11
1008.948	1412.29
1009.242	1383.37
1009.535	1411.84
1009.829	1373.2
1010.122	1383.14
1010.415	1399.86
1010.708	1380.66
1011.001	1373.42
1011.295	1358.74
1011.588	1349.24
1011.881	1345.63
1012.173	1354.89
1012.466	1338.62
1012.759	1339.75
1013.052	1306.76
1013.344	1335.46
1013.637	1315.12
1013.93	1285.07
1014.222	1292.07
1014.514	1314.44
1014.807	1264.05
1015.099	1286.42
1015.391	1282.81
1015.683	1266.76
1015.976	1266.31
1016.268	1230.6
1016.56	1248.23
1016.851	1246.87
1017.143	1249.13
1017.435	1212.98
1017.727	1222.69
1018.018	1193.54
1018.31	1203.03
1018.602	1184.95
1018.893	1177.27
1019.185	1170.72
1019.476	1166.42
1019.767	1167.55
1020.058	1158.29
1020.35	1158.06
1020.641	1158.97
1020.932	1144.73
1021.223	1126.2
1021.514	1123.94
1021.804	1117.39
1022.095	1115.13
1022.386	1093.66
1022.677	1126.2
1022.967	1090.27
1023.258	1092.53
1023.548	1076.26
1023.839	1088.01
1024.129	1068.35
1024.419	1062.25
1024.709	1059.08
1025	1024.96
1025.29	1063.6
1025.58	1034
1025.87	1028.8
1026.16	987.9
1026.449	1021.34
1026.739	1018.63
1027.029	1008.01
1027.319	997.16
1027.608	986.99
1027.898	981.57
1028.187	969.37
1028.477	974.34
1028.766	961.01
1029.055	958.52
1029.344	939.31
1029.634	932.76
1029.923	963.49
1030.212	930.27
1030.501	919.2
1030.79	911.74
1031.078	936.15
1031.367	915.36
1031.656	908.13
1031.945	930.5
1032.233	899.76
1032.522	889.37
1032.81	886.88
1033.099	893.89
1033.387	890.73
1033.675	887.11
1033.963	891.86
1034.251	866.77
1034.54	879.88
1034.828	870.16
1035.116	832.42
1035.403	848.47
1035.691	851.4
1035.979	857.73
1036.267	844.4
1036.554	845.3
1036.842	845.3
1037.129	838.75
1037.417	826.77
1037.704	823.83
1037.992	797.39
1038.279	790.39
1038.566	820.22
1038.853	820.22
1039.14	820.22
