Data from breadboard_white_FLMS001491_00023.txt Node
Date: Wed Feb 08 10:47:29 GMT 2017
User: dcchb
Spectrometer: FLMS00149
Trigger mode: 0
Integration Time (sec): 2.000000E-2
Scans to average: 10
Electric dark correction enabled: true
Nonlinearity correction enabled: false
Boxcar width: 0
XAxis mode: Wavelengths
Number of Pixels in Spectrum: 2048
>>>>>Begin Spectral Data<<<<<
341.393	-30.63
341.776	-30.63
342.16	-30.63
342.543	-50.07
342.927	-59.79
343.31	-76.06
343.693	-73.8
344.077	-59.56
344.46	-39.9
344.843	-68.15
345.226	-36.96
345.61	-36.96
345.993	-15.27
346.376	9.36
346.759	-4.87
347.142	26.31
347.525	30.61
347.908	62.7
348.291	73.09
348.674	103.15
349.057	106.31
349.44	120.32
349.823	157.83
350.206	176.14
350.588	231.96
350.971	226.53
351.354	247.32
351.737	244.84
352.119	279.19
352.502	275.57
352.884	313.76
353.267	283.71
353.65	314.67
354.032	304.5
354.414	309.24
354.797	336.59
355.179	345.4
355.562	338.17
355.944	361.22
356.326	366.87
356.709	372.29
357.091	383.59
357.473	381.33
357.855	364.16
358.238	384.72
358.62	352.86
359.002	357.15
359.384	360.32
359.766	355.57
360.148	364.16
360.53	360.99
360.912	361.9
361.294	371.84
361.676	353.99
362.057	373.65
362.439	372.74
362.821	352.41
363.203	377.72
363.584	361.9
363.966	331.84
364.348	348.34
364.729	372.29
365.111	356.47
365.493	379.98
365.874	376.59
366.256	336.81
366.637	345.17
367.019	357.6
367.4	375.91
367.781	383.82
368.163	375.68
368.544	372.29
368.925	367.77
369.306	356.25
369.688	355.34
370.069	361.9
370.45	349.92
370.831	368.9
371.212	352.86
371.593	358.96
371.974	367.09
372.355	370.03
372.736	364.84
373.117	391.5
373.498	387.66
373.879	359.86
374.26	364.61
374.641	370.94
375.021	371.61
375.402	386.98
375.783	384.5
376.163	408.45
376.544	406.42
376.925	394.21
377.305	384.04
377.686	392.4
378.066	392.63
378.447	408.22
378.827	413.2
379.208	429.01
379.588	416.81
379.968	438.51
380.349	424.95
380.729	402.35
381.109	408.22
381.489	418.17
381.87	413.65
382.25	401.9
382.63	432.86
383.01	446.19
383.39	452.52
383.77	453.65
384.15	464.72
384.53	464.95
384.91	447.09
385.29	468.56
385.67	437.6
386.049	476.47
386.429	459.52
386.809	475.34
387.189	494.55
387.568	484.38
387.948	480.54
388.328	506.75
388.707	507.66
389.087	521.22
389.466	502.23
389.846	523.47
390.225	533.87
390.605	527.09
390.984	535.45
391.363	533.42
391.743	535.68
392.122	570.48
392.501	569.58
392.881	595.11
393.26	577.03
393.639	579.74
394.018	579.29
394.397	590.37
394.776	606.64
395.155	616.35
395.534	607.54
395.913	620.2
396.292	631.72
396.671	641.44
397.05	630.36
397.429	662.68
397.808	662.23
398.186	679.86
398.565	658.16
398.944	682.57
399.323	707.2
399.701	726.41
400.08	715.56
400.458	746.07
400.837	758.5
401.215	779.51
401.594	765.95
401.972	765.05
402.351	775.67
402.729	814.31
403.107	818.38
403.486	839.85
403.864	824.94
404.242	845.27
404.62	845.27
404.999	888.21
405.377	907.42
405.755	925.5
406.133	939.28
406.511	949.9
406.889	981.32
407.267	1017.93
407.645	1010.92
408.023	1045.95
408.401	1064.48
408.779	1076.23
409.156	1093.4
409.534	1109.9
409.912	1103.8
410.29	1170.01
410.667	1178.6
411.045	1210.46
411.422	1233.51
411.8	1256.11
412.178	1286.17
412.555	1306.51
412.933	1330.23
413.31	1326.62
413.687	1385.6
414.065	1383.79
414.442	1394.86
414.819	1450.91
415.197	1449.78
415.574	1512.38
415.951	1517.8
416.328	1521.87
416.705	1526.39
417.082	1537.46
417.46	1611.81
417.837	1621.53
418.214	1614.52
418.591	1652.71
418.967	1666.95
419.344	1704.46
419.721	1734.52
420.098	1732.26
420.475	1754.4
420.852	1795.98
421.228	1802.09
421.605	1801.41
421.982	1873.04
422.358	1922.53
422.735	1898.35
423.111	1908.52
423.488	1948.52
423.864	1976.54
424.241	1981.52
424.617	2038.69
424.994	2046.6
425.37	2070.78
425.746	2117.11
426.123	2144.45
426.499	2150.32
426.875	2169.76
427.251	2210.89
427.627	2239.59
428.003	2274.39
428.379	2314.84
428.756	2360.94
429.132	2372.92
429.507	2407.04
429.883	2414.05
430.259	2488.4
430.635	2507.38
431.011	2539.02
431.387	2601.84
431.763	2623.53
432.138	2648.62
432.514	2668.73
432.89	2708.05
433.265	2820.82
433.641	2824.66
434.016	2856.29
434.392	2897.42
434.767	2955.95
435.143	2942.62
435.518	3002.96
435.894	3045.67
436.269	3080.47
436.644	3139.45
437.02	3169.06
437.395	3183.74
437.77	3247.02
438.145	3310.97
438.52	3298.32
438.895	3368.15
439.271	3365.21
439.646	3449.05
440.021	3453.12
440.395	3484.98
440.77	3446.79
441.145	3477.97
441.52	3580.12
441.895	3602.72
442.27	3604.07
442.645	3640
443.019	3676.16
443.394	3698.53
443.769	3721.81
444.143	3726.78
444.518	3811.52
444.892	3782.6
445.267	3860.34
445.641	3839.32
446.016	3898.75
446.39	3931.75
446.764	3974.91
447.139	3958.86
447.513	4024.4
447.887	4003.38
448.262	4044.29
448.636	4105.3
449.01	4181.23
449.384	4219.2
449.758	4204.06
450.132	4258.07
450.506	4316.82
450.88	4306.2
451.254	4324.28
451.628	4424.84
452.002	4450.6
452.376	4470.94
452.75	4538.28
453.123	4580.54
453.497	4688.11
453.871	4757.71
454.244	4775.11
454.618	4853.76
454.992	4884.94
455.365	4948.67
455.739	5036.35
456.112	5093.75
456.486	5131.26
456.859	5190.02
457.232	5296.91
457.606	5237.48
457.979	5340.3
458.352	5474.76
458.725	5528.09
459.099	5549.33
459.472	5691.47
459.845	5763.11
460.218	5794.07
460.591	5864.58
460.964	5875.65
461.337	6045.36
461.71	6106.38
462.083	6242.87
462.456	6245.13
462.829	6308.41
463.201	6370.78
463.574	6464.11
463.947	6531.45
464.32	6639.02
464.692	6745.68
465.065	6736.19
465.438	6823.2
465.81	6969.41
466.183	7039.69
466.555	7192
466.928	7251.89
467.3	7271.09
467.672	7402.16
468.045	7629.73
468.417	7649.84
468.789	7711.08
469.161	7791.98
469.534	7994.46
469.906	8172.09
470.278	8159.21
470.65	8228.58
471.022	8514.23
471.394	8558.52
471.766	8632.41
472.138	8786.99
472.51	8960.09
472.882	9151.5
473.253	9206.64
473.625	9379.51
473.997	9620.64
474.369	9642.56
474.74	9754.42
475.112	9891.82
475.484	10138.14
475.855	10330.67
476.227	10355.98
476.598	10696.77
476.97	10790.1
477.341	11063.31
477.713	11158
478.084	11257.66
478.455	11552.11
478.827	11660.81
479.198	12019.67
479.569	12036.17
479.94	12428.47
480.311	12529.71
480.682	12846.99
481.053	13074.78
481.424	13322.46
481.795	13458.28
482.166	13653.98
482.537	13781.66
482.908	14055.55
483.279	14226.17
483.65	14557.68
484.021	14844.45
484.391	15032.02
484.762	15212.81
485.133	15312.92
485.503	15541.39
485.874	15853.92
486.244	16062.73
486.615	16361.02
486.985	16549.49
487.356	16855.25
487.726	17002.14
488.097	17362.13
488.467	17343.15
488.837	17760.99
489.207	18004.6
489.578	18182.22
489.948	18403.91
490.318	18657.46
490.688	18689.78
491.058	19159.14
491.428	19290.44
491.798	19511
492.168	19928.39
492.538	19874.38
492.908	20189.62
493.278	20499.67
493.648	20485.89
494.017	20837.74
494.387	20926.55
494.757	21120.67
495.126	21384.85
495.496	21528.35
495.866	21658.96
496.235	21897.83
496.605	22050.82
496.974	22196.13
497.344	22578.26
497.713	22644.7
498.082	22891.47
498.452	23187.51
498.821	23184.12
499.19	23235.65
499.559	23578.91
499.928	23628.4
500.298	23858.91
500.667	24066.81
501.036	24136.64
501.405	24438.33
501.774	24397.2
502.143	24560.36
502.512	24763.97
502.88	24998.54
503.249	25050.51
503.618	25238.08
503.987	25463.84
504.356	25675.36
504.724	25738.18
505.093	25860.89
505.462	25989.25
505.83	26236.7
506.199	26335.45
506.567	26789
506.936	26824.03
507.304	27108.31
507.672	27246.84
508.041	27465.14
508.409	27580.84
508.777	27882.53
509.145	28056.08
509.514	28122.3
509.882	28286.36
510.25	28398.67
510.618	28701.94
510.986	28736.74
511.354	29067.13
511.722	29434.35
512.09	29637.06
512.458	29696.72
512.826	29907.79
513.193	30092.19
513.561	30146.42
513.929	30523.14
514.297	30721.55
514.664	30895.78
515.032	31072.5
515.4	31409.44
515.767	31514.3
516.135	31718.81
516.502	31656.89
516.869	32308.18
517.237	32305.92
517.604	32367.16
517.972	32672.91
518.339	32964.2
518.706	33119.45
519.073	33191.32
519.44	33450.97
519.808	33970.96
520.175	33832.43
520.542	34400.55
520.909	34427.89
521.276	34565.97
521.643	34895
522.009	35250.92
522.376	35445.72
522.743	35817.46
523.11	36134.06
523.477	36375.64
523.843	36626.25
524.21	36985.34
524.577	37134.72
524.943	37376.52
525.31	37676.85
525.676	37919.33
526.043	38202.03
526.409	38550.72
526.776	38861.22
527.142	38953.65
527.508	39245.62
527.874	39514.99
528.241	39732.16
528.607	39807.41
528.973	40172.15
529.339	40298.7
529.705	40622.31
530.071	40987.5
530.437	41074.5
530.803	41331.89
531.169	41504.09
531.535	41663.86
531.901	41866.79
532.267	42069.73
532.632	42242.83
532.998	42343.39
533.364	42591.07
533.73	42781.8
534.095	43030.61
534.461	43247.1
534.826	43500.88
535.192	43716.92
535.557	43919.17
535.923	43962.11
536.288	44214.76
536.653	44331.59
537.019	44247.52
537.384	44477.8
537.749	44811.12
538.114	44813.84
538.479	44995.3
538.845	45125.69
539.21	45122.08
539.575	45264.9
539.94	45518.68
540.305	45737.43
540.67	45699.69
541.034	45996.4
541.399	46220.58
541.764	46249.5
542.129	46351.65
542.494	46514.81
542.858	46656.5
543.223	46785.08
543.587	46994.12
543.952	46882.26
544.316	47117.73
544.681	47209.93
545.045	47478.4
545.41	47633.65
545.774	47659.41
546.138	47693.31
546.503	47778.73
546.867	47922.91
547.231	48106.86
547.595	48243.12
547.959	48401.31
548.324	48487.19
548.688	48551.59
549.052	48779.38
549.416	48795.65
549.779	48864.12
550.143	49063.67
550.507	49311.8
550.871	49347.28
551.235	49372.81
551.599	49632.47
551.962	49711.11
552.326	49910.65
552.689	50089.86
553.053	49896.19
553.417	50133.7
553.78	50503.86
554.143	50427.47
554.507	50598.99
554.87	50733.68
555.234	51103.39
555.597	50889.83
555.96	50992.88
556.323	51287.56
556.686	51334.12
557.05	51523.04
557.413	51587.67
557.776	51623.83
558.139	51964.38
558.502	52002.8
558.865	52122.12
559.228	52279.4
559.59	52374.99
559.953	52443.47
560.316	52770.24
560.679	52759.39
561.041	53038.93
561.404	53099.95
561.767	53356.44
562.129	53249.09
562.492	53580.84
562.854	53554.62
563.217	53593.94
563.579	53757.56
563.941	53962.75
564.304	54040.94
564.666	54251.78
565.028	54347.6
565.39	54405.45
565.753	54611.09
566.115	54668.27
566.477	54813.8
566.839	54890.18
567.201	55062.15
567.563	55035.71
567.925	55186.9
568.287	55262.37
568.648	55303.28
569.01	55428.92
569.372	55626.88
569.734	55597.28
570.095	55822.81
570.457	55916.37
570.819	55983.49
571.18	55951.62
571.542	56110.71
571.903	56151.39
572.265	56291.5
572.626	56298.05
572.987	56322.01
573.349	56455.34
573.71	56630.02
574.071	56591.83
574.432	56714.77
574.794	56896.91
575.155	56817.36
575.516	56818.04
575.877	56891.94
576.238	56997.02
576.599	57124.02
576.96	57127.41
577.32	57121.53
577.681	57230.01
578.042	57248.09
578.403	57282.43
578.763	57316.78
579.124	57308.42
579.485	57460.73
579.845	57484.92
580.206	57386.61
580.566	57481.3
580.927	57506.16
581.287	57666.15
581.648	57448.31
582.008	57644.68
582.368	57618.47
582.728	57587.51
583.089	57622.09
583.449	57579.83
583.809	57585.03
584.169	57695.08
584.529	57595.87
584.889	57824.57
585.249	57666.61
585.609	57602.43
585.969	57758.58
586.329	57650.11
586.688	57751.35
587.048	57718.13
587.408	57652.14
587.768	57721.97
588.127	57655.08
588.487	57608.3
588.846	57799.71
589.206	57677.45
589.565	57694.4
589.925	57757
590.284	57672.48
590.643	57802.42
591.003	57863.89
591.362	57897.11
591.721	57834.28
592.08	57845.13
592.44	57882.64
592.799	57859.37
593.158	57918.58
593.517	57841.06
593.876	57902.76
594.235	57823.89
594.593	57852.81
594.952	57959.03
595.311	57817.56
595.67	57912.7
596.029	57947.28
596.387	58000.38
596.746	58084.45
597.104	57904.79
597.463	57919.25
597.822	58034.96
598.18	57884.23
598.538	57952.02
598.897	58133.49
599.255	57921.29
599.613	58259.58
599.972	58035.41
600.33	58127.84
600.688	58090.1
601.046	58111.34
601.404	58236.76
601.762	58132.81
602.12	58307.94
602.478	58268.85
602.836	58274.95
603.194	58144.56
603.552	58260.94
603.91	58111.11
604.268	58323.31
604.625	58188.85
604.983	58370.09
605.341	58282.63
605.698	58362.18
606.056	58433.14
606.413	58423.65
606.771	58504.78
607.128	58541.84
607.485	58394.27
607.843	58445.12
608.2	58581.16
608.557	58644.88
608.914	58529.63
609.272	58664.77
609.629	58686.24
609.986	58717.2
610.343	58607.82
610.7	58820.47
611.057	58751.32
611.414	58757.65
611.771	58732.79
612.127	58856.18
612.484	58803.3
612.841	58877.65
613.198	58867.7
613.554	58836.74
613.911	59017.53
614.267	58966.68
614.624	58943.86
614.98	58993.58
615.337	59149.28
615.693	59077.87
616.05	59091.43
616.406	59206
616.762	59094.14
617.118	59149.73
617.475	59067.7
617.831	59238.32
618.187	59186.79
618.543	59260.91
618.899	59389.95
619.255	59297.3
619.611	59257.75
619.967	59325.54
620.323	59429.04
620.678	59303.62
621.034	59276.05
621.39	59214.81
621.746	59250.29
622.101	59527.12
622.457	59264.53
622.812	59371.65
623.168	59385.2
623.523	59384.53
623.879	59403.96
624.234	59309.05
624.589	59354.47
624.945	59388.37
625.3	59402.38
625.655	59419.1
626.01	59404.19
626.365	59377.75
626.72	59331.65
627.075	59319.44
627.43	59384.75
627.785	59371.87
628.14	59337.07
628.495	59336.17
628.85	59324.41
629.205	59221.14
629.559	59349.05
629.914	59175.27
630.269	59265.43
630.623	59149.96
630.978	59162.39
631.332	59220.46
631.687	59214.59
632.041	59125.1
632.396	59191.08
632.75	59082.16
633.104	59100.69
633.459	58979.34
633.813	59024.08
634.167	58952
634.521	58918.55
634.875	58962.39
635.229	58891.88
635.583	58803.07
635.937	58802.17
636.291	58806.91
636.645	58815.28
636.999	58720.14
637.352	58782.96
637.706	58643.53
638.06	58712.68
638.413	58711.1
638.767	58554.72
639.121	58684.88
639.474	58468.17
639.828	58484.66
640.181	58565.34
640.534	58547.26
640.888	58357.89
641.241	58359.02
641.594	58394.27
641.947	58361.95
642.301	58333.25
642.654	58339.58
643.007	58351.56
643.36	58265.01
643.713	58170.09
644.066	58219.59
644.419	58106.59
644.771	57950.89
645.124	57807.39
645.477	57811.46
645.83	57560.85
646.182	57373.51
646.535	57228.65
646.888	57370.57
647.24	57251.25
647.593	57343.68
647.945	57291.02
648.298	57135.32
648.65	57131.48
649.002	57041.08
649.355	57177.13
649.707	57101.42
650.059	57181.87
650.411	57515.87
650.763	57440.85
651.115	57790.22
651.467	57675.87
651.819	57659.6
652.171	57513.39
652.523	57491.47
652.875	57513.16
653.227	57379.83
653.578	57520.39
653.93	57484.69
654.282	57359.27
654.633	57314.3
654.985	57378.7
655.337	57367.86
655.688	57251.02
656.039	57431.58
656.391	57230.01
656.742	57305.26
657.094	57275.66
657.445	57330.79
657.796	57226.39
658.147	57186.62
658.498	57229.33
658.849	57219.84
659.2	57157.01
659.551	57069.33
659.902	57156.34
660.253	57150.23
660.604	57152.95
660.955	57034.31
661.306	57091.93
661.656	57011.03
662.007	57027.98
662.358	57068.43
662.708	56974.65
663.059	56954.99
663.409	56766.97
663.76	56964.02
664.11	56956.34
664.461	56947.3
664.811	57068.88
665.161	57036.79
665.511	56913.18
665.862	56945.95
666.212	57004.48
666.562	56969.67
666.912	56869.34
667.262	56854.65
667.612	56868.89
667.962	56832.95
668.312	56798.15
668.662	56888.09
669.011	56895.78
669.361	56776.91
669.711	56830.24
670.06	56780.53
670.41	56710.7
670.76	56688.1
671.109	56782.33
671.459	56669.12
671.808	56573.98
672.157	56653.07
672.507	56478.61
672.856	56480.42
673.205	56510.48
673.554	56606.52
673.904	56427.32
674.253	56661.21
674.602	56585.05
674.951	56160.2
675.3	55992.3
675.649	56448.11
675.998	56407.2
676.346	56450.82
676.695	56446.52
677.044	56242.24
677.393	56308.67
677.741	56356.13
678.09	56288.11
678.438	56186.87
678.787	56346.19
679.135	56233.2
679.484	56080.21
679.832	56057.38
680.181	55954.11
680.529	56038.85
680.877	55894
681.225	55888.35
681.573	56044.5
681.922	55915.24
682.27	55769.25
682.618	55826.43
682.966	55688.58
683.314	55828.69
683.661	55784.17
684.009	55601.12
684.357	55469.6
684.705	55435.48
685.053	55474.12
685.4	55468.47
685.748	55205.65
686.095	55202.04
686.443	55111.42
686.79	55234.13
687.138	55206.78
687.485	55133.11
687.832	55085.43
688.18	55065.54
688.527	54908.26
688.874	54867.58
689.221	54732.9
689.568	54765.66
689.915	54656.97
690.262	54744.65
690.609	54552.56
690.956	54473.47
691.303	54483.86
691.65	54281.84
691.997	54393.02
692.344	54178.79
692.69	54122.07
693.037	54108.28
693.383	53969.08
693.73	54077.77
694.077	53697.22
694.423	53863.09
694.769	53626.94
695.116	53652.02
695.462	53544
695.808	53512.14
696.155	53508.97
696.501	53293.61
696.847	53248.87
697.193	53040.29
697.539	53112.37
697.885	52813.17
698.231	52821.53
698.577	52800.97
698.923	52706.51
699.269	52627.42
699.614	52378.38
699.96	52422.68
700.306	52331.6
700.651	52315.56
700.997	52113.53
701.342	52134.77
701.688	52036.47
702.033	51912.18
702.379	51866.53
702.724	51713.99
703.069	51843.71
703.415	51451.85
703.76	51456.6
704.105	51472.64
704.45	51379.31
704.795	51155.82
705.14	51075.37
705.485	51139.55
705.83	50846.67
706.175	50772.55
706.52	50795.6
706.865	50696.84
707.209	50613.91
707.554	50539.33
707.899	50648.03
708.243	50343.63
708.588	50298.89
708.932	50098.44
709.277	50098.44
709.621	50214.6
709.966	49823.2
710.31	49848.51
710.654	49550.66
710.998	49651.45
711.342	49759.92
711.687	49520.6
712.031	49431.34
712.375	49275.87
712.719	49274.74
713.063	49289.88
713.407	49306.83
713.75	49138.69
714.094	49149.09
714.438	48931.02
714.782	49000.39
715.125	48767.18
715.469	48768.99
715.812	48520.86
716.156	48396.11
716.499	48383.01
716.843	48469.11
717.186	48256.23
717.53	48431.82
717.873	48373.97
718.216	48334.2
718.559	48056.24
718.902	47708.67
719.246	47918.16
719.589	47724.04
719.932	47653.08
720.275	47567.66
720.617	47531.96
720.96	47506.87
721.303	47441.56
721.646	47444.5
721.989	47192.3
722.331	47225.98
722.674	47166.77
723.016	47095.58
723.359	47031.63
723.701	46995.47
724.044	46780.79
724.386	46569.95
724.729	46757.06
725.071	46618.99
725.413	46612.43
725.755	46530.17
726.097	46222.61
726.439	46098.32
726.782	46120.69
727.124	46331.08
727.465	46012
727.807	46040.7
728.149	45935.16
728.491	45776.75
728.833	45884.99
729.175	45617.2
729.516	45666.24
729.858	45504.44
730.199	45594.15
730.541	45481.39
730.882	45462.41
731.224	45533.82
731.565	45150.32
731.906	45312.13
732.248	45261.96
732.589	45082.3
732.93	45001.4
733.271	44918.69
733.612	45000.05
733.953	44885.47
734.294	44912.82
734.635	44704.91
734.976	44813.38
735.317	44485.71
735.658	44488.87
735.999	44391.47
736.339	44454.75
736.68	44424.02
737.021	44135.66
737.361	44111.48
737.702	44212.72
738.042	44107.41
738.383	43956.01
738.723	43907.87
739.063	43681.44
739.404	43954.42
739.744	43830.58
740.084	43678.27
740.424	43671.94
740.764	43515.11
741.104	43695.67
741.444	43361.9
741.784	43485.06
742.124	43216.59
742.464	43267.89
742.804	43262.24
743.143	43107.21
743.483	43181.56
743.823	42910.83
744.162	42923.04
744.502	42864.96
744.841	42678.98
745.181	42777.96
745.52	42667.68
745.86	42709.94
746.199	42511.75
746.538	42531.64
746.877	42595.82
747.216	42281.92
747.556	42181.14
747.895	42326.22
748.234	42271.98
748.573	41985.21
748.911	42051.87
749.25	41913.35
749.589	41719.68
749.928	41679.45
750.267	41658.21
750.605	41530.76
750.944	41361.27
751.283	41263.87
751.621	41436.98
751.96	41215.96
752.298	41077.89
752.636	41211.67
752.975	40983.2
753.313	40859.82
753.651	40968.51
753.989	40715.86
754.327	40589.99
754.666	40454.85
755.004	40476.1
755.342	40334.18
755.679	40277.01
756.017	40027.75
756.355	40220.96
756.693	39917.47
757.031	39947.3
757.368	39655.55
757.706	39653.97
758.044	39611.71
758.381	39591.37
758.719	39356.58
759.056	39208.79
759.394	39204.72
759.731	38840.89
760.068	39071.84
760.405	38689.7
760.743	38634.34
761.08	38771.96
761.417	38558.41
761.754	38496.26
762.091	38339.2
762.428	38180.56
762.765	37913.68
763.102	38052.66
763.438	37914.13
763.775	37702.84
764.112	37785.55
764.449	37528.6
764.785	37360.47
765.122	37230.31
765.458	37038
765.795	37244.77
766.131	36983.53
766.467	36865.8
766.804	36590.55
767.14	36527.5
767.476	36536.54
767.812	36330.67
768.148	36234.63
768.485	36045.03
768.821	35791.47
769.157	35896.33
769.492	35700.18
769.828	35744.24
770.164	35306.29
770.5	35309
770.836	35274.88
771.171	35029.46
771.507	34955.56
771.842	34776.13
772.178	34821.1
772.513	34790.37
772.849	34459.53
773.184	34420.44
773.519	34400.55
773.855	34132.08
774.19	33913.11
774.525	33839.66
774.86	33937.51
775.195	33834.69
775.53	33635.37
775.865	33490.52
776.2	33083.97
776.535	33096.86
776.87	32955.16
777.205	32889.4
777.539	32738.9
777.874	32788.16
778.209	32505.68
778.543	32411.22
778.878	32431.34
779.212	32358.34
779.547	32104.11
779.881	32146.37
780.215	31863.44
780.55	31911.35
780.884	31747.74
781.218	31627.52
781.552	31589.55
781.886	31561.3
782.22	31223.91
782.554	31115.89
782.888	30891.04
783.222	30823.7
783.556	30672.29
783.889	30642.23
784.223	30319.98
784.557	30343.93
784.89	30256.93
785.224	30269.81
785.557	30063.94
785.891	29880.9
786.224	29813.78
786.558	29907.11
786.891	29513.67
787.224	29398.42
787.557	29315.03
787.891	29376.28
788.224	29251.31
788.557	29151.87
788.89	29069.62
789.223	29078.43
789.556	28708.5
789.888	28816.52
790.221	28706.69
790.554	28351.67
790.887	28402.74
791.219	28242.29
791.552	28240.94
791.884	28120.72
792.217	28048.4
792.549	27937.9
792.882	27853.6
793.214	27717.34
793.546	27730.44
793.879	27568.64
794.211	27325.71
794.543	27443.9
794.875	27283
795.207	27356.22
795.539	27061.76
795.871	27155.54
796.203	26838.49
796.535	26782.45
796.867	26715.33
797.198	26657.48
797.53	26698.38
797.862	26318.28
798.193	26546.97
798.525	26240.99
798.856	26304.49
799.188	26036.02
799.519	25984.05
799.85	25875.35
800.182	25848.46
800.513	25837.84
800.844	25556.49
801.175	25621.35
801.506	25511.07
801.837	25411.41
802.168	25435.36
802.499	25257.06
802.83	25097.52
803.161	25052.55
803.491	25060.91
803.822	25031.31
804.153	24912.89
804.483	24839.9
804.814	24728.49
805.145	24708.83
805.475	24668.15
805.805	24484.43
806.136	24508.61
806.466	24438.1
806.796	24439
807.126	24135.74
807.457	24145.45
807.787	24108.62
808.117	23998.79
808.447	23881.73
808.777	23995.4
809.107	23810.55
809.436	23800.38
809.766	23662.3
810.096	23632.7
810.426	23549.31
810.755	23564.23
811.085	23561.74
811.414	23397.45
811.744	23186.38
812.073	23226.15
812.403	23174.4
812.732	23029.1
813.061	23090.11
813.39	23029.55
813.719	22865.03
814.049	22954.3
814.378	22865.03
814.707	22684.02
815.036	22790.46
815.365	22518.83
815.693	22422.79
816.022	22384.37
816.351	22312.51
816.68	22281.09
817.008	22307.31
817.337	22202.68
817.665	22031.38
817.994	22257.59
818.322	22103.92
818.651	22005.4
818.979	21896.47
819.307	21980.31
819.636	21785.97
819.964	21718.85
820.292	21759.07
820.62	21781.45
820.948	21728.79
821.276	21739.87
821.604	21582.36
821.932	21791.84
822.259	21779.19
822.587	21673.65
822.915	21613.54
823.243	21596.14
823.57	21531.06
823.898	21659.42
824.225	21423.04
824.553	21443.6
824.88	21561.79
825.207	21613.99
825.535	21449.25
825.862	21560.89
826.189	21539.87
826.516	21582.13
826.843	21535.13
827.17	21516.82
827.497	21597.95
827.824	21628
828.151	21480.21
828.478	21524.73
828.805	21565.86
829.131	21533.32
829.458	21410.61
829.785	21312.53
830.111	21354.34
830.438	21391.17
830.764	21302.82
831.09	21354.79
831.417	21224.85
831.743	21475.47
832.069	21381.23
832.395	21264.85
832.722	21394.11
833.048	21354.57
833.374	21356.37
833.7	21125.87
834.026	21277.73
834.351	21341.01
834.677	21189.6
835.003	21225.53
835.329	21157.96
835.654	20964.97
835.98	21105.76
836.306	21080.9
836.631	21030.28
836.956	21038.42
837.282	20934.24
837.607	20915.26
837.932	20882.49
838.258	20967.68
838.583	20823.96
838.908	20819.44
839.233	20707.58
839.558	20711.64
839.883	20673
840.208	20514.81
840.533	20609.05
840.858	20615.83
841.182	20441.6
841.507	20463.74
841.832	20379.68
842.156	20241.15
842.481	20297.42
842.805	20257.19
843.13	20209.29
843.454	20183.3
843.778	20066.24
844.103	20117.08
844.427	20034.15
844.751	19967.71
845.075	19924.09
845.399	19906.92
845.723	19756.87
846.047	19795.06
846.371	19598
846.695	19553.71
847.019	19398.46
847.343	19352.58
847.666	19201.4
847.99	19255.86
848.313	19180.16
848.637	19052.03
848.96	19027.17
849.284	18951.24
849.607	18771.58
849.931	18750.34
850.254	18649.33
850.577	18539.5
850.9	18377.24
851.223	18313.74
851.546	18354.42
851.869	18139.28
852.192	18296.57
852.515	18066.74
852.838	18081.21
853.161	18002.56
853.483	17857.93
853.806	17849.8
854.129	17819.97
854.451	17724.38
854.774	17583.59
855.096	17582.69
855.419	17608.45
855.741	17570.03
856.063	17445.97
856.385	17336.37
856.708	17375.24
857.03	17210.27
857.352	17191.51
857.674	17243.26
857.996	17145.18
858.318	16981.12
858.64	17065.64
858.961	17043.49
859.283	16881.91
859.605	16849.15
859.926	16896.6
860.248	16768.25
860.57	16702.48
860.891	16754.01
861.212	16634.69
861.534	16591.98
861.855	16569.61
862.176	16628.81
862.498	16563.05
862.819	16484.19
863.14	16389.5
863.461	16320.12
863.782	16351.76
864.103	16208.71
864.424	16237.19
864.745	16247.81
865.065	16123.06
865.386	16125.55
865.707	16123.97
866.027	16166
866.348	16022.95
866.668	16075.61
866.989	15971.66
867.309	15905.44
867.63	15895.5
867.95	15877.42
868.27	15753.58
868.59	15805.56
868.91	15819.34
869.23	15826.12
869.55	15774.15
869.87	15763.75
870.19	15755.84
870.51	15714.26
870.83	15653.02
871.15	15482.63
871.469	15609.41
871.789	15567.6
872.109	15546.58
872.428	15493.48
872.748	15509.3
873.067	15407.6
873.386	15441.95
873.706	15451.9
874.025	15299.58
874.344	15214.61
874.663	15353.14
874.982	15280.38
875.301	15247.61
875.62	15135.07
875.939	15128.06
876.258	15149.31
876.577	15014.62
876.896	15158.57
877.214	15006.48
877.533	15033.15
877.852	15041.96
878.17	14964.45
878.489	15101.62
878.807	14967.84
879.125	14932.81
879.444	14929.65
879.762	14848.07
880.08	14851.01
880.398	14820.95
880.716	14786.6
881.034	14706.15
881.352	14754.51
881.67	14738.47
881.988	14713.16
882.306	14594.52
882.624	14602.88
882.941	14477.01
883.259	14552.26
883.577	14461.87
883.894	14446.5
884.212	14437.69
884.529	14404.69
884.846	14348.65
885.164	14264.13
885.481	14322.21
885.798	14319.27
886.115	14197.69
886.432	14206.05
886.75	14195.88
887.067	14171.03
887.383	14179.39
887.7	14139.84
888.017	14017.58
888.334	13998.83
888.651	14023.91
888.967	13973.29
889.284	13893.52
889.6	13774.65
889.917	13817.36
890.233	13845.84
890.55	13698.27
890.866	13730.13
891.182	13640.64
891.498	13631.15
891.815	13557.03
892.131	13518.39
892.447	13549.8
892.763	13411.27
893.079	13420.76
893.395	13310.48
893.71	13299.18
894.026	13304.16
894.342	13234.55
894.657	13187.1
894.973	13227.1
895.289	13144.39
895.604	13096.03
895.92	13051.51
896.235	12985.52
896.55	13024.62
896.865	12877.95
897.181	12827.11
897.496	12849.03
897.811	12772.64
898.126	12782.14
898.441	12677.96
898.756	12603.61
899.071	12513.44
899.386	12543.5
899.7	12509.37
900.015	12435.03
900.33	12319.1
900.644	12360
900.959	12279.55
901.273	12215.82
901.588	12169.72
901.902	12100.35
902.216	12101.25
902.531	12043.4
902.845	11991.87
903.159	11991.87
903.473	11885.44
903.787	11892.22
904.101	11798.43
904.415	11817.87
904.729	11776.06
905.042	11666.01
905.356	11677.76
905.67	11655.39
905.984	11538.1
906.297	11547.59
906.611	11507.37
906.924	11503.75
907.237	11441.83
907.551	11403.87
907.864	11366.58
908.177	11275.96
908.491	11220.14
908.804	11118.22
909.117	11117.77
909.43	11058.11
909.743	10987.83
910.056	10985.57
910.368	10948.29
910.681	10827.61
910.994	10851.34
911.307	10821.74
911.619	10717.56
911.932	10722.08
912.244	10637.11
912.557	10677.33
912.869	10627.16
913.181	10507.39
913.494	10477.34
913.806	10418.81
914.118	10443.21
914.43	10292.26
914.742	10289.77
915.054	10226.72
915.366	10242.32
915.678	10192.15
915.99	10141.75
916.302	10116.22
916.613	10021.3
916.925	10035.77
917.236	10052.72
917.548	9896.11
917.859	9890.46
918.171	9879.61
918.482	9807.52
918.794	9707.41
919.105	9791.71
919.416	9568.66
919.727	9594.87
920.038	9582.22
920.349	9460.87
920.66	9512.62
920.971	9530.7
921.282	9421.09
921.593	9340.64
921.903	9288.89
922.214	9255.22
922.525	9286.18
922.835	9158.28
923.146	9175
923.456	9155.11
923.767	9101.55
924.077	9075.79
924.387	9040.77
924.697	8994.44
925.008	8946.3
925.318	8900.2
925.628	8809.81
925.938	8857.95
926.248	8811.39
926.558	8743.82
926.867	8688.46
927.177	8697.5
927.487	8638.52
927.796	8531.4
928.106	8554.45
928.416	8514.9
928.725	8516.94
929.034	8446.88
929.344	8471.06
929.653	8427
929.962	8302.48
930.271	8268.36
930.581	8288.47
930.89	8227.91
931.199	8141.81
931.508	8151.75
931.817	8162.37
932.125	8100.68
932.434	8087.8
932.743	8005.54
933.051	7941.81
933.36	7931.19
933.669	7854.36
933.977	7819.55
934.286	7813.23
934.594	7807.58
934.902	7732.55
935.21	7720.35
935.519	7677.64
935.827	7699.78
936.135	7601.25
936.443	7562.39
936.751	7536.85
937.059	7517.87
937.367	7533.23
937.674	7553.35
937.982	7402.39
938.29	7341.6
938.597	7402.84
938.905	7241.04
939.213	7307.7
939.52	7227.93
939.827	7258.44
940.135	7198.78
940.442	7100.25
940.749	7154.49
941.056	7212.56
941.363	7037.43
941.67	7032
941.977	7007.6
942.284	6957.43
942.591	6985.9
942.898	6969.18
943.205	6883.53
943.511	6850.77
943.818	6825.46
944.125	6801.95
944.431	6812.35
944.738	6762.18
945.044	6724.89
945.35	6668.85
945.657	6599.7
945.963	6657.55
946.269	6598.34
946.575	6560.6
946.881	6513.37
947.187	6488.74
947.493	6418.46
947.799	6439.48
948.105	6371.46
948.41	6318.12
948.716	6322.87
949.022	6329.42
949.327	6320.38
949.633	6222.31
949.938	6244.68
950.244	6236.77
950.549	6187.51
950.854	6110.9
951.16	6137.79
951.465	6066.83
951.77	6119.03
952.075	6051.69
952.38	5997.46
952.685	6007.62
952.99	5931.24
953.294	5953.61
953.599	5936.21
953.904	5859.61
954.209	5845.14
954.513	5833.39
954.818	5806.27
955.122	5829.1
955.426	5759.04
955.731	5805.6
956.035	5663.68
956.339	5693.73
956.643	5641.31
956.948	5608.54
957.252	5577.81
957.556	5572.38
957.86	5532.61
958.163	5520.86
958.467	5478.82
958.771	5484.02
959.075	5487.64
959.378	5403.57
959.682	5423.46
959.985	5382.56
960.289	5346.4
960.592	5311.82
960.896	5329.22
961.199	5258.04
961.502	5197.7
961.805	5206.97
962.108	5186.18
962.411	5159.96
962.714	5136.69
963.017	5151.83
963.32	5139.62
963.623	5093.75
963.926	5037.93
964.228	5033.41
964.531	5015.56
964.833	4991.15
965.136	5010.59
965.438	4956.58
965.741	4946.18
966.043	4919.07
966.345	4896.24
966.648	4834.55
966.95	4843.14
967.252	4790.93
967.554	4847.43
967.856	4755.91
968.158	4709.35
968.46	4762.23
968.761	4736.7
969.063	4717.49
969.365	4647.43
969.666	4635.01
969.968	4567.66
970.269	4571.73
970.571	4542.8
970.872	4580.32
971.174	4507.55
971.475	4482.92
971.776	4484.73
972.077	4485.18
972.378	4429.13
972.679	4479.3
972.98	4467.55
973.281	4446.54
973.582	4349.82
973.883	4336.26
974.183	4331.96
974.484	4341.23
974.785	4275.01
975.085	4313.88
975.386	4315.24
975.686	4252.64
975.986	4249.03
976.287	4193.89
976.587	4196.82
976.887	4191.85
977.187	4174
977.487	4136.94
977.787	4133.32
978.087	4103.27
978.387	4094.23
978.687	4045.42
978.987	4054.68
979.286	4054.23
979.586	3996.83
979.885	3986.66
980.185	3943.27
980.484	3954.57
980.784	3916.15
981.083	3898.75
981.382	3859.66
981.682	3869.83
981.981	3847.46
982.28	3856.95
982.579	3834.8
982.878	3829.83
983.177	3789.15
983.475	3781.02
983.774	3745.09
984.073	3758.87
984.372	3679.32
984.67	3717.74
984.969	3743.96
985.267	3685.2
985.566	3668.48
985.864	3631.42
986.162	3614.24
986.461	3602.04
986.759	3583.96
987.057	3560.46
987.355	3557.97
987.653	3551.87
987.951	3495.15
988.249	3502.61
988.547	3476.39
988.844	3480.69
989.142	3454.25
989.44	3430.07
989.737	3434.13
990.035	3422.83
990.332	3386.45
990.63	3380.8
990.927	3339.22
991.224	3335.38
991.521	3304.87
991.819	3259.67
992.116	3280.92
992.413	3325.66
992.71	3241.14
993.006	3238.88
993.303	3237.53
993.6	3221.71
993.897	3164.54
994.193	3190.52
994.49	3155.04
994.787	3103.97
995.083	3118.66
995.379	3096.51
995.676	3081.6
995.972	3064.2
996.268	3035.05
996.565	3037.99
996.861	3058.78
997.157	3016.52
997.453	2971.32
997.749	3017.42
998.044	2979
998.34	2938.33
998.636	2962.05
998.932	2941.04
999.227	2920.25
999.523	2879.12
999.818	2858.33
1000.114	2828.95
1000.409	2792.12
1000.704	2798.22
1001	2783.53
1001.295	2797.31
1001.59	2781.49
1001.885	2754.15
1002.18	2746.47
1002.475	2737.43
1002.77	2723.19
1003.065	2659.24
1003.359	2698.33
1003.654	2694.72
1003.949	2646.58
1004.243	2619.01
1004.538	2639.58
1004.832	2606.58
1005.127	2606.81
1005.421	2532.91
1005.715	2575.4
1006.009	2573.82
1006.304	2507.15
1006.598	2502.18
1006.892	2496.98
1007.186	2494.5
1007.48	2474.38
1007.773	2495.17
1008.067	2432.13
1008.361	2434.39
1008.655	2423.31
1008.948	2392.58
1009.242	2364.1
1009.535	2376.53
1009.829	2348.74
1010.122	2331.79
1010.415	2305.12
1010.708	2299.02
1011.001	2299.7
1011.295	2279.59
1011.588	2268.06
1011.881	2257.67
1012.173	2245.01
1012.466	2215.18
1012.759	2219.25
1013.052	2195.3
1013.344	2184.45
1013.637	2166.82
1013.93	2150.78
1014.222	2132.92
1014.514	2117.11
1014.807	2127.73
1015.099	2131.57
1015.391	2088.86
1015.683	2095.64
1015.976	2077.11
1016.268	2046.15
1016.56	2053.6
1016.851	2049.76
1017.143	1995.98
1017.435	2003.21
1017.727	2003.89
1018.018	1977.22
1018.31	1963.44
1018.602	1972.7
1018.893	1919.14
1019.185	1908.3
1019.476	1898.35
1019.767	1898.35
1020.058	1878.47
1020.35	1859.71
1020.641	1849.99
1020.932	1847.28
1021.223	1833.72
1021.514	1812.03
1021.804	1799.6
1022.095	1774.52
1022.386	1757.11
1022.677	1739.94
1022.967	1763.67
1023.258	1726.83
1023.548	1699.04
1023.839	1707.85
1024.129	1714.63
1024.419	1709.66
1024.709	1675.54
1025	1677.34
1025.29	1667.17
1025.58	1676.44
1025.87	1641.41
1026.16	1628.08
1026.449	1605.03
1026.739	1593.05
1027.029	1604.12
1027.319	1585.59
1027.608	1584.46
1027.898	1550.79
1028.187	1546.05
1028.477	1517.35
1028.766	1515.31
1029.055	1503.79
1029.344	1489.78
1029.634	1493.84
1029.923	1512.15
1030.212	1460.63
1030.501	1445.94
1030.79	1448.42
1031.078	1398.71
1031.367	1447.52
1031.656	1412.49
1031.945	1395.32
1032.233	1386.5
1032.522	1387.41
1032.81	1409.33
1033.099	1368.2
1033.387	1403.45
1033.675	1344.7
1033.963	1345.15
1034.251	1345.6
1034.54	1291.59
1034.828	1317.35
1035.116	1298.37
1035.403	1295.21
1035.691	1282.33
1035.979	1249.56
1036.267	1269.9
1036.554	1246.85
1036.842	1267.86
1037.129	1227.19
1037.417	1227.19
1037.704	1232.38
1037.992	1211.59
1038.279	1207.52
1038.566	1214.08
1038.853	1214.08
1039.14	1214.08
