Data from breadboard_black_back_FLMS001491_00044.txt Node
Date: Wed Feb 08 10:50:26 GMT 2017
User: dcchb
Spectrometer: FLMS00149
Trigger mode: 0
Integration Time (sec): 2.000000E-2
Scans to average: 10
Electric dark correction enabled: true
Nonlinearity correction enabled: false
Boxcar width: 0
XAxis mode: Wavelengths
Number of Pixels in Spectrum: 2048
>>>>>Begin Spectral Data<<<<<
341.393	-12.56
341.776	-12.56
342.16	-12.56
342.543	-50.75
342.927	-65.89
343.31	-65.21
343.693	-68.83
344.077	-47.36
344.46	-69.05
344.843	-51.2
345.226	-66.34
345.61	-41.48
345.993	-23.63
346.376	1.23
346.759	12.53
347.142	27.67
347.525	41.91
347.908	60.44
348.291	68.57
348.674	101.79
349.057	118.97
349.44	123.26
349.823	143.15
350.206	150.38
350.588	201.22
350.971	229.02
351.354	232.64
351.737	267.89
352.119	250.04
352.502	283.03
352.884	287.32
353.267	305.63
353.65	297.04
354.032	295.23
354.414	316.93
354.797	320.32
355.179	345.63
355.562	344.72
355.944	340.43
356.326	359.41
356.709	357.38
357.091	357.83
357.473	380.88
357.855	369.35
358.238	360.99
358.62	356.47
359.002	367.77
359.384	381.11
359.766	354.89
360.148	353.76
360.53	361.9
360.912	359.64
361.294	339.52
361.676	366.19
362.057	358.96
362.439	355.57
362.821	355.34
363.203	339.75
363.584	334.33
363.966	348.79
364.348	338.85
364.729	357.38
365.111	350.37
365.493	362.35
365.874	360.99
366.256	336.59
366.637	332.29
367.019	347.66
367.4	331.16
367.781	335.23
368.163	342.46
368.544	354.44
368.925	351.05
369.306	349.69
369.688	359.19
370.069	341.56
370.45	365.51
370.831	360.54
371.212	368
371.593	348.79
371.974	357.15
372.355	353.31
372.736	335.91
373.117	363.93
373.498	348.79
373.879	360.77
374.26	345.85
374.641	370.94
375.021	362.35
375.402	364.61
375.783	370.71
376.163	370.03
376.544	375.46
376.925	379.07
377.305	368.9
377.686	371.61
378.066	395.34
378.447	377.49
378.827	377.94
379.208	393.76
379.588	419.3
379.968	390.6
380.349	387.21
380.729	389.47
381.109	384.5
381.489	428.56
381.87	401.9
382.25	396.02
382.63	389.24
383.01	388.79
383.39	410.71
383.77	416.13
384.15	420.65
384.53	423.14
384.91	435.79
385.29	419.3
385.67	414.78
386.049	436.92
386.429	444.38
386.809	463.82
387.189	434.89
387.568	446.41
387.948	438.73
388.328	449.8
388.707	466.3
389.087	463.36
389.466	455.91
389.846	476.7
390.225	452.74
390.605	464.49
390.984	473.31
391.363	474.66
391.743	488.9
392.122	501.1
392.501	497.94
392.881	490.71
393.26	504.72
393.639	523.02
394.018	503.81
394.397	522.8
394.776	520.09
395.155	524.6
395.534	534.1
395.913	537.26
396.292	520.09
396.671	538.84
397.05	553.3
397.429	542.23
397.808	537.71
398.186	542.46
398.565	531.38
398.944	532.06
399.323	553.53
399.701	571.16
400.08	561.44
400.458	595.11
400.837	598.28
401.215	583.13
401.594	599.41
401.972	601.89
402.351	607.09
402.729	600.76
403.107	610.93
403.486	607.99
403.864	625.17
404.242	605.28
404.62	646.41
404.999	627.2
405.377	625.39
405.755	645.51
406.133	662
406.511	672.62
406.889	655.45
407.267	664.71
407.645	689.57
408.023	712.85
408.401	708.78
408.779	696.58
409.156	729.12
409.534	714.2
409.912	727.54
410.29	742.23
410.667	740.42
411.045	747.2
411.422	763.47
411.8	758.05
412.178	776.12
412.555	779.06
412.933	806.41
413.31	789
413.687	817.93
414.065	843.01
414.442	819.51
414.819	835.56
415.197	844.37
415.574	847.99
415.951	848.21
416.328	847.99
416.705	858.16
417.082	867.19
417.46	878.72
417.837	901.32
418.214	902.9
418.591	905.39
418.967	901.77
419.344	923.24
419.721	926.18
420.098	930.7
420.475	962.79
420.852	964.82
421.228	981.32
421.605	963.92
421.982	970.92
422.358	1013.86
422.735	1008.66
423.111	1002.56
423.488	1028.77
423.864	1036.46
424.241	1023.35
424.617	1048.21
424.994	1070.13
425.37	1041.88
425.746	1094.31
426.123	1102.22
426.499	1126.4
426.875	1119.17
427.251	1132.27
427.627	1149.9
428.003	1159.39
428.379	1177.02
428.756	1175.89
429.132	1193.06
429.507	1218.6
429.883	1226.51
430.259	1271.7
430.635	1278.26
431.011	1264.7
431.387	1311.25
431.763	1321.65
432.138	1335.43
432.514	1325.71
432.89	1334.3
433.265	1386.5
433.641	1407.97
434.016	1394.41
434.392	1442.77
434.767	1425.6
435.143	1437.35
435.518	1451.13
435.894	1475.31
436.269	1483.9
436.644	1488.87
437.02	1501.3
437.395	1546.05
437.77	1553.5
438.145	1571.13
438.52	1562.54
438.895	1613.16
439.271	1585.37
439.646	1652.71
440.021	1652.94
440.395	1655.87
440.77	1648.42
441.145	1667.85
441.52	1688.19
441.895	1693.61
442.27	1741.97
442.645	1723.22
443.019	1744.69
443.394	1755.08
443.769	1764.35
444.143	1786.27
444.518	1793.5
444.892	1801.86
445.267	1790.56
445.641	1824.46
446.016	1823.78
446.39	1840.28
446.764	1882.76
447.139	1854.97
447.513	1892.25
447.887	1904.46
448.262	1881.18
448.636	1898.81
449.01	1950.56
449.384	1968.41
449.758	1993.94
450.132	1988.3
450.506	1973.83
450.88	2012.02
451.254	2054.73
451.628	2042.98
452.002	2062.42
452.376	2103.55
452.75	2128.86
453.123	2153.71
453.497	2170.21
453.871	2176.99
454.244	2211.34
454.618	2222.87
454.992	2270.32
455.365	2271.23
455.739	2327.27
456.112	2356.65
456.486	2332.24
456.859	2393.93
457.232	2422.63
457.606	2445.68
457.979	2461.28
458.352	2492.91
458.725	2569.97
459.099	2557.32
459.472	2599.8
459.845	2622.4
460.218	2661.05
460.591	2677.54
460.964	2673.47
461.337	2770.2
461.71	2793.92
462.083	2832.34
462.456	2856.75
462.829	2854.94
463.201	2957.99
463.574	2943.07
463.947	2957.31
464.32	3045.44
464.692	3072.11
465.065	3129.28
465.438	3122.73
465.81	3168.38
466.183	3166.12
466.555	3260.8
466.928	3289.5
467.3	3283.85
467.672	3346.23
468.045	3415.15
468.417	3445.66
468.789	3468.03
469.161	3510.52
469.534	3568.14
469.906	3655.82
470.278	3662.15
470.65	3733.11
471.022	3770.4
471.394	3828.7
471.766	3868.92
472.138	3927.45
472.51	4029.6
472.882	4080.67
473.253	4134
473.625	4206.09
473.997	4252.64
474.369	4284.96
474.74	4399.76
475.112	4439.3
475.484	4539.41
475.855	4575.35
476.227	4591.62
476.598	4714.1
476.97	4809.24
477.341	4898.95
477.713	4927.43
478.084	4985.05
478.455	5101.66
478.827	5097.37
479.198	5369.22
479.569	5286.06
479.94	5468.2
480.311	5541.87
480.682	5641.31
481.053	5788.65
481.424	5850.34
481.795	5938.7
482.166	6005.59
482.537	6034.29
482.908	6229.31
483.279	6298.69
483.65	6383.21
484.021	6522.19
484.391	6573.94
484.762	6667.27
485.133	6724.67
485.503	6810.77
485.874	6915.17
486.244	6952.23
486.615	7188.84
486.985	7227.93
487.356	7307.48
487.726	7424.08
488.097	7559.9
488.467	7627.02
488.837	7769.84
489.207	7810.51
489.578	7957.63
489.948	8016.16
490.318	8139.09
490.688	8199.21
491.058	8386.77
491.428	8367.56
491.798	8497.95
492.168	8753.32
492.538	8671.06
492.908	8793.77
493.278	8908.34
493.648	8973.42
494.017	9031.05
494.387	9172.06
494.757	9293.64
495.126	9392.85
495.496	9395.11
495.866	9445.5
496.235	9548.55
496.605	9657.25
496.974	9693.4
497.344	9845.04
497.713	9921.87
498.082	9968.65
498.452	10100.62
498.821	10129.32
499.19	10241.19
499.559	10278.02
499.928	10335.65
500.298	10477.11
500.667	10541.06
501.036	10427.62
501.405	10672.36
501.774	10659.71
502.143	10754.17
502.512	10865.58
502.88	10926.59
503.249	10969.53
503.618	10992.13
503.987	11027.61
504.356	11243.42
504.724	11239.13
505.093	11294.49
505.462	11332.68
505.83	11487.93
506.199	11522.51
506.567	11647.48
506.936	11698.32
507.304	11873.68
507.672	11905.55
508.041	11981.03
508.409	12068.48
508.777	12144.86
509.145	12272.54
509.514	12289.95
509.882	12414.46
510.25	12486.32
510.618	12545.53
510.986	12612.87
511.354	12726.77
511.722	12816.03
512.09	12981.23
512.458	12968.8
512.826	13056.7
513.193	13154.78
513.561	13246.08
513.929	13381.22
514.297	13521.33
514.664	13533.53
515.032	13630.7
515.4	13801.77
515.767	13849.23
516.135	13964.7
516.502	13903.91
516.869	14144.59
517.237	14270.91
517.604	14172.38
517.972	14425.71
518.339	14549.77
518.706	14498.93
519.073	14598.13
519.44	14800.16
519.808	14926.94
520.175	14870.22
520.542	15147.05
520.909	15212.13
521.276	15241.73
521.643	15516.3
522.009	15487.15
522.376	15595.17
522.743	15737.09
523.11	15930.08
523.477	16061.82
523.843	16144.53
524.21	16395.15
524.577	16464.3
524.943	16588.36
525.31	16599.21
525.676	16778.41
526.043	16911.74
526.409	16995.81
526.776	17179.53
527.142	17217.5
527.508	17408.91
527.874	17522.35
528.241	17562.57
528.607	17784.26
528.973	17950.36
529.339	17828.78
529.705	18058.38
530.071	18200.52
530.437	18292.5
530.803	18421.54
531.169	18569.55
531.535	18515.09
531.901	18652.04
532.267	18786.95
532.632	18865.37
532.998	18929.32
533.364	19004.57
533.73	19121.86
534.095	19230.1
534.461	19353.49
534.826	19463.77
535.192	19488.17
535.557	19658.79
535.923	19617.44
536.288	19778.79
536.653	19909.86
537.019	19876.64
537.384	20052
537.749	20137.65
538.114	20141.26
538.479	20252.22
538.845	20312.11
539.21	20275.05
539.575	20379.9
539.94	20495.38
540.305	20593.91
540.67	20594.81
541.034	20731.53
541.399	20926.78
541.764	20890.62
542.129	20943.5
542.494	21030.05
542.858	21151.86
543.223	21015.14
543.587	21254.91
543.952	21185.98
544.316	21407.9
544.681	21390.5
545.045	21573.09
545.41	21566.31
545.774	21755.01
546.138	21650.38
546.503	21794.78
546.867	21760.88
547.231	22086.75
547.595	22075.68
547.959	22074.77
548.324	22139.86
548.688	22240.19
549.052	22355.44
549.416	22377.14
549.779	22490.58
550.143	22514.76
550.507	22646.96
550.871	22766.05
551.235	22712.04
551.599	22877.92
551.962	23013.96
552.326	22957.24
552.689	23272.71
553.053	23210.11
553.417	23278.36
553.78	23512.02
554.143	23405.59
554.507	23593.83
554.87	23654.62
555.234	23911.11
555.597	23808.96
555.96	23966.25
556.323	24082.4
556.686	24095.74
557.05	24328.5
557.413	24319.46
557.776	24393.58
558.139	24535.27
558.502	24538.66
558.865	24587.7
559.228	24820.92
559.59	24985.2
559.953	24970.52
560.316	25204.18
560.679	25266.1
561.041	25431.29
561.404	25558.97
561.767	25646.2
562.129	25581.57
562.492	25942.02
562.854	25974.78
563.217	25946.31
563.579	26072.63
563.941	26245.51
564.304	26366.41
564.666	26501.32
565.028	26518.05
565.39	26650.92
565.753	26809.34
566.115	26946.96
566.477	27041.65
566.839	27115.54
567.201	27275.31
567.563	27294.3
567.925	27554.18
568.287	27427.17
568.648	27573.84
569.01	27706.26
569.372	27832.59
569.734	27861.06
570.095	28022.19
570.457	28216.08
570.819	28293.59
571.18	28319.81
571.542	28510.99
571.903	28524.09
572.265	28589.86
572.626	28648.16
572.987	28623.98
573.349	28767.93
573.71	28955.95
574.071	29026.68
574.432	29084.31
574.794	29240.23
575.155	29233
575.516	29132.89
575.877	29299.44
576.238	29457.86
576.599	29595.93
576.96	29571.52
577.32	29569.94
577.681	29617.63
578.042	29833.44
578.403	29774.01
578.763	29655.36
579.124	29842.25
579.485	29947.11
579.845	29993.43
580.206	29996.82
580.566	29991.4
580.927	29955.92
581.287	30209.02
581.648	30091.96
582.008	30202.69
582.368	30107.33
582.728	30256.93
583.089	30235.91
583.449	30176.71
583.809	30181.9
584.169	30226.87
584.529	30229.59
584.889	30405.63
585.249	30228
585.609	30216.25
585.969	30392.75
586.329	30279.75
586.688	30480.43
587.048	30284.27
587.408	30343.26
587.768	30419.19
588.127	30328.34
588.487	30311.62
588.846	30496.47
589.206	30236.37
589.565	30354.78
589.925	30445.85
590.284	30407.43
590.643	30510.94
591.003	30530.6
591.362	30643.59
591.721	30580.09
592.08	30577.83
592.44	30560.65
592.799	30510.94
593.158	30450.6
593.517	30475.91
593.876	30751.61
594.235	30615.11
594.593	30689.69
594.952	30550.26
595.311	30634.1
595.67	30635.9
596.029	30937.82
596.387	30851.72
596.746	30853.07
597.104	30726.75
597.463	30765.17
597.822	30920.87
598.18	30841.55
598.538	30735.34
598.897	31044.03
599.255	30715.9
599.613	31114.76
599.972	31061.2
600.33	31025.05
600.688	30972.39
601.046	31154.76
601.404	31164.7
601.762	31138.04
602.12	31218.71
602.478	31149.11
602.836	31317.47
603.194	31131.94
603.552	31138.26
603.91	31169.22
604.268	31209.45
604.625	31231.14
604.983	31324.47
605.341	31330.12
605.698	31458.25
606.056	31451.48
606.413	31312.27
606.771	31522.21
607.128	31620.96
607.485	31446.28
607.843	31557.69
608.2	31728.53
608.557	31836.55
608.914	31656.22
609.272	31900.73
609.629	31830
609.986	31932.14
610.343	31815.08
610.7	32035.87
611.057	32100.5
611.414	31924.68
611.771	32053.95
612.127	31948.86
612.484	32032.02
612.841	32262.08
613.198	32143.43
613.554	32076.32
613.911	32264.56
614.267	32338.91
614.624	32171.23
614.98	32359.93
615.337	32525.57
615.693	32444.22
616.05	32454.39
616.406	32604.21
616.762	32478.79
617.118	32371.68
617.475	32521.5
617.831	32506.59
618.187	32624.1
618.543	32712.23
618.899	32800.82
619.255	32757.88
619.611	32721.95
619.967	32891.21
620.323	32777.77
620.678	32766.02
621.034	32641.27
621.39	32683.53
621.746	32659.35
622.101	32973.92
622.457	32791.1
622.812	32887.37
623.168	32926.24
623.523	32853.92
623.879	32932.11
624.234	32641.5
624.589	32805.79
624.945	32847.6
625.3	32980.93
625.655	33048.95
626.01	32934.6
626.365	32890.53
626.72	32932.57
627.075	32848.95
627.43	32880.36
627.785	32783.42
628.14	32880.14
628.495	32923.75
628.85	32728.28
629.205	32634.95
629.559	32877.43
629.914	32735.51
630.269	32790.2
630.623	32674.72
630.978	32629.07
631.332	32756.75
631.687	32744.55
632.041	32644.66
632.396	32689.18
632.75	32508.62
633.104	32576.42
633.459	32416.42
633.813	32536.42
634.167	32457.1
634.521	32374.16
634.875	32407.16
635.229	32389.08
635.583	32239.7
635.937	32271.79
636.291	32302.98
636.645	32190.44
636.999	32180.72
637.352	32224.11
637.706	32124.45
638.06	32222.3
638.413	32078.13
638.767	31921.75
639.121	32096.43
639.474	31818.7
639.828	31938.02
640.181	31990.44
640.534	31871.35
640.888	31702.77
641.241	31710.23
641.594	31623
641.947	31755.65
642.301	31608.53
642.654	31683.33
643.007	31588.19
643.36	31592.26
643.713	31466.62
644.066	31691.69
644.419	31506.62
644.771	31256.45
645.124	30960.87
645.477	30907.31
645.83	30651.04
646.182	30595.45
646.535	30501.22
646.888	30486.75
647.24	30228.46
647.593	30450.37
647.945	30395.91
648.298	30269.81
648.65	30126.09
649.002	30069.36
649.355	30351.62
649.707	30336.02
650.059	30375.8
650.411	30697.37
650.763	30701.89
651.115	30990.47
651.467	30900.3
651.819	30888.33
652.171	30842
652.523	30722.45
652.875	30671.83
653.227	30557.94
653.578	30800.87
653.93	30749.35
654.282	30472.29
654.633	30507.09
654.985	30487.88
655.337	30564.04
655.688	30482.01
656.039	30640.42
656.391	30286.53
656.742	30418.51
657.094	30458.96
657.445	30498.51
657.796	30460.31
658.147	30441.33
658.498	30319.98
658.849	30357.72
659.2	30435.46
659.551	30317.72
659.902	30407.21
660.253	30336.25
660.604	30372.63
660.955	30264.39
661.306	30330.83
661.656	30243.6
662.007	30213.77
662.358	30135.35
662.708	30173.54
663.059	30230.26
663.409	29970.61
663.76	30152.3
664.11	30184.62
664.461	30114.79
664.811	30096.71
665.161	30071.17
665.511	30074.11
665.862	30040.89
666.212	30087.9
666.562	30163.37
666.912	30022.36
667.262	29960.44
667.612	29983.27
667.962	29993.21
668.312	30006.32
668.662	30178.74
669.011	29978.97
669.361	29881.12
669.711	29950.5
670.06	30018.97
670.41	29854.68
670.76	29747.34
671.109	29859.43
671.459	29757.96
671.808	29788.24
672.157	29861.91
672.507	29651.3
672.856	29607.91
673.205	29787.34
673.554	29810.61
673.904	29672.09
674.253	29841.35
674.602	29750.28
674.951	29307.8
675.3	29134.02
675.649	29627.57
675.998	29482.04
676.346	29590.96
676.695	29635.7
677.044	29395.48
677.393	29378.76
677.741	29410.17
678.09	29364.52
678.438	29439.55
678.787	29282.94
679.135	29253.12
679.484	29149.39
679.832	29249.27
680.181	29149.61
680.529	29080.92
680.877	29152.78
681.225	29018.32
681.573	29315.03
681.922	29002.05
682.27	28923.41
682.618	28961.15
682.966	28802.96
683.314	28997.08
683.661	28724.09
684.009	28663.3
684.357	28692.23
684.705	28611.1
685.053	28655.84
685.4	28531.33
685.748	28468.28
686.095	28431.22
686.443	28287.94
686.79	28249.53
687.138	28431.44
687.485	28305.12
687.832	28161.17
688.18	28103.99
688.527	28160.49
688.874	27997.33
689.221	27970.44
689.568	27824.23
689.915	27820.38
690.262	27812.7
690.609	27838.69
690.956	27605.25
691.303	27673.27
691.65	27511.69
691.997	27413.84
692.344	27330.91
692.69	27320.28
693.037	27236.44
693.383	27017.69
693.73	27064.7
694.077	27023.8
694.423	27010.46
694.769	26905.83
695.116	26842.33
695.462	26940.63
695.808	26823.12
696.155	26779.06
696.501	26522.57
696.847	26604.82
697.193	26338.39
697.539	26482.79
697.885	26266.53
698.231	26216.36
698.577	26254.78
698.923	26162.8
699.269	26029.92
699.614	25878.51
699.96	25823.37
700.306	25875.8
700.651	25676.49
700.997	25666.32
701.342	25699.99
701.688	25544.06
702.033	25382.48
702.379	25514.68
702.724	25475.36
703.069	25419.32
703.415	25134.35
703.76	25232.88
704.105	25131.19
704.45	25099.1
704.795	25006
705.14	25004.19
705.485	24855.72
705.83	24818.88
706.175	24828.6
706.52	24785.66
706.865	24626.57
707.209	24666.34
707.554	24556.74
707.899	24562.62
708.243	24495.27
708.588	24365.79
708.932	24255.73
709.277	24243.53
709.621	24253.02
709.966	24060.48
710.31	24160.37
710.654	23870.88
710.998	23887.61
711.342	23936.42
711.687	23901.62
712.031	23814.16
712.375	23720.15
712.719	23716.99
713.063	23711.34
713.407	23789.76
713.75	23629.99
714.094	23572.36
714.438	23464.11
714.782	23516.77
715.125	23298.24
715.469	23349.77
715.812	23229.54
716.156	23154.97
716.499	23098.7
716.843	23359.03
717.186	23099.38
717.53	23197.68
717.873	23260.96
718.216	23076.78
718.559	22985.03
718.902	22845.83
719.246	22935.99
719.589	22699.84
719.932	22752.72
720.275	22742.78
720.617	22738.26
720.96	22712.27
721.303	22719.28
721.646	22643.35
721.989	22424.14
722.331	22566.06
722.674	22411.49
723.016	22454.2
723.359	22477.02
723.701	22456.46
724.044	22335.56
724.386	22231.15
724.729	22266.63
725.071	22254.88
725.413	22236.35
725.755	22214.2
726.097	22115.9
726.439	21969.92
726.782	22015.57
727.124	22054.66
727.465	22012.63
727.807	22011.05
728.149	21765.85
728.491	21823.03
728.833	21934.89
729.175	21811.05
729.516	21752.97
729.858	21718.85
730.199	21734.22
730.541	21671.17
730.882	21599.53
731.224	21586.65
731.565	21482.25
731.906	21463.04
732.248	21484.28
732.589	21493.55
732.93	21354.34
733.271	21388.01
733.612	21397.73
733.953	21279.77
734.294	21135.14
734.635	21226.89
734.976	21280.67
735.317	21199.54
735.658	21225.76
735.999	21153.21
736.339	21101.69
736.68	21065.31
737.021	20904.86
737.361	20934.69
737.702	21006.55
738.042	20964.97
738.383	20935.14
738.723	20946.21
739.063	20869.15
739.404	20865.99
739.744	20759.55
740.084	20650.86
740.424	20695.83
740.764	20663.51
741.104	20621.03
741.444	20596.62
741.784	20511.88
742.124	20537.86
742.464	20568.6
742.804	20569.73
743.143	20525.43
743.483	20440.69
743.823	20438.66
744.162	20376.06
744.502	20270.98
744.841	20288.15
745.181	20358.89
745.52	20239.57
745.86	20242.28
746.199	20202.28
746.538	20226.46
746.877	20190.75
747.216	20131.55
747.556	20029.4
747.895	20032.34
748.234	19929.29
748.573	19924.09
748.911	19895.85
749.25	19991.66
749.589	19795.74
749.928	19816.08
750.267	19791.22
750.605	19730.88
750.944	19718
751.283	19609.98
751.621	19694.72
751.96	19460.6
752.298	19548.96
752.636	19494.73
752.975	19425.35
753.313	19307.84
753.651	19485.91
753.989	19174.74
754.327	19304
754.666	19217.9
755.004	19148.52
755.342	19189.88
755.679	19155.98
756.017	19124.12
756.355	19109.2
756.693	19008.41
757.031	18976.78
757.368	18907.85
757.706	18892.48
758.044	18851.81
758.381	18828.53
758.719	18692.04
759.056	18743.11
759.394	18659.72
759.731	18587.18
760.068	18449.11
760.405	18561.87
760.743	18402.1
761.08	18455.43
761.417	18370.46
761.754	18254.76
762.091	18273.06
762.428	18208.89
762.765	18011.6
763.102	18165.5
763.438	18010.92
763.775	17885.05
764.112	17927.54
764.449	17986.52
764.785	17827.2
765.122	17677.15
765.458	17612.97
765.795	17604.83
766.131	17592.18
766.467	17567.77
766.804	17393.31
767.14	17367.78
767.476	17379.3
767.812	17280.32
768.148	17342.69
768.485	17230.83
768.821	17019.09
769.157	17041.91
769.492	17043.04
769.828	16991.06
770.164	16885.98
770.5	16757.62
770.836	16771.18
771.171	16694.35
771.507	16660.68
771.842	16582.26
772.178	16545.2
772.513	16548.36
772.849	16454.13
773.184	16318.77
773.519	16360.8
773.855	16342.72
774.19	16221.14
774.525	16182.5
774.86	16145.21
775.195	16107.7
775.53	15930.3
775.865	15939.79
776.2	15870.87
776.535	15684.88
776.87	15690.76
777.205	15643.53
777.539	15587.03
777.874	15582.74
778.209	15453.48
778.543	15487.6
778.878	15429.52
779.212	15328.51
779.547	15399.02
779.881	15293.93
780.215	15197.67
780.55	15277.89
780.884	15126.93
781.218	15113.15
781.552	15091.23
781.886	14968.52
782.22	14840.39
782.554	14829.54
782.888	14687.17
783.222	14623.67
783.556	14602.2
783.889	14622.09
784.223	14458.93
784.557	14485.14
784.89	14408.53
785.224	14420.06
785.557	14309.1
785.891	14291.7
786.224	14185.49
786.558	14201.53
786.891	14152.04
787.224	14025.04
787.557	14037.92
787.891	13996.12
788.224	13885.61
788.557	13992.05
788.89	13840.64
789.223	13871.6
789.556	13760.87
789.888	13725.84
790.221	13690.36
790.554	13597.26
790.887	13594.77
791.219	13554.54
791.552	13556.58
791.884	13450.59
792.217	13416.47
792.549	13345.74
792.882	13293.53
793.214	13264.16
793.546	13270.71
793.879	13168.11
794.211	13074.11
794.543	13099.87
794.875	13061.9
795.207	13058.74
795.539	13021.9
795.871	12988.01
796.203	12835.92
796.535	12819.65
796.867	12782.36
797.198	12760.44
797.53	12688.13
797.862	12623.5
798.193	12727.45
798.525	12510.73
798.856	12584.17
799.188	12502.82
799.519	12480.9
799.85	12392.77
800.182	12423.5
800.513	12364.07
800.844	12239.78
801.175	12371.52
801.506	12275.26
801.837	12217.63
802.168	12154.81
802.499	12115.49
802.83	12135.6
803.161	12018.99
803.491	12070.29
803.822	12018.54
804.153	12007.47
804.483	11885.89
804.814	11875.04
805.145	11888.83
805.475	11836.62
805.805	11778.55
806.136	11726.8
806.466	11765.21
806.796	11720.92
807.126	11631.66
807.457	11713.01
807.787	11641.6
808.117	11550.3
808.447	11579.46
808.777	11545.33
809.107	11451.1
809.436	11469.4
809.766	11460.81
810.096	11422.4
810.426	11381.27
810.755	11294.72
811.085	11395.05
811.414	11196.87
811.744	11180.82
812.073	11122.74
812.403	11165.68
812.732	11183.53
813.061	11158
813.39	11077.55
813.719	11070.99
814.049	11115.06
814.378	11045.46
814.707	11026.02
815.036	10940.6
815.365	10967.95
815.693	10861.96
816.022	10871.23
816.351	10809.08
816.68	10747.61
817.008	10711.23
817.337	10667.16
817.665	10657.45
817.994	10693.38
818.322	10673.04
818.651	10614.06
818.979	10599.14
819.307	10654.06
819.636	10542.19
819.964	10494.74
820.292	10582.42
820.62	10509.2
820.948	10503.33
821.276	10549.43
821.604	10515.08
821.932	10566.37
822.259	10534.51
822.587	10504
822.915	10494.74
823.243	10483.21
823.57	10491.8
823.898	10477.56
824.225	10514.17
824.553	10487.51
824.88	10458.35
825.207	10521.63
825.535	10436.89
825.862	10453.61
826.189	10469.2
826.516	10528.64
826.843	10496.09
827.17	10495.64
827.497	10569.99
827.824	10502.42
828.151	10505.59
828.478	10531.8
828.805	10572.48
829.131	10432.14
829.458	10449.99
829.785	10420.39
830.111	10454.29
830.438	10485.47
830.764	10450.45
831.09	10341.07
831.417	10416.77
831.743	10449.77
832.069	10380.16
832.395	10428.07
832.722	10407.51
833.048	10344.01
833.374	10393.95
833.7	10315.76
834.026	10373.61
834.351	10348.53
834.677	10276.66
835.003	10440.5
835.329	10352.82
835.654	10330.9
835.98	10248.42
836.306	10363.89
836.631	10266.95
836.956	10280.28
837.282	10273.73
837.607	10169.1
837.932	10223.78
838.258	10131.13
838.583	10235.31
838.908	10123.45
839.233	10113.51
839.558	10073.51
839.883	10061.53
840.208	10066.27
840.533	10054.3
840.858	9996.22
841.182	10039.38
841.507	10066.5
841.832	9924.58
842.156	9952.83
842.481	9960.74
842.805	9887.3
843.13	9911.25
843.454	9874.87
843.778	9883.91
844.103	9796.23
844.427	9846.39
844.751	9815.21
845.075	9782.89
845.399	9735.21
845.723	9729.33
846.047	9706.96
846.371	9621.99
846.695	9646.85
847.019	9557.36
847.343	9574.76
847.666	9429.68
847.99	9398.04
848.313	9430.59
848.637	9398.27
848.96	9345.62
849.284	9382.68
849.607	9253.64
849.931	9235.34
850.254	9255.45
850.577	9101.33
850.9	9122.34
851.223	9058.62
851.546	8987.89
851.869	8972.97
852.192	8978.17
852.515	8956.25
852.838	8976.13
853.161	8949.47
853.483	8926.19
853.806	8822.24
854.129	8772.75
854.451	8754.44
854.774	8709.25
855.096	8660.44
855.419	8633.09
855.741	8629.25
856.063	8584.28
856.385	8557.16
856.708	8568.01
857.03	8527.78
857.352	8530.27
857.674	8515.58
857.996	8502.47
858.318	8444.85
858.64	8426.09
858.961	8418.63
859.283	8374.12
859.605	8362.82
859.926	8352.42
860.248	8337.73
860.57	8273.55
860.891	8291.18
861.212	8275.14
861.534	8235.36
861.855	8221.35
862.176	8215.7
862.498	8223.39
862.819	8219.09
863.14	8146.1
863.461	8117.4
863.782	8150.17
864.103	8141.35
864.424	8097.29
864.745	8150.39
865.065	8096.16
865.386	8085.31
865.707	8072.2
866.027	8070.62
866.348	8034.01
866.668	7980
866.989	8013.22
867.309	7964.86
867.63	7954.01
867.95	7963.96
868.27	7944.07
868.59	7890.74
868.91	7935.94
869.23	7970.74
869.55	7895.71
869.87	7893.22
870.19	7844.86
870.51	7809.84
870.83	7899.33
871.15	7828.37
871.469	7874.47
871.789	7774.58
872.109	7777.07
872.428	7739.78
872.748	7758.54
873.067	7761.48
873.386	7724.87
873.706	7712.44
874.025	7716.05
874.344	7662.72
874.663	7716.73
874.982	7753.12
875.301	7707.47
875.62	7698.43
875.939	7648.26
876.258	7692.1
876.577	7630.18
876.896	7618.66
877.214	7568.49
877.533	7608.94
877.852	7563.52
878.17	7591.09
878.489	7582.72
878.807	7541.14
879.125	7513.8
879.444	7561.48
879.762	7509.73
880.08	7527.81
880.398	7471.99
880.716	7458.89
881.034	7387.25
881.352	7514.7
881.67	7452.33
881.988	7457.53
882.306	7409.17
882.624	7400.81
882.941	7335.5
883.259	7304.77
883.577	7285.78
883.894	7314.93
884.212	7340.7
884.529	7326.91
884.846	7240.59
885.164	7292.11
885.481	7238.78
885.798	7235.84
886.115	7161.04
886.432	7190.87
886.75	7121.49
887.067	7233.36
887.383	7142.96
887.7	7175.73
888.017	7119.01
888.334	7112.91
888.651	7067.26
888.967	7071.33
889.284	7033.36
889.6	6990.2
889.917	6974.38
890.233	6964.44
890.55	6929.41
890.866	6927.6
891.182	6943.42
891.498	6885.79
891.815	6898.67
892.131	6796.53
892.447	6851.9
892.763	6823.2
893.079	6842.86
893.395	6742.97
893.71	6737.55
894.026	6734.84
894.342	6737.1
894.657	6700.49
894.973	6664.78
895.289	6688.06
895.604	6667.95
895.92	6596.76
896.235	6557.21
896.55	6567.84
896.865	6548.4
897.181	6569.19
897.496	6566.03
897.811	6511.79
898.126	6441.74
898.441	6438.12
898.756	6440.16
899.071	6450.55
899.386	6434.28
899.7	6350.67
900.015	6335.53
900.33	6298.24
900.644	6309.31
900.959	6319.03
901.273	6286.94
901.588	6272.02
901.902	6192.93
902.216	6187.73
902.531	6213.72
902.845	6160.61
903.159	6101.86
903.473	6111.8
903.787	6057.79
904.101	6034.52
904.415	6046.04
904.729	6055.53
905.042	5952.48
905.356	5949.77
905.67	6019.15
905.984	5961.3
906.297	5951.35
906.611	5872.94
906.924	5894.86
907.237	5896.89
907.551	5832.49
907.864	5783.22
908.177	5809.21
908.491	5775.54
908.804	5800.17
909.117	5757.46
909.43	5744.13
909.743	5689.67
910.056	5707.07
910.368	5658.93
910.681	5636.79
910.994	5610.35
911.307	5591.59
911.619	5532.61
911.932	5554.53
912.244	5544.81
912.557	5568.54
912.869	5450.13
913.181	5458.26
913.494	5455.55
913.806	5382.1
914.118	5381.88
914.43	5359.28
914.742	5359.96
915.054	5321.09
915.366	5358.15
915.678	5317.25
915.99	5233.63
916.302	5238.15
916.613	5234.09
916.925	5193.41
917.236	5200.64
917.548	5196.35
917.859	5146.18
918.171	5188.21
918.482	5127.87
918.794	5038.38
919.105	5037.93
919.416	5052.4
919.727	5026.86
920.038	5038.84
920.349	5047.2
920.66	4976.47
920.971	4972.17
921.282	4966.3
921.593	4877.71
921.903	4890.59
922.214	4891.04
922.525	4839.97
922.835	4801.1
923.146	4832.74
923.456	4801.33
923.767	4760.65
924.077	4746.19
924.387	4751.84
924.697	4736.92
925.008	4712.52
925.318	4665.06
925.628	4661.45
925.938	4668.22
926.248	4585.29
926.558	4607.21
926.867	4550.04
927.177	4495.12
927.487	4528.57
927.796	4502.81
928.106	4461
928.416	4509.13
928.725	4482.01
929.034	4473.43
929.344	4425.97
929.653	4400.89
929.962	4402.69
930.271	4406.54
930.581	4387.1
930.89	4295.35
931.199	4343.26
931.508	4295.81
931.817	4328.35
932.125	4293.32
932.434	4258.07
932.743	4235.02
933.051	4218.07
933.36	4176.71
933.669	4188.24
933.977	4197.73
934.286	4171.29
934.594	4139.43
934.902	4135.81
935.21	4067.79
935.519	4126.09
935.827	4095.13
936.135	4037.51
936.443	4049.94
936.751	3982.59
937.059	4002.25
937.367	3974.46
937.674	3970.84
937.982	3960.22
938.29	3933.1
938.597	3944.85
938.905	3932.42
939.213	3884.97
939.52	3844.29
939.827	3868.7
940.135	3842.26
940.442	3792.32
940.749	3807.91
941.056	3812.43
941.363	3769.04
941.67	3745.09
941.977	3785.76
942.284	3741.7
942.591	3715.71
942.898	3720.68
943.205	3705.54
943.511	3665.09
943.818	3669.61
944.125	3667.35
944.431	3616.73
944.738	3604.07
945.044	3622.38
945.35	3590.74
945.657	3562.72
945.963	3583.06
946.269	3544.64
946.575	3534.47
946.881	3536.05
947.187	3500.57
947.493	3474.58
947.799	3461.7
948.105	3455.6
948.41	3451.31
948.716	3409.27
949.022	3418.54
949.327	3394.36
949.633	3365.89
949.938	3345.55
950.244	3354.59
950.549	3325.21
950.854	3337.64
951.16	3359.11
951.465	3327.92
951.77	3298.32
952.075	3273.01
952.38	3248.15
952.685	3264.65
952.99	3242.5
953.294	3244.99
953.599	3171.09
953.904	3194.82
954.209	3150.52
954.513	3131.99
954.818	3160.02
955.122	3137.87
955.426	3149.85
955.731	3102.84
956.035	3110.98
956.339	3088.83
956.643	3084.54
956.948	3103.29
957.252	3059.45
957.556	3013.13
957.86	3037.31
958.163	3057.65
958.467	3009.29
958.771	3006.8
959.075	3014.48
959.378	2980.59
959.682	2954.37
959.985	2935.16
960.289	2948.72
960.592	2934.03
960.896	2918.44
961.199	2871.21
961.502	2875.5
961.805	2865.11
962.108	2827.37
962.411	2854.04
962.714	2836.41
963.017	2823.98
963.32	2827.82
963.623	2796.86
963.926	2773.36
964.228	2763.42
964.531	2740.82
964.833	2776.07
965.136	2731.55
965.438	2747.82
965.741	2722.06
966.043	2709.41
966.345	2709.18
966.648	2663.31
966.95	2689.52
967.252	2645.45
967.554	2614.72
967.856	2638.9
968.158	2597.32
968.46	2618.34
968.761	2598.9
969.063	2587.83
969.365	2600.03
969.666	2564.78
969.968	2536.98
970.269	2529.98
970.571	2561.84
970.872	2519.13
971.174	2534.27
971.475	2491.78
971.776	2519.13
972.077	2473.03
972.378	2466.25
972.679	2481.39
972.98	2443.65
973.281	2423.99
973.582	2481.84
973.883	2436.64
974.183	2400.26
974.484	2414.5
974.785	2401.62
975.085	2388.74
975.386	2405.69
975.686	2390.54
975.986	2352.35
976.287	2377.66
976.587	2373.14
976.887	2327.27
977.187	2367.27
977.487	2323.88
977.787	2299.93
978.087	2287.5
978.387	2288.85
978.687	2271.45
978.987	2284.11
979.286	2287.72
979.586	2278.46
979.885	2262.41
980.185	2244.11
980.484	2206.37
980.784	2212.7
981.083	2203.43
981.382	2224.45
981.682	2197.33
981.981	2192.81
982.28	2171.12
982.579	2153.94
982.878	2149.65
983.177	2129.99
983.475	2130.89
983.774	2090.44
984.073	2094.06
984.372	2125.01
984.67	2079.82
984.969	2090.21
985.267	2079.14
985.566	2084.79
985.864	2111
986.162	2071.68
986.461	2110.33
986.759	2063.1
987.057	2046.37
987.355	2041.18
987.653	2036.2
987.951	2000.5
988.249	2012.25
988.547	2004.79
988.844	1971.12
989.142	1982.87
989.44	1977.67
989.737	1958.47
990.035	1929.99
990.332	1933.61
990.63	1919.37
990.927	1925.47
991.224	1908.52
991.521	1907.17
991.819	1911.24
992.116	1909.65
992.413	1898.35
992.71	1864.68
993.006	1860.61
993.303	1845.93
993.6	1858.58
993.897	1852.25
994.193	1837.11
994.49	1832.59
994.787	1802.54
995.083	1819.03
995.379	1788.98
995.676	1778.58
995.972	1777.23
996.268	1799.83
996.565	1770
996.861	1741.3
997.157	1766.15
997.453	1754.63
997.749	1728.19
998.044	1740.17
998.34	1724.57
998.636	1712.37
998.932	1732.71
999.227	1699.94
999.523	1681.64
999.818	1682.77
1000.114	1673.5
1000.409	1662.65
1000.704	1670.34
1001	1653.61
1001.295	1634.86
1001.59	1638.02
1001.885	1643.67
1002.18	1614.07
1002.475	1620.17
1002.77	1618.59
1003.065	1592.37
1003.359	1579.49
1003.654	1563.67
1003.949	1558.93
1004.243	1553.96
1004.538	1544.24
1004.832	1564.58
1005.127	1544.47
1005.421	1498.14
1005.715	1500.85
1006.009	1488.42
1006.304	1533.84
1006.598	1507.18
1006.892	1510.12
1007.186	1492.26
1007.48	1448.2
1007.773	1461.98
1008.067	1465.6
1008.361	1478.93
1008.655	1453.17
1008.948	1441.19
1009.242	1434.86
1009.535	1420.17
1009.829	1408.88
1010.122	1406.84
1010.415	1405.71
1010.708	1395.99
1011.001	1358.26
1011.295	1388.31
1011.588	1358.71
1011.881	1351.02
1012.173	1333.4
1012.466	1348.76
1012.759	1352.83
1013.052	1348.76
1013.344	1340.63
1013.637	1349.22
1013.93	1329.56
1014.222	1275.77
1014.514	1298.6
1014.807	1332.49
1015.099	1297.01
1015.391	1275.09
1015.683	1280.74
1015.976	1274.19
1016.268	1245.94
1016.56	1239.39
1016.851	1234.42
1017.143	1215.66
1017.435	1230.57
1017.727	1250.91
1018.018	1249.11
1018.31	1206.85
1018.602	1207.07
1018.893	1196.9
1019.185	1164.81
1019.476	1194.19
1019.767	1174.31
1020.058	1174.31
1020.35	1146.96
1020.641	1133.4
1020.932	1138.6
1021.223	1124.36
1021.514	1102.44
1021.804	1125.94
1022.095	1123.46
1022.386	1098.15
1022.677	1119.84
1022.967	1120.3
1023.258	1102.44
1023.548	1102.44
1023.839	1104.48
1024.129	1077.36
1024.419	1059.96
1024.709	1061.99
1025	1084.82
1025.29	1044.37
1025.58	1051.37
1025.87	1065.16
1026.16	1045.5
1026.449	1027.42
1026.739	1031.71
1027.029	1006.4
1027.319	1007.08
1027.608	974.08
1027.898	991.94
1028.187	994.42
1028.477	998.49
1028.766	981.99
1029.055	970.24
1029.344	1005.72
1029.634	972.05
1029.923	966.18
1030.212	939.74
1030.501	942.22
1030.79	918.49
1031.078	949.23
1031.367	911.49
1031.656	930.02
1031.945	912.84
1032.233	913.75
1032.522	906.52
1032.81	932.96
1033.099	900.87
1033.387	885.73
1033.675	915.33
1033.963	844.14
1034.251	858.83
1034.54	892.28
1034.828	889.12
1035.116	875.1
1035.403	869.91
1035.691	850.7
1035.979	853.86
1036.267	867.42
1036.554	837.59
1036.842	824.48
1037.129	818.83
1037.417	825.84
1037.704	821.77
1037.992	803.47
1038.279	812.96
1038.566	804.15
1038.853	804.15
1039.14	804.15
