Data from breadboard_white_FLMS001491_00064.txt Node
Date: Wed Feb 08 10:48:05 GMT 2017
User: dcchb
Spectrometer: FLMS00149
Trigger mode: 0
Integration Time (sec): 2.000000E-2
Scans to average: 10
Electric dark correction enabled: true
Nonlinearity correction enabled: false
Boxcar width: 0
XAxis mode: Wavelengths
Number of Pixels in Spectrum: 2048
>>>>>Begin Spectral Data<<<<<
341.393	-4.8
341.776	-4.8
342.16	-4.8
342.543	-36.21
342.927	-77.57
343.31	-71.92
343.693	-56.33
344.077	-59.94
344.46	-67.17
344.843	-63.78
345.226	-49.77
345.61	-25.14
345.993	-15.65
346.376	3.56
346.759	11.92
347.142	21.86
347.525	38.13
347.908	46.72
348.291	77
348.674	89.66
349.057	120.84
349.44	134.63
349.823	152.26
350.206	155.87
350.588	192.71
350.971	224.57
351.354	261.18
351.737	269.77
352.119	266.15
352.502	266.38
352.884	284.68
353.267	299.6
353.65	306.83
354.032	307.96
354.414	324.91
354.797	331.01
355.179	349.09
355.562	345.92
355.944	333.95
356.326	347.73
356.709	366.71
357.091	361.29
357.473	364
357.855	359.71
358.238	366.04
358.62	358.35
359.002	363.78
359.384	362.19
359.766	362.19
360.148	365.58
360.53	370.33
360.912	359.26
361.294	372.14
361.676	374.85
362.057	356.09
362.439	351.12
362.821	346.83
363.203	354.28
363.584	344.12
363.966	364.68
364.348	338.01
364.729	350.44
365.111	331.91
365.493	336.21
365.874	343.66
366.256	347.05
366.637	354.74
367.019	339.37
367.4	339.6
367.781	339.82
368.163	329.88
368.544	334.62
368.925	322.42
369.306	346.15
369.688	344.34
370.069	368.07
370.45	348.18
370.831	350.22
371.212	342.31
371.593	349.54
371.974	359.26
372.355	355.19
372.736	357.67
373.117	356.32
373.498	353.83
373.879	358.58
374.26	368.07
374.641	351.57
375.021	371.23
375.402	353.38
375.783	362.87
376.163	375.75
376.544	355.41
376.925	392.02
377.305	380.95
377.686	397.9
378.066	360.16
378.447	370.33
378.827	386.83
379.208	392.02
379.588	393.83
379.968	386.15
380.349	386.15
380.729	400.84
381.109	391.57
381.489	386.83
381.87	398.35
382.25	411.46
382.63	388.86
383.01	395.64
383.39	429.54
383.77	427.5
384.15	404.68
384.53	421.85
384.91	422.53
385.29	415.3
385.67	421.63
386.049	433.6
386.429	431.12
386.809	423.89
387.189	435.64
387.568	441.51
387.948	459.37
388.328	443.77
388.707	448.07
389.087	440.16
389.466	474.28
389.846	467.28
390.225	460.04
390.605	438.12
390.984	478.57
391.363	475.19
391.743	496.43
392.122	492.59
392.501	506.37
392.881	523.55
393.26	508.63
393.639	504.79
394.018	503.43
394.397	537.33
394.776	540.72
395.155	521.74
395.534	532.36
395.913	562.41
396.292	561.74
396.671	566.03
397.05	571.68
397.429	561.74
397.808	572.58
398.186	578.91
398.565	570.1
398.944	572.81
399.323	628.85
399.701	620.94
400.08	607.16
400.458	618.46
400.837	642.41
401.215	627.5
401.594	633.6
401.972	670.21
402.351	674.73
402.729	685.58
403.107	701.85
403.486	689.19
403.864	707.04
404.242	698
404.62	740.71
404.999	748.85
405.377	736.65
405.755	754.05
406.133	769.64
406.511	785.23
406.889	788.62
407.267	798.57
407.645	827.94
408.023	852.35
408.401	867.04
408.779	845.8
409.156	873.59
409.534	870.66
409.912	921.95
410.29	912.46
410.667	948.62
411.045	980.93
411.422	974.61
411.8	1000.82
412.178	990.65
412.555	1056.19
412.933	1035.17
413.31	1067.94
413.687	1103.64
414.065	1088.28
414.442	1120.59
414.819	1148.84
415.197	1133.02
415.574	1185.22
415.951	1198.1
416.328	1224.54
416.705	1203.98
417.082	1237.88
417.46	1244.43
417.837	1258.89
418.214	1316.07
418.591	1313.58
418.967	1297.08
419.344	1305.67
419.721	1357.65
420.098	1378.89
420.475	1375.73
420.852	1390.64
421.228	1428.83
421.605	1433.8
421.982	1436.52
422.358	1471.09
422.735	1477.87
423.111	1482.62
423.488	1543.63
423.864	1526.91
424.241	1545.44
424.617	1601.26
424.994	1604.42
425.37	1606
425.746	1617.75
426.123	1646.45
426.499	1653.46
426.875	1678.32
427.251	1682.61
427.627	1764.19
428.003	1763.06
428.379	1793.12
428.756	1766.45
429.132	1814.81
429.507	1841.25
429.883	1861.14
430.259	1902.72
430.635	1924.86
431.011	1937.07
431.387	1941.81
431.763	2025.65
432.138	2011.64
432.514	2065.65
432.89	2061.36
433.265	2122.37
433.641	2170.06
434.016	2199.21
434.392	2209.83
434.767	2224.29
435.143	2265.42
435.518	2297.06
435.894	2315.59
436.269	2315.36
436.644	2361.92
437.02	2396.49
437.395	2374.12
437.77	2436.94
438.145	2450.05
438.52	2477.17
438.895	2525.75
439.271	2524.4
439.646	2577.95
440.021	2619.76
440.395	2622.47
440.77	2598.97
441.145	2617.95
441.52	2665.86
441.895	2688.46
442.27	2690.27
442.645	2690.04
443.019	2763.49
443.394	2773.66
443.769	2800.1
444.143	2805.07
444.518	2870.38
444.892	2838.29
445.267	2854.78
445.641	2900.43
446.016	2927.55
446.39	2941.34
446.764	2963.71
447.139	2980.66
447.513	2998.73
447.887	3045.97
448.262	3060.88
448.636	3039.64
449.01	3110.82
449.384	3132.29
449.758	3156.24
450.132	3206.86
450.506	3212.74
450.88	3248.67
451.254	3229.46
451.628	3288.44
452.002	3340.42
452.376	3376.8
452.75	3372.74
453.123	3410.48
453.497	3506.52
453.871	3536.12
454.244	3582.22
454.618	3609.34
454.992	3626.74
455.365	3609.34
455.739	3700.41
456.112	3792.16
456.486	3781.09
456.859	3861.99
457.232	3910.8
457.606	3896.56
457.979	3971.14
458.352	4042.78
458.725	4098.59
459.099	4075.77
459.472	4243.67
459.845	4205.93
460.218	4308.3
460.591	4350.79
460.964	4333.84
461.337	4464.23
461.71	4480.96
462.083	4617.68
462.456	4594.85
462.829	4589.65
463.201	4675.07
463.574	4701.97
463.947	4788.07
464.32	4913.49
464.692	4928.4
465.065	5010.43
465.438	5038.46
465.81	5123.88
466.183	5154.61
466.555	5300.82
466.928	5313.48
467.3	5322.74
467.672	5411.33
468.045	5528.39
468.417	5536.07
468.789	5607.71
469.161	5676.86
469.534	5740.13
469.906	5915.49
470.278	5979.22
470.65	5995.04
471.022	6158.88
471.394	6252.66
471.766	6315.03
472.138	6393.22
472.51	6473.9
472.882	6633.67
473.253	6643.16
473.625	6764.06
473.997	6893.32
474.369	6938.29
474.74	6994.11
475.112	7194.33
475.484	7293.09
475.855	7460.54
476.227	7533.76
476.598	7725.62
476.97	7747.54
477.341	7929.23
477.713	8040.41
478.084	8087.64
478.455	8355.2
478.827	8395.43
479.198	8633.39
479.569	8612.82
479.94	8923.32
480.311	9001.29
480.682	9194.73
481.053	9395.18
481.424	9487.83
481.795	9542.52
482.166	9814.37
482.537	9904.54
482.908	10170.75
483.279	10218.21
483.65	10394.47
484.021	10650.74
484.391	10718.53
484.762	10871.3
485.133	10964.4
485.503	11094.57
485.874	11303.6
486.244	11438.29
486.615	11636.25
486.985	11793.08
487.356	11994.2
487.726	12206.4
488.097	12360.07
488.467	12404.82
488.837	12704.69
489.207	12801.19
489.578	13112.37
489.948	13144
490.318	13296.77
490.688	13400.04
491.058	13558.23
491.428	13778.56
491.798	13918
492.168	14136.29
492.538	14250.19
492.908	14435.95
493.278	14677.75
493.648	14600.46
494.017	14846.11
494.387	14935.14
494.757	15052.66
495.126	15396.37
495.496	15340.33
495.866	15449.48
496.235	15646.99
496.605	15893.76
496.974	15950.71
497.344	16028.22
497.713	16156.35
498.082	16383.47
498.452	16501.2
498.821	16560.86
499.19	16646.29
499.559	16790.69
499.928	16952.04
500.298	16996.78
500.667	17237
501.036	17304.57
501.405	17378.7
501.774	17437.9
502.143	17603.1
502.512	17649.65
502.88	17937.1
503.249	17961.51
503.618	18100.26
503.987	18172.8
504.356	18245.34
504.724	18390.42
505.093	18519
505.462	18594.71
505.83	18721.49
506.199	18936.85
506.567	19160.12
506.936	19185.2
507.304	19271.75
507.672	19462.93
508.041	19633.33
508.409	19723.72
508.777	19909.93
509.145	20030.83
509.514	20133.43
509.882	20257.04
510.25	20266.98
510.618	20610.02
510.986	20635.33
511.354	20859.73
511.722	20918.04
512.09	21004.59
512.458	21175.21
512.826	21447.29
513.193	21481.64
513.561	21568.42
513.929	21757.11
514.297	21934.28
514.664	22073.71
515.032	22157.78
515.4	22400.94
515.767	22584.43
516.135	22677.31
516.502	22659.46
516.869	23071.2
517.237	23140.13
517.604	23110.75
517.972	23371.31
518.339	23619.66
518.706	23691.52
519.073	23763.16
519.44	24047.67
519.808	24194.11
520.175	24336.7
520.542	24631.39
520.909	24747.99
521.276	24789.35
521.643	24987.54
522.009	25270.69
522.376	25392.27
522.743	25576.9
523.11	25892.6
523.477	26176.43
523.843	26263.43
524.21	26633.37
524.577	26735.29
524.943	26931.89
525.31	26986.13
525.676	27366.46
526.043	27471.09
526.409	27617.07
526.776	27828.14
527.142	28052.31
527.508	28141.35
527.874	28329.37
528.241	28627.21
528.607	28739.07
528.973	28860.65
529.339	28970.93
529.705	29308.33
530.071	29534.53
530.437	29629.22
530.803	29834.41
531.169	29955.99
531.535	29992.6
531.901	30179.71
532.267	30318.92
532.632	30555.98
532.998	30711.68
533.364	30960.94
533.73	30975.4
534.095	31140.14
534.461	31284.77
534.826	31523.18
535.192	31556.4
535.557	31694.7
535.923	31838.43
536.288	31956.39
536.653	31982.83
537.019	32096.73
537.384	32180.34
537.749	32408.58
538.114	32544.4
538.479	32528.35
538.845	32816.03
539.21	32701.91
539.575	32932.64
539.94	33035.23
540.305	33269.8
540.67	33133.54
541.034	33419.86
541.399	33520.87
541.764	33650.81
542.129	33752.05
542.494	33817.81
542.858	34127.18
543.223	34076.11
543.587	34242.43
543.952	34283.79
544.316	34477.46
544.681	34454.18
545.045	34673.83
545.41	34788.63
545.774	34947.95
546.138	34981.17
546.503	35158.12
546.867	35105.91
547.231	35353.14
547.595	35458.45
547.959	35547.71
548.324	35698.44
548.688	35725.56
549.052	35899.79
549.416	35995.83
549.779	36043.29
550.143	36214.36
550.507	36370.74
550.871	36443.51
551.235	36410.06
551.599	36740.67
551.962	36912.87
552.326	37046.43
552.689	37231.51
553.053	37078.52
553.417	37185.41
553.78	37690.25
554.143	37512.4
554.507	37870.59
554.87	37912.62
555.234	38197.58
555.597	38073.07
555.96	38337.47
556.323	38470.57
556.686	38515.31
557.05	38828.98
557.413	38799.6
557.776	38925.25
558.139	39201.4
558.502	39336.76
558.865	39531.56
559.228	39687.26
559.59	39770.65
559.953	39856.07
560.316	40320.92
560.679	40305.1
561.041	40590.06
561.404	40698.99
561.767	40930.17
562.129	40774.69
562.492	41222.14
562.854	41199.54
563.217	41396.14
563.579	41369.03
563.941	41782.12
564.304	41883.81
564.666	42147.54
565.028	42209
565.39	42342.56
565.753	42665.71
566.115	42756.56
566.477	42834.07
566.839	43056.89
567.201	43263.21
567.563	43271.8
567.925	43721.51
568.287	43681.28
568.648	43706.36
569.01	43966.02
569.372	44126.24
569.734	44061.84
570.095	44439.9
570.457	44572.78
570.819	44644.87
571.18	44677.86
571.542	45131.19
571.903	44916.5
572.265	45138.87
572.626	45337.06
572.987	45300.45
573.349	45267.23
573.71	45717.16
574.071	45769.14
574.432	45784.95
574.794	46169.58
575.155	46026.08
575.516	45924.16
575.877	46030.37
576.238	46274.21
576.599	46414.54
576.96	46384.03
577.32	46429.91
577.681	46605.72
578.042	46819.05
578.403	46695.44
578.763	46783.12
579.124	46866.96
579.485	46992.61
579.845	47044.36
580.206	47004.58
580.566	47032.83
580.927	47026.96
581.287	47218.36
581.648	47028.54
582.008	47188.08
582.368	47173.84
582.728	47189.44
583.089	47189.66
583.449	47305.14
583.809	47238.25
584.169	47321.86
584.529	47174.07
584.889	47481.63
585.249	47340.17
585.609	47216.1
585.969	47394.86
586.329	47360.51
586.688	47378.58
587.048	47316.89
587.408	47318.93
587.768	47416.78
588.127	47396.21
588.487	47311.92
588.846	47592.82
589.206	47325.93
589.565	47396.21
589.925	47520.05
590.284	47393.95
590.643	47379.71
591.003	47424.69
591.362	47644.79
591.721	47618.35
592.08	47510.11
592.44	47678.01
592.799	47589.2
593.158	47568.86
593.517	47609.77
593.876	47624.23
594.235	47471.46
594.593	47542.2
594.952	47711.23
595.311	47603.89
595.67	47597.79
596.029	47787.61
596.387	47809.76
596.746	47783.55
597.104	47702.19
597.463	47694.06
597.822	47886.82
598.18	47803.43
598.538	47828.29
598.897	47972.69
599.255	47770.21
599.613	48289.07
599.972	47933.82
600.33	48005.01
600.688	47878.01
601.046	48018.34
601.404	48202.74
601.762	48172.69
602.12	48267.15
602.478	48439.8
602.836	48258.11
603.194	48068.96
603.552	48226.7
603.91	48101.5
604.268	48352.12
604.625	48239.81
604.983	48455.84
605.341	48226.7
605.698	48457.88
606.056	48510.98
606.413	48405.22
606.771	48566.12
607.128	48591.21
607.485	48457.88
607.843	48562.51
608.2	48729.06
608.557	48804.08
608.914	48712.56
609.272	48862.39
609.629	48947.58
609.986	48994.36
610.343	48847.02
610.7	49130.63
611.057	49012.44
611.414	48920.69
611.771	49027.81
612.127	49127.69
612.484	49092.66
612.841	49322.71
613.198	49255.6
613.554	49270.96
613.911	49481.81
614.267	49416.72
614.624	49394.8
614.98	49430.96
615.337	49664.17
615.693	49440.68
616.05	49470.51
616.406	49640.45
616.762	49477.74
617.118	49550.51
617.475	49609.94
617.831	49627.11
618.187	49717.28
618.543	49695.59
618.899	49871.85
619.255	49856.03
619.611	49802.48
619.967	49935.58
620.323	49940.33
620.678	49703.5
621.034	49795.92
621.39	49805.64
621.746	49720.9
622.101	50096.25
622.457	49829.82
622.812	49930.38
623.168	49966.54
623.523	49920.44
623.879	50091.28
624.234	49811.06
624.589	49916.6
624.945	50012.41
625.3	50070.94
625.655	50064.62
626.01	49971.28
626.365	49991.4
626.72	49962.47
627.075	49825.3
627.43	49872.98
627.785	49811.29
628.14	49839.09
628.495	49966.31
628.85	49818.07
629.205	49717.73
629.559	49836.83
629.914	49702.59
630.269	49828.24
630.623	49640.22
630.978	49570.39
631.332	49823.72
631.687	49771.52
632.041	49573.1
632.396	49686.77
632.75	49456.72
633.104	49536.95
633.459	49381.24
633.813	49320.91
634.167	49380.11
634.521	49372.88
634.875	49322.71
635.229	49370.17
635.583	49258.31
635.937	49188.71
636.291	49056.73
636.645	48980.12
636.999	48888.15
637.352	49002.04
637.706	48732.22
638.06	49038.65
638.413	48839.11
638.767	48780.13
639.121	48821.94
639.474	48682.96
639.828	48636.18
640.181	48679.57
640.534	48686.57
640.888	48518.22
641.241	48322.51
641.594	48532.9
641.947	48543.98
642.301	48410.87
642.654	48313.02
643.007	48404.32
643.36	48368.84
643.713	48181.73
644.066	48310.09
644.419	48202.07
644.771	47923.88
645.124	47579.94
645.477	47573.38
645.83	47157.35
646.182	47033.28
646.535	46917.81
646.888	46908.54
647.24	46641.43
647.593	46981.76
647.945	46877.13
648.298	46607.31
648.65	46492.05
649.002	46473.98
649.355	46598.72
649.707	46563.92
650.059	46771.14
650.411	47152.6
650.763	47184.92
651.115	47552.82
651.467	47486.15
651.819	47389.43
652.171	47331.35
652.523	47189.21
652.875	47320.73
653.227	47105.37
653.578	47185.37
653.93	47141.75
654.282	46890.91
654.633	46866.06
654.985	46907.41
655.337	46920.29
655.688	46813.63
656.039	47023.34
656.391	46662.67
656.742	46845.94
657.094	46672.84
657.445	46744.7
657.796	46797.36
658.147	46684.82
658.498	46750.58
658.849	46620.19
659.2	46509.68
659.551	46553.75
659.902	46653.86
660.253	46666.97
660.604	46612.28
660.955	46323.02
661.306	46513.97
661.656	46385.39
662.007	46356.69
662.358	46383.81
662.708	46368.89
663.059	46416.58
663.409	46245.73
663.76	46532.51
664.11	46387.2
664.461	46265.85
664.811	46357.14
665.161	46366.63
665.511	46162.35
665.862	46238.73
666.212	46264.72
666.562	46259.74
666.912	46160.54
667.262	46116.25
667.612	46095
667.962	46075.79
668.312	46023.14
668.662	46209.12
669.011	46098.62
669.361	46053.65
669.711	46113.08
670.06	46035.57
670.41	45916.48
670.76	45888
671.109	45947.21
671.459	45866.99
671.808	45834.9
672.157	45958.06
672.507	45815.91
672.856	45618.18
673.205	45754.9
673.554	45796.48
673.904	45598.29
674.253	45738.4
674.602	45693.88
674.951	45146.78
675.3	44799.67
675.649	45458.64
675.998	45427.22
676.346	45487.11
676.695	45658.86
677.044	45241.24
677.393	45465.87
677.741	45465.87
678.09	45324.85
678.438	45196.27
678.787	45263.84
679.135	45285.53
679.484	45042.37
679.832	45040.79
680.181	44848.71
680.529	44928.93
680.877	44921.7
681.225	44824.75
681.573	45121.24
681.922	44691.2
682.27	44549.96
682.618	44727.58
682.966	44424.76
683.314	44605.78
683.661	44460.24
684.009	44244.43
684.357	44309.06
684.705	44133.47
685.053	44180.7
685.4	44068.62
685.748	43888.28
686.095	43883.99
686.443	43578.23
686.79	43630.21
687.138	43711.79
687.485	43634.95
687.832	43568.97
688.18	43423.66
688.527	43441.06
688.874	43255.98
689.221	43187.96
689.568	43180.96
689.915	43058.92
690.262	42899.83
690.609	42764.47
690.956	42662.78
691.303	42706.17
691.65	42503.91
691.997	42437.7
692.344	42287.42
692.69	42133.3
693.037	42338.04
693.383	41970.37
693.73	42149.34
694.077	41909.12
694.423	41676.81
694.769	41684.95
695.116	41703.25
695.462	41646.31
695.808	41346.65
696.155	41584.16
696.501	41070.5
696.847	41122.48
697.193	40829.15
697.539	41072.99
697.885	40855.37
698.231	40628.48
698.577	40643.85
698.923	40668.7
699.269	40367.24
699.614	40211.99
699.96	40115.5
700.306	40043.86
700.651	40005.22
700.997	39842.96
701.342	39865.11
701.688	39625.79
702.033	39433.48
702.379	39588.51
702.724	39259.02
703.069	39423.09
703.415	38953.95
703.76	38864.46
704.105	38887.28
704.45	38977.22
704.795	38666.05
705.14	38459.95
705.485	38567.74
705.83	38340.4
706.175	38581.08
706.52	38334.98
706.865	38200.3
707.209	38283.23
707.554	38154.65
707.899	38130.92
708.243	37925.27
708.588	37902
708.932	37564.15
709.277	37641.44
709.621	37585.62
709.966	37335.68
710.31	37232.41
710.654	37070.38
710.998	37121
711.342	37048.23
711.687	36855.92
712.031	36817.96
712.375	36637.85
712.719	36810.73
713.063	36704.29
713.407	36876.71
713.75	36547.01
714.094	36499.1
714.438	36297.97
714.782	36412.32
715.125	36136.17
715.469	36219.1
715.812	36207.58
716.156	35875.84
716.499	35863.18
716.843	36027.24
717.186	35722.17
717.53	36008.04
717.873	35833.8
718.216	35817.53
718.559	35589.74
718.902	35285.34
719.246	35455.28
719.589	35180.94
719.932	35112.01
720.275	35179.36
720.617	35132.58
720.96	35116.31
721.303	35125.8
721.646	35011.68
721.989	34653.5
722.331	34947.95
722.674	34632.48
723.016	34809.88
723.359	34615.3
723.701	34543.44
724.044	34476.78
724.386	34267.29
724.729	34452.14
725.071	34272.04
725.413	34178.71
725.755	34190.91
726.097	34042.44
726.439	33952.5
726.782	33949.33
727.124	34116.56
727.465	33864.36
727.807	33851.71
728.149	33746.17
728.491	33684.03
728.833	33617.14
729.175	33427.31
729.516	33421.21
729.858	33453.08
730.199	33569
730.541	33417.14
730.882	33406.3
731.224	33366.52
731.565	33136.93
731.906	33250.37
732.248	33155.91
732.589	32941.22
732.93	32882.47
733.271	32957.95
733.612	32876.59
733.953	33042.24
734.294	32672.53
734.635	32742.36
734.976	32702.13
735.317	32571.06
735.658	32534.68
735.999	32620.78
736.339	32452.2
736.68	32589.37
737.021	32296.95
737.361	32270.51
737.702	32357.96
738.042	32228.93
738.383	32213.33
738.723	32100.57
739.063	32004.75
739.404	32156.16
739.744	32039.1
740.084	31950.97
740.424	31945.54
740.764	31789.16
741.104	31826.23
741.444	31609.96
741.784	31680.47
742.124	31722.73
742.464	31610.41
742.804	31667.36
743.143	31518.66
743.483	31460.13
743.823	31169.07
744.162	31371.1
744.502	31283.19
744.841	31252.68
745.181	31323.64
745.52	31196.41
745.86	31051.78
746.199	31021.95
746.538	30960.71
746.877	30952.35
747.216	30915.51
747.556	30866.7
747.895	30788.51
748.234	30695.86
748.573	30566.6
748.911	30562.3
749.25	30548.74
749.589	30409.31
749.928	30503.77
750.267	30400.73
750.605	30385.59
750.944	30156.44
751.283	30073.28
751.621	30172.26
751.96	29955.77
752.298	29921.19
752.636	29990.79
752.975	29857.01
753.313	29769.1
753.651	29874.41
753.989	29594.65
754.327	29592.16
754.666	29467.19
755.004	29476.46
755.342	29596.45
755.679	29242.34
756.017	29098.16
756.355	29266.52
756.693	29167.99
757.031	29254.09
757.368	29012.51
757.706	28908.56
758.044	28885.51
758.381	28778.4
758.719	28748.11
759.056	28710.83
759.394	28551.28
759.731	28376.6
760.068	28439.42
760.405	28208.92
760.743	28219.77
761.08	28133.44
761.417	27977.51
761.754	27930.51
762.091	28101.13
762.428	27807.57
762.765	27690.06
763.102	27632.21
763.438	27522.16
763.775	27458.43
764.112	27447.81
764.449	27462.95
764.785	27197.65
765.122	27049.4
765.458	26985
765.795	26899.8
766.131	27005.11
766.467	26817.32
766.804	26633.82
767.14	26491.22
767.476	26459.81
767.812	26415.52
768.148	26355.18
768.485	26178.01
768.821	26066.83
769.157	25991.8
769.492	25950
769.828	25937.11
770.164	25701.64
770.5	25601.08
770.836	25554.07
771.171	25503.45
771.507	25340.07
771.842	25356.79
772.178	25206.29
772.513	25183.91
772.849	25114.31
773.184	25040.87
773.519	25087.42
773.855	24748.9
774.19	24765.85
774.525	24658.5
774.86	24650.82
775.195	24527.89
775.53	24453.31
775.865	24326.99
776.2	24108.69
776.535	23906.43
776.87	23989.82
777.205	23887.9
777.539	23829.15
777.874	23879.32
778.209	23702.37
778.543	23618.76
778.878	23394.13
779.212	23420.34
779.547	23272.55
779.881	23295.15
780.215	23101.26
780.55	23194.14
780.884	22955.27
781.218	22954.82
781.552	22860.81
781.886	22715.05
782.22	22561.38
782.554	22574.27
782.888	22311.9
783.222	22251.56
783.556	22171.56
783.889	22094.05
784.223	21962.08
784.557	22017.9
784.89	21953.04
785.224	21905.36
785.557	21828.07
785.891	21726.83
786.224	21660.39
786.558	21576.1
786.891	21413.84
787.224	21358.25
787.557	21275.09
787.891	21240.97
788.224	21238.48
788.557	21156.68
788.89	21043.01
789.223	21051.59
789.556	20830.13
789.888	20777.48
790.221	20802.79
790.554	20638.04
790.887	20732.73
791.219	20551.95
791.552	20404.83
791.884	20360.31
792.217	20206.19
792.549	20263.37
792.882	20079.19
793.214	20053.2
793.546	19973.88
793.879	19909.93
794.211	19812.76
794.543	19880.1
794.875	19777.73
795.207	19743.61
795.539	19664.29
795.871	19628.58
796.203	19435.59
796.535	19295.26
796.867	19330.06
797.198	19282.6
797.53	19256.39
797.862	19164.86
798.193	19236.27
798.525	19008.03
798.856	19034.7
799.188	18867.02
799.519	18900.01
799.85	18697.53
800.182	18757.64
800.513	18750.64
800.844	18566.69
801.175	18657.53
801.506	18501.83
801.837	18480.81
802.168	18451.89
802.499	18363.08
802.83	18236.75
803.161	18175.96
803.491	18116.53
803.822	18134.16
804.153	18050.99
804.483	17885.12
804.814	17940.94
805.145	17816.42
805.475	17801.51
805.805	17744.11
806.136	17785.01
806.466	17770.55
806.796	17679.7
807.126	17460.95
807.457	17523.78
807.787	17499.6
808.117	17386.15
808.447	17360.39
808.777	17344.57
809.107	17162.66
809.436	17155.42
809.766	17138.25
810.096	17018.48
810.426	17075.65
810.755	17042.66
811.085	17043.34
811.414	16958.59
811.744	16734.19
812.073	16792.72
812.403	16760.41
812.732	16630.24
813.061	16716.79
813.39	16552.28
813.719	16489.91
814.049	16705.49
814.378	16647.42
814.707	16496.91
815.036	16441.09
815.365	16398.16
815.693	16225.96
816.022	16207.2
816.351	16205.62
816.68	16138.28
817.008	16147.32
817.337	16071.61
817.665	16034.78
817.994	16001.78
818.322	16097.37
818.651	15918.85
818.979	15827.78
819.307	15887.44
819.636	15730.6
819.964	15695.12
820.292	15737.16
820.62	15755.01
820.948	15677.72
821.276	15770.15
821.604	15772.64
821.932	15741.45
822.259	15716.37
822.587	15725.18
822.915	15650.15
823.243	15731.51
823.57	15626.88
823.898	15649.48
824.225	15550.27
824.553	15632.98
824.88	15551.4
825.207	15551.4
825.535	15595.24
825.862	15597.27
826.189	15595.69
826.516	15640.66
826.843	15623.49
827.17	15610.83
827.497	15663.26
827.824	15501.68
828.151	15675.01
828.478	15569.48
828.805	15687.89
829.131	15580.78
829.458	15499.87
829.785	15470.5
830.111	15436.15
830.438	15566.09
830.764	15524.96
831.09	15535.81
831.417	15525.19
831.743	15533.09
832.069	15426.2
832.395	15570.16
832.722	15469.82
833.048	15361.35
833.374	15272.99
833.7	15382.59
834.026	15421.68
834.351	15370.84
834.677	15389.6
835.003	15414.23
835.329	15348.01
835.654	15301.69
835.98	15253.1
836.306	15330.16
836.631	15195.7
836.956	15257.17
837.282	15254.91
837.607	15145.76
837.932	15089.26
838.258	15122.71
838.583	15139.43
838.908	15000.45
839.233	14955.03
839.558	15032.77
839.883	14928.14
840.208	14983.5
840.533	14892.66
840.858	14912.77
841.182	14909.83
841.507	14797.75
841.832	14854.24
842.156	14780.12
842.481	14742.15
842.805	14771.08
843.13	14611.54
843.454	14637.75
843.778	14543.29
844.103	14494.7
844.427	14501.71
844.751	14508.04
845.075	14465.55
845.399	14329.96
845.723	14345.56
846.047	14443.86
846.371	14325.67
846.695	14230.3
847.019	14136.29
847.343	14037.31
847.666	13997.54
847.99	13951.89
848.313	13917.09
848.637	13941.5
848.96	13818.34
849.284	13755.74
849.607	13647.72
849.931	13617.44
850.254	13551.45
850.577	13522.98
850.9	13341.74
851.223	13384
851.546	13311.46
851.869	13186.72
852.192	13271.91
852.515	13219.71
852.838	13030.56
853.161	13081.41
853.483	13005.7
853.806	12908.76
854.129	12981.3
854.451	12854.97
854.774	12778.14
855.096	12775.88
855.419	12759.16
855.741	12760.06
856.063	12761.64
856.385	12717.58
856.708	12629.44
857.03	12551.03
857.352	12582.44
857.674	12516
857.996	12440.97
858.318	12430.35
858.64	12441.88
858.961	12401.65
859.283	12294.54
859.605	12264.71
859.926	12247.76
860.248	12232.39
860.57	12163.69
860.891	12187.65
861.212	12113.07
861.534	12072.39
861.855	12048.67
862.176	12050.7
862.498	12019.29
862.819	12073.98
863.14	11979.74
863.461	11919.86
863.782	11874.21
864.103	11850.71
864.424	11851.61
864.745	11851.16
865.065	11829.24
865.386	11847.32
865.707	11740.43
866.027	11717.83
866.348	11711.73
866.668	11717.83
866.989	11713.08
867.309	11572.07
867.63	11620.88
867.95	11616.14
868.27	11497.72
868.59	11533.43
868.91	11511.51
869.23	11485.52
869.55	11445.97
869.87	11473.77
870.19	11380.66
870.51	11381.11
870.83	11429.47
871.15	11287.33
871.469	11283.49
871.789	11374.33
872.109	11305.86
872.428	11203.26
872.748	11250.5
873.067	11203.72
873.386	11336.37
873.706	11209.82
874.025	11148.12
874.344	11079.2
874.663	11104.28
874.982	11122.81
875.301	11065.42
875.62	11016.15
875.939	11045.08
876.258	11053.44
876.577	10949.71
876.896	10999.43
877.214	10912.88
877.533	10960.56
877.852	10946.32
878.17	10874.23
878.489	10917.85
878.807	10895.25
879.125	10845.53
879.444	10818.64
879.762	10807.12
880.08	10830.17
880.398	10808.7
880.716	10843.27
881.034	10718.98
881.352	10759.21
881.67	10696.61
881.988	10792.65
882.306	10654.13
882.624	10636.27
882.941	10568.03
883.259	10551.53
883.577	10559.89
883.894	10485.77
884.212	10521.02
884.529	10506.11
884.846	10448.03
885.164	10470.18
885.481	10414.13
885.798	10415.26
886.115	10348.15
886.432	10443.06
886.75	10386.79
887.067	10334.36
887.383	10300.01
887.7	10309.95
888.017	10245.32
888.334	10259.56
888.651	10205.78
888.967	10258.43
889.284	10128.04
889.6	10130.3
889.917	10070.87
890.233	10057.76
890.55	10057.31
890.866	10082.16
891.182	9957.2
891.498	9944.77
891.815	9885.79
892.131	9909.74
892.447	9832.91
892.763	9853.7
893.079	9872.9
893.395	9761.72
893.71	9706.58
894.026	9706.35
894.342	9726.69
894.657	9672.23
894.973	9690.76
895.289	9629.52
895.604	9565.79
895.92	9479.69
896.235	9454.84
896.55	9430.43
896.865	9480.15
897.181	9409.41
897.496	9385.46
897.811	9342.75
898.126	9288.74
898.441	9248.74
898.756	9224.11
899.071	9171
899.386	9182.98
899.7	9161.96
900.015	9063.21
900.33	9028.86
900.644	9010.78
900.959	8976.43
901.273	8981.85
901.588	8949.09
901.902	8884.68
902.216	8888.07
902.531	8852.59
902.845	8809.43
903.159	8792.48
903.473	8749.54
903.787	8674.29
904.101	8671.81
904.415	8671.81
904.729	8574.86
905.042	8577.57
905.356	8542.09
905.67	8511.81
905.984	8522.66
906.297	8433.17
906.611	8421.42
906.924	8374.86
907.237	8339.39
907.551	8295.77
907.864	8245.38
908.177	8242.66
908.491	8221.2
908.804	8177.13
909.117	8131.26
909.43	8117.24
909.743	8105.04
910.056	8016
910.368	7956.57
910.681	7953.41
910.994	7928.1
911.307	7940.75
911.619	7819.62
911.932	7860.98
912.244	7831.83
912.557	7853.75
912.869	7794.99
913.181	7727.42
913.494	7686.75
913.806	7707.09
914.118	7647.65
914.43	7601.33
914.742	7622.34
915.054	7496.47
915.366	7529.01
915.678	7473.42
915.99	7484.49
916.302	7391.61
916.613	7297.83
916.925	7334.21
917.236	7314.55
917.548	7312.75
917.859	7263.03
918.171	7223.03
918.482	7150.26
918.794	7155.46
919.105	7150.72
919.416	7099.87
919.727	7034.56
920.038	7073.43
920.349	7004.96
920.66	6975.13
920.971	6972.87
921.282	6946.88
921.593	6897.84
921.903	6821.91
922.214	6818.97
922.525	6783.04
922.835	6751.86
923.146	6714.12
923.456	6737.39
923.767	6645.64
924.077	6692.2
924.387	6691.52
924.697	6614.46
925.008	6594.57
925.318	6578.75
925.628	6607.91
925.938	6530.17
926.248	6411.53
926.558	6435.93
926.867	6409.04
927.177	6352.54
927.487	6358.19
927.796	6279.1
928.106	6357.74
928.416	6320.46
928.725	6254.47
929.034	6223.28
929.344	6199.78
929.653	6162.72
929.962	6118.88
930.271	6074.13
930.581	6044.76
930.89	6096.96
931.199	6033.23
931.508	5976.51
931.817	5967.47
932.125	5980.8
932.434	5898.09
932.743	5842.5
933.051	5863.52
933.36	5895.38
933.669	5771.32
933.977	5804.54
934.286	5740.13
934.594	5752.56
934.902	5712.79
935.21	5675.73
935.519	5679.79
935.827	5612.45
936.135	5617.65
936.443	5619.46
936.751	5566.12
937.059	5539.01
937.367	5517.31
937.674	5529.29
937.982	5498.1
938.29	5425.11
938.597	5429.41
938.905	5426.02
939.213	5382.4
939.52	5357.54
939.827	5339.46
940.135	5357.32
940.442	5297.43
940.749	5263.08
941.056	5228.73
941.363	5160.49
941.67	5215.85
941.977	5150.09
942.284	5111.9
942.591	5141.28
942.898	5128.85
943.205	5119.36
943.511	5089.53
943.818	5013.82
944.125	5054.05
944.431	5046.14
944.738	4987.38
945.044	4996.2
945.35	4949.19
945.657	4949.87
945.963	4910.1
946.269	4900.38
946.575	4856.76
946.881	4828.29
947.187	4818.57
947.493	4799.59
947.799	4765.47
948.105	4753.04
948.41	4704.9
948.716	4733.6
949.022	4741.97
949.327	4676.2
949.633	4619.26
949.938	4663.32
950.244	4590.11
950.549	4588.3
950.854	4566.15
951.16	4546.04
951.465	4516.43
951.77	4533.84
952.075	4492.48
952.38	4470.11
952.685	4457.23
952.99	4452.48
953.294	4448.87
953.599	4379.72
953.904	4346.72
954.209	4351.02
954.513	4352.15
954.818	4315.54
955.122	4258.36
955.426	4326.16
955.731	4294.97
956.035	4233.96
956.339	4228.31
956.643	4221.98
956.948	4187.86
957.252	4182.88
957.556	4153.28
957.86	4155.31
958.163	4144.24
958.467	4103.34
958.771	4108.76
959.075	4073.51
959.378	4052.27
959.682	4040.06
959.985	4004.58
960.289	3980.4
960.592	3946.28
960.896	3939.27
961.199	3940.86
961.502	3883.46
961.805	3901.54
962.108	3875.55
962.411	3854.76
962.714	3849.11
963.017	3802.78
963.32	3812.72
963.623	3819.73
963.926	3795.1
964.228	3744.25
964.531	3752.84
964.833	3770.69
965.136	3733.63
965.438	3686.85
965.741	3649.11
966.043	3676.91
966.345	3676.91
966.648	3612.05
966.95	3626.29
967.252	3601.2
967.554	3591.71
967.856	3548.78
968.158	3537.25
968.46	3562.34
968.761	3516.69
969.063	3519.85
969.365	3485.73
969.666	3497.48
969.968	3474.88
970.269	3424.26
970.571	3457.25
970.872	3419.51
971.174	3395.33
971.475	3362.34
971.776	3374.77
972.077	3378.16
972.378	3331.16
972.679	3381.1
972.98	3334.32
973.281	3281.89
973.582	3327.54
973.883	3287.54
974.183	3260.65
974.484	3228.79
974.785	3181.78
975.085	3211.84
975.386	3233.53
975.686	3219.75
975.986	3185.4
976.287	3188.56
976.587	3132.52
976.887	3147.66
977.187	3120.54
977.487	3123.93
977.787	3100.2
978.087	3092.52
978.387	3120.09
978.687	3068.56
978.987	3027.43
979.286	3002.12
979.586	3030.15
979.885	2980.43
980.185	2978.85
980.484	2962.13
980.784	2969.58
981.083	2976.14
981.382	2906.31
981.682	2941.11
981.981	2916.93
982.28	2901.34
982.579	2886.65
982.878	2857.27
983.177	2852.07
983.475	2855.46
983.774	2825.63
984.073	2805.07
984.372	2789.7
984.67	2785.63
984.969	2737.5
985.267	2774.33
985.566	2749.48
985.864	2739.98
986.162	2758.06
986.461	2680.78
986.759	2709.93
987.057	2687.33
987.355	2668.12
987.653	2693.43
987.951	2641.68
988.249	2663.6
988.547	2641.46
988.844	2625.19
989.142	2617.73
989.44	2603.49
989.737	2560.1
990.035	2548.35
990.332	2530.72
990.63	2543.38
990.927	2519.65
991.224	2502.02
991.521	2518.3
991.819	2493.66
992.116	2487.79
992.413	2487.56
992.71	2473.78
993.006	2465.64
993.303	2435.13
993.6	2438.75
993.897	2452.08
994.193	2419.77
994.49	2394.23
994.787	2385.64
995.083	2372.99
995.379	2389.49
995.676	2372.31
995.972	2351.75
996.268	2314.68
996.565	2301.8
996.861	2316.49
997.157	2284.86
997.453	2281.47
997.749	2265.19
998.044	2266.1
998.34	2227.68
998.636	2258.87
998.932	2216.16
999.227	2224.29
999.523	2227.46
999.818	2208.02
1000.114	2172.99
1000.409	2215.7
1000.704	2161.02
1001	2153.56
1001.295	2129.83
1001.59	2142.26
1001.885	2117.4
1002.18	2097.52
1002.475	2096.84
1002.77	2066.33
1003.065	2047.57
1003.359	2077.4
1003.654	2014.58
1003.949	2025.88
1004.243	2038.31
1004.538	2005.31
1004.832	2017.74
1005.127	1978.42
1005.421	2016.61
1005.715	2002.6
1006.009	1974.58
1006.304	1955.37
1006.598	1939.78
1006.892	1942.72
1007.186	1917.86
1007.48	1877.63
1007.773	1866.34
1008.067	1878.31
1008.361	1875.37
1008.655	1892.78
1008.948	1823.62
1009.242	1839.67
1009.535	1776.17
1009.829	1817.97
1010.122	1770.74
1010.415	1803.51
1010.708	1789.27
1011.001	1754.02
1011.295	1769.61
1011.588	1764.87
1011.881	1737.98
1012.173	1748.15
1012.466	1738.65
1012.759	1699.79
1013.052	1712.21
1013.344	1675.38
1013.637	1707.24
1013.93	1675.38
1014.222	1683.74
1014.514	1671.31
1014.807	1640.35
1015.099	1646.45
1015.391	1643.97
1015.683	1627.25
1015.976	1628.15
1016.268	1609.39
1016.56	1580.92
1016.851	1580.47
1017.143	1574.59
1017.435	1568.94
1017.727	1572.56
1018.018	1527.81
1018.31	1542.5
1018.602	1542.5
1018.893	1471.77
1019.185	1501.82
1019.476	1488.27
1019.767	1494.37
1020.058	1472.9
1020.35	1464.76
1020.641	1439.45
1020.932	1428.15
1021.223	1410.53
1021.514	1404.65
1021.804	1409.62
1022.095	1417.99
1022.386	1406.91
1022.677	1402.84
1022.967	1384.31
1023.258	1352.22
1023.548	1376.4
1023.839	1352.68
1024.129	1337.76
1024.419	1296.18
1024.709	1338.67
1025	1324.2
1025.29	1289.63
1025.58	1299.12
1025.87	1304.99
1026.16	1274.26
1026.449	1256.18
1026.739	1253.92
1027.029	1262.74
1027.319	1215.05
1027.608	1214.15
1027.898	1220.93
1028.187	1224.54
1028.477	1213.92
1028.766	1198.33
1029.055	1217.31
1029.344	1187.71
1029.634	1177.99
1029.923	1163.3
1030.212	1182.51
1030.501	1163.53
1030.79	1136.64
1031.078	1149.52
1031.367	1132.34
1031.656	1108.16
1031.945	1107.26
1032.233	1116.75
1032.522	1116.52
1032.81	1100.25
1033.099	1130.99
1033.387	1078.33
1033.675	1083.98
1033.963	1074.04
1034.251	1064.32
1034.54	1084.43
1034.828	1047.15
1035.116	1051.44
1035.403	1063.19
1035.691	1036.98
1035.979	1016.64
1036.267	1051.67
1036.554	1021.39
1036.842	994.04
1037.129	1003.98
1037.417	997.21
1037.704	990.88
1037.992	988.62
1038.279	984.32
1038.566	978
1038.853	978
1039.14	978
