Data from breadboard_black_back_FLMS001491_00082.txt Node
Date: Wed Feb 08 10:51:02 GMT 2017
User: dcchb
Spectrometer: FLMS00149
Trigger mode: 0
Integration Time (sec): 2.000000E-2
Scans to average: 10
Electric dark correction enabled: true
Nonlinearity correction enabled: false
Boxcar width: 0
XAxis mode: Wavelengths
Number of Pixels in Spectrum: 2048
>>>>>Begin Spectral Data<<<<<
341.393	-21.48
341.776	-21.48
342.16	-21.48
342.543	-43.18
342.927	-72.78
343.31	-63.52
343.693	-72.1
344.077	-73.91
344.46	-58.54
344.843	-25.55
345.226	-55.15
345.61	-16.28
345.993	-11.77
346.376	-18.09
346.759	7.22
347.142	-4.31
347.525	44.05
347.908	60.1
348.291	98.51
348.674	88.12
349.057	101.23
349.44	116.59
349.823	146.87
350.206	152.75
350.588	207.66
350.971	211.96
351.354	242.01
351.737	236.59
352.119	260.77
352.502	269.58
352.884	283.37
353.267	307.32
353.65	303.93
354.032	306.64
354.414	290.83
354.797	318.62
355.179	339.86
355.562	341.45
355.944	322.92
356.326	338.51
356.709	336.02
357.091	342.8
357.473	330.37
357.855	352.52
358.238	336.25
358.62	345.29
359.002	363.59
359.384	368.79
359.766	359.98
360.148	357.04
360.53	343.48
360.912	361.11
361.294	367.66
361.676	337.6
362.057	365.17
362.439	347.77
362.821	338.73
363.203	326.53
363.584	334.21
363.966	344.38
364.348	341.45
364.729	336.7
365.111	338.51
365.493	322.24
365.874	325.85
366.256	340.99
366.637	351.84
367.019	326.76
367.4	330.15
367.781	345.29
368.163	336.93
368.544	339.19
368.925	341.67
369.306	347.32
369.688	347.32
370.069	315.91
370.45	337.6
370.831	368.34
371.212	356.36
371.593	372.18
371.974	334.44
372.355	347.77
372.736	360.65
373.117	356.36
373.498	338.51
373.879	342.8
374.26	351.16
374.641	339.19
375.021	323.37
375.402	376.02
375.783	360.65
376.163	372.18
376.544	377.15
376.925	357.04
377.305	366.53
377.686	371.5
378.066	360.2
378.447	377.38
378.827	370.37
379.208	379.86
379.588	385.74
379.968	381.67
380.349	375.57
380.729	399.07
381.109	397.04
381.489	398.85
381.87	417.38
382.25	403.37
382.63	397.04
383.01	412.4
383.39	410.37
383.77	416.25
384.15	424.16
384.53	428.9
384.91	418.73
385.29	429.81
385.67	449.01
386.049	442.23
386.429	436.58
386.809	442.01
387.189	412.86
387.568	452.18
387.948	452.18
388.328	452.4
388.707	449.47
389.087	443.14
389.466	463.7
389.846	460.31
390.225	458.5
390.605	479.07
390.984	483.59
391.363	480.43
391.743	491.05
392.122	475.23
392.501	500.76
392.881	492.63
393.26	505.06
393.639	515
394.018	503.25
394.397	506.19
394.776	517.03
395.155	526.75
395.534	523.36
395.913	513.19
396.292	528.56
396.671	515.45
397.05	536.47
397.429	525.62
397.808	526.98
398.186	551.38
398.565	556.81
398.944	544.6
399.323	544.83
399.701	569.24
400.08	554.32
400.458	581.89
400.837	556.81
401.215	580.08
401.594	603.36
401.972	579.63
402.351	593.64
402.729	609.91
403.107	618.05
403.486	609.24
403.864	607.43
404.242	593.19
404.62	640.42
404.999	629.35
405.377	646.07
405.755	633.87
406.133	665.51
406.511	665.73
406.889	687.43
407.267	691.04
407.645	674.09
408.023	680.42
408.401	681.32
408.779	696.01
409.156	713.41
409.534	701.89
409.912	730.59
410.29	730.59
410.667	732.17
411.045	749.57
411.422	741.21
411.8	758.16
412.178	748.21
412.555	761.1
412.933	772.39
413.31	806.07
413.687	810.81
414.065	802
414.442	821.21
414.819	839.06
415.197	834.54
415.574	844.94
415.951	862.11
416.328	868.89
416.705	868.89
417.082	866.63
417.46	877.25
417.837	912.28
418.214	892.39
418.591	897.59
418.967	902.11
419.344	900.75
419.721	968.77
420.098	948.44
420.475	971.71
420.852	944.14
421.228	966.97
421.605	969.45
421.982	986.63
422.358	988.66
422.735	1013.07
423.111	1022.11
423.488	1040.41
423.864	1006.29
424.241	1055.78
424.617	1051.26
424.994	1057.59
425.37	1063.91
425.746	1086.74
426.123	1110.92
426.499	1105.95
426.875	1096.91
427.251	1139.16
427.627	1148.66
428.003	1173.51
428.379	1167.64
428.756	1193.63
429.132	1222.33
429.507	1193.63
429.883	1221.2
430.259	1263.68
430.635	1260.52
431.011	1283.34
431.387	1282.89
431.763	1297.8
432.138	1311.14
432.514	1321.31
432.89	1342.78
433.265	1361.98
433.641	1367.18
434.016	1384.58
434.392	1424.13
434.767	1435.43
435.143	1431.13
435.518	1484.47
435.894	1499.38
436.269	1487.63
436.644	1531.7
437.02	1525.14
437.395	1510.45
437.77	1559.04
438.145	1551.13
438.52	1573.5
438.895	1611.24
439.271	1614.18
439.646	1626.38
440.021	1628.64
440.395	1653.5
440.77	1637.91
441.145	1654.41
441.52	1715.87
441.895	1709.55
442.27	1724.91
442.645	1734.4
443.019	1741.86
443.394	1764.91
443.769	1778.24
444.143	1795.87
444.518	1811.01
444.892	1824.34
445.267	1833.61
445.641	1841.52
446.016	1860.95
446.39	1849.2
446.764	1855.53
447.139	1856.89
447.513	1887.17
447.887	1905.02
448.262	1914.29
448.636	1895.98
449.01	1920.16
449.384	1956.09
449.758	1991.8
450.132	1961.74
450.506	1966.94
450.88	2017.11
451.254	2012.81
451.628	2075.19
452.002	2062.3
452.376	2097.33
452.75	2133.26
453.123	2153.6
453.497	2159.25
453.871	2214.84
454.244	2222.3
454.618	2250.1
454.992	2273.82
455.365	2263.88
455.739	2319.92
456.112	2365.8
456.486	2367.38
456.859	2421.39
457.232	2452.58
457.606	2422.3
457.979	2471.33
458.352	2518.79
458.725	2565.79
459.099	2582.06
459.472	2644.89
459.845	2638.33
460.218	2662.06
460.591	2700.93
460.964	2686.69
461.337	2785.9
461.71	2781.38
462.083	2823.64
462.456	2827.48
462.829	2875.39
463.201	2903.64
463.574	2973.02
463.947	2975.95
464.32	3075.84
464.692	3072.45
465.065	3103.86
465.438	3148.83
465.81	3169.39
466.183	3233.57
466.555	3277.41
466.928	3307.24
467.3	3321.48
467.672	3343.63
468.045	3437.41
468.417	3462.95
468.789	3484.19
469.161	3480.57
469.534	3602.6
469.906	3608.03
470.278	3696.61
470.65	3721.47
471.022	3791.98
471.394	3917.17
471.766	3940.67
472.138	3958.07
472.51	4040.11
472.882	4094.79
473.253	4181.12
473.625	4174.11
473.997	4335.01
474.369	4320.78
474.74	4361.68
475.112	4422.02
475.484	4542.01
475.855	4627.43
476.227	4644.38
476.598	4802.57
476.97	4804.38
477.341	4886.41
477.713	4939.97
478.084	5000.08
478.455	5102.68
478.827	5191.26
479.198	5363.46
479.569	5302.45
479.94	5508.09
480.311	5501.08
480.682	5619.73
481.053	5768.87
481.424	5861.75
481.795	5940.39
482.166	5989.21
482.537	6110.11
482.908	6209.99
483.279	6279.37
483.65	6373.38
484.021	6487.05
484.391	6576.99
484.762	6633.26
485.133	6751.67
485.503	6820.37
485.874	6897.43
486.244	7039.35
486.615	7125.9
486.985	7259.46
487.356	7366.57
487.726	7396.4
488.097	7593.91
488.467	7604.08
488.837	7767.47
489.207	7855.6
489.578	8016.5
489.948	8073.22
490.318	8094.91
490.688	8266.66
491.058	8333.55
491.428	8431.4
491.798	8524.73
492.168	8710.72
492.538	8803.14
492.908	8797.95
493.278	8926.53
493.648	8985.29
494.017	9124.49
494.387	9152.06
494.757	9220.53
495.126	9419.4
495.496	9497.59
495.866	9495.1
496.235	9595.21
496.605	9746.4
496.974	9720.41
497.344	9797.24
497.713	9914.08
498.082	10002.66
498.452	10056.44
498.821	10198.36
499.19	10227.06
499.559	10262.09
499.928	10413.72
500.298	10511.57
500.667	10568.97
501.036	10580.27
501.405	10695.52
501.774	10668.18
502.143	10810.78
502.512	10880.6
502.88	10908.4
503.249	10937.78
503.618	11070.66
503.987	11124.44
504.356	11222.29
504.724	11311.1
505.093	11308.84
505.462	11433.36
505.83	11428.39
506.199	11598.55
506.567	11751.32
506.936	11796.29
507.304	11889.16
507.672	11913.8
508.041	12044.64
508.409	12107.01
508.777	12186.78
509.145	12376.84
509.514	12349.04
509.882	12397.63
510.25	12388.81
510.618	12555.36
510.986	12632.65
511.354	12765.3
511.722	12935.01
512.09	12942.02
512.458	12991.96
512.826	13106.53
513.193	13183.82
513.561	13262.91
513.929	13333.19
514.297	13488.44
514.664	13603.02
515.032	13671.04
515.4	13785.84
515.767	13890.47
516.135	13994.42
516.502	13906.51
516.869	14094.53
517.237	14209.33
517.604	14233.96
517.972	14368.2
518.339	14515.08
518.706	14607.74
519.073	14637.79
519.44	14774.74
519.808	14891.35
520.175	14892.93
520.542	15132.02
520.909	15207.04
521.276	15203.2
521.643	15367.49
522.009	15552.35
522.376	15655.62
522.743	15779.23
523.11	15951.43
523.477	16050.64
523.843	16225.1
524.21	16276.39
524.577	16373.79
524.943	16628.48
525.31	16618.08
525.676	16873.44
526.043	16876.15
526.409	17010.39
526.776	17155.69
527.142	17252.19
527.508	17372.86
527.874	17437.49
528.241	17578.96
528.607	17711.38
528.973	17858.73
529.339	17935.11
529.705	17958.84
530.071	18163.12
530.437	18337.13
530.803	18413.96
531.169	18512.04
531.535	18560.4
531.901	18579.61
532.267	18748.87
532.632	18813.5
532.998	18884.24
533.364	19038.58
533.73	19104.79
534.095	19245.13
534.461	19246.49
534.826	19378.69
535.192	19455.75
535.557	19595.85
535.923	19678.79
536.288	19740.94
536.653	19901.38
537.019	19775.29
537.384	19890.99
537.749	20038.56
538.114	20135.28
538.479	20173.69
538.845	20204.65
539.21	20228.61
539.575	20420.69
539.94	20492.33
540.305	20600.12
540.67	20553.57
541.034	20639.9
541.399	20732.1
541.764	20786.56
542.129	20846.22
542.494	20935.93
542.858	20979.32
543.223	21118.98
543.587	21259.09
543.952	21288.47
544.316	21344.51
544.681	21454.79
545.045	21488.91
545.41	21633.32
545.774	21648
546.138	21658.85
546.503	21758.74
546.867	21835.57
547.231	21976.13
547.595	21997.83
547.959	22125.28
548.324	22014.32
548.688	22107.88
549.052	22368.44
549.416	22308.55
549.779	22374.76
550.143	22447.98
550.507	22660.18
550.871	22692.04
551.235	22558.71
551.599	22844.13
551.962	22951.7
552.326	22906.05
552.689	23089.1
553.053	23094.75
553.417	23114.41
553.78	23499.25
554.143	23297.45
554.507	23448.63
554.87	23577.22
555.234	23866.03
555.597	23620.61
555.96	23809.98
556.323	23831
556.686	24048.85
557.05	24178.33
557.413	24208.61
557.776	24323.19
558.139	24534.03
558.502	24498.32
558.865	24590.53
559.228	24727.47
559.59	24914.13
559.953	24863.74
560.316	25216.72
560.679	25238.19
561.041	25308.47
561.404	25346.66
561.767	25553.44
562.129	25586.43
562.492	25836.82
562.854	25840.89
563.217	25805.86
563.579	25963.82
563.941	26082.92
564.304	26295.57
564.666	26378.73
565.028	26483.81
565.39	26593.41
565.753	26699.85
566.115	26787.08
566.477	26943.46
566.839	26982.55
567.201	27159.5
567.563	27227.74
567.925	27498.25
568.287	27426.84
568.648	27370.11
569.01	27705.92
569.372	27812.81
569.734	27810.1
570.095	27923.32
570.457	28019.81
570.819	28072.92
571.18	28162.64
571.542	28281.73
571.903	28491.67
572.265	28524.21
572.626	28484.21
572.987	28570.99
573.349	28738.21
573.71	28653.47
574.071	28766.69
574.432	28878.55
574.794	29121.25
575.155	29159.45
575.516	29069.05
575.877	29179.78
576.238	29270.4
576.599	29284.64
576.96	29468.36
577.32	29469.04
577.681	29587.68
578.042	29515.14
578.403	29489.83
578.763	29684.4
579.124	29718.75
579.485	29785.19
579.845	29863.38
580.206	29814.8
580.566	29780.9
580.927	29847.56
581.287	29973.66
581.648	29828.58
582.008	30110.83
582.368	29989.03
582.728	30049.37
583.089	29972.98
583.449	29973.66
583.809	30045.52
584.169	30049.14
584.529	30080.1
584.889	30285.52
585.249	30072.64
585.609	30027.9
585.969	30322.58
586.329	30115.8
586.688	30364.39
587.048	30098.86
587.408	30158.51
587.768	30156.03
588.127	30176.14
588.487	30216.82
588.846	30313.77
589.206	30116.03
589.565	30126.43
589.925	30344.72
590.284	30153.32
590.643	30154.9
591.003	30349.47
591.362	30569.13
591.721	30349.24
592.08	30410.71
592.44	30480.31
592.799	30479.64
593.158	30338.62
593.517	30381.33
593.876	30383.82
594.235	30361.9
594.593	30387.21
594.952	30509.01
595.311	30388.57
595.67	30592.63
596.029	30716.92
596.387	30695.68
596.746	30832.17
597.104	30687.09
597.463	30663.59
597.822	30681.44
598.18	30607.77
598.538	30585.4
598.897	30791.27
599.255	30524.38
599.613	30942
599.972	30722.57
600.33	30813.86
600.688	30791.72
601.046	30977.48
601.404	30909.91
601.762	30844.37
602.12	31032.16
602.478	30957.36
602.836	31034.2
603.194	30905.39
603.552	31065.16
603.91	30857.93
604.268	31055.67
604.625	30977.25
604.983	31062.22
605.341	31002.11
605.698	31183.57
606.056	31232.38
606.413	31141.77
606.771	31396.67
607.128	31310.12
607.485	31201.88
607.843	31236.23
608.2	31435.77
608.557	31572.26
608.914	31407.07
609.272	31593.05
609.629	31732.71
609.986	31746.95
610.343	31642.09
610.7	31728.42
611.057	31709.21
611.414	31640.96
611.771	31806.16
612.127	31948.75
612.484	31931.58
612.841	31992.82
613.198	31915.76
613.554	31769.32
613.911	32111.91
614.267	32080.5
614.624	31974.06
614.98	31995.08
615.337	32136.09
615.693	32160.5
616.05	32100.84
616.406	32284.11
616.762	32247.73
617.118	32242.3
617.475	32208.86
617.831	32271.23
618.187	32264.22
618.543	32475.74
618.899	32539.92
619.255	32475.74
619.611	32494.05
619.967	32557.77
620.323	32598.45
620.678	32425.8
621.034	32434.39
621.39	32404.56
621.746	32351
622.101	32770.88
622.457	32471.9
622.812	32562.07
623.168	32658.56
623.523	32530.88
623.879	32712.35
624.234	32436.42
624.589	32599.81
624.945	32536.98
625.3	32702.18
625.655	32546.02
626.01	32639.35
626.365	32685.91
626.72	32628.05
627.075	32566.36
627.43	32496.53
627.785	32454.95
628.14	32541.73
628.495	32615.17
628.85	32467.83
629.205	32427.16
629.559	32531.33
629.914	32494.72
630.269	32400.49
630.623	32406.37
630.978	32432.81
631.332	32488.85
631.687	32515.52
632.041	32259.25
632.396	32360.94
632.75	32422.18
633.104	32288.4
633.459	32231.45
633.813	32165.69
634.167	32137.45
634.521	32154.39
634.875	32150.33
635.229	32113.49
635.583	31911.46
635.937	31916.21
636.291	31901.75
636.645	31902.2
636.999	31857.91
637.352	31923.89
637.706	31674.86
638.06	31875.31
638.413	31815.42
638.767	31722.54
639.121	31834.4
639.474	31590.79
639.828	31575.2
640.181	31620.4
640.534	31513.51
640.888	31355.32
641.241	31287.07
641.594	31264.02
641.947	31377.24
642.301	31332.72
642.654	31382.66
643.007	31421.98
643.36	31237.81
643.713	31213.18
644.066	31216.11
644.419	31060.19
644.771	30909.46
645.124	30694.77
645.477	30569.13
645.83	30458.62
646.182	30262.69
646.535	30280.55
646.888	30232.64
647.24	29946.77
647.593	30239.64
647.945	30047.78
648.298	29940.44
648.65	29863.38
649.002	29755.36
649.355	29983.38
649.707	29808.69
650.059	29958.07
650.411	30370.49
650.763	30308.79
651.115	30629.24
651.467	30492.74
651.819	30478.96
652.171	30365.74
652.523	30394.21
652.875	30393.99
653.227	30323.03
653.578	30498.84
653.93	30373.88
654.282	30158.51
654.633	30077.84
654.985	30164.62
655.337	30167.1
655.688	30261.34
656.039	30250.94
656.391	29959.2
656.742	30112.64
657.094	30047.11
657.445	30189.02
657.796	30092.53
658.147	30055.92
658.498	30042.81
658.849	30058.86
659.2	29921.23
659.551	29960.55
659.902	30066.09
660.253	29947.67
660.604	30034.9
660.955	29824.06
661.306	29898.18
661.656	29937.05
662.007	29924.62
662.358	29808.24
662.708	29890.73
663.059	29772.76
663.409	29709.04
663.76	29747.9
664.11	29759.66
664.461	29766.43
664.811	29739.32
665.161	29749.94
665.511	29806.89
665.862	29722.37
666.212	29792.87
666.562	29787.45
666.912	29732.09
667.262	29578.87
667.612	29708.58
667.962	29725.98
668.312	29597.63
668.662	29740.9
669.011	29716.94
669.361	29559.66
669.711	29636.04
670.06	29583.84
670.41	29528.02
670.76	29426.56
671.109	29501.36
671.459	29494.35
671.808	29405.77
672.157	29495.26
672.507	29284.19
672.856	29393.79
673.205	29414.58
673.554	29465.65
673.904	29230.4
674.253	29473.11
674.602	29353.56
674.951	28947.7
675.3	28706.35
675.649	29171.42
675.998	29164.19
676.346	29043.06
676.695	29216.39
677.044	29082.61
677.393	29030.18
677.741	29158.77
678.09	28983.63
678.438	29041.26
678.787	29111.31
679.135	29019.56
679.484	28798.78
679.832	29011.43
680.181	28707.48
680.529	28906.57
680.877	28798.55
681.225	28700.93
681.573	28867.7
681.922	28737.54
682.27	28628.84
682.618	28540.48
682.966	28522.4
683.314	28594.49
683.661	28404.21
684.009	28298.9
684.357	28235.85
684.705	28277.89
685.053	28235.4
685.4	28219.58
685.748	27962.19
686.095	28134.16
686.443	27900.27
686.79	27876.99
687.138	27884.22
687.485	27883.09
687.832	27836.77
688.18	27773.04
688.527	27657.11
688.874	27618.47
689.221	27539.15
689.568	27675.64
689.915	27559.71
690.262	27479.04
690.609	27369.21
690.956	27250.79
691.303	27246.95
691.65	27134.41
691.997	27197.69
692.344	26973.97
692.69	26937.81
693.037	27084.92
693.383	26825.72
693.73	26945.72
694.077	26639.96
694.423	26651.71
694.769	26439.52
695.116	26503.24
695.462	26500.08
695.808	26382.57
696.155	26433.19
696.501	26244.27
696.847	26224.61
697.193	26051.28
697.539	26075.23
697.885	25886.76
698.231	25945.52
698.577	25877.5
698.923	25848.57
699.269	25591.86
699.614	25618.97
699.96	25512.99
700.306	25520.22
700.651	25546.66
700.997	25389.15
701.342	25383.05
701.688	25276.38
702.033	25194.8
702.379	25174.92
702.724	25085.2
703.069	25226.67
703.415	24829.16
703.76	24938.54
704.105	24877.52
704.45	24809.5
704.795	24667.81
705.14	24672.33
705.485	24618.77
705.83	24477.53
706.175	24522.96
706.52	24444.77
706.865	24386.01
707.209	24314.83
707.554	24208.39
707.899	24192.12
708.243	24111.89
708.588	24080.71
708.932	23958
709.277	23964.55
709.621	23908.51
709.966	23724.79
710.31	23806.82
710.654	23628.52
710.998	23804.56
711.342	23651.12
711.687	23614.05
712.031	23498.35
712.375	23413.61
712.719	23439.37
713.063	23464.23
713.407	23470.1
713.75	23304.01
714.094	23157.8
714.438	23094.75
714.782	23263.33
715.125	23133.84
715.469	23026.27
715.812	22954.86
716.156	22809.1
716.499	22906.5
716.843	22924.13
717.186	22808.88
717.53	22925.48
717.873	22911.93
718.216	22795.09
718.559	22573.63
718.902	22554.65
719.246	22595.1
719.589	22616.11
719.932	22404.14
720.275	22455.21
720.617	22495.89
720.96	22461.32
721.303	22440.3
721.646	22338.38
721.989	22225.16
722.331	22275.56
722.674	22129.57
723.016	22139.29
723.359	22106.3
723.701	22132.51
724.044	21991.72
724.386	21895.91
724.729	21930.48
725.071	21906.75
725.413	21835.34
725.755	21832.41
726.097	21746.08
726.439	21642.58
726.782	21717.15
727.124	21789.24
727.465	21650.04
727.807	21544.05
728.149	21532.08
728.491	21578.85
728.833	21605.29
729.175	21411.63
729.516	21413.43
729.858	21436.03
730.199	21462.47
730.541	21375.7
730.882	21310.39
731.224	21320.33
731.565	21102.03
731.906	21184.29
732.248	21133.89
732.589	21103.16
732.93	21104.97
733.271	21044.4
733.612	21125.53
733.953	21020.22
734.294	20963.5
734.635	20980
734.976	20817.29
735.317	20824.75
735.658	20872.66
735.999	20816.39
736.339	20816.84
736.68	20669.95
737.021	20676.5
737.361	20630.63
737.702	20760.34
738.042	20708.82
738.383	20545.43
738.723	20645.54
739.063	20552.89
739.404	20460.01
739.744	20442.16
740.084	20432.22
740.424	20431.77
740.764	20333.91
741.104	20435.38
741.444	20293.46
741.784	20185.22
742.124	20298.21
742.464	20271.54
742.804	20224.54
743.143	20212.56
743.483	20204.65
743.823	19965.34
744.162	20067.48
744.502	20109.51
744.841	19999.46
745.181	20147.7
745.52	19928.28
745.86	19999.23
746.199	19977.31
746.538	19758.11
746.877	19930.76
747.216	19868.84
747.556	19639.7
747.895	19640.83
748.234	19599.7
748.573	19632.01
748.911	19649.19
749.25	19593.59
749.589	19507.5
749.928	19557.21
750.267	19531.22
750.605	19352.92
750.944	19344.11
751.283	19314.05
751.621	19361.74
751.96	19274.28
752.298	19250.33
752.636	19282.87
752.975	19149.31
753.313	19055.98
753.651	19078.35
753.989	18970.11
754.327	18933.95
754.666	18818.93
755.004	18855.54
755.342	18882.43
755.679	18933.5
756.017	18831.13
756.355	18894.63
756.693	18635.65
757.031	18669.55
757.368	18633.39
757.706	18584.36
758.044	18533.28
758.381	18510.01
758.719	18484.25
759.056	18449.9
759.394	18422.33
759.731	18268.43
760.068	18218.49
760.405	18194.54
760.743	18233.18
761.08	18241.54
761.417	18064.37
761.754	18011.72
762.091	17916.8
762.428	17842.91
762.765	17732.85
763.102	17884.94
763.438	17769.46
763.775	17652.4
764.112	17605.85
764.449	17738.5
764.785	17602.69
765.122	17416.7
765.458	17390.49
765.795	17279.08
766.131	17301
766.467	17348.46
766.804	17105.52
767.14	17109.82
767.476	17073.89
767.812	17039.09
768.148	16976.26
768.485	16953.66
768.821	16800
769.157	16813.1
769.492	16778.08
769.828	16762.48
770.164	16513.9
770.5	16520
770.836	16366.79
771.171	16404.07
771.507	16353.23
771.842	16361.82
772.178	16290.18
772.513	16237.07
772.849	16180.8
773.184	16111.2
773.519	16117.53
773.855	16001.37
774.19	15901.04
774.525	15883.41
774.86	15845.22
775.195	15888.38
775.53	15881.83
775.865	15636.64
776.2	15551.22
776.535	15489.3
776.87	15437.55
777.205	15453.59
777.539	15348.73
777.874	15354.61
778.209	15189.87
778.543	15174.28
778.878	15187.38
779.212	15089.31
779.547	15064.9
779.881	15027.39
780.215	15009.08
780.55	15060.38
780.884	14835.53
781.218	14832.59
781.552	14791.01
781.886	14759.82
782.22	14647.51
782.554	14558.25
782.888	14425.6
783.222	14490.68
783.556	14450.23
783.889	14311.25
784.223	14236.67
784.557	14216.11
784.89	14256.33
785.224	14138.6
785.557	14078.94
785.891	14018.6
786.224	13990.58
786.558	13993.97
786.891	13824.26
787.224	13870.81
787.557	13838.94
787.891	13778.61
788.224	13690.7
788.557	13691.15
788.89	13628.1
789.223	13634.2
789.556	13497.26
789.888	13564.37
790.221	13478.73
790.554	13370.93
790.887	13333.42
791.219	13334.32
791.552	13314.44
791.884	13277.83
792.217	13137.49
792.549	13135.91
792.882	13034.9
793.214	13032.86
793.546	13027.67
793.879	12925.3
794.211	12870.16
794.543	12912.64
794.875	12805.98
795.207	12895.92
795.539	12719.88
795.871	12708.35
796.203	12650.05
796.535	12571.86
796.867	12544.74
797.198	12451.64
797.53	12569.6
797.862	12465.42
798.193	12457.51
798.525	12371.86
798.856	12415.03
799.188	12190.85
799.519	12178.87
799.85	12115.37
800.182	12152.66
800.513	12163.96
800.844	12124.19
801.175	12114.24
801.506	12116.73
801.837	11994.92
802.168	12065.66
802.499	11939.56
802.83	11897.75
803.161	11812.1
803.491	11841.48
803.822	11863.4
804.153	11720.36
804.483	11689.17
804.814	11612.79
805.145	11695.72
805.475	11682.84
805.805	11620.7
806.136	11541.15
806.466	11554.48
806.796	11486.69
807.126	11477.2
807.457	11406.92
807.787	11459.57
808.117	11362.17
808.447	11380.48
808.777	11293.93
809.107	11311.33
809.436	11186.81
809.766	11238.11
810.096	11149.98
810.426	11124.67
810.755	11108.85
811.085	11049.64
811.414	11061.39
811.744	11018.91
812.073	10966.7
812.403	10994.27
812.732	10942.97
813.061	10884.9
813.39	10820.04
813.719	10778.01
814.049	10883.09
814.378	10796.76
814.707	10784.11
815.036	10811
815.365	10724.9
815.693	10622.76
816.022	10639.03
816.351	10569.43
816.68	10520.16
817.008	10584.79
817.337	10525.36
817.665	10448.75
817.994	10481.52
818.322	10515.87
818.651	10452.59
818.979	10300.73
819.307	10513.38
819.636	10378.7
819.964	10346.83
820.292	10406.94
820.62	10304.57
820.948	10325.59
821.276	10404.23
821.604	10391.35
821.932	10323.1
822.259	10304.12
822.587	10298.92
822.915	10344.57
823.243	10317.68
823.57	10220.28
823.898	10304.8
824.225	10296.66
824.553	10251.24
824.88	10238.81
825.207	10344.8
825.535	10277.23
825.862	10303.67
826.189	10246.95
826.516	10305.48
826.843	10361.07
827.17	10300.28
827.497	10361.97
827.824	10329.21
828.151	10355.42
828.478	10222.99
828.805	10267.29
829.131	10246.72
829.458	10259.38
829.785	10162.2
830.111	10242.2
830.438	10299.38
830.764	10249.21
831.09	10255.99
831.417	10202.43
831.743	10223.67
832.069	10258.7
832.395	10221.41
832.722	10271.13
833.048	10234.07
833.374	10186.61
833.7	10109.78
834.026	10090.57
834.351	10166.05
834.677	10205.37
835.003	10168.98
835.329	10127.18
835.654	10141.41
835.98	10123.11
836.306	10144.13
836.631	10066.84
836.956	10093.96
837.282	10018.25
837.607	9981.87
837.932	9999.5
838.258	9994.98
838.583	10001.76
838.908	9924.47
839.233	10000.63
839.558	9971.7
839.883	9894.87
840.208	9814.19
840.533	9885.83
840.858	9851.03
841.182	9821.42
841.507	9838.6
841.832	9743.23
842.156	9800.63
842.481	9780.52
842.805	9703.91
843.13	9657.81
843.454	9660.07
843.778	9616.46
844.103	9572.84
844.427	9630.24
844.751	9645.83
845.075	9573.07
845.399	9569.68
845.723	9572.62
846.047	9536.46
846.371	9448.55
846.695	9447.65
847.019	9383.47
847.343	9415.11
847.666	9248.1
847.99	9246.75
848.313	9234.09
848.637	9197.26
848.96	9125.4
849.284	9152.29
849.607	9117.71
849.931	9020.31
850.254	8950.71
850.577	8942.8
850.9	8888.57
851.223	8935.8
851.546	8840.88
851.869	8799.75
852.192	8903.03
852.515	8764.95
852.838	8735.58
853.161	8755.46
853.483	8696.71
853.806	8598.86
854.129	8589.36
854.451	8558.4
854.774	8512.98
855.096	8540.55
855.419	8527.9
855.741	8509.37
856.063	8417.17
856.385	8416.04
856.708	8347.34
857.03	8355.25
857.352	8385.3
857.674	8325.19
857.996	8313.21
858.318	8270.05
858.64	8315.47
858.961	8282.93
859.283	8219.66
859.605	8208.58
859.926	8279.54
860.248	8193.44
860.57	8131.75
860.891	8126.55
861.212	8121.58
861.534	8104.63
861.855	8055.37
862.176	8116.83
862.498	8054.24
862.819	8111.41
863.14	7997.06
863.461	7969.72
863.782	8000.91
864.103	7955.03
864.424	7946.9
864.745	7941.47
865.065	7954.13
865.386	7883.17
865.707	7866.67
866.027	7949.16
866.348	7891.98
866.668	7855.82
866.989	7803.85
867.309	7779.22
867.63	7814.02
867.95	7745.09
868.27	7792.78
868.59	7775.15
868.91	7772.21
869.23	7686.34
869.55	7651.99
869.87	7807.24
870.19	7720.46
870.51	7719.1
870.83	7734.7
871.15	7614.7
871.469	7615.83
871.789	7671.42
872.109	7666.68
872.428	7569.96
872.748	7614.02
873.067	7634.14
873.386	7627.58
873.706	7552.78
874.025	7574.7
874.344	7472.56
874.663	7568.83
874.982	7507.13
875.301	7508.49
875.62	7419
875.939	7514.36
876.258	7467.59
876.577	7414.71
876.896	7461.26
877.214	7414.25
877.533	7468.94
877.852	7401.15
878.17	7382.84
878.489	7399.79
878.807	7444.31
879.125	7368.38
879.444	7321.15
879.762	7347.59
880.08	7289.74
880.398	7313.92
880.716	7317.99
881.034	7323.86
881.352	7365.67
881.67	7209.97
881.988	7231.21
882.306	7224.43
882.624	7226.24
882.941	7185.79
883.259	7153.92
883.577	7181.94
883.894	7150.76
884.212	7148.27
884.529	7109.4
884.846	7090.87
885.164	7096.97
885.481	7074.15
885.798	7093.81
886.115	7020.37
886.432	6977.43
886.75	7064.21
887.067	7089.97
887.383	7005
887.7	6989.41
888.017	6964.1
888.334	6985.34
888.651	6935.4
888.967	6894.72
889.284	6832.12
889.6	6824.21
889.917	6778.34
890.233	6802.52
890.55	6774.95
890.866	6819.47
891.182	6742.18
891.498	6706.02
891.815	6663.54
892.131	6736.31
892.447	6675.97
892.763	6623.31
893.079	6620.6
893.395	6580.15
893.71	6604.78
894.026	6586.93
894.342	6595.07
894.657	6527.5
894.973	6543.32
895.289	6534.73
895.604	6481.85
895.92	6425.35
896.235	6450.44
896.55	6447.73
896.865	6495.86
897.181	6435.3
897.496	6393.94
897.811	6349.65
898.126	6367.05
898.441	6360.27
898.756	6277.33
899.071	6264.68
899.386	6267.62
899.7	6255.19
900.015	6181.52
900.33	6198.69
900.644	6138.58
900.959	6137
901.273	6129.99
901.588	6123.21
901.902	6037.12
902.216	6083.22
902.531	6050
902.845	6002.54
903.159	5988.75
903.473	5978.36
903.787	5952.37
904.101	5917.34
904.415	5945.14
904.729	5858.14
905.042	5844.35
905.356	5799.38
905.67	5836.22
905.984	5884.35
906.297	5811.36
906.611	5765.71
906.924	5783.34
907.237	5732.94
907.551	5660.4
907.864	5671.93
908.177	5652.72
908.491	5715.99
908.804	5619.27
909.117	5592.38
909.43	5547.86
909.743	5585.6
910.056	5540.63
910.368	5539.5
910.681	5481.42
910.994	5448.88
911.307	5418.83
911.619	5415.66
911.932	5433.74
912.244	5370.47
912.557	5376.34
912.869	5362.33
913.181	5329.34
913.494	5323.69
913.806	5299.96
914.118	5282.33
914.43	5235.1
914.742	5244.82
915.054	5221.32
915.366	5242.79
915.678	5165.73
915.99	5132.28
916.302	5113.98
916.613	5074.43
916.925	5090.25
917.236	5058.61
917.548	5010.25
917.859	5016.8
918.171	4987.88
918.482	5000.76
918.794	4946.97
919.105	4962.12
919.416	4946.3
919.727	4903.81
920.038	4905.17
920.349	4831.72
920.66	4830.14
920.971	4806.64
921.282	4831.5
921.593	4803.93
921.903	4793.08
922.214	4727.55
922.525	4753.31
922.835	4778.62
923.146	4716.7
923.456	4704.95
923.767	4669.24
924.077	4669.02
924.387	4612.75
924.697	4613.42
925.008	4602.12
925.318	4547.66
925.628	4555.12
925.938	4558.96
926.248	4514.44
926.558	4471.96
926.867	4459.53
927.177	4460.66
927.487	4449.13
927.796	4386.31
928.106	4362.13
928.416	4382.7
928.725	4375.01
929.034	4371.85
929.344	4339.31
929.653	4323.04
929.962	4256.6
930.271	4269.7
930.581	4281.46
930.89	4242.36
931.199	4221.34
931.508	4219.76
931.817	4225.86
932.125	4224.06
932.434	4165.3
932.743	4099.54
933.051	4128.92
933.36	4074
933.669	4052.31
933.977	4037.85
934.286	4048.92
934.594	4043.72
934.902	4025.19
935.21	4022.03
935.519	3975.47
935.827	4038.98
936.135	3925.76
936.443	3960.56
936.751	3954.23
937.059	3925.76
937.367	3889.6
937.674	3902.03
937.982	3868.36
938.29	3868.58
938.597	3820.68
938.905	3821.35
939.213	3829.72
939.52	3782.71
939.827	3777.74
940.135	3754.92
940.442	3704.07
940.749	3705.88
941.056	3707.23
941.363	3676.73
941.67	3665.43
941.977	3685.09
942.284	3629.72
942.591	3619.55
942.898	3633.79
943.205	3623.85
943.511	3578.87
943.818	3565.99
944.125	3574.13
944.431	3565.77
944.738	3539.33
945.044	3532.77
945.35	3483.28
945.657	3464.3
945.963	3470.18
946.269	3484.64
946.575	3459.1
946.881	3448.26
947.187	3448.93
947.493	3377.52
947.799	3381.37
948.105	3365.1
948.41	3347.02
948.716	3379.78
949.022	3345.89
949.327	3320.35
949.633	3266.11
949.938	3307.02
950.244	3298.43
950.549	3268.15
950.854	3263.63
951.16	3249.17
951.465	3197.19
951.77	3239
952.075	3179.79
952.38	3162.84
952.685	3152.67
952.99	3121.26
953.294	3126.46
953.599	3149.51
953.904	3089.17
954.209	3091.66
954.513	3114.93
954.818	3086.23
955.122	3054.59
955.426	3057.76
955.731	3081.26
956.035	3050.75
956.339	2991.77
956.643	2988.38
956.948	2974.6
957.252	2987.7
957.556	2969.4
957.86	2959.91
958.163	2930.98
958.467	2935.73
958.771	2929.4
959.075	2932.34
959.378	2873.13
959.682	2892.79
959.985	2891.89
960.289	2837.43
960.592	2807.6
960.896	2797.2
961.199	2832.23
961.502	2791.55
961.805	2783.64
962.108	2777.54
962.411	2796.75
962.714	2753.59
963.017	2775.05
963.32	2765.34
963.623	2751.33
963.926	2735.28
964.228	2690.08
964.531	2677.66
964.833	2706.58
965.136	2664.1
965.438	2636.07
965.741	2653.93
966.043	2614.38
966.345	2624.55
966.648	2647.37
966.95	2592.01
967.252	2592.69
967.554	2566.47
967.856	2584.55
968.158	2539.81
968.46	2573.48
968.761	2540.03
969.063	2545.68
969.365	2506.36
969.666	2533.93
969.968	2503.65
970.269	2469.98
970.571	2469.98
970.872	2491.9
971.174	2474.05
971.475	2446.7
971.776	2431.33
972.077	2422.97
972.378	2405.57
972.679	2405.8
972.98	2400.6
973.281	2348.17
973.582	2399.7
973.883	2356.76
974.183	2330.77
974.484	2346.82
974.785	2371.45
975.085	2342.75
975.386	2364.9
975.686	2309.98
975.986	2293.48
976.287	2260.04
976.587	2286.93
976.887	2288.51
977.187	2274.5
977.487	2288.29
977.787	2263.88
978.087	2266.37
978.387	2265.69
978.687	2230.89
978.987	2234.5
979.286	2229.31
979.586	2203.54
979.885	2137.33
980.185	2197.22
980.484	2167.16
980.784	2184.11
981.083	2164.45
981.382	2156.09
981.682	2114.05
981.981	2112.47
982.28	2127.84
982.579	2108.41
982.878	2128.74
983.177	2129.65
983.475	2121.51
983.774	2071.8
984.073	2068.63
984.372	2076.09
984.67	2041.06
984.969	2005.36
985.267	2039.71
985.566	2015.53
985.864	1977.56
986.162	2007.39
986.461	1957
986.759	2001.74
987.057	1976.66
987.355	1985.7
987.653	1955.41
987.951	1958.13
988.249	1936.66
988.547	1935.75
988.844	1919.26
989.142	1921.52
989.44	1918.58
989.737	1913.61
990.035	1889.2
990.332	1896.43
990.63	1890.11
990.927	1878.13
991.224	1861.18
991.521	1880.61
991.819	1833.84
992.116	1851.46
992.413	1802.2
992.71	1801.75
993.006	1819.37
993.303	1794.06
993.6	1813.72
993.897	1790
994.193	1816.66
994.49	1772.14
994.787	1768.3
995.083	1749.77
995.379	1750
995.676	1733.95
995.972	1753.61
996.268	1729.88
996.565	1721.75
996.861	1721.97
997.157	1681.3
997.453	1683.33
997.749	1698.92
998.044	1674.52
998.34	1674.52
998.636	1669.32
998.932	1653.05
999.227	1641.07
999.523	1644.69
999.818	1649.66
1000.114	1620.96
1000.409	1625.71
1000.704	1577.35
1001	1621.64
1001.295	1598.59
1001.59	1587.74
1001.885	1599.49
1002.18	1605.37
1002.475	1574.41
1002.77	1572.6
1003.065	1540.28
1003.359	1530.79
1003.654	1573.05
1003.949	1527.63
1004.243	1511.36
1004.538	1504.13
1004.832	1541.87
1005.127	1506.16
1005.421	1483.56
1005.715	1477.46
1006.009	1491.7
1006.304	1470.46
1006.598	1450.57
1006.892	1444.02
1007.186	1446.28
1007.48	1432.49
1007.773	1441.76
1008.067	1403.34
1008.361	1393.85
1008.655	1397.92
1008.948	1385.49
1009.242	1380.51
1009.535	1394.75
1009.829	1357.46
1010.122	1381.64
1010.415	1328.76
1010.708	1356.79
1011.001	1356.11
1011.295	1351.59
1011.588	1325.37
1011.881	1315.88
1012.173	1328.99
1012.466	1321.08
1012.759	1301.19
1013.052	1287.41
1013.344	1296.45
1013.637	1307.75
1013.93	1282.21
1014.222	1287.18
1014.514	1285.83
1014.807	1244.02
1015.099	1223
1015.391	1254.87
1015.683	1223.23
1015.976	1254.64
1016.268	1207.64
1016.56	1221.87
1016.851	1189.11
1017.143	1204.7
1017.435	1214.19
1017.727	1181.2
1018.018	1186.62
1018.31	1193.63
1018.602	1164.25
1018.893	1171.25
1019.185	1144.14
1019.476	1165.15
1019.767	1139.62
1020.058	1148.2
1020.35	1147.75
1020.641	1100.75
1020.932	1100.75
1021.223	1105.72
1021.514	1088.32
1021.804	1094.87
1022.095	1094.65
1022.386	1082.44
1022.677	1084.48
1022.967	1081.09
1023.258	1085.61
1023.548	1063.69
1023.839	1077.02
1024.129	1052.84
1024.419	1049.45
1024.709	1029.34
1025	1056.46
1025.29	1029.56
1025.58	1021.2
1025.87	1012.84
1026.16	998.83
1026.449	1002.45
1026.739	976.46
1027.029	1006.51
1027.319	983.46
1027.608	960.86
1027.898	964.71
1028.187	961.77
1028.477	981.43
1028.766	955.89
1029.055	934.2
1029.344	939.62
1029.634	935.1
1029.923	937.81
1030.212	920.19
1030.501	919.51
1030.79	903.69
1031.078	908.66
1031.367	886.74
1031.656	873.18
1031.945	874.99
1032.233	883.35
1032.522	868.21
1032.81	889.23
1033.099	867.53
1033.387	874.99
1033.675	882.22
1033.963	839.06
1034.251	870.25
1034.54	848.78
1034.828	847.2
1035.116	839.51
1035.403	839.74
1035.691	832.73
1035.979	838.38
1036.267	817.14
1036.554	814.43
1036.842	810.59
1037.129	805.61
1037.417	797.03
1037.704	808.33
1037.992	790.25
1038.279	806.52
1038.566	783.02
1038.853	783.02
1039.14	783.02
