Data from breadboard_black_back_FLMS001491_00035.txt Node
Date: Wed Feb 08 10:50:18 GMT 2017
User: dcchb
Spectrometer: FLMS00149
Trigger mode: 0
Integration Time (sec): 2.000000E-2
Scans to average: 10
Electric dark correction enabled: true
Nonlinearity correction enabled: false
Boxcar width: 0
XAxis mode: Wavelengths
Number of Pixels in Spectrum: 2048
>>>>>Begin Spectral Data<<<<<
341.393	4.08
341.776	4.08
342.16	4.08
342.543	-33.66
342.927	-65.29
343.31	-56.93
343.693	-70.72
344.077	-58.29
344.46	-49.7
344.843	-51.51
345.226	-54.9
345.61	-49.25
345.993	-19.19
346.376	-17.16
346.759	9.05
347.142	48.83
347.525	25.32
347.908	56.96
348.291	70.52
348.674	106.9
349.057	110.07
349.44	122.5
349.823	135.15
350.206	173.79
350.588	201.14
350.971	226.9
351.354	236.17
351.737	259.22
352.119	261.48
352.502	274.36
352.884	272.32
353.267	309.61
353.65	299.67
354.032	288.14
354.414	301.02
354.797	314.58
355.179	320.23
355.562	349.38
355.944	316.62
356.326	340.57
356.709	322.04
357.091	353.45
357.473	356.16
357.855	366.33
358.238	347.58
358.62	364.07
359.002	372.66
359.384	354.58
359.766	374.47
360.148	352.55
360.53	354.81
360.912	358.87
361.294	359.55
361.676	370.63
362.057	341.93
362.439	347.8
362.821	341.93
363.203	352.32
363.584	351.42
363.966	352.77
364.348	354.36
364.729	359.55
365.111	326.79
365.493	328.59
365.874	333.56
366.256	331.53
366.637	353.68
367.019	350.29
367.4	345.54
367.781	347.58
368.163	350.51
368.544	355.26
368.925	314.13
369.306	339.89
369.688	340.8
370.069	358.65
370.45	377.86
370.831	362.72
371.212	378.31
371.593	352.32
371.974	350.97
372.355	348.25
372.736	338.54
373.117	381.25
373.498	340.34
373.879	367.69
374.26	347.12
374.641	360.23
375.021	354.81
375.402	347.8
375.783	364.98
376.163	381.92
376.544	385.99
376.925	382.83
377.305	375.82
377.686	375.6
378.066	388.48
378.447	393.22
378.827	386.22
379.208	377.41
379.588	403.62
379.968	386.44
380.349	403.39
380.729	393.22
381.109	403.62
381.489	393.9
381.87	392.77
382.25	414.47
382.63	414.92
383.01	425.54
383.39	411.75
383.77	435.26
384.15	429.38
384.53	421.47
384.91	418.08
385.29	435.26
385.67	440.23
386.049	445.43
386.429	425.77
386.809	451.98
387.189	452.43
387.568	443.84
387.948	449.95
388.328	467.35
388.707	456.95
389.087	465.76
389.466	453.56
389.846	472.09
390.225	468.93
390.605	476.61
390.984	497.18
391.363	501.7
391.743	489.72
392.122	509.61
392.501	498.53
392.881	496.27
393.26	520.9
393.639	502.37
394.018	522.03
394.397	532.88
394.776	533.11
395.155	519.55
395.534	529.72
395.913	524.07
396.292	537.85
396.671	521.81
397.05	538.98
397.429	539.43
397.808	546.44
398.186	571.75
398.565	538.53
398.944	551.64
399.323	560.9
399.701	567.23
400.08	576.5
400.458	569.49
400.837	572.43
401.215	583.95
401.594	574.69
401.972	588.93
402.351	615.82
402.729	604.74
403.107	606.78
403.486	618.3
403.864	608.13
404.242	615.37
404.62	635.48
404.999	639.09
405.377	676.83
405.755	664.4
406.133	645.87
406.511	656.72
406.889	694.01
407.267	677.96
407.645	687.68
408.023	690.62
408.401	707.11
408.779	704.85
409.156	721.35
409.534	710.96
409.912	737.62
410.29	748.92
410.667	717.28
411.045	780.11
411.422	751.63
411.8	755.25
412.178	767.9
412.555	806.09
412.933	783.5
413.31	807.68
413.687	808.35
414.065	816.94
414.442	819.2
414.819	842.48
415.197	850.16
415.574	863.95
415.951	880.89
416.328	887.22
416.705	873.21
417.082	892.87
417.46	884.28
417.837	893.55
418.214	900.33
418.591	907.79
418.967	931.29
419.344	925.87
419.721	980.1
420.098	955.7
420.475	969.71
420.852	968.12
421.228	974.9
421.605	976.49
421.982	992.76
422.358	995.92
422.735	1049.93
423.111	1038.18
423.488	1017.39
423.864	1054.22
424.241	1081.79
424.617	1048.8
424.994	1085.18
425.37	1077.05
425.746	1083.83
426.123	1103.49
426.499	1095.58
426.875	1129.25
427.251	1134
427.627	1179.64
428.003	1156.82
428.379	1189.36
428.756	1152.3
429.132	1219.87
429.507	1232.07
429.883	1223.71
430.259	1275.46
430.635	1254.22
431.011	1300.77
431.387	1311.17
431.763	1307.1
432.138	1321.11
432.514	1348.23
432.89	1371.28
433.265	1394.33
433.641	1403.82
434.016	1400.2
434.392	1432.29
434.767	1455.57
435.143	1455.34
435.518	1467.55
435.894	1488.11
436.269	1518.84
436.644	1550.26
437.02	1534.89
437.395	1524.49
437.77	1588.67
438.145	1597.03
438.52	1610.14
438.895	1639.97
439.271	1613.08
439.646	1667.99
440.021	1672.96
440.395	1682.46
440.77	1666.64
441.145	1682.91
441.52	1760.65
441.895	1712.29
442.27	1727.2
442.645	1733.08
443.019	1757.71
443.394	1751.61
443.769	1776.01
444.143	1748.89
444.518	1811.49
444.892	1809.91
445.267	1849.01
445.641	1838.16
446.016	1855.11
446.39	1880.19
446.764	1866.18
447.139	1882
447.513	1900.98
447.887	1883.13
448.262	1919.74
448.636	1933.52
449.01	1954.54
449.384	1980.75
449.758	1978.04
450.132	2003.8
450.506	2013.75
450.88	2065.72
451.254	2025.27
451.628	2043.12
452.002	2100.52
452.376	2093.97
452.75	2144.14
453.123	2179.62
453.497	2207.87
453.871	2196.34
454.244	2241.09
454.618	2283.57
454.992	2283.57
455.365	2311.82
455.739	2347.3
456.112	2359.27
456.486	2396.79
456.859	2423.23
457.232	2467.52
457.606	2453.96
457.979	2481.3
458.352	2588.65
458.725	2594.07
459.099	2597.23
459.472	2694.63
459.845	2663.67
460.218	2692.6
460.591	2751.35
460.964	2709.1
461.337	2779.38
461.71	2833.61
462.083	2863.22
462.456	2857.11
462.829	2942.76
463.201	2980.05
463.574	2955.42
463.947	2986.83
464.32	3066.6
464.692	3102.08
465.065	3129.2
465.438	3145.24
465.81	3201.74
466.183	3256.88
466.555	3281.06
466.928	3375.07
467.3	3334.16
467.672	3427.72
468.045	3491.22
468.417	3480.37
468.789	3511.33
469.161	3540.71
469.534	3594.72
469.906	3693.7
470.278	3680.14
470.65	3764.21
471.022	3806.47
471.394	3890.53
471.766	3909.52
472.138	3989.97
472.51	4026.12
472.882	4158.55
473.253	4156.97
473.625	4236.06
473.997	4323.06
474.369	4340.24
474.74	4387.24
475.112	4465.43
475.484	4515.83
475.855	4581.59
476.227	4655.48
476.598	4773.22
476.97	4828.14
477.341	4984.74
477.713	5008.02
478.084	5034.01
478.455	5168.69
478.827	5232.64
479.198	5316.94
479.569	5373.88
479.94	5537.04
480.311	5569.36
480.682	5680.99
481.053	5828.34
481.424	5900.42
481.795	5968.67
482.166	6037.14
482.537	6119.63
482.908	6243.47
483.279	6334.99
483.65	6443.23
484.021	6559.16
484.391	6633.51
484.762	6677.35
485.133	6770.01
485.503	6842.77
485.874	7061.52
486.244	7110.79
486.615	7189.2
486.985	7332.48
487.356	7451.34
487.726	7492.47
488.097	7640.04
488.467	7703.77
488.837	7866.47
489.207	7920.26
489.578	8061.27
489.948	8117.77
490.318	8195.28
490.688	8273.02
491.058	8388.72
491.428	8554.59
491.798	8594.82
492.168	8758.2
492.538	8808.82
492.908	8887.69
493.278	9116.61
493.648	9058.08
494.017	9156.61
494.387	9239.77
494.757	9366.55
495.126	9450.16
495.496	9525.19
495.866	9552.08
496.235	9654.45
496.605	9724.05
496.974	9757.95
497.344	9862.13
497.713	9935.35
498.082	10049.24
498.452	10199.07
498.821	10213.98
499.19	10229.8
499.559	10290.14
499.928	10412.62
500.298	10500.98
500.667	10607.64
501.036	10594.31
501.405	10733.52
501.774	10819.62
502.143	10825.72
502.512	10908.2
502.88	10957.01
503.249	11023
503.618	11120.63
503.987	11152.26
504.356	11311.13
504.724	11326.95
505.093	11346.16
505.462	11405.82
505.83	11549.99
506.199	11697.33
506.567	11719.03
506.936	11876.31
507.304	11973.03
507.672	11981.17
508.041	12126.7
508.409	12210.09
508.777	12290.31
509.145	12443.3
509.514	12366.69
509.882	12543.19
510.25	12560.36
510.618	12644.2
510.986	12724.43
511.354	12867.92
511.722	12999.22
512.09	13077.86
512.458	13107.01
512.826	13243.06
513.193	13221.59
513.561	13291.87
513.929	13478.98
514.297	13572.31
514.664	13690.73
515.032	13707
515.4	13863.83
515.767	13928.91
516.135	14029.7
516.502	13963.49
516.869	14207.78
517.237	14260.88
517.604	14220.66
517.972	14547.43
518.339	14634.88
518.706	14533.19
519.073	14714.88
519.44	14847.53
519.808	15073.97
520.175	15055.66
520.542	15227.86
520.909	15277.8
521.276	15388.76
521.643	15551.47
522.009	15598.02
522.376	15784.68
522.743	15840.05
523.11	16133.83
523.477	16148.52
523.843	16285.46
524.21	16470.77
524.577	16538.34
524.943	16673.7
525.31	16692.91
525.676	16912.79
526.043	17021.94
526.409	17140.35
526.776	17252.89
527.142	17386.68
527.508	17419.67
527.874	17608.14
528.241	17738.08
528.607	17806.1
528.973	17971.29
529.339	17992.99
529.705	18251.96
530.071	18328.12
530.437	18433.65
530.803	18575.34
531.169	18591.62
531.535	18684.95
531.901	18795.45
532.267	18799.07
532.632	19045.39
532.998	18972.4
533.364	19194.09
533.73	19187.31
534.095	19389.33
534.461	19417.58
534.826	19516.79
535.192	19663
535.557	19761.08
535.923	19783.22
536.288	19891.02
536.653	20020.05
537.019	19924.01
537.384	20130.78
537.749	20170.78
538.114	20233.61
538.479	20255.98
538.845	20407.61
539.21	20481.51
539.575	20488.29
539.94	20470.66
540.305	20642.41
540.67	20684.67
541.034	20857.32
541.399	20900.03
541.764	20944.77
542.129	21109.06
542.494	21056.64
542.858	21215.05
543.223	21361.26
543.587	21387.25
543.952	21419.56
544.316	21383.86
544.681	21496.62
545.045	21653.68
545.41	21733.23
545.774	21763.96
546.138	21820.23
546.503	21911.98
546.867	21876.73
547.231	22197.4
547.595	22095.03
547.959	22230.84
548.324	22279.88
548.688	22366.43
549.052	22435.58
549.416	22434.9
549.779	22514.68
550.143	22627.89
550.507	22724.39
550.871	22780.66
551.235	22782.47
551.599	23077.83
551.962	23114.89
552.326	23074.89
552.689	23298.16
553.053	23228.56
553.417	23308.1
553.78	23612.5
554.143	23588.55
554.507	23726.4
554.87	23633.29
555.234	23978.59
555.597	23763.68
555.96	23969.55
556.323	24228.08
556.686	24144.46
557.05	24321.86
557.413	24468.3
557.776	24408.19
558.139	24666.48
558.502	24615.41
558.865	24770.89
559.228	24898.57
559.59	24965.01
559.953	25136.98
560.316	25312.57
560.679	25381.04
561.041	25517.08
561.404	25576.06
561.767	25776.06
562.129	25692.9
562.492	26043.62
562.854	25997.3
563.217	26035.71
563.579	26154.35
563.941	26364.29
564.304	26415.36
564.666	26538.53
565.028	26663.72
565.39	26723.38
565.753	26953.43
566.115	26961.57
566.477	27085.4
566.839	27279.75
567.201	27399.97
567.563	27406.3
567.925	27567.42
568.287	27670.47
568.648	27672.51
569.01	28009.45
569.372	27985.49
569.734	27939.39
570.095	28181.65
570.457	28143
570.819	28283.56
571.18	28250.57
571.542	28406.72
571.903	28524.69
572.265	28633.61
572.626	28804.91
572.987	28684.01
573.349	28849.43
573.71	28935.98
574.071	28848.3
574.432	29142.98
574.794	29316.08
575.155	29287.61
575.516	29260.04
575.877	29415.29
576.238	29457.77
576.599	29650.99
576.96	29624.77
577.32	29615.28
577.681	29691.44
578.042	29843.52
578.403	29824.31
578.763	29876.74
579.124	29880.81
579.485	30060.24
579.845	30094.59
580.206	29987.47
580.566	30052.78
580.927	30170.07
581.287	30199.9
581.648	30168.03
582.008	30198.99
582.368	30087.81
582.728	30328.03
583.089	30239.9
583.449	30360.57
583.809	30260.01
584.169	30307.47
584.529	30301.82
584.889	30415.94
585.249	30180.92
585.609	30278.99
585.969	30594.24
586.329	30318.31
586.688	30456.84
587.048	30338.2
587.408	30425.65
587.768	30417.07
588.127	30425.2
588.487	30384.3
588.846	30434.69
589.206	30290.97
589.565	30320.8
589.925	30588.81
590.284	30394.02
590.643	30549.95
591.003	30456.16
591.362	30602.6
591.721	30462.04
592.08	30628.81
592.44	30641.24
592.799	30740.22
593.158	30474.92
593.517	30522.15
593.876	30652.77
594.235	30624.52
594.593	30692.99
594.952	30643.28
595.311	30597.63
595.67	30664.74
596.029	30926.21
596.387	30850.28
596.746	30922.82
597.104	30796.27
597.463	30845.76
597.822	30847.34
598.18	30891.63
598.538	30778.19
598.897	31063.15
599.255	30776.15
599.613	31158.52
599.972	31041.68
600.33	31065.41
600.688	30846.66
601.046	31121
601.404	31144.96
601.762	31031.06
602.12	31159.19
602.478	31208.46
602.836	31204.39
603.194	31075.36
603.552	31271.51
603.91	31040.33
604.268	31142.02
604.625	31194.45
604.983	31323.03
605.341	31260.44
605.698	31404.16
606.056	31446.64
606.413	31446.87
606.771	31535
607.128	31499.75
607.485	31473.08
607.843	31505.17
608.2	31679.41
608.557	31758.95
608.914	31647.54
609.272	31717.82
609.629	31871.94
609.986	32044.37
610.343	31781.78
610.7	32045.73
611.057	32021.32
611.414	31919.63
611.771	31908.1
612.127	32030.36
612.484	31997.36
612.841	32090.02
613.198	32017.93
613.554	32116.91
613.911	32254.99
614.267	32384.7
614.624	32129.34
614.98	32245.04
615.337	32449.1
615.693	32267.41
616.05	32292.05
616.406	32559.61
616.762	32371.37
617.118	32434.64
617.475	32501.53
617.831	32561.19
618.187	32519.39
618.543	32604.35
618.899	32682.77
619.255	32716.67
619.611	32677.57
619.967	32731.13
620.323	32730.23
620.678	32744.92
621.034	32596.67
621.39	32651.81
621.746	32648.42
622.101	32985.81
622.457	32587.63
622.812	32618.14
623.168	32906.27
623.523	32940.16
623.879	32901.07
624.234	32652.26
624.589	32751.92
624.945	32858.81
625.3	32765.25
625.655	32813.84
626.01	32758.93
626.365	32783.33
626.72	32763.22
627.075	32753.5
627.43	32831.47
627.785	32734.75
628.14	32788.53
628.495	32663.34
628.85	32795.99
629.205	32677.57
629.559	32816.33
629.914	32618.14
630.269	32731.58
630.623	32686.84
630.978	32552.15
631.332	32722.09
631.687	32734.29
632.041	32519.16
632.396	32577.24
632.75	32506.73
633.104	32501.98
633.459	32407.98
633.813	32339.28
634.167	32271.03
634.521	32304.93
634.875	32313.97
635.229	32189.45
635.583	32314.87
635.937	32179.51
636.291	32118.27
636.645	32029.91
636.999	32075.1
637.352	32073.3
637.706	31818.84
638.06	32035.78
638.413	31978.83
638.767	31863.36
639.121	32078.49
639.474	31846.63
639.828	31749.46
640.181	31829.23
640.534	31880.31
640.888	31600.77
641.241	31651.61
641.594	31551.27
641.947	31703.81
642.301	31493.65
642.654	31537.49
643.007	31513.31
643.36	31454.78
643.713	31390.83
644.066	31473.99
644.419	31277.38
644.771	31179.99
645.124	30819.54
645.477	30845.53
645.83	30637.17
646.182	30464.52
646.535	30351.76
646.888	30280.8
647.24	30235.15
647.593	30354.24
647.945	30273.12
648.298	30100.47
648.65	30023.86
649.002	29904.54
649.355	30097.08
649.707	30120.58
650.059	30231.54
650.411	30691.64
650.763	30494.58
651.115	30742.48
651.467	30744.06
651.819	30869.94
652.171	30714.23
652.523	30655.03
652.875	30682.82
653.227	30523.51
653.578	30775.48
653.93	30532.54
654.282	30427.24
654.633	30288.03
654.985	30370.74
655.337	30353.57
655.688	30454.13
656.039	30489.38
656.391	30244.42
656.742	30298.43
657.094	30246
657.445	30431.53
657.796	30250.97
658.147	30229.73
658.498	30271.31
658.849	30305.66
659.2	30128.71
659.551	30138.43
659.902	30176.85
660.253	30091.65
660.604	30238.09
660.955	29980.47
661.306	30170.07
661.656	30161.93
662.007	30186.57
662.358	30060.69
662.708	30042.39
663.059	29937.53
663.409	29826.12
663.76	30206.68
664.11	29964.88
664.461	29983.41
664.811	29951.77
665.161	29930.75
665.511	29816.41
665.862	29947.93
666.212	29959.9
666.562	29867.03
666.912	29882.17
667.262	29712.91
667.612	29838.55
667.962	29955.16
668.312	29867.25
668.662	29906.57
669.011	29745.67
669.361	29824.31
669.711	29641.04
670.06	29746.35
670.41	29735.28
670.76	29596.3
671.109	29770.76
671.459	29651.66
671.808	29680.59
672.157	29695.28
672.507	29463.87
672.856	29467.26
673.205	29480.37
673.554	29653.92
673.904	29444.66
674.253	29634.26
674.602	29498.9
674.951	29173.48
675.3	28855.98
675.649	29355.17
675.998	29377.32
676.346	29370.09
676.695	29451.9
677.044	29138.91
677.393	29173.03
677.741	29201.51
678.09	29213.48
678.438	29131.68
678.787	29226.14
679.135	29333.25
679.484	28966.48
679.832	29129.87
680.181	28879.25
680.529	29024.56
680.877	28940.72
681.225	28774.4
681.573	29112.24
681.922	28727.85
682.27	28809.43
682.618	28788.18
682.966	28732.59
683.314	28706.38
683.661	28572.14
684.009	28551.58
684.357	28436.55
684.705	28450.79
685.053	28465.48
685.4	28340.74
685.748	28275.65
686.095	28271.81
686.443	28103.23
686.79	28010.35
687.138	28044.47
687.485	28132.38
687.832	27967.19
688.18	27971.71
688.527	27799.06
688.874	27873.86
689.221	27745.5
689.568	27558.84
689.915	27599.74
690.262	27703.92
690.609	27698.27
690.956	27462.57
691.303	27492.85
691.65	27374.21
691.997	27265.06
692.344	27147.77
692.69	27107.1
693.037	27035.91
693.383	26984.62
693.73	27046.08
694.077	26814.22
694.423	26840.66
694.769	26677.5
695.116	26632.08
695.462	26634.79
695.808	26541.46
696.155	26661.46
696.501	26449.94
696.847	26324.75
697.193	26115.49
697.539	26220.34
697.885	26039.33
698.231	26093.79
698.577	26018.31
698.923	26068.71
699.269	25854.48
699.614	25619.45
699.96	25731.77
700.306	25691.77
700.651	25486.12
700.997	25529.51
701.342	25473.92
701.688	25433.92
702.033	25319.57
702.379	25376.52
702.724	25235.73
703.069	25368.84
703.415	24952.8
703.76	24977.66
704.105	24890.89
704.45	24913.71
704.795	24727.27
705.14	24802.75
705.485	24759.59
705.83	24642.3
706.175	24609.31
706.52	24471.91
706.865	24492.48
707.209	24430.56
707.554	24377.23
707.899	24356.66
708.243	24237.79
708.588	24251.58
708.932	24065.6
709.277	24102.43
709.621	24072.6
709.966	23944.24
710.31	24027.86
710.654	23724.81
710.998	23805.04
711.342	23732.5
711.687	23694.76
712.031	23612.05
712.375	23523.69
712.719	23551.71
713.063	23474.43
713.407	23615.89
713.75	23466.29
714.094	23365.73
714.438	23327.31
714.782	23349.91
715.125	23220.65
715.469	23154.66
715.812	23082.35
716.156	22975.46
716.499	22948.79
716.843	23034.89
717.186	22853.88
717.53	22986.98
717.873	22861.11
718.216	22939.52
718.559	22781.11
718.902	22572.98
719.246	22611.85
719.589	22609.82
719.932	22517.16
720.275	22538.63
720.617	22482.59
720.96	22434.9
721.303	22397.39
721.646	22427.45
721.989	22293.67
722.331	22346.55
722.674	22283.5
723.016	22240.11
723.359	22173.67
723.701	22202.82
724.044	22113.78
724.386	21904.75
724.729	22002.83
725.071	21948.36
725.413	22011.19
725.755	21925.77
726.097	21748.14
726.439	21751.31
726.782	21804.41
727.124	21879.44
727.465	21613.01
727.807	21642.16
728.149	21640.58
728.491	21667.92
728.833	21607.13
729.175	21514.25
729.516	21524.42
729.858	21480.13
730.199	21523.97
730.541	21432.22
730.882	21329.62
731.224	21465.21
731.565	21294.37
731.906	21319.91
732.248	21288.95
732.589	21126.92
732.93	21151.55
733.271	21171.43
733.612	21159.01
733.953	21180.7
734.294	21068.39
734.635	21027.26
734.976	20999.01
735.317	21012.57
735.658	20954.49
735.999	20887.6
736.339	20946.81
736.68	20909.75
737.021	20876.3
737.361	20672.24
737.702	20678.79
738.042	20686.7
738.383	20665.01
738.723	20652.35
739.063	20542.52
739.404	20656.19
739.744	20577.78
740.084	20534.62
740.424	20512.92
740.764	20455.3
741.104	20521.73
741.444	20454.62
741.784	20277.67
742.124	20319.93
742.464	20334.62
742.804	20270.22
743.143	20270.89
743.483	20235.87
743.823	20113.84
744.162	20208.97
744.502	20136.21
744.841	20146.38
745.181	20105.93
745.52	19999.94
745.86	20134.85
746.199	19949.77
746.538	19998.81
746.877	20001.75
747.216	19879.94
747.556	19931.24
747.895	19912.03
748.234	19711.81
748.573	19854.41
748.911	19768.31
749.25	19712.72
749.589	19653.28
749.928	19596.34
750.267	19576
750.605	19471.59
750.944	19413.29
751.283	19463.68
751.621	19388.66
751.96	19286.74
752.298	19279.73
752.636	19303.69
752.975	19182.33
753.313	19171.04
753.651	19210.81
753.989	19047.2
754.327	19000.64
754.666	18997.93
755.004	19000.64
755.342	18950.02
755.679	19013.07
756.017	18801.55
756.355	18857.15
756.693	18726.53
757.031	18805.17
757.368	18661.22
757.706	18607.89
758.044	18517.27
758.381	18564.72
758.719	18523.37
759.056	18540.09
759.394	18491.96
759.731	18357.27
760.068	18300.32
760.405	18251.06
760.743	18120.67
761.08	18222.81
761.417	18139.88
761.754	18042.25
762.091	18009.26
762.428	18014.23
762.765	17860.11
763.102	17858.53
763.438	17809.26
763.775	17622.6
764.112	17778.76
764.449	17715.03
764.785	17699.44
765.122	17454.92
765.458	17357.07
765.795	17381.7
766.131	17403.62
766.467	17354.59
766.804	17226.45
767.14	17109.62
767.476	17204.99
767.812	17004.99
768.148	17048.61
768.485	17000.25
768.821	16857.2
769.157	16782.4
769.492	16823.53
769.828	16738.33
770.164	16628.96
770.5	16625.57
770.836	16610.65
771.171	16499.47
771.507	16425.34
771.842	16353.03
772.178	16359.58
772.513	16353.03
772.849	16228.97
773.184	16129.08
773.519	16259.02
773.855	15935.41
774.19	15963.44
774.525	15920.05
774.86	15938.35
775.195	15865.59
775.53	15795.53
775.865	15758.02
776.2	15604.35
776.535	15593.5
776.87	15584.01
777.205	15480.06
777.539	15410.23
777.874	15382.43
778.209	15295.43
778.543	15229.44
778.878	15211.14
779.212	15207.07
779.547	15027.42
779.881	15191.71
780.215	14975.44
780.55	15053.4
780.884	14929.11
781.218	14894.54
781.552	14885.5
781.886	14779.96
782.22	14661.32
782.554	14697.93
782.888	14445.28
783.222	14456.81
783.556	14484.83
783.889	14426.53
784.223	14333.87
784.557	14226.31
784.89	14297.04
785.224	14191.51
785.557	14182.69
785.891	14097.5
786.224	14041
786.558	14008.23
786.891	13906.32
787.224	13916.71
787.557	13863.6
787.891	13774.57
788.224	13712.42
788.557	13837.16
788.89	13691.86
789.223	13728.69
789.556	13594.01
789.888	13567.79
790.221	13555.82
790.554	13403.96
790.887	13436.5
791.219	13384.97
791.552	13338.65
791.884	13197.18
792.217	13197.86
792.549	13128.03
792.882	13141.36
793.214	13027.02
793.546	13128.48
793.879	12974.81
794.211	12899.34
794.543	13000.12
794.875	12908.83
795.207	12829.51
795.539	12721.71
795.871	12823.18
796.203	12701.38
796.535	12639.91
796.867	12690.53
797.198	12620.7
797.53	12533.92
797.862	12492.79
798.193	12501.38
798.525	12534.6
798.856	12561.04
799.188	12363.53
799.519	12247.6
799.85	12259.8
800.182	12185
800.513	12189.75
800.844	12124.67
801.175	12114.95
801.506	12156.53
801.837	12060.04
802.168	11985.91
802.499	11934.62
802.83	11890.55
803.161	11926.93
803.491	11819.82
803.822	11834.05
804.153	11814.84
804.483	11699.59
804.814	11705.47
805.145	11669.31
805.475	11700.72
805.805	11655.3
806.136	11626.15
806.466	11667.73
806.796	11542.54
807.126	11491.69
807.457	11460.28
807.787	11474.74
808.117	11458.47
808.447	11352.71
808.777	11360.62
809.107	11305.71
809.436	11241.3
809.766	11237.91
810.096	11221.19
810.426	11148.65
810.755	11167.4
811.085	11156.1
811.414	11169.66
811.744	11039.95
812.073	11040.63
812.403	11001.98
812.732	10976
813.061	10965.38
813.39	10885.15
813.719	10898.03
814.049	10925.83
814.378	10907.75
814.707	10860.07
815.036	10862.78
815.365	10748.66
815.693	10686.96
816.022	10677.25
816.351	10626.85
816.68	10530.81
817.008	10640.19
817.337	10489.91
817.665	10489.91
817.994	10512.51
818.322	10573.07
818.651	10428.21
818.979	10426.18
819.307	10489.68
819.636	10451.04
819.964	10297.6
820.292	10411.94
820.62	10369.46
820.948	10338.73
821.276	10354.54
821.604	10407.2
821.932	10440.64
822.259	10389.35
822.587	10399.97
822.915	10338.95
823.243	10307.54
823.57	10280.42
823.898	10329.69
824.225	10276.58
824.553	10270.25
824.88	10320.65
825.207	10260.99
825.535	10318.61
825.862	10246.52
826.189	10267.99
826.516	10286.3
826.843	10337.37
827.17	10307.54
827.497	10273.87
827.824	10256.02
828.151	10388.67
828.478	10312.29
828.805	10361.78
829.131	10336.01
829.458	10336.69
829.785	10294.66
830.111	10267.54
830.438	10303.7
830.764	10290.82
831.09	10288.56
831.417	10228.45
831.743	10254.66
832.069	10329.01
832.395	10187.77
832.722	10261.21
833.048	10204.27
833.374	10232.06
833.7	10222.57
834.026	10220.08
834.351	10254.21
834.677	10172.85
835.003	10153.65
835.329	10166.53
835.654	10134.21
835.98	10083.59
836.306	10163.36
836.631	10113.87
836.956	10115.91
837.282	10088.79
837.607	10055.12
837.932	10092.4
838.258	10008.34
838.583	10006.08
838.908	9939.41
839.233	10044.5
839.558	9948.91
839.883	9941.9
840.208	9881.11
840.533	9881.11
840.858	9836.59
841.182	9876.59
841.507	9815.12
841.832	9764.05
842.156	9750.04
842.481	9750.94
842.805	9760.21
843.13	9676.37
843.454	9663.26
843.778	9681.79
844.103	9684.28
844.427	9670.49
844.751	9644.28
845.075	9639.31
845.399	9595.02
845.723	9592.98
846.047	9533.32
846.371	9431.4
846.695	9463.27
847.019	9362.03
847.343	9383.27
847.666	9284.97
847.99	9336.49
848.313	9221.24
848.637	9221.24
848.96	9191.64
849.284	9106.44
849.607	9089.72
849.931	9054.69
850.254	9089.72
850.577	9009.72
850.9	8990.51
851.223	8938.54
851.546	8848.37
851.869	8846.56
852.192	8836.84
852.515	8809.05
852.838	8755.04
853.161	8717.98
853.483	8701.93
853.806	8630.52
854.129	8623.29
854.451	8615.38
854.774	8560.69
855.096	8529.51
855.419	8530.86
855.741	8487.25
856.063	8461.26
856.385	8444.76
856.708	8460.13
857.03	8390.08
857.352	8473.24
857.674	8395.95
857.996	8343.98
858.318	8281.83
858.64	8275.28
858.961	8305.33
859.283	8231.89
859.605	8234.15
859.926	8259.68
860.248	8235.5
860.57	8195.73
860.891	8127.71
861.212	8146.24
861.534	8058.56
861.855	8090.2
862.176	8154.38
862.498	8102.63
862.819	8006.13
863.14	8034.83
863.461	7980.37
863.782	8049.75
864.103	8021.5
864.424	7944.44
864.745	8012.23
865.065	7956.19
865.386	7952.35
865.707	7873.93
866.027	7914.83
866.348	7939.24
866.668	7862.63
866.989	7878.9
867.309	7814.27
867.63	7830.09
867.95	7807.94
868.27	7773.37
868.59	7789.19
868.91	7775.4
869.23	7771.79
869.55	7724.1
869.87	7748.28
870.19	7752.58
870.51	7746.25
870.83	7727.27
871.15	7716.42
871.469	7635.97
871.789	7645.69
872.109	7609.76
872.428	7586.71
872.748	7671
873.067	7605.24
873.386	7572.02
873.706	7639.36
874.025	7461.96
874.344	7491.79
874.663	7550.32
874.982	7494.73
875.301	7536.54
875.62	7488.18
875.939	7530.44
876.258	7471.46
876.577	7431.46
876.896	7448.63
877.214	7435.75
877.533	7461.74
877.852	7414.51
878.17	7410.67
878.489	7420.16
878.807	7405.92
879.125	7406.15
879.444	7398.92
879.762	7292.7
880.08	7296.32
880.398	7303.78
880.716	7306.26
881.034	7294.51
881.352	7278.47
881.67	7273.27
881.988	7276.21
882.306	7249.32
882.624	7202.99
882.941	7196.89
883.259	7178.81
883.577	7190.33
883.894	7153.95
884.212	7148.07
884.529	7166.15
884.846	7102.65
885.164	7118.92
885.481	7052.71
885.798	7107.85
886.115	7035.08
886.432	7050.9
886.75	7018.59
887.067	7052.71
887.383	6975.65
887.7	6992.15
888.017	6968.64
888.334	6927.06
888.651	6890.91
888.967	6917.8
889.284	6834.64
889.6	6864.01
889.917	6872.6
890.233	6831.25
890.55	6760.29
890.866	6816.33
891.182	6810
891.498	6743.34
891.815	6732.94
892.131	6710.35
892.447	6716.45
892.763	6647.07
893.079	6685.49
893.395	6639.16
893.71	6594.64
894.026	6608.43
894.342	6629.9
894.657	6574.3
894.973	6565.04
895.289	6535.44
895.604	6548.32
895.92	6483.01
896.235	6455.89
896.55	6468.09
896.865	6444.36
897.181	6412.95
897.496	6433.74
897.811	6365.95
898.126	6386.96
898.441	6328.89
898.756	6310.36
899.071	6290.47
899.386	6362.33
899.7	6191.26
900.015	6181.77
900.33	6158.72
900.644	6213.86
900.959	6191.49
901.273	6144.03
901.588	6129.34
901.902	6083.7
902.216	6147.42
902.531	6033.3
902.845	6035.56
903.159	6050.7
903.473	5991.72
903.787	5959.63
904.101	5944.04
904.415	5925.51
904.729	5949.24
905.042	5838.05
905.356	5866.3
905.67	5888.45
905.984	5875.57
906.297	5822.46
906.611	5744.95
906.924	5776.13
907.237	5758.96
907.551	5713.99
907.864	5710.15
908.177	5692.07
908.491	5665.18
908.804	5667.66
909.117	5625.18
909.43	5553.31
909.743	5579.08
910.056	5561.68
910.368	5589.7
910.681	5532.3
910.994	5459.53
911.307	5443.49
911.619	5398.06
911.932	5443.94
912.244	5384.51
912.557	5405.52
912.869	5346.54
913.181	5327.11
913.494	5323.26
913.806	5322.59
914.118	5203.95
914.43	5252.76
914.742	5242.14
915.054	5235.36
915.366	5176.15
915.678	5186.54
915.99	5149.03
916.302	5115.81
916.613	5058.64
916.925	5096.83
917.236	5020.9
917.548	5049.82
917.859	5061.35
918.171	4990.62
918.482	4938.87
918.794	4970.28
919.105	4995.14
919.416	4952.65
919.727	4933.67
920.038	4918.98
920.349	4871.07
920.66	4855.25
920.971	4855.03
921.282	4803.73
921.593	4790.17
921.903	4757.4
922.214	4769.61
922.525	4730.96
922.835	4744.52
923.146	4691.42
923.456	4702.04
923.767	4671.08
924.077	4623.85
924.387	4622.72
924.697	4577.97
925.008	4589.95
925.318	4578.42
925.628	4573
925.938	4593.11
926.248	4505.21
926.558	4518.09
926.867	4511.08
927.177	4455.49
927.487	4416.17
927.796	4379.11
928.106	4368.49
928.416	4400.12
928.725	4397.86
929.034	4394.47
929.344	4309.28
929.653	4319.9
929.962	4320.58
930.271	4281.71
930.581	4228.15
930.89	4251.2
931.199	4245.33
931.508	4201.71
931.817	4175.95
932.125	4206.68
932.434	4202.16
932.743	4130.75
933.051	4134.82
933.36	4112
933.669	4049.17
933.977	4063.86
934.286	4071.32
934.594	4056.18
934.902	3997.2
935.21	4036.07
935.519	3980.47
935.827	3956.52
936.135	3985.67
936.443	3947.03
936.751	3955.62
937.059	3927.82
937.367	3894.83
937.674	3914.04
937.982	3881.04
938.29	3825.9
938.597	3830.42
938.905	3825.45
939.213	3819.8
939.52	3808.05
939.827	3797.65
940.135	3728.28
940.442	3735.51
940.749	3715.85
941.056	3731.67
941.363	3666.36
941.67	3688.05
941.977	3639.92
942.284	3632.91
942.591	3622.29
942.898	3611.22
943.205	3643.53
943.511	3606.47
943.818	3580.71
944.125	3522.18
944.431	3547.72
944.738	3538.9
945.044	3508.62
945.35	3477.66
945.657	3444.67
945.963	3502.29
946.269	3468.85
946.575	3478.34
946.881	3409.19
947.187	3396.08
947.493	3425.69
947.799	3409.64
948.105	3379.59
948.41	3385.24
948.716	3366.48
949.022	3328.97
949.327	3302.98
949.633	3273.15
949.938	3298.46
950.244	3265.24
950.549	3251.91
950.854	3235.64
951.16	3238.57
951.465	3225.69
951.77	3205.13
952.075	3190.66
952.38	3168.29
952.685	3170.33
952.99	3156.54
953.294	3140.27
953.599	3138.24
953.904	3117.45
954.209	3107.73
954.513	3059.14
954.818	3096.88
955.122	3093.72
955.426	3063.89
955.731	3021.18
956.035	3016.66
956.339	3027.73
956.643	3017.34
956.948	2981.63
957.252	3000.84
957.556	2957.9
957.86	2951.57
958.163	2929.43
958.467	2959.03
958.771	2882.88
959.075	2913.61
959.378	2876.1
959.682	2896.21
959.985	2871.58
960.289	2843.1
960.592	2845.59
960.896	2853.95
961.199	2815.99
961.502	2830.67
961.805	2792.03
962.108	2778.25
962.411	2784.57
962.714	2783.67
963.017	2750
963.32	2753.39
963.623	2761.98
963.926	2748.87
964.228	2685.14
964.531	2728.98
964.833	2686.27
965.136	2660.28
965.438	2659.15
965.741	2601.3
966.043	2632.71
966.345	2614.18
966.648	2630.23
966.95	2637.46
967.252	2580.06
967.554	2583.22
967.856	2612.15
968.158	2559.27
968.46	2555.2
968.761	2557.24
969.063	2531.25
969.365	2503.9
969.666	2526.5
969.968	2501.42
970.269	2510.46
970.571	2450.12
970.872	2488.76
971.174	2455.77
971.475	2449.22
971.776	2447.18
972.077	2440.18
972.378	2415.54
972.679	2434.53
972.98	2412.15
973.281	2406.05
973.582	2375.54
973.883	2404.92
974.183	2370.35
974.484	2365.83
974.785	2309.78
975.085	2304.81
975.386	2333.51
975.686	2328.77
975.986	2357.47
976.287	2307.52
976.587	2333.74
976.887	2290.12
977.187	2268.66
977.487	2297.58
977.787	2276.79
978.087	2246.51
978.387	2234.31
978.687	2212.84
978.987	2226.85
979.286	2206.28
979.586	2222.1
979.885	2201.76
980.185	2195.66
980.484	2177.36
980.784	2125.83
981.083	2144.14
981.382	2165.38
981.682	2142.1
981.981	2120.18
982.28	2116.34
982.579	2104.82
982.878	2103.01
983.177	2080.19
983.475	2060.75
983.774	2078.38
984.073	2054.88
984.372	2081.77
984.67	2072.5
984.969	2029.11
985.267	2059.62
985.566	2012.16
985.864	2007.87
986.162	2015.33
986.461	2034.31
986.759	2013.52
987.057	1941.43
987.355	1955.89
987.653	1956.8
987.951	1921.32
988.249	1971.71
988.547	1943.24
988.844	1935.33
989.142	1900.08
989.44	1925.16
989.737	1903.92
990.035	1921.77
990.332	1885.16
990.63	1848.33
990.927	1881.55
991.224	1837.48
991.521	1878.61
991.819	1863.69
992.116	1812.85
992.413	1849.68
992.71	1818.5
993.006	1803.58
993.303	1803.81
993.6	1827.31
993.897	1811.04
994.193	1802
994.49	1764.49
994.787	1772.85
995.083	1756.58
995.379	1736.69
995.676	1759.06
995.972	1743.47
996.268	1722
996.565	1734.43
996.861	1684.49
997.157	1714.55
997.453	1704.15
997.749	1685.39
998.044	1686.07
998.34	1683.59
998.636	1659.63
998.932	1671.61
999.227	1677.94
999.523	1661.89
999.818	1641.55
1000.114	1627.99
1000.409	1622.57
1000.704	1617.37
1001	1613.31
1001.295	1619.41
1001.59	1586.87
1001.885	1578.28
1002.18	1580.54
1002.475	1528.34
1002.77	1599.07
1003.065	1562.91
1003.359	1543.02
1003.654	1551.16
1003.949	1516.13
1004.243	1508.9
1004.538	1508.9
1004.832	1503.7
1005.127	1481.78
1005.421	1480.88
1005.715	1507.32
1006.009	1484.95
1006.304	1453.08
1006.598	1484.72
1006.892	1442.01
1007.186	1431.39
1007.48	1444.95
1007.773	1451.95
1008.067	1429.58
1008.361	1408.79
1008.655	1403.14
1008.948	1402.92
1009.242	1395.01
1009.535	1403.59
1009.829	1373.09
1010.122	1377.38
1010.415	1382.58
1010.708	1349.58
1011.001	1353.2
1011.295	1346.42
1011.588	1323.14
1011.881	1325.4
1012.173	1325.4
1012.466	1305.97
1012.759	1298.96
1013.052	1328.57
1013.344	1302.8
1013.637	1290.6
1013.93	1290.15
1014.222	1282.92
1014.514	1272.07
1014.807	1272.52
1015.099	1276.59
1015.391	1259.87
1015.683	1245.63
1015.976	1225.07
1016.268	1235.91
1016.56	1224.16
1016.851	1203.15
1017.143	1207.89
1017.435	1181.9
1017.727	1214.22
1018.018	1181
1018.31	1201.34
1018.602	1174.67
1018.893	1152.75
1019.185	1157.5
1019.476	1162.7
1019.767	1151.85
1020.058	1159.31
1020.35	1105.3
1020.641	1131.51
1020.932	1119.31
1021.223	1095.35
1021.514	1108.01
1021.804	1070.04
1022.095	1100.55
1022.386	1109.82
1022.677	1089.03
1022.967	1082.02
1023.258	1085.18
1023.548	1075.01
1023.839	1047.22
1024.129	1077.05
1024.419	1057.16
1024.709	1031.17
1025	1040.44
1025.29	1037.73
1025.58	1049.7
1025.87	1012.87
1026.16	1002.7
1026.449	987.78
1026.739	976.03
1027.029	994.11
1027.319	1011.51
1027.608	1008.12
1027.898	976.03
1028.187	968.8
1028.477	955.47
1028.766	989.14
1029.055	933.1
1029.344	952.53
1029.634	936.94
1029.923	936.71
1030.212	919.09
1030.501	910.5
1030.79	902.59
1031.078	916.6
1031.367	907.79
1031.656	899.2
1031.945	891.06
1032.233	901.01
1032.522	889.03
1032.81	871.63
1033.099	878.64
1033.387	875.25
1033.675	874.57
1033.963	850.84
1034.251	839.99
1034.54	867.79
1034.828	837.51
1035.116	855.36
1035.403	850.39
1035.691	821.69
1035.979	829.37
1036.267	816.49
1036.554	811.07
1036.842	836.6
1037.129	808.13
1037.417	820.78
1037.704	802.03
1037.992	793.21
1038.279	788.69
1038.566	791.63
1038.853	791.63
1039.14	791.63
