Data from breadboard_white_FLMS001491_00026.txt Node
Date: Wed Feb 08 10:47:29 GMT 2017
User: dcchb
Spectrometer: FLMS00149
Trigger mode: 0
Integration Time (sec): 2.000000E-2
Scans to average: 10
Electric dark correction enabled: true
Nonlinearity correction enabled: false
Boxcar width: 0
XAxis mode: Wavelengths
Number of Pixels in Spectrum: 2048
>>>>>Begin Spectral Data<<<<<
341.393	-12.22
341.776	-12.22
342.16	-12.22
342.543	-46.79
342.927	-59.45
343.31	-68.71
343.693	-77.75
344.077	-64.19
344.46	-43.63
344.843	-55.61
345.226	-49.05
345.61	-16.28
345.993	-14.03
346.376	-14.93
346.759	13.54
347.142	29.82
347.525	35.24
347.908	39.98
348.291	80.44
348.674	101.23
349.057	103.94
349.44	131.96
349.823	154.33
350.206	179.19
350.588	205.86
350.971	235.69
351.354	254.22
351.737	276.14
352.119	279.53
352.502	293.54
352.884	315.68
353.267	303.71
353.65	301.22
354.032	322.92
354.414	335.34
354.797	332.41
355.179	358.85
355.562	342.12
355.944	363.37
356.326	353.2
356.709	366.08
357.091	360.65
357.473	367.66
357.855	373.31
358.238	368.56
358.62	383.93
359.002	380.31
359.384	380.99
359.766	391.39
360.148	394.33
360.53	350.26
360.912	368.79
361.294	358.62
361.676	353.2
362.057	373.76
362.439	357.04
362.821	383.25
363.203	374.21
363.584	372.18
363.966	370.6
364.348	380.77
364.729	356.36
365.111	382.35
365.493	367.89
365.874	375.12
366.256	368.79
366.637	378.51
367.019	356.13
367.4	369.47
367.781	367.66
368.163	360.43
368.544	363.82
368.925	370.6
369.306	367.89
369.688	376.02
370.069	359.52
370.45	371.05
370.831	352.29
371.212	365.4
371.593	386.42
371.974	376.7
372.355	379.18
372.736	365.4
373.117	390.94
373.498	379.64
373.879	369.47
374.26	377.6
374.641	370.6
375.021	360.43
375.402	364.27
375.783	392.52
376.163	414.44
376.544	412.4
376.925	388.9
377.305	395.23
377.686	390.26
378.066	409.01
378.447	405.17
378.827	415.79
379.208	406.53
379.588	405.85
379.968	428
380.349	416.25
380.729	421.44
381.109	422.8
381.489	432.74
381.87	428.9
382.25	427.09
382.63	418.73
383.01	451.95
383.39	443.36
383.77	453.08
384.15	458.05
384.53	469.8
384.91	482.01
385.29	438.84
385.67	468.45
386.049	478.62
386.429	486.53
386.809	455.12
387.189	471.61
387.568	491.5
387.948	474.78
388.328	493.98
388.707	491.05
389.087	519.52
389.466	505.06
389.846	523.59
390.225	526.75
390.605	519.07
390.984	542.34
391.363	537.37
391.743	514.32
392.122	565.85
392.501	553.87
392.881	576.47
393.26	556.81
393.639	593.64
394.018	604.72
394.397	592.74
394.776	604.49
395.155	618.5
395.534	615.34
395.913	663.02
396.292	626.18
396.671	665.05
397.05	655.34
397.429	668.89
397.808	665.51
398.186	673.41
398.565	696.01
398.944	697.37
399.323	715.67
399.701	737.37
400.08	730.14
400.458	756.12
400.837	747.31
401.215	756.8
401.594	769.68
401.972	797.25
402.351	790.7
402.729	803.81
403.107	823.02
403.486	811.94
403.864	847.87
404.242	860.3
404.62	877.25
404.999	916.12
405.377	911.6
405.755	912.73
406.133	931.03
406.511	966.74
406.889	984.82
407.267	987.3
407.645	1017.59
408.023	1026.63
408.401	1070.92
408.779	1058.72
409.156	1094.65
409.534	1081.99
409.912	1139.39
410.29	1159.05
410.667	1180.97
411.045	1185.72
411.422	1216.23
411.8	1238.82
412.178	1307.3
412.555	1280.18
412.933	1323.11
413.31	1376.22
413.687	1384.13
414.065	1405.82
414.442	1398.82
414.819	1451.7
415.197	1469.1
415.574	1516.56
415.951	1494.41
416.328	1516.56
416.705	1529.89
417.082	1574.63
417.46	1594.75
417.837	1608.76
418.214	1633.16
418.591	1657.57
418.967	1680.85
419.344	1688.3
419.721	1709.55
420.098	1743.22
420.475	1733.27
420.852	1806.72
421.228	1818.02
421.605	1851.01
421.982	1889.2
422.358	1907.28
422.735	1935.75
423.111	1921.97
423.488	1961.06
423.864	1959.93
424.241	1997.45
424.617	2022.08
424.994	2043.55
425.37	2061.17
425.746	2088.07
426.123	2138.46
426.499	2147.95
426.875	2170.32
427.251	2212.58
427.627	2279.25
428.003	2307.72
428.379	2311.79
428.756	2333.26
429.132	2389.08
429.507	2439.92
429.883	2467.94
430.259	2497.77
430.635	2499.13
431.011	2531.22
431.387	2617.54
431.763	2634.94
432.138	2652.8
432.514	2701.84
432.89	2717.65
433.265	2798.56
433.641	2805.79
434.016	2851.44
434.392	2913.36
434.767	2960.81
435.143	2962.17
435.518	3014.14
435.894	3051.88
436.269	3070.19
436.644	3149.51
437.02	3187.47
437.395	3183.63
437.77	3219.11
438.145	3290.75
438.52	3304.53
438.895	3361.71
439.271	3385.21
439.646	3434.47
440.021	3446.9
440.395	3528.93
440.77	3449.16
441.145	3497.3
441.52	3560.8
441.895	3570.51
442.27	3648.7
442.645	3620.68
443.019	3689.83
443.394	3697.97
443.769	3730.96
444.143	3722.6
444.518	3786.55
444.892	3814.35
445.267	3848.92
445.641	3896.38
446.016	3901.35
446.39	3919.66
446.764	3940.9
447.139	3991.52
447.513	4024.74
447.887	3995.59
448.262	4037.62
448.636	4067.68
449.01	4090.95
449.384	4213.89
449.758	4212.08
450.132	4284.39
450.506	4280.1
450.88	4337.27
451.254	4351.96
451.628	4412.98
452.002	4455.91
452.376	4472.41
452.75	4513.77
453.123	4573.2
453.497	4625.63
453.871	4707.21
454.244	4787.43
454.618	4832.18
454.992	4880.08
455.365	4942.91
455.739	5001.66
456.112	5077.37
456.486	5119.85
456.859	5199.85
457.232	5252.73
457.606	5281.2
457.979	5344.7
458.352	5464.7
458.725	5539.95
459.099	5561.42
459.472	5708.54
459.845	5744.47
460.218	5760.96
460.591	5838.25
460.964	5870.57
461.337	6056.1
461.71	6142.2
462.083	6255.19
462.456	6205.92
462.829	6233.49
463.201	6428.07
463.574	6454.05
463.947	6537.67
464.32	6712.8
464.692	6657.66
465.065	6812.69
465.438	6927.71
465.81	6984.66
466.183	7060.37
466.555	7261.26
466.928	7285.9
467.3	7189.63
467.672	7393.01
468.045	7581.03
468.417	7614.47
468.789	7684.76
469.161	7776.05
469.534	7936.95
469.906	8142.37
470.278	8165.19
470.65	8347.11
471.022	8376.71
471.394	8597.95
471.766	8714.33
472.138	8763.6
472.51	8971.95
472.882	9153.87
473.253	9229.8
473.625	9392.06
473.997	9613.07
474.369	9576.23
474.74	9721.31
475.112	9949.33
475.484	10170.57
475.855	10268.42
476.227	10424.57
476.598	10746.82
476.97	10794.5
477.341	11039.92
477.713	11198.11
478.084	11227.49
478.455	11571.66
478.827	11688.04
479.198	12027.47
479.569	12021.59
479.94	12445.08
480.311	12499.54
480.682	12770.95
481.053	13090.94
481.424	13306.53
481.795	13390.59
482.166	13678.72
482.537	13827.19
482.908	14173.85
483.279	14332.72
483.65	14481.41
484.021	14819.71
484.391	14890.67
484.762	15106.48
485.133	15313.03
485.503	15533.81
485.874	15881.38
486.244	15935.84
486.615	16353.68
486.985	16572.21
487.356	16805.87
487.726	16899.65
488.097	17354.56
488.467	17398.17
488.837	17775.34
489.207	18052.39
489.578	18302.56
489.948	18359.28
490.318	18677.69
490.688	18695.54
491.058	19151.57
491.428	19251.46
491.798	19516.53
492.168	19922.63
492.538	19912.46
492.908	20190.64
493.278	20451.2
493.648	20554.47
494.017	20872.88
494.387	20815.71
494.757	21178.19
495.126	21491.17
495.496	21554.22
495.866	21591.73
496.235	21905.85
496.605	22185.39
496.974	22294.31
497.344	22472.16
497.713	22518.26
498.082	22813.4
498.452	23035.09
498.821	23247.06
499.19	23300.62
499.559	23454.96
499.928	23774.05
500.298	23824.44
500.667	24149.63
501.036	24081.84
501.405	24473.69
501.774	24406.8
502.143	24680.24
502.512	24767.02
502.88	25046.56
503.249	24891.53
503.618	25381.47
503.987	25390.05
504.356	25658.29
504.724	25832.75
505.093	25949.36
505.462	26094.22
505.83	26284.27
506.199	26525.62
506.567	26912.05
506.936	26865.49
507.304	27093.51
507.672	27319.95
508.041	27338.93
508.409	27597
508.777	27829.76
509.145	28102.75
509.514	28104.33
509.882	28368.05
510.25	28440.82
510.618	28664.09
510.986	28775.5
511.354	28950.41
511.722	29345.43
512.09	29543.16
512.458	29713.33
512.826	29905.87
513.193	30121.91
513.561	30144.96
513.929	30471.05
514.297	30718.73
514.664	31063.35
515.032	30940.64
515.4	31268.09
515.767	31631.92
516.135	31739.04
516.502	31630.34
516.869	32086.83
517.237	32411.34
517.604	32380.83
517.972	32586.25
518.339	33006.58
518.706	33086.8
519.073	33311.43
519.44	33518.88
519.808	33925.65
520.175	33884.07
520.542	34442.92
520.909	34465.52
521.276	34599.53
521.643	34992.96
522.009	35305.05
522.376	35485.38
522.743	35658.26
523.11	36170.79
523.477	36411.46
523.843	36600.15
524.21	37143.64
524.577	37250.76
524.943	37416.63
525.31	37664.31
525.676	37962.15
526.043	38285.53
526.409	38382.25
526.776	38976.59
527.142	38894.56
527.508	39255.22
527.874	39411.83
528.241	39676.23
528.607	39839.16
528.973	40207.52
529.339	40290.9
529.705	40652.02
530.071	40959.13
530.437	41129.3
530.803	41494.94
531.169	41710.3
531.535	41604.77
531.901	41814.93
532.267	42048.37
532.632	42312.55
532.998	42538.75
533.364	42762.25
533.73	42793.89
534.095	43213.09
534.461	43187.32
534.826	43557.94
535.192	43585.51
535.557	43861.21
535.923	43922.45
536.288	44163.12
536.653	44220.29
537.019	44325.37
537.384	44430.91
537.749	44747.51
538.114	44935.75
538.479	44853.5
538.845	45094.39
539.21	45256.2
539.575	45380.49
539.94	45574.83
540.305	45859.57
540.67	45613.25
541.034	45972.79
541.399	46284.64
541.764	46311.99
542.129	46328.71
542.494	46446.45
542.858	46758.3
543.223	46677.63
543.587	47033.33
543.952	46977.06
544.316	47154.9
544.681	47274.45
545.045	47429.02
545.41	47579.53
545.774	47607.1
546.138	47783.81
546.503	47793.98
546.867	47854.77
547.231	48218.38
547.595	48247.76
547.959	48435.77
548.324	48563.68
548.688	48588.09
549.052	48722.09
549.416	48866.27
549.779	48901.3
550.143	49023.56
550.507	49351.91
550.871	49379.25
551.235	49491.11
551.599	49656.76
551.962	49810.65
552.326	49876.19
552.689	50063.53
553.053	49939.92
553.417	50014.72
553.78	50586.23
554.143	50376.06
554.507	50588.26
554.87	50630.52
555.234	51088.13
555.597	50771.53
555.96	51190.73
556.323	51261.01
556.686	51311.63
557.05	51547.33
557.413	51713.65
557.776	51639.76
558.139	52054.66
558.502	52072.06
558.865	52076.13
559.228	52353.64
559.59	52453.07
559.953	52516.35
560.316	52823.46
560.679	52819.39
561.041	53025.48
561.404	53110.68
561.767	53322.65
562.129	53286.72
562.492	53570.55
562.854	53553.38
563.217	53635.41
563.579	53790.89
563.941	53948.17
564.304	54069.3
564.666	54198.79
565.028	54329.86
565.39	54382.06
565.753	54617.76
566.115	54664.99
566.477	54737.53
566.839	54898.2
567.201	55086.22
567.563	55113.56
567.925	55207.57
568.287	55185.65
568.648	55298.64
569.01	55475.82
569.372	55695.47
569.734	55653.89
570.095	55839.42
570.457	55944.5
570.819	56014.11
571.18	56029.47
571.542	56196.25
571.903	56130.71
572.265	56284.61
572.626	56431.72
572.987	56369.35
573.349	56459.97
573.71	56571.61
574.071	56638.72
574.432	56696.12
574.794	56945.16
575.155	56864.03
575.516	56800.75
575.877	56939.73
576.238	56978.83
576.599	57098.37
576.96	57098.37
577.32	57127.52
577.681	57303.79
578.042	57252.04
578.403	57239.16
578.763	57363.45
579.124	57345.14
579.485	57465.59
579.845	57580.84
580.206	57503.78
580.566	57373.84
580.927	57536.55
581.287	57606.61
581.648	57502.88
582.008	57620.62
582.368	57542.65
582.728	57686.83
583.089	57633.5
583.449	57642.54
583.809	57629.66
584.169	57624.69
584.529	57603.22
584.889	57812.7
585.249	57638.24
585.609	57677.34
585.969	57723.21
586.329	57711.01
586.688	57795.08
587.048	57713.27
587.408	57661.75
587.768	57711.46
588.127	57697.9
588.487	57631.92
588.846	57796.43
589.206	57656.1
589.565	57673.72
589.925	57835.75
590.284	57735.64
590.643	57704.68
591.003	57857.22
591.362	57837.11
591.721	57873.49
592.08	57841.4
592.44	57922.98
592.799	57837.11
593.158	57855.64
593.517	57829.88
593.876	57859.71
594.235	57825.36
594.593	57856.32
594.952	57901.74
595.311	57865.13
595.67	57913.04
596.029	58033.26
596.387	58001.62
596.746	58035.97
597.104	57926.37
597.463	57914.17
597.822	58019.7
598.18	57884.57
598.538	57906.49
598.897	58013.15
599.255	57899.71
599.613	58191.68
599.972	58115.97
600.33	58194.61
600.688	58092.7
601.046	58174.95
601.404	58285.01
601.762	58206.37
602.12	58330.66
602.478	58313.25
602.836	58275.97
603.194	58188.29
603.552	58250.88
603.91	58200.04
604.268	58343.76
604.625	58260.6
604.983	58379.24
605.341	58200.72
605.698	58414.27
606.056	58433.93
606.413	58385.34
606.771	58482.29
607.128	58549.63
607.485	58466.25
607.843	58416.3
608.2	58553.25
608.557	58639.8
608.914	58586.24
609.272	58713.92
609.629	58672.57
609.986	58817.2
610.343	58690.65
610.7	58939.91
611.057	58826.01
611.414	58787.59
611.771	58777.2
612.127	58894.71
612.484	58875.95
612.841	58954.59
613.198	58896.74
613.554	58898.78
613.911	59062.39
614.267	59056.29
614.624	58980.81
614.98	59033.01
615.337	59171.31
615.693	59175.83
616.05	59098.09
616.406	59292.89
616.762	59147.81
617.118	59110.97
617.475	59164.31
617.831	59204.76
618.187	59256.96
618.543	59324.3
618.899	59374.92
619.255	59357.75
619.611	59305.55
619.967	59338.99
620.323	59452.21
620.678	59331.08
621.034	59291.31
621.39	59281.82
621.746	59281.82
622.101	59531.53
622.457	59323.85
622.812	59413.11
623.168	59412.89
623.523	59415.15
623.879	59519.32
624.234	59345.77
624.589	59409.95
624.945	59450.4
625.3	59435.49
625.655	59390.51
626.01	59477.29
626.365	59454.69
626.72	59354.13
627.075	59361.59
627.43	59383.96
627.785	59338.76
628.14	59372.44
628.495	59327.92
628.85	59290.86
629.205	59275.72
629.559	59428.48
629.914	59255.6
630.269	59197.07
630.623	59238.43
630.978	59163.4
631.332	59277.98
631.687	59273.91
632.041	59166.57
632.396	59230.74
632.75	59104.65
633.104	59103.29
633.459	58977.87
633.813	58997.98
634.167	59077.98
634.521	58966.8
634.875	58997.76
635.229	58936.06
635.583	58842.28
635.937	58837.76
636.291	58830.08
636.645	58812.9
636.999	58767.25
637.352	58859.23
637.706	58704.43
638.06	58705.33
638.413	58692.45
638.767	58644.77
639.121	58653.81
639.474	58456.53
639.828	58497.43
640.181	58530.65
640.534	58511.22
640.888	58481.16
641.241	58362.97
641.594	58399.35
641.947	58446.81
642.301	58337.21
642.654	58341.28
643.007	58355.97
643.36	58262.18
643.713	58261.05
644.066	58332.24
644.419	58146.25
644.771	57998.46
645.124	57805.7
645.477	57706.49
645.83	57557.79
646.182	57452.94
646.535	57333.62
646.888	57446.61
647.24	57295.2
647.593	57441.64
647.945	57238.03
648.298	57174.08
648.65	57145.15
649.002	57051.14
649.355	57158.48
649.707	57091.37
650.059	57246.84
650.411	57542.65
650.763	57599.83
651.115	57825.36
651.467	57668.3
651.819	57667.85
652.171	57630.33
652.523	57561.86
652.875	57509.43
653.227	57464.69
653.578	57606.61
653.93	57531.81
654.282	57398.25
654.633	57370.68
654.985	57344.47
655.337	57375.65
655.688	57340.63
656.039	57401.87
656.391	57205.26
656.742	57318.48
657.094	57252.04
657.445	57393.28
657.796	57240.06
658.147	57194.87
658.498	57137.01
658.849	57297.91
659.2	57214.3
659.551	57124.59
659.902	57286.39
660.253	57154.87
660.604	57158.93
660.955	56999.39
661.306	57102.67
661.656	57099.28
662.007	57059.28
662.358	57053.85
662.708	57032.84
663.059	56996
663.409	56868.77
663.76	57071.48
664.11	56972.95
664.461	57034.42
664.811	57044.14
665.161	56992.39
665.511	56897.25
665.862	56956.91
666.212	56979.73
666.562	56974.76
666.912	56924.59
667.262	56923.91
667.612	56889.56
667.962	56890.02
668.312	56872.16
668.662	56991.03
669.011	56849.34
669.361	56782.67
669.711	56818.6
670.06	56738.38
670.41	56731.15
670.76	56695.9
671.109	56794.2
671.459	56708.33
671.808	56669.68
672.157	56729.57
672.507	56499.52
672.856	56576.13
673.205	56519.86
673.554	56642.56
673.904	56512.85
674.253	56586.75
674.602	56580.42
674.951	56169.58
675.3	56083.26
675.649	56439.41
675.998	56410.93
676.346	56377.03
676.695	56491.61
677.044	56204.16
677.393	56370.26
677.741	56385.62
678.09	56186.08
678.438	56203.93
678.787	56250.48
679.135	56297.49
679.484	56099.3
679.832	56172.07
680.181	56001.68
680.529	56122.8
680.877	55936.14
681.225	55925.52
681.573	56198.28
681.922	55909.02
682.27	55766.88
682.618	55826.99
682.966	55761.68
683.314	55871.06
683.661	55723.72
684.009	55589.03
684.357	55509.71
684.705	55491.18
685.053	55473.33
685.4	55458.19
685.748	55304.29
686.095	55268.59
686.443	55152.89
686.79	55102.94
687.138	55248.48
687.485	55184.75
687.832	55091.64
688.18	55100.01
688.527	54968.94
688.874	54955.6
689.221	54840.58
689.568	54765.1
689.915	54808.04
690.262	54723.29
690.609	54676.06
690.956	54473.36
691.303	54526.69
691.65	54394.49
691.997	54383.87
692.344	54215.28
692.69	54154.04
693.037	54092.57
693.383	53943.65
693.73	54111.56
694.077	53803.09
694.423	53773.71
694.769	53720.38
695.116	53663.89
695.462	53592.7
695.808	53432.03
696.155	53493.95
696.501	53302.09
696.847	53153.84
697.193	53063.45
697.539	53129.21
697.885	52905.04
698.231	52776.9
698.577	52811.48
698.923	52814.87
699.269	52615.1
699.614	52512.05
699.96	52441.09
700.306	52446.97
700.651	52300.76
700.997	52148.22
701.342	52145.51
701.688	52046.3
702.033	51791.62
702.379	51916.59
702.724	51894.67
703.069	51888.11
703.415	51495.58
703.76	51479.31
704.105	51477.05
704.45	51411.74
704.795	51244.51
705.14	51002.71
705.485	51076.83
705.83	51014.24
706.175	50874.13
706.52	50792.1
706.865	50663.96
707.209	50669.16
707.554	50517.08
707.899	50651.76
708.243	50407.93
708.588	50400.92
708.932	50183.07
709.277	50178.1
709.621	50093.13
709.966	49865.57
710.31	49909.86
710.654	49616.53
710.998	49743.54
711.342	49624.9
711.687	49574.05
712.031	49427.61
712.375	49268.97
712.719	49306.03
713.063	49243.89
713.407	49361.63
713.75	49231.91
714.094	49114.63
714.438	48922.09
714.782	49000.96
715.125	48814.75
715.469	48915.31
715.812	48607.52
716.156	48424.48
716.499	48395.55
716.843	48432.38
717.186	48198.94
717.53	48493.4
717.873	48421.99
718.216	48252.05
718.559	48083.69
718.902	47702.91
719.246	47981.1
719.589	47744.72
719.932	47504.05
720.275	47549.92
720.617	47512.63
720.96	47586.98
721.303	47452.3
721.646	47497.49
721.989	47361.68
722.331	47346.99
722.674	47228.35
723.016	47152.64
723.359	46987.45
723.701	47114.45
724.044	46749.94
724.386	46765.08
724.729	46791.07
725.071	46610.96
725.413	46536.16
725.755	46617.29
726.097	46379.11
726.439	46153.35
726.782	46168.49
727.124	46435.38
727.465	46172.78
727.807	46056.63
728.149	46037.87
728.491	45849.85
728.833	45909.29
729.175	45797.88
729.516	45595.85
729.858	45547.71
730.199	45698.45
730.541	45574.61
730.882	45414.61
731.224	45613.7
731.565	45221.85
731.906	45247.16
732.248	45335.07
732.589	45015.53
732.93	45013.72
733.271	45014.17
733.612	45029.76
733.953	45017.11
734.294	44848.52
734.635	44712.71
734.976	44806.49
735.317	44534.18
735.658	44576.21
735.999	44499.38
736.339	44515.88
736.68	44549.32
737.021	44144.81
737.361	44039.51
737.702	44350.01
738.042	44086.51
738.383	43990.47
738.723	44107.53
739.063	43901.88
739.404	43974.2
739.744	43836.35
740.084	43699.4
740.424	43637.03
740.764	43595.22
741.104	43714.32
741.444	43503.7
741.784	43339.64
742.124	43459.86
742.464	43240.43
742.804	43251.96
743.143	43110.26
743.483	43223.03
743.823	42927.9
744.162	42832.08
744.502	43049.02
744.841	42703.04
745.181	42882.02
745.52	42685.42
745.86	42812.65
746.199	42492.65
746.538	42565.87
746.877	42618.53
747.216	42585.98
747.556	42294.02
747.895	42265.54
748.234	42206.56
748.573	42068.94
748.911	41902.61
749.25	41910.97
749.589	41737.19
749.928	41766.35
750.267	41672.56
750.605	41482.96
750.944	41447.71
751.283	41466.47
751.621	41383.08
751.96	41167.72
752.298	41203.2
752.636	41263.76
752.975	41031
753.313	40910.32
753.651	41033.71
753.989	40746.26
754.327	40725.02
754.666	40419.04
755.004	40506.72
755.342	40398.47
755.679	40312.82
756.017	40110.57
756.355	40205.48
756.693	40000.29
757.031	39992.61
757.368	39747.87
757.706	39801.2
758.044	39657.02
758.381	39498.61
758.719	39414.54
759.056	39350.36
759.394	39351.49
759.731	38993.54
760.068	38854.56
760.405	38874.22
760.743	38857.72
761.08	38845.07
761.417	38632.64
761.754	38477.17
762.091	38432.87
762.428	38204.18
762.765	37941.36
763.102	38087.12
763.438	37883.96
763.775	37709.73
764.112	37698.2
764.449	37595.83
764.785	37468.61
765.122	37145.9
765.458	37130.99
765.795	37058.22
766.131	37081.72
766.467	37022.97
766.804	36771.22
767.14	36515.86
767.476	36602.87
767.812	36253.5
768.148	36297.11
768.485	36032.03
768.821	36026.38
769.157	35983.67
769.492	35845.82
769.828	35757.69
770.164	35376.46
770.5	35341.88
770.836	35292.84
771.171	35104.83
771.507	35062.79
771.842	34764.95
772.178	34833.65
772.513	34710.49
772.849	34636.59
773.184	34390.95
773.519	34401.34
773.855	34191.63
774.19	33954.35
774.525	33947.12
774.86	33919.77
775.195	33857.85
775.53	33571.98
775.865	33382.61
776.2	33211.09
776.535	33139.68
776.87	33035.5
777.205	32991.43
777.539	32627.6
777.874	32753.47
778.209	32500.6
778.543	32447.04
778.878	32251.57
779.212	32327.72
779.547	32144.23
779.881	32195.07
780.215	31919.15
780.55	32056.77
780.884	31862.65
781.218	31740.39
781.552	31652.03
781.886	31384.02
782.22	31386.05
782.554	31106.74
782.888	30874.2
783.222	30822.9
783.556	30751.27
783.889	30585.17
784.223	30415.01
784.557	30400.09
784.89	30397.83
785.224	30273.54
785.557	30032.19
785.891	29950.61
786.224	29817.73
786.558	29842.14
786.891	29584.29
787.224	29445.09
787.557	29393.56
787.891	29289.39
788.224	29258.2
788.557	29293.9
788.89	29100.46
789.223	29049.17
789.556	28817.76
789.888	28725.33
790.221	28736.86
790.554	28472.01
790.887	28474.49
791.219	28367.38
791.552	28251.22
791.884	28164.22
792.217	28082.19
792.549	27996.99
792.882	27827.5
793.214	27740.5
793.546	27734.17
793.879	27592.25
794.211	27383.45
794.543	27422.32
794.875	27303.9
795.207	27416.44
795.539	27138.93
795.871	27119.05
796.203	26820.98
796.535	26677.48
796.867	26719.51
797.198	26647.87
797.53	26558.84
797.862	26456.24
798.193	26602.22
798.525	26276.13
798.856	26272.52
799.188	26009.92
799.519	26100.54
799.85	25773.09
800.182	25881.34
800.513	25846.99
800.844	25632.53
801.175	25710.72
801.506	25518.41
801.837	25499.88
802.168	25446.55
802.499	25395.93
802.83	25129.27
803.161	25144.18
803.491	25111.42
803.822	25118.42
804.153	24931.76
804.483	24720.69
804.814	24704.65
805.145	24606.57
805.475	24572.9
805.805	24592.56
806.136	24558.21
806.466	24488.61
806.796	24336.3
807.126	24105.57
807.457	24151.44
807.787	24259.69
808.117	24007.49
808.447	23892.01
808.777	23959.58
809.107	23810.21
809.436	23767.27
809.766	23668.97
810.096	23608.86
810.426	23582.64
810.755	23610.89
811.085	23543.77
811.414	23411.8
811.744	23243.89
812.073	23231.69
812.403	23075.76
812.732	23092.71
813.061	23066.95
813.39	22870.8
813.719	22917.12
814.049	22925.03
814.378	22788.77
814.707	22772.72
815.036	22732.72
815.365	22599.17
815.693	22481.65
816.022	22478.04
816.351	22326.4
816.68	22277.82
817.008	22311.72
817.337	22135.22
817.665	22172.74
817.994	22147.88
818.322	22151.27
818.651	22080.31
818.979	21931.16
819.307	22012.29
819.636	21883.48
819.964	21759.64
820.292	21855.46
820.62	21712.64
820.948	21751.96
821.276	21821.78
821.604	21789.47
821.932	21724.84
822.259	21674.22
822.587	21642.13
822.915	21595.8
823.243	21736.59
823.57	21652.98
823.898	21608.01
824.225	21514.9
824.553	21611.62
824.88	21537.27
825.207	21596.93
825.535	21493.88
825.862	21595.58
826.189	21451.4
826.516	21490.72
826.843	21653.88
827.17	21537.72
827.497	21560.1
827.824	21447.56
828.151	21591.73
828.478	21479.87
828.805	21646.42
829.131	21502.25
829.458	21465.86
829.785	21383.83
830.111	21412.98
830.438	21517.16
830.764	21434
831.09	21428.57
831.417	21346.54
831.743	21361.91
832.069	21407.56
832.395	21398.52
832.722	21473.55
833.048	21356.26
833.374	21301.12
833.7	21179.09
834.026	21269.94
834.351	21281.23
834.677	21211.41
835.003	21282.82
835.329	21192.42
835.654	21178.41
835.98	21125.76
836.306	21113.56
836.631	21053.44
836.956	21114.46
837.282	21072.65
837.607	20912.66
837.932	20886.22
838.258	20935.25
838.583	20905.42
838.908	20753.56
839.233	20728.71
839.558	20718.09
839.883	20639.44
840.208	20669.05
840.533	20600.35
840.858	20658.65
841.182	20666.11
841.507	20488.94
841.832	20437.64
842.156	20322.39
842.481	20388.38
842.805	20259.79
843.13	20187.25
843.454	20142.51
843.778	20123.98
844.103	20054.15
844.427	19991.55
844.751	19957.2
845.075	19920.82
845.399	19958.78
845.723	19710.65
846.047	19713.14
846.371	19639.7
846.695	19654.38
847.019	19436.99
847.343	19378.91
847.666	19338.91
847.99	19288.29
848.313	19257.11
848.637	19016.66
848.96	19008.75
849.284	18928.53
849.607	18893.73
849.931	18786.61
850.254	18700.51
850.577	18568.54
850.9	18449.44
851.223	18338.71
851.546	18287.87
851.869	18173.07
852.192	18366.51
852.515	18121.77
852.838	18035.44
853.161	17995.67
853.483	18008.55
853.806	17824.38
854.129	17840.87
854.451	17765.39
854.774	17637.94
855.096	17650.6
855.419	17571.28
855.741	17504.16
856.063	17407.21
856.385	17305.75
856.708	17270.94
857.03	17212.87
857.352	17230.95
857.674	17198.86
857.996	17138.07
858.318	17049.71
858.64	17070.27
858.961	17058.29
859.283	17010.84
859.605	16849.49
859.926	16889.26
860.248	16774.91
860.57	16708.93
860.891	16806.32
861.212	16693.11
861.534	16660.34
861.855	16561.13
862.176	16539.66
862.498	16561.13
862.819	16590.74
863.14	16432.32
863.461	16420.12
863.782	16370.18
864.103	16323.62
864.424	16294.02
864.745	16228.03
865.065	16225.77
865.386	16030.3
865.707	16100.13
866.027	16064.42
866.348	16095.83
866.668	16087.47
866.989	15934.03
867.309	15847.25
867.63	15845.44
867.95	15870.08
868.27	15743.3
868.59	15816.29
868.91	15811.32
869.23	15854.71
869.55	15682.51
869.87	15772.9
870.19	15764.77
870.51	15703.08
870.83	15690.87
871.15	15572.68
871.469	15578.79
871.789	15581.27
872.109	15572.23
872.428	15390.54
872.748	15563.87
873.067	15499.24
873.386	15479.8
873.706	15429.18
874.025	15386.47
874.344	15290.43
874.663	15384.67
874.982	15302.41
875.301	15240.26
875.62	15262.18
875.939	15211.34
876.258	15093.6
876.577	15080.27
876.896	15171.56
877.214	15100.61
877.533	15091.79
877.852	15101.28
878.17	15115.07
878.489	15127.72
878.807	14976.99
879.125	14978.12
879.444	14915.98
879.762	14869.43
880.08	14897
880.398	14783.55
880.716	14815.87
881.034	14773.61
881.352	14734.06
881.67	14697.23
881.988	14736.32
882.306	14710.56
882.624	14607.06
882.941	14580.62
883.259	14528.64
883.577	14464.92
883.894	14436.67
884.212	14409.32
884.529	14465.37
884.846	14363.68
885.164	14411.36
885.481	14340.17
885.798	14306.95
886.115	14235.09
886.432	14181.99
886.75	14219.27
887.067	14255.2
887.383	14184.47
887.7	14109.67
888.017	14051.59
888.334	14015.21
888.651	13985.38
888.967	13984.48
889.284	13900.19
889.6	13883.24
889.917	13780.19
890.233	13708.78
890.55	13742.22
890.866	13835.78
891.182	13725.73
891.498	13652.06
891.815	13605.28
892.131	13513.98
892.447	13478.95
892.763	13476.02
893.079	13421.1
893.395	13359.63
893.71	13369.13
894.026	13316.02
894.342	13281.67
894.657	13157.83
894.973	13209.81
895.289	13159.19
895.604	13126.87
895.92	13019.08
896.235	12884.39
896.55	12937.5
896.865	12964.62
897.181	12861.34
897.496	12827.22
897.811	12767.56
898.126	12734.34
898.441	12714.91
898.756	12637.85
899.071	12591.97
899.386	12507.23
899.7	12474.69
900.015	12431.07
900.33	12405.54
900.644	12351.53
900.959	12276.95
901.273	12350.17
901.588	12247.12
901.902	12173.23
902.216	12142.94
902.531	12122.83
902.845	12136.62
903.159	11992.89
903.473	11962.16
903.787	11882.39
904.101	11876.28
904.415	11794.48
904.729	11821.14
905.042	11679.68
905.356	11746.34
905.67	11685.55
905.984	11716.74
906.297	11562.85
906.611	11481.27
906.924	11461.83
907.237	11483.53
907.551	11351.33
907.864	11306.81
908.177	11291.67
908.491	11152.24
908.804	11151.56
909.117	11161.05
909.43	11056.42
909.743	11067.72
910.056	11035.63
910.368	10960.38
910.681	10866.37
910.994	10895.97
911.307	10806.03
911.619	10721.29
911.932	10771.23
912.244	10631.34
912.557	10689.87
912.869	10601.74
913.181	10602.64
913.494	10532.59
913.806	10496.89
914.118	10394.51
914.43	10323.56
914.742	10348.19
915.054	10244.91
915.366	10233.16
915.678	10153.17
915.99	10201.3
916.302	10122.21
916.613	10032.94
916.925	9962.44
917.236	10006.28
917.548	9928.09
917.859	9931.93
918.171	9859.39
918.482	9813.51
918.794	9649.9
919.105	9745.94
919.416	9676.79
919.727	9634.08
920.038	9637.47
920.349	9563.12
920.66	9551.37
920.971	9491.04
921.282	9508.21
921.593	9385.5
921.903	9290.14
922.214	9311.38
922.525	9275.9
922.835	9230.25
923.146	9186.41
923.456	9244.49
923.767	9065.74
924.077	9073.87
924.387	9046.98
924.697	9029.13
925.008	8945.29
925.318	8946.87
925.628	8889.24
925.938	8798.85
926.248	8832.97
926.558	8722.02
926.867	8784.84
927.177	8683.37
927.487	8648.8
927.796	8587.78
928.106	8565.41
928.416	8472.53
928.725	8586.2
929.034	8370.16
929.344	8496.26
929.653	8406.32
929.962	8328.58
930.271	8334.46
930.581	8270.95
930.89	8241.58
931.199	8169.26
931.508	8134.01
931.817	8105.76
932.125	8091.75
932.434	8053.33
932.743	8012.88
933.051	7949.61
933.36	7958.65
933.669	7898.54
933.977	7847.46
934.286	7871.42
934.594	7839.33
934.902	7781.93
935.21	7704.19
935.519	7725.21
935.827	7688.82
936.135	7537.19
936.443	7523.86
936.751	7535.61
937.059	7535.15
937.367	7477.53
937.674	7487.02
937.982	7416.97
938.29	7365.22
938.597	7393.46
938.905	7337.87
939.213	7298.55
939.52	7241.6
939.827	7252.45
940.135	7244.77
940.442	7179.46
940.749	7203.86
941.056	7157.31
941.363	7034.83
941.67	7077.31
941.977	7030.31
942.284	6898.11
942.591	6926.81
942.898	6945.57
943.205	6905.34
943.511	6849.98
943.818	6843.87
944.125	6763.88
944.431	6768.85
944.738	6769.3
945.044	6739.02
945.35	6688.17
945.657	6661.96
945.963	6623.31
946.269	6573.37
946.575	6573.37
946.881	6576.54
947.187	6536.54
947.493	6433.04
947.799	6413.15
948.105	6416.54
948.41	6439.14
948.716	6401.17
949.022	6297.9
949.327	6325.24
949.633	6188.98
949.938	6249.77
950.244	6197.79
950.549	6173.83
950.854	6166.6
951.16	6133.84
951.465	6066.27
951.77	6108.75
952.075	6036.66
952.38	6053.84
952.685	6041.41
952.99	6032.37
953.294	5908.53
953.599	5906.05
953.904	5911.02
954.209	5878.48
954.513	5899.27
954.818	5800.29
955.122	5844.13
955.426	5753.73
955.731	5753.73
956.035	5678.48
956.339	5694.98
956.643	5657.46
956.948	5664.47
957.252	5643.91
957.556	5584.47
957.86	5548.09
958.163	5562.33
958.467	5485.49
958.771	5481.42
959.075	5494.3
959.378	5432.16
959.682	5424.7
959.985	5382.67
960.289	5384.03
960.592	5348.77
960.896	5272.84
961.199	5314.2
961.502	5253.18
961.805	5207.98
962.108	5216.12
962.411	5200.75
962.714	5093.86
963.017	5146.52
963.32	5125.73
963.623	5064.71
963.926	5092.73
964.228	5004.83
964.531	5063.13
964.833	5062.23
965.136	5005.96
965.438	4969.57
965.741	4970.93
966.043	4929.57
966.345	4937.03
966.648	4868.11
966.95	4897.71
967.252	4876.69
967.554	4855.9
967.856	4784.27
968.158	4781.56
968.46	4756.24
968.761	4732.06
969.063	4674.67
969.365	4649.58
969.666	4645.29
969.968	4614.55
970.269	4608.45
970.571	4595.12
970.872	4601.67
971.174	4550.15
971.475	4523.93
971.776	4558.28
972.077	4477.61
972.378	4502.47
972.679	4522.35
972.98	4457.27
973.281	4427.21
973.582	4440.77
973.883	4383.83
974.183	4369.59
974.484	4314.9
974.785	4349.48
975.085	4297.5
975.386	4282.13
975.686	4265.86
975.986	4225.86
976.287	4227.67
976.587	4158.52
976.887	4191.06
977.187	4209.59
977.487	4161.01
977.787	4127.79
978.087	4104.51
978.387	4047.79
978.687	4089.14
978.987	4052.08
979.286	3997.85
979.586	3981.8
979.885	4019.54
980.185	3974.34
980.484	3983.84
980.784	3923.72
981.083	3940.45
981.382	3905.87
981.682	3893.44
981.981	3897.06
982.28	3829.94
982.579	3821.58
982.878	3834.69
983.177	3758.76
983.475	3808.25
983.774	3723.28
984.073	3758.31
984.372	3712.88
984.67	3733.9
984.969	3688.25
985.267	3682.37
985.566	3660.91
985.864	3662.04
986.162	3651.19
986.461	3583.17
986.759	3613
987.057	3560.34
987.355	3564.64
987.653	3542.94
987.951	3534.58
988.249	3521.25
988.547	3476.5
988.844	3450.74
989.142	3484.64
989.44	3442.61
989.737	3427.92
990.035	3403.51
990.332	3367.81
990.63	3366.23
990.927	3332.33
991.224	3327.13
991.521	3339.56
991.819	3287.81
992.116	3258.43
992.413	3284.87
992.71	3231.99
993.006	3274.02
993.303	3212.33
993.6	3219.34
993.897	3189.51
994.193	3191.77
994.49	3173.24
994.787	3158.32
995.083	3103.63
995.379	3131.88
995.676	3088.27
995.972	3123.97
996.268	3075.39
996.565	3043.75
996.861	3013.92
997.157	3019.34
997.453	3009.85
997.749	3001.94
998.044	2957.2
998.34	2934.37
998.636	2958.55
998.932	2916.52
999.227	2926.24
999.523	2881.04
999.818	2874.71
1000.114	2895.28
1000.409	2840.59
1000.704	2816.86
1001	2851.89
1001.295	2770.08
1001.59	2828.39
1001.885	2765.79
1002.18	2740.25
1002.475	2736.19
1002.77	2719.46
1003.065	2698.9
1003.359	2690.31
1003.654	2706.81
1003.949	2665.23
1004.243	2645.11
1004.538	2638.33
1004.832	2625.45
1005.127	2620.48
1005.421	2589.75
1005.715	2565.34
1006.009	2542.07
1006.304	2499.58
1006.598	2489.19
1006.892	2510.43
1007.186	2506.59
1007.48	2470.43
1007.773	2460.94
1008.067	2472.92
1008.361	2423.2
1008.655	2416.19
1008.948	2419.81
1009.242	2403.31
1009.535	2364.44
1009.829	2358.12
1010.122	2365.57
1010.415	2364.9
1010.708	2303.2
1011.001	2289.42
1011.295	2291
1011.588	2290.32
1011.881	2280.83
1012.173	2260.72
1012.466	2232.92
1012.759	2214.84
1013.052	2216.2
1013.344	2187.95
1013.637	2172.81
1013.93	2165.13
1014.222	2185.47
1014.514	2159.25
1014.807	2119.93
1015.099	2105.69
1015.391	2058.01
1015.683	2074.06
1015.976	2060.27
1016.268	2067.5
1016.56	2022.76
1016.851	2041.06
1017.143	2040.84
1017.435	1987.5
1017.727	1994.74
1018.018	1982.98
1018.31	1941.18
1018.602	1973.72
1018.893	1944.79
1019.185	1904.57
1019.476	1905.7
1019.767	1891.24
1020.058	1887.85
1020.35	1858.92
1020.641	1837.9
1020.932	1826.38
1021.223	1834.97
1021.514	1804.46
1021.804	1790.22
1022.095	1800.39
1022.386	1770.56
1022.677	1776.21
1022.967	1746.15
1023.258	1740.28
1023.548	1711.13
1023.839	1719.26
1024.129	1712.26
1024.419	1708.87
1024.709	1677.91
1025	1661.19
1025.29	1653.95
1025.58	1662.77
1025.87	1649.43
1026.16	1612.82
1026.449	1625.25
1026.739	1599.27
1027.029	1565.14
1027.319	1580.51
1027.608	1573.28
1027.898	1578.7
1028.187	1567.85
1028.477	1554.52
1028.766	1547.97
1029.055	1518.14
1029.344	1539.83
1029.634	1499.16
1029.923	1519.49
1030.212	1498.03
1030.501	1472.94
1030.79	1448.99
1031.078	1473.62
1031.367	1429.1
1031.656	1425.26
1031.945	1399.05
1032.233	1420.97
1032.522	1411.02
1032.81	1391.14
1033.099	1387.07
1033.387	1400.4
1033.675	1360.4
1033.963	1354.75
1034.251	1350.01
1034.54	1341.42
1034.828	1321.76
1035.116	1301.65
1035.403	1306.62
1035.691	1286.05
1035.979	1312.04
1036.267	1266.85
1036.554	1298.71
1036.842	1255.09
1037.129	1251.03
1037.417	1247.41
1037.704	1227.98
1037.992	1222.33
1038.279	1231.14
1038.566	1190.92
1038.853	1190.92
1039.14	1190.92
