Data from breadboard_black_back_FLMS001491_00059.txt Node
Date: Wed Feb 08 10:50:36 GMT 2017
User: dcchb
Spectrometer: FLMS00149
Trigger mode: 0
Integration Time (sec): 2.000000E-2
Scans to average: 10
Electric dark correction enabled: true
Nonlinearity correction enabled: false
Boxcar width: 0
XAxis mode: Wavelengths
Number of Pixels in Spectrum: 2048
>>>>>Begin Spectral Data<<<<<
341.393	-16.57
341.776	-16.57
342.16	-16.57
342.543	-49.79
342.927	-78.03
343.31	-66.28
343.693	-60.18
344.077	-73.97
344.46	-66.28
344.843	-55.21
345.226	-43.91
345.61	-19.51
345.993	-15.89
346.376	2.64
346.759	-3.23
347.142	24.34
347.525	49.42
347.908	47.61
348.291	73.37
348.674	90.77
349.057	116.31
349.44	145.69
349.823	146.59
350.206	162.64
350.588	207.38
350.971	227.72
351.354	233.14
351.737	248.74
352.119	263.65
352.502	256.87
352.884	279.47
353.267	265.46
353.65	300.94
354.032	309.98
354.414	323.31
354.797	318.34
355.179	328.28
355.562	330.09
355.944	330.77
356.326	345.23
356.709	335.29
357.091	340.71
357.473	365.8
357.855	347.26
358.238	352.46
358.62	347.94
359.002	337.55
359.384	368.73
359.766	341.84
360.148	343.88
360.53	339.81
360.912	358.34
361.294	335.51
361.676	351.78
362.057	348.39
362.439	343.42
362.821	361.28
363.203	339.36
363.584	364.67
363.966	347.72
364.348	322.18
364.729	347.49
365.111	356.08
365.493	328.28
365.874	335.74
366.256	353.37
366.637	348.17
367.019	332.12
367.4	335.74
367.781	320.6
368.163	347.94
368.544	354.04
368.925	344.1
369.306	358.79
369.688	339.81
370.069	346.59
370.45	347.72
370.831	352.91
371.212	349.07
371.593	355.4
371.974	344.55
372.355	339.13
372.736	360.82
373.117	340.49
373.498	355.63
373.879	357.89
374.26	340.03
374.641	352.24
375.021	355.4
375.402	366.25
375.783	368.96
376.163	380.26
376.544	373.93
376.925	361.95
377.305	392.46
377.686	370.77
378.066	372.35
378.447	411.67
378.827	376.87
379.208	378.9
379.588	396.76
379.968	396.98
380.349	378.22
380.729	407.38
381.109	403.76
381.489	402.4
381.87	392.24
382.25	403.99
382.63	399.24
383.01	396.3
383.39	401.73
383.77	423.65
384.15	396.08
384.53	421.84
384.91	428.62
385.29	399.92
385.67	419.58
386.049	422.29
386.429	443.08
386.809	429.75
387.189	427.94
387.568	435.17
387.948	436.75
388.328	451.44
388.707	431.56
389.087	458.67
389.466	437.66
389.846	453.25
390.225	447.38
390.605	450.09
390.984	452.12
391.363	478.79
391.743	484.21
392.122	479.24
392.501	472.23
392.881	503.87
393.26	496.87
393.639	499.8
394.018	495.96
394.397	492.35
394.776	498.9
395.155	492.57
395.534	513.81
395.913	506.13
396.292	510.65
396.671	511.33
397.05	537.99
397.429	533.25
397.808	516.53
398.186	532.57
398.565	549.29
398.944	539.12
399.323	546.81
399.701	529.18
400.08	567.15
400.458	554.72
400.837	568.5
401.215	543.64
401.594	575.96
401.972	592.23
402.351	596.52
402.729	608.5
403.107	608.95
403.486	609.63
403.864	605.11
404.242	596.75
404.62	610.31
404.999	602.4
405.377	598.33
405.755	612.57
406.133	631.78
406.511	635.62
406.889	649.4
407.267	666.8
407.645	670.65
408.023	657.54
408.401	673.58
408.779	681.04
409.156	684.88
409.534	702.96
409.912	693.02
410.29	697.31
410.667	715.62
411.045	711.55
411.422	756.75
411.8	744.09
412.178	742.06
412.555	767.14
412.933	770.98
413.31	740.93
413.687	798.55
414.065	778.89
414.442	791.55
414.819	804.88
415.197	776.41
415.574	809.85
415.951	856.86
416.328	847.59
416.705	838.55
417.082	826.8
417.46	868.16
417.837	837.65
418.214	885.78
418.591	893.01
418.967	873.35
419.344	905.89
419.721	896.63
420.098	906.35
420.475	891.66
420.852	954.71
421.228	923.29
421.605	950.41
421.982	971.66
422.358	980.24
422.735	964.2
423.111	974.14
423.488	1014.14
423.864	1001.48
424.241	998.55
424.617	1032.22
424.994	1055.27
425.37	1025.89
425.746	1020.92
426.123	1030.64
426.499	1031.77
426.875	1074.93
427.251	1055.49
427.627	1090.97
428.003	1101.6
428.379	1117.41
428.756	1138.88
429.132	1153.8
429.507	1141.14
429.883	1169.39
430.259	1201.71
430.635	1184.31
431.011	1205.32
431.387	1242.83
431.763	1280.12
432.138	1262.27
432.514	1279.22
432.89	1269.27
433.265	1302.72
433.641	1344.53
434.016	1362.38
434.392	1363.06
434.767	1362.83
435.143	1364.87
435.518	1393.57
435.894	1436.5
436.269	1441.02
436.644	1462.26
437.02	1473.56
437.395	1455.26
437.77	1478.31
438.145	1497.29
438.52	1520.12
438.895	1528.93
439.271	1564.63
439.646	1587.01
440.021	1582.49
440.395	1573.9
440.77	1573.22
441.145	1585.2
441.52	1630.62
441.895	1613.45
442.27	1643.95
442.645	1667.23
443.019	1665.42
443.394	1649.6
443.769	1711.52
444.143	1697.74
444.518	1718.75
444.892	1696.83
445.267	1713.56
445.641	1742.71
446.016	1760.34
446.39	1751.75
446.764	1755.36
447.139	1771.86
447.513	1805.76
447.887	1814.34
448.262	1798.3
448.636	1815.93
449.01	1865.64
449.384	1851.86
449.758	1877.85
450.132	1942.25
450.506	1892.99
450.88	1954.45
451.254	1936.38
451.628	1964.62
452.002	2003.72
452.376	2011.18
452.75	2035.81
453.123	2055.02
453.497	2066.09
453.871	2092.76
454.244	2122.81
454.618	2126.88
454.992	2137.5
455.365	2170.27
455.739	2238.06
456.112	2233.99
456.486	2275.58
456.859	2316.25
457.232	2305.41
457.606	2342.92
457.979	2322.35
458.352	2417.49
458.725	2440.77
459.099	2429.7
459.472	2514.89
459.845	2467.66
460.218	2560.99
460.591	2612.29
460.964	2587.43
461.337	2635.34
461.71	2671.95
462.083	2723.25
462.456	2781.55
462.829	2746.07
463.201	2803.25
463.574	2756.69
463.947	2841.21
464.32	2872.17
464.692	2943.81
465.065	2912.17
465.438	2982.68
465.81	2998.49
466.183	3090.92
466.555	3180.64
466.928	3119.4
467.3	3141.09
467.672	3198.49
468.045	3241.43
468.417	3283.91
468.789	3303.8
469.161	3346.51
469.534	3418.14
469.906	3503.34
470.278	3488.2
470.65	3544.69
471.022	3620.4
471.394	3690.45
471.766	3750.11
472.138	3784.24
472.51	3846.61
472.882	3882.09
473.253	3934.52
473.625	3983.55
473.997	4066.49
474.369	4107.84
474.74	4144.68
475.112	4266.03
475.484	4287.95
475.855	4377.22
476.227	4402.3
476.598	4544.22
476.97	4526.14
477.341	4642.97
477.713	4738.56
478.084	4749.64
478.455	4835.96
478.827	4922.96
479.198	5054.94
479.569	5069.63
479.94	5194.82
480.311	5305.1
480.682	5399.11
481.053	5543.06
481.424	5503.06
481.795	5675.03
482.166	5729.72
482.537	5817.63
482.908	5881.81
483.279	5965.42
483.65	6071.18
484.021	6154.8
484.391	6256.49
484.762	6277.96
485.133	6397.5
485.503	6493.32
485.874	6619.19
486.244	6692.63
486.615	6795
486.985	6898.51
487.356	7055.11
487.726	7043.13
488.097	7214.2
488.467	7206.07
488.837	7432.28
489.207	7526.96
489.578	7669.56
489.948	7650.35
490.318	7777.58
490.688	7818.25
491.058	7915.2
491.428	8061.19
491.798	8122.43
492.168	8232.71
492.538	8326.72
492.908	8423.66
493.278	8566.26
493.648	8592.92
494.017	8667.95
494.387	8719.93
494.757	8800.6
495.126	8850.09
495.496	8940.03
495.866	9029.07
496.235	9049.18
496.605	9229.29
496.974	9275.84
497.344	9366.69
497.713	9427.48
498.082	9510.64
498.452	9604.2
498.821	9646
499.19	9657.3
499.559	9783.17
499.928	9907.69
500.298	9949.95
500.667	10052.55
501.036	10045.31
501.405	10183.84
501.774	10169.83
502.143	10305.2
502.512	10348.81
502.88	10458.86
503.249	10432.42
503.618	10566.21
503.987	10556.49
504.356	10649.14
504.724	10761.91
505.093	10876.71
505.462	10890.04
505.83	10912.64
506.199	11005.29
506.567	11153.08
506.936	11191.95
507.304	11349.24
507.672	11336.35
508.041	11454.32
508.409	11480.76
508.777	11572.73
509.145	11737.02
509.514	11679.17
509.882	11939.5
510.25	11881.42
510.618	12034.64
510.986	12084.13
511.354	12172.26
511.722	12271.47
512.09	12405.7
512.458	12381.52
512.826	12529.54
513.193	12582.65
513.561	12633.5
513.929	12772.02
514.297	12852.02
514.664	12949.42
515.032	13001.85
515.4	13170.88
515.767	13197.32
516.135	13316.64
516.502	13272.57
516.869	13456.07
517.237	13584.66
517.604	13612
517.972	13712.56
518.339	13896.51
518.706	13895.16
519.073	13889.96
519.44	14128.37
519.808	14270.06
520.175	14278.42
520.542	14475.25
520.909	14608.58
521.276	14570.85
521.643	14718.19
522.009	14903.04
522.376	14956.6
522.743	15055.58
523.11	15214.44
523.477	15369.02
523.843	15404.72
524.21	15647.43
524.577	15770.14
524.943	15814.65
525.31	15884.48
525.676	16123.12
526.043	16143.23
526.409	16210.35
526.776	16380.06
527.142	16560.4
527.508	16586.39
527.874	16745.25
528.241	16874.51
528.607	16887.17
528.973	17159.03
529.339	17111.57
529.705	17356.31
530.071	17397.44
530.437	17550.65
530.803	17656.87
531.169	17682.4
531.535	17766.69
531.901	17810.08
532.267	18017.76
532.632	18054.6
532.998	18086.01
533.364	18232.22
533.73	18364.42
534.095	18420.91
534.461	18572.32
534.826	18565.77
535.192	18713.34
535.557	18867
535.923	18855.7
536.288	18882.82
536.653	19062.03
537.019	19067.45
537.384	19015.02
537.749	19229.48
538.114	19213.44
538.479	19355.8
538.845	19415.24
539.21	19452.53
539.575	19544.5
539.94	19578.85
540.305	19760.54
540.67	19750.14
541.034	19810.93
541.399	20043.7
541.764	20000.31
542.129	20073.3
542.494	20154.88
542.858	20296.8
543.223	20238.72
543.587	20309.23
543.952	20317.14
544.316	20459.28
544.681	20533.63
545.045	20699.95
545.41	20713.51
545.774	20728.42
546.138	20801.87
546.503	20778.37
546.867	20952.37
547.231	21171.12
547.595	21102.2
547.959	21293.15
548.324	21249.54
548.688	21296.32
549.052	21412.25
549.416	21519.82
549.779	21536.54
550.143	21653.6
550.507	21742.41
550.871	21788.96
551.235	21741.5
551.599	21976.75
551.962	22165
552.326	22173.13
552.689	22275.5
553.053	22190.31
553.417	22290.42
553.78	22574.48
554.143	22405.22
554.507	22626.23
554.87	22699.9
555.234	22894.02
555.597	22809.73
555.96	22900.8
556.323	23010.85
556.686	23139.21
557.05	23187.12
557.413	23263.72
557.776	23377.85
558.139	23639.76
558.502	23615.13
558.865	23708.68
559.228	23804.05
559.59	23862.8
559.953	24051.95
560.316	24222.8
560.679	24219.18
561.041	24333.07
561.404	24500.53
561.767	24649.68
562.129	24503.69
562.492	24885.38
562.854	24790.69
563.217	24841.31
563.579	24987.97
563.941	25178.02
564.304	25270.23
564.666	25413.27
565.028	25453.72
565.39	25468.64
565.753	25829.08
566.115	25834.28
566.477	25859.14
566.839	26015.74
567.201	26085.57
567.563	26270.2
567.925	26401.04
568.287	26453.02
568.648	26527.14
569.01	26648.04
569.372	26812.33
569.734	26810.98
570.095	26926.23
570.457	27003.97
570.819	27069.73
571.18	27213.45
571.542	27215.26
571.903	27327.8
572.265	27354.46
572.626	27460.22
572.987	27623.38
573.349	27692.08
573.71	27797.84
574.071	27867.45
574.432	27881.91
574.794	28148.57
575.155	28072.64
575.516	27970.72
575.877	28207.1
576.238	28191.05
576.599	28305.17
576.96	28366.64
577.32	28549.01
577.681	28606.41
578.042	28529.35
578.403	28432.85
578.763	28570.93
579.124	28617.03
579.485	28741.77
579.845	28798.49
580.206	28851.37
580.566	28833.75
580.927	28922.78
581.287	28931.37
581.648	28873.97
582.008	29010.92
582.368	28977.92
582.728	28972.5
583.089	28982.44
583.449	28951.03
583.809	29067.19
584.169	29136.11
584.529	29077.36
584.889	29309.22
585.249	29105.83
585.609	28991.26
585.969	29215.21
586.329	29242.32
586.688	29226.28
587.048	29190.35
587.408	29199.16
587.768	29256.56
588.127	29048.66
588.487	29093.4
588.846	29343.11
589.206	29181.76
589.565	29144.7
589.925	29348.99
590.284	29238.71
590.643	29303.79
591.003	29452.04
591.362	29407.97
591.721	29244.36
592.08	29415.43
592.44	29416.11
592.799	29462.66
593.158	29334.98
593.517	29343.79
593.876	29365.71
594.235	29274.41
594.593	29398.25
594.952	29449.78
595.311	29493.39
595.67	29535.2
596.029	29579.26
596.387	29620.17
596.746	29827.39
597.104	29581.98
597.463	29649.77
597.822	29650.9
598.18	29591.24
598.538	29576.33
598.897	29824.46
599.255	29609.09
599.613	29965.24
599.972	29770.22
600.33	29881.4
600.688	29681.63
601.046	29837.56
601.404	29947.39
601.762	29843.66
602.12	30110.1
602.478	29896.09
602.836	30081.62
603.194	30027.16
603.552	30082.53
603.91	29920.5
604.268	30028.07
604.625	30043.43
604.983	30167.95
605.341	30014.06
605.698	30311.45
606.056	30228.74
606.413	30226.93
606.771	30289.08
607.128	30372.01
607.485	30221.06
607.843	30249.76
608.2	30489.98
608.557	30538.34
608.914	30373.14
609.272	30588.73
609.629	30640.03
609.986	30667.82
610.343	30614.27
610.7	30853.81
611.057	30787.82
611.414	30784.2
611.771	30731.78
612.127	30867.59
612.484	30870.53
612.841	30913.47
613.198	30709.4
613.554	30959.34
613.911	31102.84
614.267	31118.89
614.624	31111.88
614.98	31055.61
615.337	31294.7
615.693	31201.14
616.05	31062.39
616.406	31314.59
616.762	31273.91
617.118	31330.18
617.475	31377.86
617.831	31436.16
618.187	31295.83
618.543	31485.88
618.899	31564.75
619.255	31577.18
619.611	31557.29
619.967	31515.03
620.323	31624.18
620.678	31501.25
621.034	31466.9
621.39	31529.95
621.746	31444.75
622.101	31694.24
622.457	31426.9
622.812	31614.01
623.168	31710.06
623.523	31697.18
623.879	31797.29
624.234	31531.08
624.589	31647.68
624.945	31667.8
625.3	31818.08
625.655	31678.87
626.01	31735.37
626.365	31682.03
626.72	31609.49
627.075	31628.93
627.43	31682.49
627.785	31627.35
628.14	31677.06
628.495	31729.49
628.85	31607.23
629.205	31564.75
629.559	31767.91
629.914	31555.03
630.269	31593.9
630.623	31538.54
630.978	31541.02
631.332	31645.88
631.687	31497.41
632.041	31475.03
632.396	31570.62
632.75	31376.73
633.104	31453.79
633.459	31295.6
633.813	31213.57
634.167	31296.96
634.521	31258.32
634.875	31267.81
635.229	31260.35
635.583	30975.84
635.937	31083.86
636.291	30944.43
636.645	31045.89
636.999	30967.7
637.352	31014.48
637.706	30894.48
638.06	31012.9
638.413	30828.05
638.767	30861.72
639.121	30906.46
639.474	30737.43
639.828	30712.12
640.181	30787.37
640.534	30754.6
640.888	30634.83
641.241	30512.57
641.594	30616.75
641.947	30607.71
642.301	30456.53
642.654	30634.38
643.007	30532.69
643.36	30375.85
643.713	30440.94
644.066	30430.54
644.419	30326.14
644.771	30153.49
645.124	29907.17
645.477	29906.26
645.83	29721.41
646.182	29499.27
646.535	29340.63
646.888	29330.68
647.24	29207.75
647.593	29348.08
647.945	29232.61
648.298	29216.11
648.65	29094.08
649.002	29061.54
649.355	29196.68
649.707	29227.41
650.059	29248.2
650.411	29533.39
650.763	29692.93
651.115	29921.4
651.467	29690.22
651.819	29764.34
652.171	29635.08
652.523	29591.69
652.875	29654.97
653.227	29541.53
653.578	29687.06
653.93	29631.24
654.282	29508.31
654.633	29358.25
654.985	29648.64
655.337	29358.71
655.688	29555.99
656.039	29503.79
656.391	29301.53
656.742	29310.35
657.094	29398.7
657.445	29417.23
657.796	29438.03
658.147	29295.2
658.498	29277.58
658.849	29423.79
659.2	29259.5
659.551	29264.02
659.902	29342.89
660.253	29154.64
660.604	29314.19
660.955	28987.42
661.306	29200.29
661.656	29144.93
662.007	29086.62
662.358	29058.15
662.708	28975.89
663.059	29104.93
663.409	29016.57
663.76	29102.44
664.11	29077.58
664.461	29061.31
664.811	29106.51
665.161	29115.32
665.511	28949.22
665.862	29096.34
666.212	29128.88
666.562	29040.97
666.912	28963.91
667.262	28842.79
667.612	29061.09
667.962	28890.7
668.312	28803.92
668.662	29103.34
669.011	28913.75
669.361	28858.83
669.711	28825.39
670.06	28773.86
670.41	28970.69
670.76	28825.39
671.109	28789.45
671.459	28755.11
671.808	28726.86
672.157	28831.49
672.507	28641.21
672.856	28575.45
673.205	28567.09
673.554	28724.15
673.904	28586.52
674.253	28749.23
674.602	28629.01
674.951	28310.82
675.3	28065.18
675.649	28450.03
675.998	28628.1
676.346	28530.25
676.695	28687.31
677.044	28289.36
677.393	28442.35
677.741	28439.86
678.09	28296.13
678.438	28290.94
678.787	28407.32
679.135	28396.7
679.484	28249.36
679.832	28273.31
680.181	28098.4
680.529	28051.4
680.877	28086.2
681.225	28068.34
681.573	28303.37
681.922	27981.34
682.27	28002.36
682.618	27991.74
682.966	27850.04
683.314	27871.96
683.661	27970.04
684.009	27678.98
684.357	27657.73
684.705	27553.56
685.053	27720.78
685.4	27581.13
685.748	27468.81
686.095	27369.38
686.443	27481.92
686.79	27280.57
687.138	27299.78
687.485	27289.61
687.832	27268.14
688.18	27286.22
688.527	27109.95
688.874	27014.81
689.221	27029.73
689.568	26900.24
689.915	26849.17
690.262	26942.05
690.609	26735.5
690.956	26759.45
691.303	26723.52
691.65	26573.69
691.997	26638.1
692.344	26472.45
692.69	26359.91
693.037	26420.93
693.383	26142.97
693.73	26189.52
694.077	25971.22
694.423	26045.35
694.769	25985.91
695.116	26032.24
695.462	25920.6
695.808	25778.01
696.155	25882.19
696.501	25685.58
696.847	25705.92
697.193	25537.56
697.539	25568.97
697.885	25365.82
698.231	25359.26
698.577	25241.75
698.923	25162.66
699.269	25134.86
699.614	25052.83
699.96	25017.58
700.306	24984.36
700.651	24968.76
700.997	24759.73
701.342	24874.08
701.688	24716.34
702.033	24560.87
702.379	24594.54
702.724	24557.7
703.069	24627.3
703.415	24292.4
703.76	24300.53
704.105	24303.7
704.45	24140.31
704.795	24044.04
705.14	23944.38
705.485	24047.66
705.83	23903.03
706.175	24023.03
706.52	23870.49
706.865	23918.85
707.209	23679.53
707.554	23695.8
707.899	23674.56
708.243	23510.5
708.588	23541.01
708.932	23375.81
709.277	23446.54
709.621	23413.78
709.966	23342.14
710.31	23286.77
710.654	23176.04
710.998	23211.07
711.342	23185.08
711.687	23175.14
712.031	23065.54
712.375	22980.12
712.719	22895.37
713.063	22863.73
713.407	22911.19
713.75	22887.24
714.094	22859.67
714.438	22663.06
714.782	22701.03
715.125	22589.62
715.469	22661.48
715.812	22470.52
716.156	22387.59
716.499	22393.24
716.843	22473.91
717.186	22294.48
717.53	22395.27
717.873	22342.39
718.216	22332.68
718.559	22192.57
718.902	21965.23
719.246	22143.75
719.589	22093.13
719.932	21971.33
720.275	22032.12
720.617	21964.1
720.96	21923.42
721.303	21898.34
721.646	21810.2
721.989	21748.74
722.331	21836.42
722.674	21792.8
723.016	21706.48
723.359	21745.57
723.701	21767.27
724.044	21485.47
724.386	21544.22
724.729	21532.7
725.071	21432.13
725.413	21452.25
725.755	21325.47
726.097	21325.02
726.439	21165.02
726.782	21166.15
727.124	21360.05
727.465	21236.43
727.807	21159.37
728.149	21197.11
728.491	21121.41
728.833	21090.22
729.175	21023.56
729.516	20970.68
729.858	20973.16
730.199	21006.38
730.541	20900.17
730.882	20827.18
731.224	20983.78
731.565	20749.89
731.906	20695.43
732.248	20870.12
732.589	20704.24
732.93	20718.93
733.271	20660.63
733.612	20692.94
733.953	20688.2
734.294	20619.05
734.635	20671.02
734.976	20518.94
735.317	20451.6
735.658	20511.48
735.999	20393.52
736.339	20450.24
736.68	20379.73
737.021	20340.64
737.361	20277.59
737.702	20278.49
738.042	20291.6
738.383	20226.06
738.723	20195.33
739.063	20096.58
739.404	20210.02
739.744	20184.26
740.084	20107.65
740.424	20058.39
740.764	20092.96
741.104	20048.89
741.444	19937.26
741.784	19844.61
742.124	19965.51
742.464	19940.65
742.804	19860.2
743.143	19828.79
743.483	19793.76
743.823	19671.5
744.162	19624.72
744.502	19750.14
744.841	19620.43
745.181	19620.43
745.52	19618.4
745.86	19511.51
746.199	19541.79
746.538	19542.01
746.877	19596.7
747.216	19462.02
747.556	19381.57
747.895	19422.24
748.234	19344.28
748.573	19220.89
748.911	19269.25
749.25	19297.05
749.589	19112.65
749.928	19227.9
750.267	19133.44
750.605	19051.18
750.944	19165.3
751.283	18932.76
751.621	18983.84
751.96	18806.21
752.298	18877.85
752.636	18867.68
752.975	18746.1
753.313	18717.86
753.651	18717.4
753.989	18657.29
754.327	18675.6
754.666	18501.59
755.004	18584.53
755.342	18622.49
755.679	18689.61
756.017	18410.29
756.355	18545.43
756.693	18299.56
757.031	18341.14
757.368	18275.61
757.706	18250.52
758.044	18257.3
758.381	18165.33
758.719	18082.39
759.056	18123.07
759.394	17963.3
759.731	17923.53
760.068	17919.23
760.405	17862.28
760.743	17775.51
761.08	17839.01
761.417	17745
761.754	17670.88
762.091	17613.48
762.428	17594.27
762.765	17423.65
763.102	17571.67
763.438	17482.41
763.775	17471.56
764.112	17292.81
764.449	17449.19
764.785	17256.2
765.122	17152.02
765.458	17110.89
765.795	17049.2
766.131	16994.96
766.467	16997.22
766.804	16919.03
767.14	16796.78
767.476	16852.14
767.812	16732.6
768.148	16677.91
768.485	16544.58
768.821	16546.84
769.157	16538.25
769.492	16462.1
769.828	16447.41
770.164	16314.3
770.5	16231.37
770.836	16256.68
771.171	16258.71
771.507	16082.44
771.842	15983.69
772.178	16027.98
772.513	15943.46
772.849	15808.78
773.184	15829.34
773.519	15885.16
773.855	15750.93
774.19	15691.04
774.525	15705.28
774.86	15706.41
775.195	15602.23
775.53	15517.94
775.865	15400.65
776.2	15362.92
776.535	15167.21
776.87	15242.92
777.205	15192.98
777.539	15080.21
777.874	15128.57
778.209	14938.07
778.543	14903.27
778.878	14912.53
779.212	14909.59
779.547	14778.75
779.881	14772.42
780.215	14673.67
780.55	14747.11
780.884	14632.54
781.218	14524.52
781.552	14512.77
781.886	14523.16
782.22	14438.42
782.554	14417.18
782.888	14230.97
783.222	14196.62
783.556	14155.49
783.889	14089.73
784.223	14043.18
784.557	13961.37
784.89	14026.23
785.224	13843.86
785.557	13874.14
785.891	13831.88
786.224	13823.97
786.558	13752.11
786.891	13627.14
787.224	13712.79
787.557	13620.59
787.891	13516.18
788.224	13649.29
788.557	13568.16
788.89	13434.15
789.223	13360.71
789.556	13376.75
789.888	13287.26
790.221	13313.03
790.554	13168.17
790.887	13194.84
791.219	13123.2
791.552	13168.85
791.884	13120.94
792.217	12913.04
792.549	12938.12
792.882	12953.49
793.214	12855.86
793.546	12880.72
793.879	12698.58
794.211	12669.2
794.543	12632.59
794.875	12573.84
795.207	12703.32
795.539	12501.3
795.871	12495.19
796.203	12479.15
796.535	12347.63
796.867	12402.77
797.198	12399.38
797.53	12360.73
797.862	12287.97
798.193	12283.9
798.525	12163
798.856	12226.5
799.188	12102.66
799.519	12093.4
799.85	11984.7
800.182	12015.88
800.513	12039.84
800.844	11914.87
801.175	11945.15
801.506	11928.88
801.837	11867.41
802.168	11817.7
802.499	11761.88
802.83	11670.58
803.161	11630.13
803.491	11701.54
803.822	11721.43
804.153	11591.04
804.483	11474.88
804.814	11440.31
805.145	11429.91
805.475	11462.68
805.805	11426.97
806.136	11434.43
806.466	11390.14
806.796	11405.05
807.126	11321.44
807.457	11261.33
807.787	11280.99
808.117	11197.38
808.447	11163.03
808.777	11201.89
809.107	11118.51
809.436	11123.03
809.766	11079.41
810.096	11011.17
810.426	10948.12
810.755	10996.7
811.085	11021.56
811.414	10917.61
811.744	10947.44
812.073	10850.04
812.403	10866.08
812.732	10783.15
813.061	10829.48
813.39	10643.94
813.719	10680.33
814.049	10689.82
814.378	10699.54
814.707	10622.25
815.036	10623.38
815.365	10580.89
815.693	10485.98
816.022	10449.6
816.351	10488.24
816.68	10427.68
817.008	10474.46
817.337	10351.3
817.665	10298.19
817.994	10454.57
818.322	10370.5
818.651	10424.97
818.979	10226.33
819.307	10321.47
819.636	10306.78
819.964	10278.53
820.292	10274.46
820.62	10266.78
820.948	10177.74
821.276	10304.52
821.604	10209.6
821.932	10170.96
822.259	10152.2
822.587	10177.74
822.915	10134.8
823.243	10223.84
823.57	10133.67
823.898	10142.26
824.225	10130.51
824.553	10144.07
824.88	10251.86
825.207	10215.93
825.535	10130.28
825.862	10142.94
826.189	10081.25
826.516	10132.54
826.843	10206.21
827.17	10142.94
827.497	10202.37
827.824	10255.03
828.151	10206.89
828.478	10153.79
828.805	10208.47
829.131	10180.23
829.458	10203.28
829.785	10088.25
830.111	10142.71
830.438	10157.85
830.764	10160.11
831.09	10113.56
831.417	10041.7
831.743	10111.98
832.069	10069.72
832.395	10069.5
832.722	10157.85
833.048	10122.38
833.374	10158.98
833.7	10098.87
834.026	10029.27
834.351	10006.9
834.677	10029.04
835.003	10062.26
835.329	10061.13
835.654	9979.33
835.98	9989.95
836.306	10038.31
836.631	9977.07
836.956	9977.29
837.282	9985.88
837.607	9925.54
837.932	9889.61
838.258	9880.35
838.583	9870.18
838.908	9825.66
839.233	9824.08
839.558	9781.82
839.883	9811.65
840.208	9690.52
840.533	9753.57
840.858	9730.3
841.182	9762.61
841.507	9703.63
841.832	9652.1
842.156	9668.6
842.481	9600.35
842.805	9627.92
843.13	9595.84
843.454	9591.99
843.778	9530.3
844.103	9486.46
844.427	9558.32
844.751	9557.87
845.075	9478.32
845.399	9460.02
845.723	9401.72
846.047	9445.56
846.371	9322.62
846.695	9343.41
847.019	9304.77
847.343	9239.91
847.666	9167.15
847.99	9108.16
848.313	9174.83
848.637	9069.07
848.96	9048.96
849.284	9004.21
849.607	8961.5
849.931	9005.34
850.254	8995.17
850.577	8934.38
850.9	8820.26
851.223	8804.9
851.546	8763.99
851.869	8761.05
852.192	8765.12
852.515	8709.76
852.838	8714.28
853.161	8680.83
853.483	8582.53
853.806	8577.1
854.129	8588.18
854.451	8470.44
854.774	8461.85
855.096	8417.11
855.419	8407.62
855.741	8394.96
856.063	8369.65
856.385	8383.89
856.708	8300.95
857.03	8278.13
857.352	8324.91
857.674	8271.58
857.996	8208.53
858.318	8139.6
858.64	8168.98
858.961	8205.14
859.283	8117.91
859.605	8102.54
859.926	8150.68
860.248	8076.55
860.57	8068.87
860.891	8085.14
861.212	8042.43
861.534	8004.46
861.855	7985.03
862.176	7970.34
862.498	7966.95
862.819	7994.97
863.14	7834.98
863.461	7934.64
863.782	7908.65
864.103	7953.62
864.424	7828.88
864.745	7887.86
865.065	7846.73
865.386	7867.52
865.707	7824.58
866.027	7844.24
866.348	7839.05
866.668	7795.2
866.989	7776.45
867.309	7719.95
867.63	7743
867.95	7717.01
868.27	7702.78
868.59	7656.23
868.91	7766.05
869.23	7676.56
869.55	7656
869.87	7700.29
870.19	7613.29
870.51	7621.88
870.83	7617.58
871.15	7591.14
871.469	7575.1
871.789	7612.16
872.109	7585.72
872.428	7482.22
872.748	7604.02
873.067	7554.98
873.386	7525.38
873.706	7445.84
874.025	7458.04
874.344	7423.46
874.663	7448.77
874.982	7442.9
875.301	7453.07
875.62	7423.69
875.939	7427.98
876.258	7442.67
876.577	7376.01
876.896	7384.14
877.214	7375.33
877.533	7369.23
877.852	7372.16
878.17	7353.63
878.489	7364.26
878.807	7352.73
879.125	7306.18
879.444	7247.65
879.762	7283.13
880.08	7284.48
880.398	7237.25
880.716	7242.9
881.034	7199.74
881.352	7206.97
881.67	7215.56
881.988	7184.83
882.306	7218.27
882.624	7195.67
882.941	7171.49
883.259	7110.93
883.577	7077.26
883.894	7100.08
884.212	7094.66
884.529	7063.92
884.846	7105.28
885.164	7092.85
885.481	7071.16
885.798	6998.39
886.115	6949.58
886.432	6977.15
886.75	6942.35
887.067	6942.8
887.383	6910.71
887.7	6919.75
888.017	6887.43
888.334	6931.5
888.651	6826.42
888.967	6871.84
889.284	6832.97
889.6	6783.25
889.917	6765.4
890.233	6799.75
890.55	6803.14
890.866	6713.2
891.182	6665.29
891.498	6737.38
891.815	6717.49
892.131	6668.45
892.447	6670.26
892.763	6618.06
893.079	6603.82
893.395	6574.45
893.71	6560.89
894.026	6556.37
894.342	6521.11
894.657	6537.38
894.973	6501.91
895.289	6461.45
895.604	6488.35
895.92	6409.7
896.235	6471.4
896.55	6419.2
896.865	6365.41
897.181	6334.68
897.496	6392.3
897.811	6358.18
898.126	6299.42
898.441	6265.98
898.756	6299.88
899.071	6222.36
899.386	6234.79
899.7	6183.04
900.015	6083.16
900.33	6121.12
900.644	6130.39
900.959	6131.07
901.273	6090.84
901.588	6050.62
901.902	6024.18
902.216	6011.75
902.531	6002.48
902.845	5985.53
903.159	5971.52
903.473	5971.98
903.787	5934.91
904.101	5903.5
904.415	5856.5
904.729	5853.11
905.042	5862.15
905.356	5817.18
905.67	5800.23
905.984	5778.76
906.297	5734.69
906.611	5700.57
906.924	5728.37
907.237	5654.92
907.551	5687.01
907.864	5678.65
908.177	5612.21
908.491	5635.94
908.804	5587.58
909.117	5575.6
909.43	5560.01
909.743	5542.83
910.056	5538.09
910.368	5479.56
910.681	5488.82
910.994	5460.12
911.307	5411.76
911.619	5395.27
911.932	5383.29
912.244	5370.86
912.557	5356.4
912.869	5324.54
913.181	5337.19
913.494	5322.28
913.806	5263.07
914.118	5220.58
914.43	5244.76
914.742	5244.31
915.054	5172.67
915.366	5172.9
915.678	5155.5
915.99	5110.98
916.302	5083.86
916.613	5086.58
916.925	5049.51
917.236	5019.68
917.548	4993.24
917.859	4995.96
918.171	4995.73
918.482	4948.73
918.794	4913.47
919.105	4909.63
919.416	4910.31
919.727	4900.37
920.038	4915.51
920.349	4852.68
920.66	4801.84
920.971	4826.24
921.282	4814.72
921.593	4791.22
921.903	4733.14
922.214	4728.17
922.525	4707.15
922.835	4689.07
923.146	4650.43
923.456	4687.72
923.767	4641.39
924.077	4602.07
924.387	4584.22
924.697	4525.46
925.008	4573.59
925.318	4537.66
925.628	4504.22
925.938	4497.44
926.248	4487.27
926.558	4416.31
926.867	4480.04
927.177	4432.36
927.487	4451.11
927.796	4352.36
928.106	4399.59
928.416	4351.45
928.725	4344.9
929.034	4322.53
929.344	4338.12
929.653	4307.61
929.962	4273.49
930.271	4254.51
930.581	4293.6
930.89	4214.28
931.199	4189.42
931.508	4189.65
931.817	4200.27
932.125	4185.81
932.434	4123.44
932.743	4084.79
933.051	4134.51
933.36	4115.98
933.669	4027.85
933.977	4041.86
934.286	4040.73
934.594	4018.35
934.902	4031.91
935.21	4004.8
935.519	3984.01
935.827	3937.9
936.135	3952.37
936.443	3901.3
936.751	3918.92
937.059	3883.9
937.367	3842.77
937.674	3821.07
937.982	3887.96
938.29	3878.47
938.597	3829.66
938.905	3824.24
939.213	3805.03
939.52	3763.45
939.827	3793.73
940.135	3771.58
940.442	3703.11
940.749	3732.03
941.056	3723.22
941.363	3664.24
941.67	3663.34
941.977	3600.29
942.284	3614.52
942.591	3600.96
942.898	3647.52
943.205	3586.95
943.511	3565.71
943.818	3531.59
944.125	3520.29
944.431	3564.13
944.738	3510.12
945.044	3474.41
945.35	3498.37
945.657	3485.26
945.963	3468.76
946.269	3438.48
946.575	3469.22
946.881	3426.96
947.187	3417.24
947.493	3377.92
947.799	3361.42
948.105	3379.5
948.41	3322.55
948.716	3310.8
949.022	3283.68
949.327	3347.86
949.633	3262.22
949.938	3285.49
950.244	3268.32
950.549	3242.78
950.854	3217.47
951.16	3212.5
951.465	3226.96
951.77	3180.41
952.075	3196.23
952.38	3152.61
952.685	3165.04
952.99	3165.04
953.294	3132.95
953.599	3123.01
953.904	3136.34
954.209	3083.01
954.513	3083.46
954.818	3090.92
955.122	3072.39
955.426	3085.72
955.731	3022.45
956.035	3046.4
956.339	3018.16
956.643	3029.23
956.948	3001.21
957.252	2953.3
957.556	2963.47
957.86	2909.68
958.163	2993.52
958.467	2909.46
958.771	2881.44
959.075	2883.47
959.378	2884.15
959.682	2885.05
959.985	2858.16
960.289	2847.09
960.592	2874.88
960.896	2821.1
961.199	2821.1
961.502	2837.37
961.805	2808.44
962.108	2760.76
962.411	2779.07
962.714	2732.96
963.017	2749.69
963.32	2745.39
963.623	2742.68
963.926	2737.94
964.228	2699.52
964.531	2673.76
964.833	2678.5
965.136	2630.37
965.438	2683.7
965.741	2638.05
966.043	2640.99
966.345	2630.14
966.648	2631.05
966.95	2589.01
967.252	2586.08
967.554	2555.12
967.856	2557.6
968.158	2566.42
968.46	2546.53
968.761	2523.7
969.063	2508.11
969.365	2534.33
969.666	2491.62
969.968	2509.69
970.269	2450.49
970.571	2459.3
970.872	2505.63
971.174	2454.1
971.475	2469.92
971.776	2466.98
972.077	2440.77
972.378	2428.79
972.679	2452.29
972.98	2410.26
973.281	2380.43
973.582	2397.83
973.883	2403.03
974.183	2368.91
974.484	2365.52
974.785	2367.32
975.085	2348.12
975.386	2324.61
975.686	2323.26
975.986	2308.8
976.287	2310.15
976.587	2261.56
976.887	2269.25
977.187	2256.59
977.487	2245.07
977.787	2269.93
978.087	2217.27
978.387	2250.72
978.687	2217.27
978.987	2231.06
979.286	2168.46
979.586	2172.53
979.885	2223.83
980.185	2182.92
980.484	2144.28
980.784	2163.94
981.083	2158.52
981.382	2139.31
981.682	2160.55
981.981	2126.88
982.28	2149.03
982.579	2107.22
982.878	2104.05
983.177	2064.96
983.475	2079.87
983.774	2076.71
984.073	2049.14
984.372	2071.74
984.67	2044.4
984.969	2031.97
985.267	2036.03
985.566	2009.37
985.864	2017.73
986.162	2026.77
986.461	1973.44
986.759	1972.98
987.057	1984.96
987.355	1970.05
987.653	1992.42
987.951	1950.39
988.249	1963.72
988.547	1962.14
988.844	1934.79
989.142	1938.18
989.44	1916.26
989.737	1882.14
990.035	1885.98
990.332	1911.29
990.63	1892.53
990.927	1858.19
991.224	1869.71
991.521	1853.67
991.819	1838.75
992.116	1826.32
992.413	1798.3
992.71	1817.73
993.006	1814.12
993.303	1816.6
993.6	1829.49
993.897	1810.05
994.193	1798.98
994.49	1775.7
994.787	1784.06
995.083	1799.43
995.379	1791.07
995.676	1710.17
995.972	1728.7
996.268	1760.79
996.565	1713.33
996.861	1714.91
997.157	1686.89
997.453	1700.22
997.749	1652.09
998.044	1692.31
998.34	1678.76
998.636	1661.13
998.932	1655.03
999.227	1675.82
999.523	1671.98
999.818	1630.17
1000.114	1644.86
1000.409	1621.81
1000.704	1622.71
1001	1632.2
1001.295	1599.89
1001.59	1576.61
1001.885	1615.03
1002.18	1584.52
1002.475	1590.4
1002.77	1587.46
1003.065	1545.88
1003.359	1552.88
1003.654	1531.19
1003.949	1529.15
1004.243	1544.52
1004.538	1518.31
1004.832	1501.36
1005.127	1515.14
1005.421	1478.76
1005.715	1503.17
1006.009	1484.86
1006.304	1447.35
1006.598	1462.94
1006.892	1445.99
1007.186	1453
1007.48	1428.82
1007.773	1439.89
1008.067	1424.75
1008.361	1420.23
1008.655	1409.84
1008.948	1394.69
1009.242	1386.33
1009.535	1415.03
1009.829	1375.94
1010.122	1356.28
1010.415	1348.37
1010.708	1351.31
1011.001	1335.49
1011.295	1334.58
1011.588	1355.15
1011.881	1326.45
1012.173	1347.46
1012.466	1333.91
1012.759	1321.93
1013.052	1303.62
1013.344	1298.2
1013.637	1291.65
1013.93	1279.44
1014.222	1260.46
1014.514	1263.62
1014.807	1256.62
1015.099	1254.59
1015.391	1256.39
1015.683	1240.8
1015.976	1217.07
1016.268	1239.22
1016.56	1214.81
1016.851	1240.12
1017.143	1208.49
1017.435	1201.03
1017.727	1186.79
1018.018	1172.78
1018.31	1154.93
1018.602	1173.23
1018.893	1169.39
1019.185	1166.23
1019.476	1162.16
1019.767	1123.74
1020.058	1167.13
1020.35	1134.36
1020.641	1113.12
1020.932	1105.21
1021.223	1101.37
1021.514	1093.01
1021.804	1084.42
1022.095	1102.05
1022.386	1082.61
1022.677	1065.44
1022.967	1074.25
1023.258	1054.59
1023.548	1087.58
1023.839	1063.86
1024.129	1026.57
1024.419	1060.47
1024.709	1048.26
1025	1043.29
1025.29	1017.76
1025.58	1006.68
1025.87	1024.99
1026.16	1002.16
1026.449	998.1
1026.739	974.82
1027.029	1014.59
1027.319	989.51
1027.608	979.11
1027.898	963.07
1028.187	986.8
1028.477	976.63
1028.766	964.2
1029.055	956.06
1029.344	941.37
1029.634	932.11
1029.923	933.92
1030.212	930.3
1030.501	920.36
1030.79	919.45
1031.078	896.63
1031.367	911.32
1031.656	917.42
1031.945	897.76
1032.233	883.97
1032.522	908.38
1032.81	855.73
1033.099	905.89
1033.387	861.83
1033.675	876.06
1033.963	860.02
1034.251	852.11
1034.54	870.64
1034.828	839.68
1035.116	864.09
1035.403	841.26
1035.691	820.47
1035.979	852.11
1036.267	849.85
1036.554	824.31
1036.842	826.8
1037.129	798.33
1037.417	794.48
1037.704	810.53
1037.992	787.71
1038.279	778.67
1038.566	784.54
1038.853	784.54
1039.14	784.54
