Data from breadboard_white_FLMS001491_00044.txt Node
Date: Wed Feb 08 10:47:46 GMT 2017
User: dcchb
Spectrometer: FLMS00149
Trigger mode: 0
Integration Time (sec): 2.000000E-2
Scans to average: 10
Electric dark correction enabled: true
Nonlinearity correction enabled: false
Boxcar width: 0
XAxis mode: Wavelengths
Number of Pixels in Spectrum: 2048
>>>>>Begin Spectral Data<<<<<
341.393	-14.22
341.776	-14.22
342.16	-14.22
342.543	-46.76
342.927	-76.37
343.31	-66.88
343.693	-74.56
344.077	-63.49
344.46	-69.36
344.843	-37.95
345.226	-57.61
345.61	-22.58
345.993	-20.55
346.376	22.16
346.759	-3.38
347.142	12.44
347.525	52.67
347.908	58.77
348.291	85.66
348.674	76.85
349.057	107.81
349.44	131.99
349.823	158.2
350.206	165.66
350.588	215.6
350.971	223.29
351.354	242.49
351.737	247.92
352.119	268.71
352.502	294.47
352.884	285.43
353.267	294.7
353.65	280.23
354.032	310.29
354.414	330.17
354.797	327.01
355.179	341.47
355.562	324.07
355.944	351.42
356.326	356.84
356.709	341.25
357.091	353.23
357.473	363.62
357.855	365.43
358.238	353
358.62	351.64
359.002	365.2
359.384	361.13
359.766	359.33
360.148	365.43
360.53	361.81
360.912	390.51
361.294	372.43
361.676	354.13
362.057	334.24
362.439	371.08
362.821	357.74
363.203	360.46
363.584	369.27
363.966	345.99
364.348	342.6
364.729	357.07
365.111	356.61
365.493	343.96
365.874	344.41
366.256	351.42
366.637	325.66
367.019	353.68
367.4	337.41
367.781	338.54
368.163	331.3
368.544	355.94
368.925	354.13
369.306	358.42
369.688	343.73
370.069	348.48
370.45	331.53
370.831	345.32
371.212	345.32
371.593	329.05
371.974	350.74
372.355	359.33
372.736	350.06
373.117	356.16
373.498	346.45
373.879	361.59
374.26	346.67
374.641	328.82
375.021	347.8
375.402	371.3
375.783	355.71
376.163	400.23
376.544	381.7
376.925	388.7
377.305	384.41
377.686	370.17
378.066	404.52
378.447	388.93
378.827	376.73
379.208	394.81
379.588	376.95
379.968	366.78
380.349	405.88
380.729	389.16
381.109	399.78
381.489	373.79
381.87	388.03
382.25	399.33
382.63	412.21
383.01	404.98
383.39	415.6
383.77	417.86
384.15	413.79
384.53	419.44
384.91	415.82
385.29	438.42
385.67	442.49
386.049	432.77
386.429	425.77
386.809	418.99
387.189	438.19
387.568	440
387.948	445.88
388.328	438.42
388.707	456.73
389.087	465.09
389.466	469.15
389.846	466.44
390.225	465.31
390.605	465.09
390.984	479.55
391.363	485.2
391.743	483.62
392.122	493.33
392.501	508.25
392.881	503.28
393.26	522.71
393.639	499.21
394.018	533.33
394.397	529.04
394.776	560.9
395.155	547.34
395.534	566.33
395.913	544.86
396.292	571.98
396.671	577.4
397.05	570.85
397.429	583.28
397.808	603.84
398.186	578.3
398.565	598.64
398.944	604.29
399.323	612.43
399.701	631.86
400.08	626.44
400.458	623.05
400.837	646.78
401.215	666.44
401.594	646.32
401.972	682.03
402.351	682.71
402.729	707.34
403.107	707.11
403.486	727.68
403.864	728.36
404.242	730.16
404.62	769.03
404.999	774.91
405.377	772.65
405.755	788.24
406.133	831.86
406.511	827.79
406.889	845.19
407.267	851.97
407.645	863.04
408.023	888.35
408.401	899.43
408.779	919.54
409.156	943.27
409.534	946.2
409.912	975.13
410.29	996.15
410.667	1000.21
411.045	1033.66
411.422	1042.92
411.8	1030.27
412.178	1100.32
412.555	1101.45
412.933	1150.49
413.31	1136.26
413.687	1150.72
414.065	1169.47
414.442	1192.75
414.819	1219.87
415.197	1237.5
415.574	1243.6
415.951	1302.13
416.328	1271.62
416.705	1308.91
417.082	1322.01
417.46	1325.85
417.837	1360.2
418.214	1367.21
418.591	1412.41
418.967	1430.26
419.344	1441.11
419.721	1456.92
420.098	1466.42
420.475	1489.47
420.852	1503.48
421.228	1505.06
421.605	1556.81
421.982	1550.71
422.358	1584.15
422.735	1595
423.111	1597.26
423.488	1647.65
423.864	1646.75
424.241	1687.2
424.617	1682.46
424.994	1729.01
425.37	1741.44
425.746	1735.11
426.123	1794.54
426.499	1792.51
426.875	1815.33
427.251	1858.5
427.627	1891.72
428.003	1947.76
428.379	1946.18
428.756	1919.06
429.132	1982.79
429.507	2026.4
429.883	2034.31
430.259	2093.74
430.635	2093.07
431.011	2110.47
431.387	2164.03
431.763	2238.37
432.138	2232.5
432.514	2248.99
432.89	2288.77
433.265	2336.22
433.641	2350.23
434.016	2403.34
434.392	2399.95
434.767	2450.57
435.143	2444.47
435.518	2495.54
435.894	2512.72
436.269	2563.56
436.644	2601.53
437.02	2625.26
437.395	2643.79
437.77	2684.01
438.145	2715.87
438.52	2728.76
438.895	2755.42
439.271	2771.24
439.646	2832.71
440.021	2881.52
440.395	2870.9
440.77	2837.45
441.145	2944.34
441.52	2933.95
441.895	2936.43
442.27	3041.52
442.645	3008.75
443.019	3040.84
443.394	3059.37
443.769	3075.87
444.143	3087.62
444.518	3115.64
444.892	3155.86
445.267	3137.56
445.641	3191.57
446.016	3187.5
446.39	3280.15
446.764	3251.45
447.139	3281.74
447.513	3327.61
447.887	3327.38
448.262	3337.78
448.636	3383.2
449.01	3430.21
449.384	3437.66
449.758	3468.17
450.132	3521.28
450.506	3507.72
450.88	3575.74
451.254	3557.43
451.628	3643.08
452.002	3680.6
452.376	3756.53
452.75	3745.23
453.123	3782.97
453.497	3883.98
453.871	3906.35
454.244	3962.4
454.618	4009.17
454.992	4044.88
455.365	4035.39
455.739	4149.06
456.112	4190.64
456.486	4191.09
456.859	4245.78
457.232	4369.39
457.606	4338.88
457.979	4465.43
458.352	4496.85
458.725	4522.38
459.099	4590.63
459.472	4677.41
459.845	4731.87
460.218	4800.79
460.591	4833.11
460.964	4857.74
461.337	4973.22
461.71	5021.8
462.083	5095.7
462.456	5115.36
462.829	5149.71
463.201	5227.67
463.574	5297.28
463.947	5336.6
464.32	5430.15
464.692	5500.21
465.065	5557.38
465.438	5630.37
465.81	5735.91
466.183	5801.9
466.555	5909.92
466.928	5945.62
467.3	5932.51
467.672	6080.98
468.045	6189
468.417	6212.73
468.789	6299.74
469.161	6402.78
469.534	6489.56
469.906	6607.07
470.278	6642.33
470.65	6738.14
471.022	6883
471.394	6996.89
471.766	7077.12
472.138	7156.21
472.51	7305.58
472.882	7425.36
473.253	7498.35
473.625	7652.24
473.997	7806.14
474.369	7863.76
474.74	7894.27
475.112	8098.78
475.484	8257.42
475.855	8388.27
476.227	8440.7
476.598	8689.96
476.97	8755.94
477.341	8984.18
477.713	9112.32
478.084	9150.06
478.455	9407.22
478.827	9512.08
479.198	9818.29
479.569	9768.12
479.94	10039.98
480.311	10140.54
480.682	10454.88
481.053	10627.76
481.424	10724.7
481.795	10884.25
482.166	11015.09
482.537	11177.8
482.908	11408.3
483.279	11579.6
483.65	11855.97
484.021	12006.93
484.391	12115.18
484.762	12238.79
485.133	12375.06
485.503	12554.03
485.874	12901.14
486.244	12932.1
486.615	13198.76
486.985	13404.18
487.356	13617.96
487.726	13739.09
488.097	14037.16
488.467	14130.72
488.837	14419.75
489.207	14579.74
489.578	14726.63
489.948	14978.15
490.318	15063.57
490.688	15155.1
491.058	15477.8
491.428	15681.86
491.798	15879.6
492.168	16143.54
492.538	16120.27
492.908	16370.66
493.278	16595.06
493.648	16597.09
494.017	16860.81
494.387	17039.34
494.757	17210.64
495.126	17364.08
495.496	17387.35
495.866	17628.7
496.235	17773.33
496.605	17985.3
496.974	18143.27
497.344	18249.25
497.713	18327.89
498.082	18510.94
498.452	18670.94
498.821	18804.49
499.19	18929.91
499.559	19114.99
499.928	19238.38
500.298	19395.66
500.667	19614.87
501.036	19527.41
501.405	19758.59
501.774	19891.02
502.143	20000.62
502.512	20148.18
502.88	20308.41
503.249	20420.95
503.618	20603.77
503.987	20596.53
504.356	20783.42
504.724	20881.72
505.093	21006.69
505.462	21092.34
505.83	21334.14
506.199	21493.46
506.567	21870.17
506.936	21775.94
507.304	21891.87
507.672	22225.64
508.041	22196.94
508.409	22436.71
508.777	22614.56
509.145	22833.09
509.514	22822.46
509.882	23002.35
510.25	23068.33
510.618	23269.46
510.986	23389.91
511.354	23635.55
511.722	23836.22
512.09	23980.17
512.458	24118.7
512.826	24303.56
513.193	24366.15
513.561	24669.87
513.929	24758.69
514.297	24952.13
514.664	25183.98
515.032	25263.3
515.4	25600.92
515.767	25743.29
516.135	25863.06
516.502	25831.43
516.869	26180.79
517.237	26341.24
517.604	26323.62
517.972	26737.39
518.339	26874.56
518.706	26940.77
519.073	27129.92
519.44	27328.11
519.808	27585.73
520.175	27651.26
520.542	28083.34
520.909	28121.76
521.276	28264.13
521.643	28619.15
522.009	28827.28
522.376	29038.57
522.743	29066.14
523.11	29424.1
523.477	29766.24
523.843	29919.91
524.21	30210.75
524.577	30467.91
524.943	30634.69
525.31	30718.75
525.676	31052.76
526.043	31241
526.409	31343.82
526.776	31762.57
527.142	31750.37
527.508	31970.47
527.874	32302.89
528.241	32406.62
528.607	32636.9
528.973	32971.35
529.339	33073.95
529.705	33312.36
530.071	33536.31
530.437	33602.07
530.803	33847.26
531.169	34098.78
531.535	34028.95
531.901	34284.76
532.267	34445.44
532.632	34801.58
532.998	34897.4
533.364	35164.29
533.73	35032.77
534.095	35482.25
534.461	35415.13
534.826	35814.44
535.192	35831.39
535.557	36136.24
535.923	36152.96
536.288	36326.29
536.653	36414.2
537.019	36448.32
537.384	36752.27
537.749	36877.01
538.114	36915.2
538.479	36985.48
538.845	37234.06
539.21	37152.71
539.575	37554.96
539.94	37529.42
540.305	37705.69
540.67	37742.52
541.034	37717.67
541.399	38059.35
541.764	38143.42
542.129	38359.68
542.494	38562.62
542.858	38688.49
543.223	38696.62
543.587	38951.98
543.952	38847.81
544.316	39060.68
544.681	39096.39
545.045	39435.59
545.41	39475.81
545.774	39593.1
546.138	39674.45
546.503	39804.62
546.867	39819.98
547.231	40085.97
547.595	40166.19
547.959	40357.15
548.324	40395.11
548.688	40547.65
549.052	40676.68
549.416	40748.1
549.779	40841.43
550.143	41020.18
550.507	41281.41
550.871	41301.53
551.235	41208.65
551.599	41625.36
551.962	41755.98
552.326	41762.76
552.689	42010.43
553.053	41992.36
553.417	42086.82
553.78	42659.23
554.143	42395.96
554.507	42635.5
554.87	42779.91
555.234	43211.31
555.597	43121.14
555.96	43241.14
556.323	43454.24
556.686	43504.86
557.05	43853.32
557.413	43899.42
557.776	44051.74
558.139	44394.78
558.502	44449.01
558.865	44619.41
559.228	44705.28
559.59	45039.73
559.953	45069.34
560.316	45440.63
560.679	45437.01
561.041	45696.44
561.404	45866.83
561.767	45995.41
562.129	46027.73
562.492	46501.39
562.854	46495.06
563.217	46456.19
563.579	46603.31
563.941	46893.47
564.304	46975.73
564.666	47323.06
565.028	47438.99
565.39	47472.66
565.753	47736.16
566.115	47845.08
566.477	48011.41
566.839	48139.31
567.201	48476.03
567.563	48452.53
567.925	48707.66
568.287	48755.79
568.648	48764.83
569.01	49026.75
569.372	49264.71
569.734	49215.67
570.095	49412.5
570.457	49640.29
570.819	49675.77
571.18	49580.63
571.542	49841.64
571.903	49949.66
572.265	50077.12
572.626	50192.82
572.987	50315.08
573.349	50337.45
573.71	50433.94
574.071	50537.67
574.432	50621.96
574.794	50974.04
575.155	50941.95
575.516	50805.46
575.877	50989.63
576.238	51046.36
576.599	51262.4
576.96	51167.48
577.32	51114.6
577.681	51351.21
578.042	51434.37
578.403	51327.03
578.763	51511.43
579.124	51544.87
579.485	51632.78
579.845	51738.77
580.206	51691.08
580.566	51622.16
580.927	51729.95
581.287	51811.08
581.648	51696.06
582.008	51887.69
582.368	51754.36
582.728	51912.77
583.089	51921.13
583.449	51845.88
583.809	51936.05
584.169	51920.91
584.529	51882.04
584.889	52140.79
585.249	51900.12
585.609	51837.52
585.969	52144.86
586.329	52056.05
586.688	52011.08
587.048	52040.91
587.408	51976.27
587.768	51935.37
588.127	52033.67
588.487	51912.1
588.846	52153.9
589.206	51947.35
589.565	51939.21
589.925	52099.89
590.284	51925.65
590.643	52027.35
591.003	52144.18
591.362	52262.37
591.721	52194.12
592.08	52099.66
592.44	52229.15
592.799	52217.4
593.158	52192.54
593.517	52160.22
593.876	52198.42
594.235	52161.81
594.593	52124.75
594.952	52260.33
595.311	52259.21
595.67	52247
596.029	52420.33
596.387	52435.7
596.746	52450.39
597.104	52355.25
597.463	52352.08
597.822	52408.35
598.18	52242.71
598.538	52371.97
598.897	52507.56
599.255	52301.92
599.613	52756.59
599.972	52527.67
600.33	52619.42
600.688	52474.34
601.046	52645.18
601.404	52693.09
601.762	52545.98
602.12	52733.09
602.478	52619.42
602.836	52803.6
603.194	52614
603.552	52767.21
603.91	52578.97
604.268	52782.58
604.625	52683.37
604.983	52917.49
605.341	52722.24
605.698	52916.14
606.056	52881.34
606.413	52907.1
606.771	53016.7
607.128	52973.99
607.485	52972.18
607.843	52952.52
608.2	53129.24
608.557	53209.24
608.914	53102.35
609.272	53350.48
609.629	53354.77
609.986	53471.38
610.343	53209.01
610.7	53423.69
611.057	53391.38
611.414	53346.41
611.771	53399.29
612.127	53526.29
612.484	53530.58
612.841	53581.43
613.198	53516.12
613.554	53484.71
613.911	53702.1
614.267	53705.27
614.624	53716.34
614.98	53720.64
615.337	53882.89
615.693	53800.63
616.05	53779.62
616.406	53949.1
616.762	53799.05
617.118	53790.92
617.475	53846.28
617.831	54004.24
618.187	54041.08
618.543	53976.22
618.899	54143.68
619.255	54034.3
619.611	54042.89
619.967	54164.24
620.323	54213.5
620.678	54114.75
621.034	53947.75
621.39	54004.24
621.746	54003.57
622.101	54343.67
622.457	54054.41
622.812	54152.26
623.168	54194.75
623.523	54258.7
623.879	54340.96
624.234	54099.61
624.589	54159.27
624.945	54262.09
625.3	54237.01
625.655	54199.72
626.01	54218.02
626.365	54167.86
626.72	54136.22
627.075	54150.91
627.43	54173.73
627.785	54097.8
628.14	54103.68
628.495	54192.94
628.85	54131.02
629.205	53943.91
629.559	54224.13
629.914	53977.8
630.269	53970.57
630.623	53944.36
630.978	53864.13
631.332	54086.73
631.687	54072.49
632.041	53991.14
632.396	53951.59
632.75	53774.65
633.104	53910.01
633.459	53779.62
633.813	53744.82
634.167	53641.99
634.521	53702.78
634.875	53790.46
635.229	53607.19
635.583	53515.9
635.937	53588.89
636.291	53485.84
636.645	53489.91
636.999	53444.71
637.352	53474.31
637.706	53284.04
638.06	53453.52
638.413	53313.87
638.767	53216.92
639.121	53252.85
639.474	53095.34
639.828	53038.17
640.181	53111.39
640.534	53051.73
640.888	53042.01
641.241	52828.23
641.594	53008.79
641.947	53000.2
642.301	52940.54
642.654	52934.67
643.007	52892.63
643.36	52872.52
643.713	52860.09
644.066	52939.41
644.419	52743.26
644.771	52507.56
645.124	52308.47
645.477	52276.38
645.83	52023.28
646.182	51826
646.535	51672.55
646.888	51655.61
647.24	51481.82
647.593	51673.01
647.945	51566.12
648.298	51414.03
648.65	51350.3
649.002	51320.47
649.355	51386.69
649.707	51330.87
650.059	51610.18
650.411	51948.93
650.763	51949.38
651.115	52170.62
651.467	52091.75
651.819	51975.82
652.171	52018.99
652.523	51891.08
652.875	51955.71
653.227	51703.97
653.578	51916.62
653.93	51824.87
654.282	51764.53
654.633	51691.99
654.985	51804.08
655.337	51690.86
655.688	51709.84
656.039	51776.28
656.391	51548.04
656.742	51602.95
657.094	51672.55
657.445	51732.44
657.796	51606.34
658.147	51540.35
658.498	51526.57
658.849	51570.64
659.2	51591.88
659.551	51450.19
659.902	51569.05
660.253	51431.43
660.604	51577.19
660.955	51361.83
661.306	51467.36
661.656	51423.52
662.007	51331.09
662.358	51339.23
662.708	51230.31
663.059	51317.08
663.409	51009.52
663.76	51279.34
664.11	51248.38
664.461	51317.76
664.811	51263.98
665.161	51218.55
665.511	51072.34
665.862	51181.72
666.212	51198.44
666.562	51186.01
666.912	51205.45
667.262	51101.95
667.612	51095.39
667.962	51109.18
668.312	50955.51
668.662	51202.06
669.011	51053.81
669.361	51034.6
669.711	51001.61
670.06	51100.82
670.41	50970.65
670.76	50871.44
671.109	50987.37
671.459	50778.57
671.808	50709.64
672.157	50924.78
672.507	50652.24
672.856	50695.18
673.205	50769.3
673.554	50853.37
673.904	50708.51
674.253	50939.01
674.602	50691.34
674.951	50283.66
675.3	50069.88
675.649	50555.52
675.998	50447.05
676.346	50628.74
676.695	50626.25
677.044	50317.79
677.393	50401.17
677.741	50512.58
678.09	50402.53
678.438	50317.34
678.787	50378.35
679.135	50405.92
679.484	50122.54
679.832	50214.06
680.181	50033.27
680.529	50258.58
680.877	50053.84
681.225	50075.53
681.573	50140.39
681.922	49800.06
682.27	49866.5
682.618	49730.23
682.966	49722.55
683.314	49924.8
683.661	49673.96
684.009	49424.03
684.357	49372.5
684.705	49420.18
685.053	49380.18
685.4	49457.92
685.748	49171.83
686.095	49032.17
686.443	48927.99
686.79	48835.11
687.138	48899.97
687.485	48854.1
687.832	48947.65
688.18	48790.6
688.527	48626.76
688.874	48536.37
689.221	48495.24
689.568	48405.75
689.915	48322.59
690.262	48298.63
690.609	48148.58
690.956	48107.68
691.303	47982.26
691.65	47879.21
691.997	47870.85
692.344	47541.59
692.69	47581.14
693.037	47567.58
693.383	47282.16
693.73	47500.69
694.077	47047.59
694.423	47139.11
694.769	46969.85
695.116	46944.09
695.462	46759.01
695.808	46765.79
696.155	46787.48
696.501	46467.94
696.847	46376.42
697.193	46160.16
697.539	46352.24
697.885	46056.66
698.231	45908.86
698.577	45951.57
698.923	45841.52
699.269	45550.91
699.614	45393.62
699.96	45434.3
700.306	45338.26
700.651	45291.03
700.997	44962
701.342	44974.65
701.688	44970.36
702.033	44789.57
702.379	44768.33
702.724	44625.73
703.069	44700.31
703.415	44287.89
703.76	44353.42
704.105	44190.04
704.45	44099.87
704.795	43911.18
705.14	43814
705.485	43711.18
705.83	43527.91
706.175	43681.35
706.52	43487.68
706.865	43407.69
707.209	43230.74
707.554	43246.79
707.899	43209.05
708.243	43090.41
708.588	43020.8
708.932	42786.46
709.277	42762.51
709.621	42748.49
709.966	42300.6
710.31	42525.22
710.654	42230.09
710.998	42226.25
711.342	42154.61
711.687	42038.68
712.031	41957.78
712.375	41846.37
712.719	41713.27
713.063	41727.73
713.407	41850.21
713.75	41529.54
714.094	41540.39
714.438	41347.63
714.782	41329.1
715.125	41125.71
715.469	41395.76
715.812	41011.59
716.156	40873.52
716.499	40870.35
716.843	41056.79
717.186	40555.11
717.53	40874.87
717.873	40693.18
718.216	40649.79
718.559	40584.48
718.902	40260.2
719.246	40274.89
719.589	40273.31
719.932	40131.84
720.275	40090.26
720.617	39984.05
720.96	39946.76
721.303	39878.97
721.646	39891.62
721.989	39597.62
722.331	39820.66
722.674	39567.56
723.016	39741.12
723.359	39373.67
723.701	39440.33
724.044	39357.4
724.386	39172.32
724.729	39241.69
725.071	39112.66
725.413	39018.88
725.755	39007.12
726.097	38957.86
726.439	38675.16
726.782	38730.97
727.124	38849.39
727.465	38674.7
727.807	38655.04
728.149	38589.28
728.491	38489.62
728.833	38371.66
729.175	38275.84
729.516	38179.58
729.858	38248.05
730.199	38210.08
730.541	38042.63
730.882	38045.12
731.224	38141.16
731.565	37828.17
731.906	37813.03
732.248	37929.64
732.589	37721.28
732.93	37548.63
733.271	37526.26
733.612	37511.12
733.953	37486.26
734.294	37277.68
734.635	37309.77
734.976	37376.21
735.317	37035.42
735.658	37107.51
735.999	37157.23
736.339	37060.73
736.68	37137.34
737.021	36974.86
737.361	36714.3
737.702	36811.48
738.042	36822.55
738.383	36785.49
738.723	36701.65
739.063	36641.99
739.404	36583.23
739.744	36563.12
740.084	36339.62
740.424	36486.74
740.764	36426.4
741.104	36536.45
741.444	36076.35
741.784	36079.07
742.124	36186.86
742.464	36118.16
742.804	35915
743.143	35963.59
743.483	35842.91
743.823	35729.24
744.162	35788.9
744.502	35780.09
744.841	35605.18
745.181	35598.17
745.52	35439.99
745.86	35476.37
746.199	35389.82
746.538	35460.55
746.877	35292.42
747.216	35411.74
747.556	35229.37
747.895	35260.78
748.234	35061.01
748.573	35086.32
748.911	34949.6
749.25	34988.25
749.589	34710.29
749.928	34759.55
750.267	34784.18
750.605	34611.99
750.944	34430.3
751.283	34435.27
751.621	34473.01
751.96	34289.73
752.298	34264.2
752.636	34276.18
752.975	34129.51
753.313	33948.05
753.651	34098.55
753.989	33847.49
754.327	33741.5
754.666	33601.16
755.004	33630.54
755.342	33593.26
755.679	33618.57
756.017	33294.73
756.355	33432.13
756.693	33239.82
757.031	33259.7
757.368	33132.48
757.706	33038.02
758.044	32942.2
758.381	32873.95
758.719	32683.45
759.056	32810.22
759.394	32552.83
759.731	32411.14
760.068	32399.84
760.405	32270.58
760.743	32152.62
761.08	32138.38
761.417	32075.55
761.754	32004.6
762.091	31959.63
762.428	31787.65
762.765	31682.8
763.102	31735
763.438	31424.72
763.775	31265.41
764.112	31264.73
764.449	31343.14
764.785	31222.24
765.122	30962.14
765.458	30713.56
765.795	30790.62
766.131	30891.63
766.467	30664.07
766.804	30500.23
767.14	30318.54
767.476	30340.46
767.812	30193.8
768.148	30241.03
768.485	30077.19
768.821	29736.86
769.157	29893.69
769.492	29714.26
769.828	29580.25
770.164	29419.81
770.5	29418.45
770.836	29295.52
771.171	29128.97
771.507	29132.13
771.842	28827.05
772.178	28962.64
772.513	28848.3
772.849	28814.17
773.184	28569.21
773.519	28518.13
773.855	28495.76
774.19	28351.13
774.525	28205.37
774.86	28054.42
775.195	27993.4
775.53	27966.51
775.865	27741.88
776.2	27547.76
776.535	27359.52
776.87	27370.59
777.205	27267.32
777.539	27188.23
777.874	27216.25
778.209	27036.59
778.543	27018.74
778.878	26871.4
779.212	26868.23
779.547	26558.86
779.881	26641.12
780.215	26435.25
780.55	26555.47
780.884	26209.72
781.218	26298.31
781.552	26217.86
781.886	26090.63
782.22	25940.35
782.554	25820.58
782.888	25619.45
783.222	25474.37
783.556	25462.85
783.889	25313.25
784.223	25261.95
784.557	25092.01
784.89	25202.06
785.224	25059.47
785.557	24890.43
785.891	24865.8
786.224	24814.73
786.558	24728.18
786.891	24521.63
787.224	24410.45
787.557	24377.68
787.891	24305.14
788.224	24268.98
788.557	24344.68
788.89	24130.91
789.223	24115.76
789.556	23920.29
789.888	24007.07
790.221	23732.5
790.554	23603.46
790.887	23636.68
791.219	23469.91
791.552	23535.67
791.884	23267.88
792.217	23257.71
792.549	23193.98
792.882	23109.91
793.214	22998.28
793.546	23018.84
793.879	22758.29
794.211	22730.49
794.543	22857.49
794.875	22627.44
795.207	22804.39
795.539	22524.17
795.871	22521.91
796.203	22418.18
796.535	22262.93
796.867	22206.44
797.198	22227.23
797.53	22085.31
797.862	21940.23
798.193	21919.21
798.525	21827.69
798.856	21795.15
799.188	21611.65
799.519	21602.38
799.85	21388.83
800.182	21494.36
800.513	21394.25
800.844	21200.59
801.175	21354.93
801.506	21193.81
801.837	21051.66
802.168	20982.74
802.499	21042.4
802.83	20847.15
803.161	20754.5
803.491	20806.47
803.822	20833.36
804.153	20676.08
804.483	20577.78
804.814	20380.95
805.145	20526.03
805.475	20520.83
805.805	20360.61
806.136	20361.96
806.466	20351.34
806.796	20283.55
807.126	20060.05
807.457	20039.04
807.787	20071.12
808.117	19997.91
808.447	19862.32
808.777	19910.23
809.107	19777.8
809.436	19785.93
809.766	19603.57
810.096	19673.4
810.426	19516.34
810.755	19628.88
811.085	19500.29
811.414	19472.27
811.744	19328.77
812.073	19257.36
812.403	19343.23
812.732	19102.34
813.061	19165.16
813.39	18992.51
813.719	19031.83
814.049	19074.54
814.378	18981.21
814.707	18843.81
815.036	18921.1
815.365	18799.29
815.693	18601.56
816.022	18564.95
816.351	18688.79
816.68	18556.36
817.008	18589.58
817.337	18284.28
817.665	18249.25
817.994	18396.37
818.322	18337.16
818.651	18235.69
818.979	18180.78
819.307	18240.21
819.636	18073.44
819.964	18117.05
820.292	18166.77
820.62	18045.19
820.948	18046.09
821.276	18115.02
821.604	18050.16
821.932	17972.42
822.259	18084.28
822.587	18005.64
822.915	17986.89
823.243	18036.15
823.57	17896.72
823.898	17917.28
824.225	17818.53
824.553	17957.06
824.88	17992.99
825.207	17940.56
825.535	17986.43
825.862	18071.86
826.189	17872.09
826.516	17942.37
826.843	17983.27
827.17	17882.03
827.497	17930.16
827.824	17909.83
828.151	18017.62
828.478	18009.26
828.805	17966.55
829.131	17859.88
829.458	17851.75
829.785	17815.82
830.111	17852.2
830.438	18058.07
830.764	17842.71
831.09	17854.46
831.417	17823.95
831.743	17855.14
832.069	17842.03
832.395	17694.92
832.722	17789.38
833.048	17643.62
833.374	17832.99
833.7	17622.83
834.026	17623.96
834.351	17622.6
834.677	17594.58
835.003	17662.15
835.329	17597.29
835.654	17577.41
835.98	17568.59
836.306	17546.67
836.631	17481.81
836.956	17467.35
837.282	17473.45
837.607	17339.9
837.932	17350.74
838.258	17303.97
838.583	17303.97
838.908	17231.88
839.233	17289.73
839.558	17245.89
839.883	17146
840.208	17171.99
840.533	17048.38
840.858	17182.61
841.182	17041.15
841.507	17025.78
841.832	17037.53
842.156	16979.23
842.481	16956.86
842.805	16893.13
843.13	16772.91
843.454	16759.35
843.778	16766.8
844.103	16748.95
844.427	16664.43
844.751	16710.99
845.075	16560.93
845.399	16611.55
845.723	16472.58
846.047	16474.16
846.371	16374.95
846.695	16325.23
847.019	16199.81
847.343	16235.75
847.666	16047.95
847.99	16001.4
848.313	15945.58
848.637	15904.23
848.96	15865.81
849.284	15672.37
849.607	15635.08
849.931	15621.52
850.254	15547.4
850.577	15447.29
850.9	15367.97
851.223	15357.8
851.546	15248.43
851.869	15141.08
852.192	15238.48
852.515	15093.4
852.838	15038.94
853.161	15023.35
853.483	15044.82
853.806	14854.76
854.129	14967.3
854.451	14796.91
854.774	14705.84
855.096	14737.25
855.419	14664.94
855.741	14614.77
856.063	14575.45
856.385	14472.18
856.708	14404.83
857.03	14472.18
857.352	14401.67
857.674	14309.92
857.996	14329.58
858.318	14203.71
858.64	14275.8
858.961	14148.79
859.283	14153.77
859.605	14076.03
859.926	14176.82
860.248	13986.54
860.57	13950.16
860.891	14008.91
861.212	13903.38
861.534	13882.81
861.855	13797.39
862.176	13846.88
862.498	13836.94
862.819	13801.01
863.14	13726.21
863.461	13681.69
863.782	13668.13
864.103	13649.6
864.424	13526.89
864.745	13615.02
865.065	13535.25
865.386	13574.35
865.707	13478.3
866.027	13467.68
866.348	13422.26
866.668	13390.85
866.989	13358.76
867.309	13300.91
867.63	13249.61
867.95	13254.13
868.27	13158.54
868.59	13196.05
868.91	13252.55
869.23	13240.8
869.55	13092.78
869.87	13138.2
870.19	13138.2
870.51	13129.39
870.83	13097.07
871.15	13025.89
871.469	12967.58
871.789	13030.41
872.109	13041.48
872.428	12925.32
872.748	12964.87
873.067	12898.43
873.386	12838.32
873.706	12907.92
874.025	12820.92
874.344	12751.54
874.663	12824.76
874.982	12702.28
875.301	12717.87
875.62	12695.05
875.939	12646.24
876.258	12634.71
876.577	12657.53
876.896	12650.53
877.214	12578.21
877.533	12623.86
877.852	12614.37
878.17	12699.57
878.489	12578.21
878.807	12573.47
879.125	12514.71
879.444	12552.68
879.762	12498.67
880.08	12443.75
880.398	12346.58
880.716	12398.33
881.034	12444.21
881.352	12341.38
881.67	12330.09
881.988	12330.76
882.306	12332.12
882.624	12163.31
882.941	12213.48
883.259	12237.88
883.577	12156.08
883.894	12142.75
884.212	12072.01
884.529	12125.12
884.846	12034.05
885.164	11973.71
885.481	11975.74
885.798	12001.73
886.115	11871.79
886.432	11894.62
886.75	11887.39
887.067	11896.65
887.383	11881.28
887.7	11832.47
888.017	11837.44
888.334	11748.18
888.651	11741.17
888.967	11678.8
889.284	11651.91
889.6	11575.75
889.917	11545.7
890.233	11513.16
890.55	11502.54
890.866	11473.38
891.182	11523.33
891.498	11398.81
891.815	11365.82
892.131	11270.45
892.447	11393.39
892.763	11279.04
893.079	11246.95
893.395	11217.57
893.71	11196.1
894.026	11140.96
894.342	11111.36
894.657	11026.84
894.973	11007.63
895.289	11077.91
895.604	11001.76
895.92	10919.95
896.235	10893.29
896.55	10846.73
896.865	10773.74
897.181	10746.85
897.496	10776.23
897.811	10681.77
898.126	10699.62
898.441	10650.81
898.756	10679.06
899.071	10503.01
899.386	10566.52
899.7	10426.86
900.015	10393.41
900.33	10356.8
900.644	10299.63
900.959	10350.7
901.273	10327.43
901.588	10271.16
901.902	10160.2
902.216	10187.77
902.531	10157.71
902.845	10099.18
903.159	10077.72
903.473	10011.95
903.787	9971.96
904.101	9899.87
904.415	9883.6
904.729	9843.6
905.042	9814.22
905.356	9735.58
905.67	9727.67
905.984	9751.17
906.297	9682.25
906.611	9635.92
906.924	9579.2
907.237	9588.46
907.551	9515.47
907.864	9423.27
908.177	9405.42
908.491	9418.98
908.804	9402.93
909.117	9295.59
909.43	9301.92
909.743	9323.61
910.056	9239.77
910.368	9164.29
910.681	9136.27
910.994	9115.93
911.307	9079.55
911.619	9033
911.932	9025.54
912.244	8968.14
912.557	8908.03
912.869	8843.85
913.181	8899.22
913.494	8836.39
913.806	8763.85
914.118	8746.68
914.43	8700.12
914.742	8694.02
915.054	8607.7
915.366	8586.68
915.678	8550.3
915.99	8511.88
916.302	8473.46
916.613	8480.47
916.925	8456.97
917.236	8383.75
917.548	8277.54
917.859	8346.46
918.171	8280.25
918.482	8260.81
918.794	8201.83
919.105	8136.52
919.416	8103.08
919.727	8129.97
920.038	8097.65
920.349	7946.25
920.66	7980.82
920.971	7974.72
921.282	7941.27
921.593	7869.41
921.903	7802.97
922.214	7788.74
922.525	7806.36
922.835	7763.43
923.146	7708.51
923.456	7730.21
923.767	7696.31
924.077	7703.54
924.387	7620.15
924.697	7589.19
925.008	7537.9
925.318	7465.58
925.628	7476.43
925.938	7434.85
926.248	7392.81
926.558	7356.66
926.867	7386.49
927.177	7323.21
927.487	7275.3
927.796	7171.35
928.106	7164.57
928.416	7156.21
928.725	7133.39
929.034	7054.52
929.344	7139.04
929.653	7058.59
929.962	7003.45
930.271	6977.68
930.581	6997.12
930.89	6878.93
931.199	6905.82
931.508	6911.47
931.817	6883.67
932.125	6803
932.434	6831.7
932.743	6735.2
933.051	6716.22
933.36	6660.63
933.669	6605.49
933.977	6604.59
934.286	6631.7
934.594	6615.89
934.902	6551.71
935.21	6480.97
935.519	6474.42
935.827	6449.34
936.135	6422.44
936.443	6362.56
936.751	6363.24
937.059	6318.04
937.367	6282.79
937.674	6373.41
937.982	6254.76
938.29	6221.55
938.597	6269
938.905	6180.87
939.213	6162.34
939.52	6101.77
939.827	6121.44
940.135	6017.71
940.442	6043.7
940.749	6021.55
941.056	6026.97
941.363	5932.97
941.67	5946.98
941.977	5952.63
942.284	5872.4
942.591	5882.57
942.898	5819.75
943.205	5864.49
943.511	5792.63
943.818	5760.31
944.125	5708.56
944.431	5765.06
944.738	5715.12
945.044	5697.27
945.35	5599.41
945.657	5650.26
945.963	5589.02
946.269	5598.51
946.575	5564.84
946.881	5493.65
947.187	5539.08
947.493	5432.19
947.799	5511.51
948.105	5446.2
948.41	5365.75
948.716	5417.95
949.022	5377.95
949.327	5372.3
949.633	5326.88
949.938	5327.56
950.244	5332.76
950.549	5278.29
950.854	5223.38
951.16	5210.72
951.465	5212.08
951.77	5176.38
952.075	5128.69
952.38	5103.83
952.685	5133.21
952.99	5034.46
953.294	5056.6
953.599	5016.83
953.904	4990.39
954.209	4970.05
954.513	5013.89
954.818	4900
955.122	4895.25
955.426	4892.09
955.731	4868.13
956.035	4818.19
956.339	4806.44
956.643	4819.55
956.948	4766.22
957.252	4752.66
957.556	4721.92
957.86	4737.97
958.163	4706.11
958.467	4704.52
958.771	4660.91
959.075	4636.95
959.378	4588.14
959.682	4665.88
959.985	4552.44
960.289	4544.75
960.592	4562.38
960.896	4547.92
961.199	4499.1
961.502	4507.01
961.805	4457.52
962.108	4400.58
962.411	4405.55
962.714	4373.01
963.017	4415.49
963.32	4368.03
963.623	4330.3
963.926	4330.3
964.228	4285.1
964.531	4205.33
964.833	4195.16
965.136	4230.19
965.438	4194.03
965.741	4236.74
966.043	4175.05
966.345	4140.92
966.648	4182.5
966.95	4154.48
967.252	4131.88
967.554	4085.78
967.856	4095.27
968.158	4012.34
968.46	4021.15
968.761	4033.35
969.063	4015.05
969.365	3940.7
969.666	3975.5
969.968	3914.94
970.269	3920.59
970.571	3903.87
970.872	3891.66
971.174	3828.84
971.475	3857.54
971.776	3820.7
972.077	3797.88
972.378	3793.81
972.679	3789.74
972.98	3813.47
973.281	3742.74
973.582	3733.02
973.883	3716.53
974.183	3721.95
974.484	3734.61
974.785	3656.64
975.085	3650.09
975.386	3673.59
975.686	3607.15
975.986	3619.35
976.287	3635.62
976.587	3558.11
976.887	3568.06
977.187	3553.14
977.487	3539.58
977.787	3510.43
978.087	3502.52
978.387	3517.21
978.687	3484.89
978.987	3461.17
979.286	3431.56
979.586	3435.63
979.885	3388.4
980.185	3394.95
980.484	3365.12
980.784	3366.71
981.083	3349.3
981.382	3329.87
981.682	3321.06
981.981	3303.43
982.28	3313.6
982.579	3255.52
982.878	3263.21
983.177	3237.67
983.475	3279.7
983.774	3219.14
984.073	3178.69
984.372	3202.42
984.67	3152.93
984.969	3158.58
985.267	3125.58
985.566	3147.28
985.864	3099.82
986.162	3113.6
986.461	3070.67
986.759	3048.97
987.057	3053.04
987.355	3020.05
987.653	3024.12
987.951	3023.21
988.249	2987.05
988.547	3050.56
988.844	2962.65
989.142	2982.99
989.44	2952.7
989.737	2929.65
990.035	2933.95
990.332	2915.42
990.63	2873.38
990.927	2915.19
991.224	2867.51
991.521	2866.61
991.819	2837.91
992.116	2848.53
992.413	2823.89
992.71	2802.88
993.006	2760.39
993.303	2768.08
993.6	2749.77
993.897	2740.73
994.193	2728.08
994.49	2709.1
994.787	2689.21
995.083	2655.54
995.379	2663.45
995.676	2654.86
995.972	2599.95
996.268	2632.26
996.565	2648.31
996.861	2618.02
997.157	2590.45
997.453	2599.49
997.749	2578.48
998.044	2530.57
998.34	2535.09
998.636	2514.75
998.932	2490.12
999.227	2488.31
999.523	2503.45
999.818	2457.58
1000.114	2448.99
1000.409	2438.59
1000.704	2439.95
1001	2409.44
1001.295	2377.35
1001.59	2380.74
1001.885	2380.52
1002.18	2380.52
1002.475	2321.76
1002.77	2325.83
1003.065	2306.17
1003.359	2296
1003.654	2310.24
1003.949	2258.03
1004.243	2275.89
1004.538	2265.49
1004.832	2250.12
1005.127	2259.39
1005.421	2220.29
1005.715	2209
1006.009	2212.39
1006.304	2184.36
1006.598	2177.58
1006.892	2157.47
1007.186	2126.96
1007.48	2103.69
1007.773	2121.77
1008.067	2128.77
1008.361	2111.6
1008.655	2101.65
1008.948	2059.4
1009.242	2041.09
1009.535	2020.07
1009.829	2060.07
1010.122	2018.27
1010.415	2007.42
1010.708	2016.46
1011.001	1966.06
1011.295	1973.07
1011.588	1977.59
1011.881	1932.17
1012.173	1956.57
1012.466	1952.05
1012.759	1947.31
1013.052	1902.56
1013.344	1890.81
1013.637	1890.13
1013.93	1853.75
1014.222	1863.47
1014.514	1849.01
1014.807	1851.49
1015.099	1830.7
1015.391	1809.91
1015.683	1806.52
1015.976	1776.46
1016.268	1801.77
1016.56	1758.84
1016.851	1775.79
1017.143	1754.77
1017.435	1741.21
1017.727	1704.38
1018.018	1726.07
1018.31	1691.27
1018.602	1721.32
1018.893	1696.01
1019.185	1711.38
1019.476	1652.63
1019.767	1671.16
1020.058	1644.49
1020.35	1632.06
1020.641	1625.06
1020.932	1608.56
1021.223	1582.8
1021.514	1575.79
1021.804	1550.03
1022.095	1552.74
1022.386	1549.8
1022.677	1565.62
1022.967	1526.08
1023.258	1488.56
1023.548	1504.61
1023.839	1512.29
1024.129	1487.88
1024.419	1491.27
1024.709	1463.7
1025	1461.44
1025.29	1473.65
1025.58	1443.37
1025.87	1419.64
1026.16	1415.12
1026.449	1421.9
1026.739	1408.56
1027.029	1404.27
1027.319	1386.42
1027.608	1396.59
1027.898	1363.59
1028.187	1376.02
1028.477	1352.07
1028.766	1347.55
1029.055	1352.52
1029.344	1301.67
1029.634	1321.79
1029.923	1313.43
1030.212	1278.4
1030.501	1322.24
1030.79	1282.01
1031.078	1267.1
1031.367	1270.72
1031.656	1245.18
1031.945	1253.31
1032.233	1222.35
1032.522	1228.68
1032.81	1223.71
1033.099	1209.7
1033.387	1218.51
1033.675	1161.79
1033.963	1189.81
1034.251	1185.97
1034.54	1157.95
1034.828	1158.18
1035.116	1130.15
1035.403	1138.52
1035.691	1144.62
1035.979	1122.7
1036.267	1113.88
1036.554	1116.59
1036.842	1158.85
1037.129	1104.39
1037.417	1100.55
1037.704	1106.88
1037.992	1065.97
1038.279	1104.39
1038.566	1052.64
1038.853	1052.64
1039.14	1052.64
