Data from breadboard_black_back_FLMS001491_00093.txt Node
Date: Wed Feb 08 10:51:11 GMT 2017
User: dcchb
Spectrometer: FLMS00149
Trigger mode: 0
Integration Time (sec): 2.000000E-2
Scans to average: 10
Electric dark correction enabled: true
Nonlinearity correction enabled: false
Boxcar width: 0
XAxis mode: Wavelengths
Number of Pixels in Spectrum: 2048
>>>>>Begin Spectral Data<<<<<
341.393	-10.68
341.776	-10.68
342.16	-10.68
342.543	-59.49
342.927	-53.84
343.31	-61.75
343.693	-55.87
344.077	-68.08
344.46	-71.92
344.843	-60.62
345.226	-39.83
345.61	-45.93
345.993	-16.33
346.376	5.37
346.759	21.64
347.142	36.1
347.525	52.6
347.908	35.65
348.291	68.87
348.674	88.75
349.057	111.35
349.44	123.1
349.823	150.45
350.206	155.19
350.588	175.53
350.971	227.28
351.354	221.18
351.737	236.32
352.119	267.96
352.502	248.75
352.884	271.8
353.267	267.73
353.65	293.95
354.032	292.59
354.414	287.85
354.797	311.8
355.179	316.55
355.562	313.61
355.944	304.79
356.326	352.02
356.709	319.71
357.091	327.62
357.473	347.28
357.855	327.17
358.238	356.32
358.62	336.21
359.002	324.91
359.384	340.73
359.766	336.66
360.148	335.98
360.53	341.18
360.912	350.67
361.294	323.78
361.676	338.69
362.057	323.1
362.439	325.36
362.821	337.79
363.203	313.38
363.584	303.66
363.966	316.32
364.348	321.97
364.729	334.17
365.111	328.75
365.493	319.26
365.874	313.83
366.256	309.31
366.637	336.88
367.019	335.98
367.4	321.29
367.781	333.27
368.163	306.38
368.544	305.7
368.925	336.21
369.306	333.95
369.688	328.07
370.069	313.38
370.45	318.58
370.831	294.85
371.212	324
371.593	301.63
371.974	335.75
372.355	327.39
372.736	324
373.117	348.63
373.498	321.52
373.879	341.18
374.26	345.25
374.641	331.69
375.021	346.6
375.402	356.54
375.783	346.38
376.163	365.13
376.544	333.27
376.925	348.63
377.305	372.59
377.686	372.36
378.066	344.57
378.447	352.25
378.827	357.45
379.208	362.65
379.588	368.07
379.968	367.62
380.349	367.17
380.729	368.52
381.109	382.53
381.489	385.24
381.87	364.68
382.25	379.14
382.63	394.74
383.01	389.76
383.39	397.67
383.77	375.53
384.15	400.16
384.53	388.63
384.91	412.36
385.29	399.93
385.67	394.74
386.049	415.07
386.429	404
386.809	383.66
387.189	423.44
387.568	426.6
387.948	414.85
388.328	443.55
388.707	427.05
389.087	399.03
389.466	433.38
389.846	424.34
390.225	418.24
390.605	459.82
390.984	443.32
391.363	443.1
391.743	436.99
392.122	456.65
392.501	465.92
392.881	449.2
393.26	473.83
393.639	461.17
394.018	459.37
394.397	470.44
394.776	472.7
395.155	478.8
395.534	480.16
395.913	487.61
396.292	480.83
396.671	505.92
397.05	494.85
397.429	504.34
397.808	495.52
398.186	502.98
398.565	515.86
398.944	505.92
399.323	519.7
399.701	507.5
400.08	531.23
400.458	531.23
400.837	518.57
401.215	542.3
401.594	538.23
401.972	516.77
402.351	538.01
402.729	552.47
403.107	556.54
403.486	574.84
403.864	573.26
404.242	568.52
404.62	575.97
404.999	578.46
405.377	581.17
405.755	582.98
406.133	607.39
406.511	594.73
406.889	620.27
407.267	601.06
407.645	601.06
408.023	606.71
408.401	654.39
408.779	617.1
409.156	645.58
409.534	638.8
409.912	648.29
410.29	655.29
410.667	674.05
411.045	690.77
411.422	679.7
411.8	675.86
412.178	676.99
412.555	704.78
412.933	693.03
413.31	703.43
413.687	703.65
414.065	739.59
414.442	752.01
414.819	724.9
415.197	740.94
415.574	748.85
415.951	765.57
416.328	781.39
416.705	798.57
417.082	784.78
417.46	791.34
417.837	799.7
418.214	809.87
418.591	847.6
418.967	803.09
419.344	850.09
419.721	845.12
420.098	828.4
420.475	839.02
420.852	856.64
421.228	885.34
421.605	878.79
421.982	892.35
422.358	894.38
422.735	911.78
423.111	907.49
423.488	921.95
423.864	913.37
424.241	932.8
424.617	954.72
424.994	942.29
425.37	934.38
425.746	957.66
426.123	979.13
426.499	947.04
426.875	992.69
427.251	1029.75
427.627	1006.47
428.003	1059.12
428.379	1042.18
428.756	1016.19
429.132	1053.25
429.507	1091.44
429.883	1118.56
430.259	1085.56
430.635	1104.55
431.011	1130.31
431.387	1140.93
431.763	1163.75
432.138	1167.14
432.514	1203.08
432.89	1177.99
433.265	1238.78
433.641	1229.52
434.016	1254.37
434.392	1245.79
434.767	1288.5
435.143	1285.11
435.518	1310.19
435.894	1304.54
436.269	1312.9
436.644	1324.43
437.02	1360.59
437.395	1376.18
437.77	1364.43
438.145	1380.92
438.52	1401.26
438.895	1399.23
439.271	1420.92
439.646	1432.9
440.021	1446.23
440.395	1467.25
440.77	1453.69
441.145	1464.54
441.52	1502.5
441.895	1514.71
442.27	1531.2
442.645	1524.2
443.019	1541.82
443.394	1556.51
443.769	1565.33
444.143	1549.51
444.518	1602.84
444.892	1586.12
445.267	1602.61
445.641	1617.08
446.016	1614.59
446.39	1642.84
446.764	1654.36
447.139	1660.01
447.513	1677.87
447.887	1663.18
448.262	1693.01
448.636	1700.46
449.01	1707.02
449.384	1748.82
449.758	1733.68
450.132	1739.11
450.506	1734.81
450.88	1793.79
451.254	1792.89
451.628	1806.9
452.002	1854.81
452.376	1841.25
452.75	1882.61
453.123	1879.22
453.497	1909.27
453.871	1944.53
454.244	1949.72
454.618	1997.18
454.992	1991.08
455.365	1982.49
455.739	2062.04
456.112	2056.61
456.486	2069.04
456.859	2123.73
457.232	2160.79
457.606	2142.49
457.979	2169.6
458.352	2240.79
458.725	2244.86
459.099	2248.02
459.472	2346.55
459.845	2371.63
460.218	2357.85
460.591	2369.15
460.964	2377.96
461.337	2398.52
461.71	2462.93
462.083	2529.14
462.456	2499.76
462.829	2555.58
463.201	2577.95
463.574	2579.54
463.947	2617.95
464.32	2657.05
464.692	2716.03
465.065	2720.55
465.438	2763.03
465.81	2783.83
466.183	2831.73
466.555	2906.99
466.928	2886.42
467.3	2917.61
467.672	2937.27
468.045	3049.13
468.417	3063.82
468.789	3079.18
469.161	3086.87
469.534	3166.41
469.906	3238.05
470.278	3280.54
470.65	3300.65
471.022	3330.48
471.394	3380.65
471.766	3409.8
472.138	3479.17
472.51	3501.32
472.882	3590.81
473.253	3651.82
473.625	3671.49
473.997	3763.46
474.369	3792.84
474.74	3814.76
475.112	3944.25
475.484	3965.04
475.855	4060.85
476.227	4084.81
476.598	4178.14
476.97	4205.93
477.341	4288.87
477.713	4323.45
478.084	4419.49
478.455	4518.92
478.827	4562.99
479.198	4708.75
479.569	4701.06
479.94	4812.7
480.311	4867.16
480.682	4958.91
481.053	5064.9
481.424	5177.21
481.795	5189.64
482.166	5288.39
482.537	5359.35
482.908	5507.14
483.279	5532
483.65	5587.14
484.021	5732
484.391	5796.4
484.762	5806.57
485.133	5923.4
485.503	6029.84
485.874	6154.13
486.244	6179.44
486.615	6338.31
486.985	6299.44
487.356	6528.13
487.726	6559.77
488.097	6636.38
488.467	6680.67
488.837	6837.05
489.207	6913.21
489.578	7023.94
489.948	7073.88
490.318	7126.76
490.688	7164.05
491.058	7309.36
491.428	7433.87
491.798	7513.87
492.168	7643.81
492.538	7750.7
492.908	7783.92
493.278	7917.7
493.648	7968.32
494.017	8014.65
494.387	8145.49
494.757	8150.01
495.126	8264.36
495.496	8258.03
495.866	8343.23
496.235	8443.34
496.605	8524.69
496.974	8597.91
497.344	8680.17
497.713	8722.2
498.082	8772.14
498.452	8902.53
498.821	8874.74
499.19	9001.29
499.559	9117.22
499.928	9153.6
500.298	9258.01
500.667	9336.2
501.036	9354.95
501.405	9376.42
501.774	9416.42
502.143	9525.34
502.512	9627.71
502.88	9648.5
503.249	9660.48
503.618	9781.38
503.987	9814.6
504.356	9902.96
504.724	9944.09
505.093	10014.82
505.462	10130.3
505.83	10156.06
506.199	10212.33
506.567	10382.04
506.936	10374.13
507.304	10582.26
507.672	10497.75
508.041	10636.5
508.409	10683.5
508.777	10810.28
509.145	10841.01
509.514	10874.69
509.882	10971.63
510.25	11050.05
510.618	11130.5
510.986	11186.77
511.354	11324.84
511.722	11412.98
512.09	11475.57
512.458	11516.7
512.826	11581.11
513.193	11670.6
513.561	11800.31
513.929	11784.49
514.297	11884.38
514.664	12064.71
515.032	12010.25
515.4	12217.25
515.767	12198.94
516.135	12366.85
516.502	12266.29
516.869	12571.14
517.237	12618.14
517.604	12619.27
517.972	12844.8
518.339	12871.7
518.706	12851.13
519.073	13041.86
519.44	13086.61
519.808	13216.77
520.175	13228.07
520.542	13415.86
520.909	13466.71
521.276	13558.68
521.643	13705.12
522.009	13862.63
522.376	13877.54
522.743	14034.38
523.11	14094.71
523.477	14222.17
523.843	14346.68
524.21	14535.15
524.577	14562.5
524.943	14694.02
525.31	14759.78
525.676	14901.7
526.043	15000.45
526.409	15095.59
526.776	15349.14
527.142	15292.2
527.508	15466.43
527.874	15576.48
528.241	15576.03
528.607	15710.94
528.973	15953.42
529.339	15909.36
529.705	16014.44
530.071	16200.2
530.437	16199.07
530.803	16398.83
531.169	16460.75
531.535	16462.56
531.901	16558.6
532.267	16707.53
532.632	16752.05
532.998	16908.2
533.364	16969.89
533.73	16941.64
534.095	17170.57
534.461	17243.78
534.826	17250.56
535.192	17333.05
535.557	17511.12
535.923	17546.15
536.288	17565.58
536.653	17698.91
537.019	17674.51
537.384	17839.25
537.749	17841.06
538.114	17957.89
538.479	18015.29
538.845	18118.11
539.21	18047.6
539.575	18190.65
539.94	18302.51
540.305	18480.81
540.67	18401.95
541.034	18454.37
541.399	18589.06
541.764	18619.34
542.129	18688.94
542.494	18634.03
542.858	18759
543.223	18766.23
543.587	18969.16
543.952	18888.94
544.316	19077.18
544.681	19084.87
545.045	19233.34
545.41	19295.93
545.774	19366.89
546.138	19331.41
546.503	19538.64
546.867	19428.59
547.231	19683.72
547.595	19721.01
547.959	19777.95
548.324	19800.78
548.688	19910.15
549.052	20030.6
549.416	19976.14
549.779	20005.29
550.143	20128.68
550.507	20359.86
550.871	20308.56
551.235	20324.83
551.599	20540.19
551.962	20474.66
552.326	20665.61
552.689	20777.25
553.053	20714.43
553.417	20778.15
553.78	21053.4
554.143	20928.21
554.507	21062.89
554.87	21175.66
555.234	21355.09
555.597	21320.74
555.96	21366.61
556.323	21583.1
556.686	21540.39
557.05	21693.84
557.413	21720.5
557.776	21826.04
558.139	21922.08
558.502	22106.93
558.865	22095.63
559.228	22375.4
559.59	22287.72
559.953	22430.77
560.316	22675.05
560.679	22668.5
561.041	22753.92
561.404	22830.98
561.767	23043.41
562.129	22928.15
562.492	23238.2
562.854	23167.47
563.217	23251.08
563.579	23317.07
563.941	23477.07
564.304	23682.26
564.666	23814.91
565.028	23766.1
565.39	23940.56
565.753	24068.92
566.115	24119.99
566.477	24206.76
566.839	24328.57
567.201	24549.35
567.563	24522.69
567.925	24704.15
568.287	24580.09
568.648	24735.79
569.01	24821.44
569.372	25150.02
569.734	25027.76
570.095	25201.77
570.457	25319.96
570.819	25353.63
571.18	25432.27
571.542	25554.75
571.903	25517.92
572.265	25749.32
572.626	25753.62
572.987	25768.08
573.349	25891.92
573.71	26004.23
574.071	26122.19
574.432	26110.44
574.794	26442.86
575.155	26319.7
575.516	26329.19
575.877	26339.59
576.238	26543.88
576.599	26598.34
576.96	26630.43
577.32	26633.82
577.681	26646.47
578.042	26829.75
578.403	26784.78
578.763	26882.4
579.124	26868.84
579.485	26936.86
579.845	27089.63
580.206	26898.9
580.566	26966.47
580.927	27023.19
581.287	27199.91
581.648	27175.5
582.008	27204.43
582.368	27232
582.728	27083.75
583.089	27214.14
583.449	27223.63
583.809	27268.15
584.169	27286.01
584.529	27261.37
584.889	27441.26
585.249	27359.68
585.609	27302.5
585.969	27409.84
586.329	27382.73
586.688	27402.16
587.048	27312.45
587.408	27365.33
587.768	27420.47
588.127	27386.12
588.487	27358.55
588.846	27606.45
589.206	27368.26
589.565	27481.93
589.925	27487.58
590.284	27413.46
590.643	27568.48
591.003	27530.75
591.362	27665.43
591.721	27554.47
592.08	27508.82
592.44	27696.16
592.799	27683.28
593.158	27625.43
593.517	27657.07
593.876	27710.63
594.235	27586.56
594.593	27721.02
594.952	27669.95
595.311	27589.05
595.67	27679.44
596.029	27833.79
596.387	27753.34
596.746	27951.52
597.104	27814.58
597.463	27723.96
597.822	28005.53
598.18	27901.58
598.538	27874.69
598.897	28058.64
599.255	27809.16
599.613	28178.64
599.972	27970.51
600.33	28113.1
600.688	27873.56
601.046	28010.05
601.404	28190.61
601.762	28113.78
602.12	28308.35
602.478	28337.96
602.836	28342.7
603.194	28189.71
603.552	28267.67
603.91	28320.33
604.268	28342.02
604.625	28167.79
604.983	28379.99
605.341	28294.34
605.698	28507.44
606.056	28464.96
606.413	28497.5
606.771	28475.8
607.128	28576.14
607.485	28441.91
607.843	28590.38
608.2	28678.29
608.557	28765.29
608.914	28621.79
609.272	28713.54
609.629	28850.03
609.986	29035.56
610.343	28909.01
610.7	29010.03
611.057	28917.83
611.414	28899.3
611.771	29005.96
612.127	29066.3
612.484	29052.29
612.841	29152.17
613.198	29052.51
613.554	29059.29
613.911	29236.24
614.267	29231.49
614.624	29294.54
614.98	29326.18
615.337	29452.28
615.693	29429.45
616.05	29346.06
616.406	29555.55
616.762	29432.62
617.118	29459.51
617.475	29373.41
617.831	29611.14
618.187	29545.61
618.543	29511.48
618.899	29659.95
619.255	29714.64
619.611	29701.76
619.967	29745.83
620.323	29819.95
620.678	29590.35
621.034	29576.79
621.39	29743.12
621.746	29601.43
622.101	29974.3
622.457	29642.33
622.812	29790.35
623.168	29723.23
623.523	29889.55
623.879	29897.46
624.234	29776.11
624.589	29891.59
624.945	30014.97
625.3	29946.73
625.655	29803.91
626.01	29843.9
626.365	29779.73
626.72	29855.43
627.075	29862.21
627.43	29838.71
627.785	29774.53
628.14	29810.69
628.495	29928.42
628.85	29821.08
629.205	29706.28
629.559	29846.16
629.914	29786.96
630.269	29779.95
630.623	29694.98
630.978	29668.54
631.332	29783.12
631.687	29813.4
632.041	29721.2
632.396	29723.23
632.75	29628.54
633.104	29701.54
633.459	29671.93
633.813	29491.82
634.167	29499.51
634.521	29433.75
634.875	29421.77
635.229	29375.22
635.583	29258.84
635.937	29366.4
636.291	29443.46
636.645	29283.69
636.999	29148.1
637.352	29256.12
637.706	29210.25
638.06	29286.86
638.413	29172.74
638.767	29235.33
639.121	29112.4
639.474	29004.83
639.828	29018.62
640.181	29122.12
640.534	29088.44
640.888	28888.45
641.241	28873.53
641.594	28912.4
641.947	29080.76
642.301	28876.47
642.654	28967.77
643.007	28799.64
643.36	28747.66
643.713	28752.41
644.066	28865.63
644.419	28700.21
644.771	28518.97
645.124	28227.22
645.477	28171.63
645.83	27974.35
646.182	27865.65
646.535	27755.82
646.888	27753.79
647.24	27644.64
647.593	27759.44
647.945	27573.23
648.298	27544.98
648.65	27490.75
649.002	27368.72
649.355	27450.75
649.707	27548.82
650.059	27667.69
650.411	27978.19
650.763	28031.3
651.115	28283.95
651.467	28096.61
651.819	28107.23
652.171	28147
652.523	28089.83
652.875	28017.51
653.227	27925.76
653.578	28179.54
653.93	27997.4
654.282	27860.45
654.633	27751.08
654.985	27885.31
655.337	27833.79
655.688	27917.63
656.039	27935.71
656.391	27591.31
656.742	27653.23
657.094	27789.72
657.445	27938.42
657.796	27761.25
658.147	27759.21
658.498	27677.18
658.849	27782.49
659.2	27662.94
659.551	27740.23
659.902	27810.29
660.253	27618.2
660.604	27704.3
660.955	27552.89
661.306	27791.98
661.656	27587.24
662.007	27604.87
662.358	27687.8
662.708	27493.46
663.059	27667.92
663.409	27442.61
663.76	27499.56
664.11	27598.09
664.461	27571.65
664.811	27461.82
665.161	27495.27
665.511	27424.31
665.862	27519.45
666.212	27617.75
666.562	27565.77
666.912	27511.08
667.262	27458.43
667.612	27548.37
667.962	27459.11
668.312	27374.82
668.662	27534.36
669.011	27350.41
669.361	27406.68
669.711	27407.58
670.06	27238.32
670.41	27295.27
670.76	27314.25
671.109	27370.75
671.459	27309.73
671.808	27192.67
672.157	27377.08
672.507	27182.28
672.856	27124.88
673.205	27289.17
673.554	27276.74
673.904	27127.82
674.253	27333.01
674.602	27169.17
674.951	26728.51
675.3	26561.73
675.649	27199.68
675.998	27101.15
676.346	27052.79
676.695	27121.26
677.044	26880.82
677.393	27048.5
677.741	27107.03
678.09	26783.65
678.438	26868.16
678.787	26887.82
679.135	26876.52
679.484	26722.86
679.832	26722.4
680.181	26651.45
680.529	26820.03
680.877	26704.1
681.225	26622.07
681.573	26860.93
681.922	26712.91
682.27	26521.73
682.618	26638.57
682.966	26410.32
683.314	26606.93
683.661	26514.27
684.009	26404
684.357	26162.19
684.705	26201.97
685.053	26322.19
685.4	26216.88
685.748	26089.2
686.095	26055.3
686.443	25883.1
686.79	25992.25
687.138	25947.96
687.485	25943.67
687.832	25889.43
688.18	25861.41
688.527	25726.5
688.874	25730.34
689.221	25644.69
689.568	25536.22
689.915	25545.94
690.262	25639.04
690.609	25446.28
690.956	25431.82
691.303	25463.68
691.65	25231.82
691.997	25177.13
692.344	25134.2
692.69	25129.68
693.037	24961.55
693.383	24733.53
693.73	24952.73
694.077	24738.5
694.423	24784.6
694.769	24728.56
695.116	24749.12
695.462	24574.44
695.808	24503.93
696.155	24571.73
696.501	24342.35
696.847	24442.92
697.193	24277.27
697.539	24352.3
697.885	24044.28
698.231	24035.92
698.577	24027.11
698.923	24033.66
699.269	23923.16
699.614	23773.56
699.96	23705.53
700.306	23763.84
700.651	23560.45
700.997	23520.46
701.342	23567.01
701.688	23592.32
702.033	23362.04
702.379	23436.62
702.724	23384.87
703.069	23375.15
703.415	23121.14
703.76	23133.57
704.105	23088.38
704.45	23102.16
704.795	22979
705.14	22888.38
705.485	22877.99
705.83	22771.32
706.175	22816.29
706.52	22681.16
706.865	22614.26
707.209	22644.32
707.554	22504.21
707.899	22497.66
708.243	22409.98
708.588	22415.4
708.932	22307.83
709.277	22258.12
709.621	22346.25
709.966	22128.4
710.31	22101.06
710.654	22095.63
710.998	21974.96
711.342	22010.66
711.687	22000.49
712.031	21889.54
712.375	21822.65
712.719	21896.09
713.063	21807.73
713.407	21827.84
713.75	21655.19
714.094	21663.33
714.438	21614.97
714.782	21704.46
715.125	21544.01
715.469	21532.94
715.812	21515.08
716.156	21356.9
716.499	21466.5
716.843	21347.63
717.186	21147.41
717.53	21326.84
717.873	21294.98
718.216	21141.31
718.559	21127.3
718.902	21102.21
719.246	21020.63
719.589	20989.67
719.932	20770.47
720.275	20928.66
720.617	20859.51
720.96	20903.57
721.303	20883.46
721.646	20844.82
721.989	20646.18
722.331	20683.24
722.674	20584.71
723.016	20658.61
723.359	20572.96
723.701	20631.27
724.044	20469.01
724.386	20306.98
724.729	20440.76
725.071	20384.94
725.413	20384.27
725.755	20291.16
726.097	20294.33
726.439	20295.68
726.782	20230.37
727.124	20335.91
727.465	20102.01
727.807	20234.21
728.149	20089.36
728.491	20039.87
728.833	20077.16
729.175	20021.79
729.516	19966.2
729.858	19942.47
730.199	20025.86
730.541	19913.77
730.882	19920.78
731.224	19920.32
731.565	19796.71
731.906	19878.97
732.248	19784.51
732.589	19754
732.93	19664.51
733.271	19692.53
733.612	19680.56
733.953	19721.46
734.294	19603.27
734.635	19614.79
734.976	19582.03
735.317	19499.77
735.658	19486.21
735.999	19468.13
736.339	19538.64
736.68	19476.27
737.021	19429.49
737.361	19287.57
737.702	19342.26
738.042	19212.09
738.383	19178.65
738.723	19247.12
739.063	19168.25
739.404	19168.03
739.744	19209.61
740.084	19050.52
740.424	19146.78
740.764	19118.76
741.104	19211.87
741.444	18954.02
741.784	18885.1
742.124	18976.39
742.464	18882.38
742.804	18939.56
743.143	18832.67
743.483	18903.85
743.823	18820.69
744.162	18800.81
744.502	18817.75
744.841	18718.32
745.181	18817.3
745.52	18705.89
745.86	18630.41
746.199	18648.72
746.538	18625.44
746.877	18689.85
747.216	18659.34
747.556	18631.09
747.895	18535.05
748.234	18470.87
748.573	18479.91
748.911	18369.86
749.25	18496.18
749.589	18289.63
749.928	18262.29
750.267	18338.22
750.605	18259.35
750.944	18086.02
751.283	18123.76
751.621	18179.58
751.96	18048.96
752.298	18079.69
752.636	18038.57
752.975	17911.11
753.313	17821.17
753.651	17929.87
753.989	17814.16
754.327	17833.37
754.666	17695.52
755.004	17851.45
755.342	17781.85
755.679	17754.05
756.017	17633.15
756.355	17662.53
756.693	17557.9
757.031	17531.69
757.368	17441.29
757.706	17535.98
758.044	17338.7
758.381	17371.24
758.719	17324.46
759.056	17281.97
759.394	17284.46
759.731	17206.95
760.068	17148.87
760.405	17139.38
760.743	17030
761.08	17047.4
761.417	16922.66
761.754	16926.05
762.091	16811.93
762.428	16791.14
762.765	16649
763.102	16836.79
763.438	16668.43
763.775	16553.18
764.112	16536.46
764.449	16596.8
764.785	16439.06
765.122	16395.67
765.458	16325.39
765.795	16250.82
766.131	16269.35
766.467	16250.59
766.804	16007.21
767.14	16015.34
767.476	15989.35
767.812	16012.63
768.148	16002.01
768.485	15879.53
768.821	15847.44
769.157	15836.36
769.492	15773.09
769.828	15790.71
770.164	15531.74
770.5	15516.37
770.836	15529.7
771.171	15496.49
771.507	15399.54
771.842	15331.74
772.178	15326.77
772.513	15277.06
772.849	15188.02
773.184	15073.22
773.519	15139.21
773.855	15028.02
774.19	14973.56
774.525	14976.27
774.86	14955.03
775.195	14918.87
775.53	14916.39
775.865	14832.1
776.2	14611.31
776.535	14535.83
776.87	14637.07
777.205	14455.83
777.539	14491.31
777.874	14480.92
778.209	14287.7
778.543	14274.37
778.878	14256.07
779.212	14284.31
779.547	14101.95
779.881	14248.16
780.215	14052.91
780.55	14050.2
780.884	13982.85
781.218	13956.19
781.552	13976.3
781.886	13791.45
782.22	13786.47
782.554	13747.38
782.888	13614.27
783.222	13607.27
783.556	13505.8
783.889	13581.51
784.223	13461.51
784.557	13377.22
784.89	13461.06
785.224	13394.62
785.557	13174.29
785.891	13285.92
786.224	13171.8
786.558	13153.27
786.891	13076.89
787.224	13073.72
787.557	13073.95
787.891	13001.41
788.224	12930.22
788.557	12907.63
788.89	12897.46
789.223	12888.87
789.556	12789.89
789.888	12760.96
790.221	12715.54
790.554	12685.03
790.887	12630.35
791.219	12564.36
791.552	12526.39
791.884	12499.28
792.217	12417.02
792.549	12396.45
792.882	12258.6
793.214	12309.45
793.546	12297.02
793.879	12236.23
794.211	12183.35
794.543	12240.53
794.875	12096.57
795.207	12151.94
795.539	12120.08
795.871	11961.66
796.203	11941.32
796.535	11871.95
796.867	11793.76
797.198	11860.87
797.53	11825.85
797.862	11708.56
798.193	11844.6
798.525	11724.16
798.856	11720.31
799.188	11674.66
799.519	11539.98
799.85	11519.87
800.182	11595.34
800.513	11544.05
800.844	11409.81
801.175	11513.09
801.506	11485.29
801.837	11378.18
802.168	11351.51
802.499	11281.23
802.83	11202.59
803.161	11224.73
803.491	11203.72
803.822	11202.36
804.153	11157.84
804.483	10990.84
804.814	11009.82
805.145	11036.72
805.475	10991.29
805.805	11045.08
806.136	10998.07
806.466	10952.88
806.796	10951.75
807.126	10837.4
807.457	10811.18
807.787	10761.69
808.117	10751.53
808.447	10730.96
808.777	10724.18
809.107	10691.64
809.436	10677.85
809.766	10633.11
810.096	10558.99
810.426	10494.36
810.755	10552.66
811.085	10524.19
811.414	10506.79
811.744	10455.26
812.073	10467.92
812.403	10499.1
812.732	10434.47
813.061	10420.01
813.39	10355.15
813.719	10311.08
814.049	10334.81
814.378	10381.37
814.707	10213.69
815.036	10202.84
815.365	10178.66
815.693	10053.69
816.022	10100.92
816.351	10019.79
816.68	10026.12
817.008	10022.05
817.337	9964.2
817.665	9947.25
817.994	10009.17
818.322	9917.42
818.651	9927.14
818.979	9857.09
819.307	9918.1
819.636	9898.44
819.964	9771.44
820.292	9879.91
820.62	9836.3
820.948	9808.95
821.276	9836.75
821.604	9810.76
821.932	9809.18
822.259	9903.86
822.587	9841.72
822.915	9709.97
823.243	9756.75
823.57	9752.68
823.898	9704.1
824.225	9767.6
824.553	9760.59
824.88	9750.87
825.207	9796.52
825.535	9789.74
825.862	9730.54
826.189	9720.59
826.516	9732.79
826.843	9801.04
827.17	9797.43
827.497	9834.04
827.824	9753.13
828.151	9807.6
828.478	9758.11
828.805	9808.27
829.131	9706.13
829.458	9783.87
829.785	9689.86
830.111	9738.22
830.438	9716.52
830.764	9748.39
831.09	9737.99
831.417	9640.82
831.743	9658.67
832.069	9701.61
832.395	9670.2
832.722	9732.34
833.048	9657.09
833.374	9760.59
833.7	9658.45
834.026	9679.24
834.351	9671.55
834.677	9649.41
835.003	9645.79
835.329	9669.52
835.654	9666.58
835.98	9617.32
836.306	9600.82
836.631	9489.41
836.956	9577.54
837.282	9601.95
837.607	9512.46
837.932	9588.17
838.258	9487.83
838.583	9466.59
838.908	9493.25
839.233	9449.86
839.558	9493.48
839.883	9423.88
840.208	9398.34
840.533	9390.43
840.858	9414.61
841.182	9360.15
841.507	9345.69
841.832	9279.25
842.156	9258.46
842.481	9285.35
842.805	9254.84
843.13	9224.56
843.454	9224.11
843.778	9160.38
844.103	9144.56
844.427	9167.39
844.751	9192.47
845.075	9136.65
845.399	9128.52
845.723	9073.38
846.047	9065.92
846.371	8947.05
846.695	8983.44
847.019	8933.27
847.343	8871.12
847.666	8834.06
847.99	8813.5
848.313	8821.18
848.637	8744.57
848.96	8702.77
849.284	8747.74
849.607	8656.21
849.931	8656.89
850.254	8622.54
850.577	8598.81
850.9	8496.9
851.223	8471.59
851.546	8444.69
851.869	8388.42
852.192	8461.87
852.515	8394.3
852.838	8341.19
853.161	8343.45
853.483	8285.6
853.806	8239.73
854.129	8259.39
854.451	8210.8
854.774	8199.28
855.096	8121.31
855.419	8148.2
855.741	8114.08
856.063	8074.31
856.385	8072.73
856.708	8027.98
857.03	8004.93
857.352	8006.51
857.674	7993.41
857.996	7864.14
858.318	7871.83
858.64	7939.17
858.961	7876.35
859.283	7879.74
859.605	7822.79
859.926	7844.93
860.248	7762.9
860.57	7801.09
860.891	7769.91
861.212	7722.23
861.534	7740.53
861.855	7749.57
862.176	7701.66
862.498	7679.06
862.819	7614.88
863.14	7678.84
863.461	7646.75
863.782	7622.12
864.103	7691.27
864.424	7637.93
864.745	7658.27
865.065	7519.52
865.386	7572.17
865.707	7596.13
866.027	7545.96
866.348	7535.34
866.668	7517.71
866.989	7504.6
867.309	7477.49
867.63	7448.34
867.95	7371.95
868.27	7403.14
868.59	7459.18
868.91	7362.01
869.23	7395.23
869.55	7350.71
869.87	7392.29
870.19	7378.96
870.51	7340.54
870.83	7345.74
871.15	7330.6
871.469	7331.05
871.789	7325.85
872.109	7300.09
872.428	7323.82
872.748	7321.56
873.067	7294.89
873.386	7262.8
873.706	7240.66
874.025	7241.11
874.344	7237.72
874.663	7255.57
874.982	7216.7
875.301	7171.51
875.62	7162.24
875.939	7141
876.258	7141.68
876.577	7170.83
876.896	7181.68
877.214	7146.42
877.533	7138.51
877.852	7131.96
878.17	7070.49
878.489	7073.66
878.807	7127.89
879.125	7045.41
879.444	7073.2
879.762	7012.87
880.08	7022.36
880.398	6976.03
880.716	6949.82
881.034	6995.47
881.352	6962.25
881.67	6911.85
881.988	6976.48
882.306	6919.31
882.624	6931.96
882.941	6891.74
883.259	6871.18
883.577	6907.78
883.894	6890.16
884.212	6893.1
884.529	6809.48
884.846	6848.13
885.164	6782.59
885.481	6809.03
885.798	6774
886.115	6726.77
886.432	6765.42
886.75	6735.81
887.067	6756.83
887.383	6702.59
887.7	6690.62
888.017	6695.13
888.334	6661.24
888.651	6608.13
888.967	6563.39
889.284	6669.15
889.6	6550.05
889.917	6525.2
890.233	6525.65
890.55	6521.58
890.866	6553.22
891.182	6480.45
891.498	6491.3
891.815	6442.71
892.131	6432.99
892.447	6374.92
892.763	6440.45
893.079	6406.78
893.395	6414.01
893.71	6294.69
894.026	6329.04
894.342	6294.92
894.657	6283.62
894.973	6341.7
895.289	6267.58
895.604	6294.24
895.92	6311.87
896.235	6187.13
896.55	6159.1
896.865	6200.23
897.181	6227.8
897.496	6159.33
897.811	6118.65
898.126	6140.35
898.441	6052.67
898.756	6038.43
899.071	5980.35
899.386	6033.91
899.7	5974.48
900.015	5986.68
900.33	5940.8
900.644	5918.21
900.959	5909.39
901.273	5908.26
901.588	5845.89
901.902	5846.57
902.216	5832.33
902.531	5786.68
902.845	5794.14
903.159	5729.51
903.473	5703.3
903.787	5723.63
904.101	5688.38
904.415	5686.8
904.729	5699.45
905.042	5643.41
905.356	5636.41
905.67	5619.91
905.984	5618.33
906.297	5574.71
906.611	5550.31
906.924	5489.97
907.237	5538.78
907.551	5489.74
907.864	5477.77
908.177	5451.55
908.491	5474.6
908.804	5466.92
909.117	5373.36
909.43	5325.91
909.743	5368.84
910.056	5346.02
910.368	5275.51
910.681	5308.28
910.994	5311.89
911.307	5265.57
911.619	5196.87
911.932	5200.03
912.244	5189.19
912.557	5188.06
912.869	5154.38
913.181	5150.32
913.494	5088.17
913.806	5120.71
914.118	5068.06
914.43	5070.09
914.742	5036.2
915.054	5005.91
915.366	4989.87
915.678	5011.34
915.99	4973.37
916.302	4982.41
916.613	4870.32
916.925	4868.29
917.236	4913.94
917.548	4833.26
917.859	4839.82
918.171	4777.67
918.482	4801.4
918.794	4784.22
919.105	4812.92
919.416	4766.15
919.727	4742.87
920.038	4701.74
920.349	4662.87
920.66	4632.82
920.971	4684.57
921.282	4652.02
921.593	4609.54
921.903	4620.61
922.214	4586.72
922.525	4584.68
922.835	4550.78
923.146	4530.22
923.456	4492.48
923.767	4432.6
924.077	4466.04
924.387	4425.14
924.697	4454.52
925.008	4440.73
925.318	4389.21
925.628	4375.87
925.938	4346.04
926.248	4349.21
926.558	4314.63
926.867	4306.72
927.177	4278.93
927.487	4294.75
927.796	4252.04
928.106	4246.16
928.416	4229.66
928.725	4226.5
929.034	4222.43
929.344	4161.19
929.653	4181.3
929.962	4148.53
930.271	4092.04
930.581	4127.97
930.89	4084.36
931.199	4119.16
931.508	4038.48
931.817	4064.47
932.125	4047.52
932.434	3993.96
932.743	3958.94
933.051	3975.21
933.36	3956.68
933.669	3945.6
933.977	3953.96
934.286	3899.5
934.594	3884.14
934.902	3844.14
935.21	3844.36
935.519	3856.79
935.827	3854.53
936.135	3757.81
936.443	3793.29
936.751	3774.99
937.059	3774.76
937.367	3751.26
937.674	3755.78
937.982	3709.68
938.29	3692.5
938.597	3720.52
938.905	3685.5
939.213	3668.77
939.52	3652.05
939.827	3647.31
940.135	3590.13
940.442	3594.65
940.749	3565.95
941.056	3555.78
941.363	3571.83
941.67	3550.58
941.977	3517.14
942.284	3518.72
942.591	3547.87
942.898	3502.9
943.205	3468.1
943.511	3450.7
943.818	3482.56
944.125	3424.49
944.431	3402.11
944.738	3415.9
945.044	3339.97
945.35	3347.2
945.657	3374.09
945.963	3336.58
946.269	3338.84
946.575	3300.87
946.881	3340.87
947.187	3259.97
947.493	3311.49
947.799	3278.95
948.105	3226.75
948.41	3245.96
948.716	3196.92
949.022	3201.44
949.327	3212.51
949.633	3157.15
949.938	3216.58
950.244	3172.29
950.549	3117.15
950.854	3135
951.16	3194.21
951.465	3093.42
951.77	3101.33
952.075	3136.36
952.38	3071.73
952.685	3070.37
952.99	3030.6
953.294	3061.11
953.599	3026.53
953.904	2987.66
954.209	3017.94
954.513	3008.68
954.818	3005.74
955.122	2959.87
955.426	2954.22
955.731	2926.42
956.035	2921.9
956.339	2932.75
956.643	2895.01
956.948	2878.96
957.252	2893.2
957.556	2886.87
957.86	2874.22
958.163	2852.07
958.467	2818.17
958.771	2834.22
959.075	2845.52
959.378	2798.74
959.682	2770.94
959.985	2762.13
960.289	2755.13
960.592	2764.62
960.896	2717.84
961.199	2744.96
961.502	2711.74
961.805	2671.74
962.108	2689.82
962.411	2668.57
962.714	2691.4
963.017	2691.17
963.32	2669.03
963.623	2624.06
963.926	2617.5
964.228	2600.1
964.531	2594.45
964.833	2620.89
965.136	2555.81
965.438	2600.33
965.741	2565.53
966.043	2561.23
966.345	2592.87
966.648	2534.34
966.95	2550.61
967.252	2511.97
967.554	2531.4
967.856	2483.72
968.158	2484.85
968.46	2466.32
968.761	2470.39
969.063	2471.97
969.365	2435.36
969.666	2443.72
969.968	2429.26
970.269	2434.23
970.571	2422.93
970.872	2401.01
971.174	2388.81
971.475	2390.16
971.776	2363.27
972.077	2354.23
972.378	2334.57
972.679	2328.47
972.98	2331.86
973.281	2309.94
973.582	2281.24
973.883	2307.68
974.183	2278.98
974.484	2299.09
974.785	2289.15
975.085	2256.61
975.386	2290.28
975.686	2266.78
975.986	2245.08
976.287	2239.43
976.587	2247.79
976.887	2224.74
977.187	2195.59
977.487	2200.79
977.787	2196.27
978.087	2189.94
978.387	2157.85
978.687	2196.27
978.987	2146.33
979.286	2135.48
979.586	2109.04
979.885	2129.38
980.185	2114.92
980.484	2131.19
980.784	2093.67
981.083	2071.08
981.382	2090.28
981.682	2076.5
981.981	2055.26
982.28	2055.71
982.579	2005.09
982.878	2029.04
983.177	2025.65
983.475	2006.67
983.774	2003.51
984.073	2014.81
984.372	1978.65
984.67	1965.32
984.969	1970.51
985.267	1959.67
985.566	1969.84
985.864	1970.74
986.162	1968.71
986.461	1964.41
986.759	1914.24
987.057	1917.18
987.355	1900.01
987.653	1896.84
987.951	1911.98
988.249	1915.83
988.547	1888.71
988.844	1883.06
989.142	1861.14
989.44	1875.6
989.737	1856.84
990.035	1837.86
990.332	1859.56
990.63	1848.03
990.927	1824.08
991.224	1831.99
991.521	1824.98
991.819	1808.71
992.116	1803.29
992.413	1773.68
992.71	1745.43
993.006	1756.28
993.303	1758.99
993.6	1752.21
993.897	1738.43
994.193	1723.51
994.49	1737.07
994.787	1764.87
995.083	1714.25
995.379	1707.02
995.676	1707.02
995.972	1686.68
996.268	1701.14
996.565	1647.58
996.861	1649.39
997.157	1683.29
997.453	1653.46
997.749	1676.28
998.044	1621.14
998.34	1630.64
998.636	1593.35
998.932	1627.7
999.227	1610.3
999.523	1618.88
999.818	1605.1
1000.114	1571.43
1000.409	1567.59
1000.704	1578.43
1001	1560.35
1001.295	1527.81
1001.59	1549.96
1001.885	1537.76
1002.18	1525.33
1002.475	1539.34
1002.77	1510.86
1003.065	1506.57
1003.359	1517.42
1003.654	1509.28
1003.949	1479.68
1004.243	1494.82
1004.538	1485.33
1004.832	1461.83
1005.127	1435.16
1005.421	1454.14
1005.715	1470.64
1006.009	1409.4
1006.304	1441.71
1006.598	1423.63
1006.892	1412.11
1007.186	1389.29
1007.48	1410.75
1007.773	1372.11
1008.067	1393.81
1008.361	1373.01
1008.655	1375.05
1008.948	1332.56
1009.242	1317.2
1009.535	1352
1009.829	1366.46
1010.122	1323.52
1010.415	1317.2
1010.708	1316.52
1011.001	1317.87
1011.295	1306.8
1011.588	1286.24
1011.881	1281.27
1012.173	1279.68
1012.466	1260.02
1012.759	1286.46
1013.052	1267.71
1013.344	1245.56
1013.637	1233.81
1013.93	1204.66
1014.222	1254.83
1014.514	1217.99
1014.807	1225
1015.099	1229.06
1015.391	1214.15
1015.683	1199.69
1015.976	1203.08
1016.268	1193.58
1016.56	1181.38
1016.851	1176.41
1017.143	1148.61
1017.435	1162.17
1017.727	1156.98
1018.018	1156.52
1018.31	1141.61
1018.602	1120.82
1018.893	1128.05
1019.185	1120.14
1019.476	1128.28
1019.767	1123.98
1020.058	1074.94
1020.35	1093.02
1020.641	1083.98
1020.932	1083.76
1021.223	1073.81
1021.514	1101.38
1021.804	1058.67
1022.095	1070.65
1022.386	1065
1022.677	1048.28
1022.967	1050.99
1023.258	1047.6
1023.548	1020.26
1023.839	1025.68
1024.129	1004.66
1024.419	1003.53
1024.709	991.33
1025	1004.21
1025.29	981.16
1025.58	972.35
1025.87	996.3
1026.16	959.47
1026.449	1005.57
1026.739	953.14
1027.029	964.21
1027.319	934.83
1027.608	934.38
1027.898	952.46
1028.187	908.62
1028.477	924.66
1028.766	931.67
1029.055	933.7
1029.344	928.05
1029.634	912.24
1029.923	904.33
1030.212	896.64
1030.501	907.04
1030.79	901.16
1031.078	897.1
1031.367	898.45
1031.656	872.46
1031.945	882.63
1032.233	866.14
1032.522	856.87
1032.81	865.68
1033.099	870.2
1033.387	859.81
1033.675	847.6
1033.963	820.49
1034.251	836.53
1034.54	818.45
1034.828	835.4
1035.116	824.78
1035.403	847.6
1035.691	807.83
1035.979	824.78
1036.267	815.74
1036.554	799.7
1036.842	795.63
1037.129	774.16
1037.417	781.39
1037.704	790.43
1037.992	760.38
1038.279	796.76
1038.566	782.07
1038.853	782.07
1039.14	782.07
