Data from breadboard_black_back_FLMS001491_00002.txt Node
Date: Wed Feb 08 10:49:51 GMT 2017
User: dcchb
Spectrometer: FLMS00149
Trigger mode: 0
Integration Time (sec): 2.000000E-2
Scans to average: 10
Electric dark correction enabled: true
Nonlinearity correction enabled: false
Boxcar width: 0
XAxis mode: Wavelengths
Number of Pixels in Spectrum: 2048
>>>>>Begin Spectral Data<<<<<
341.393	8.57
341.776	8.57
342.16	8.57
342.543	-75.72
342.927	-67.81
343.31	-75.72
343.693	-84.53
344.077	-75.49
344.46	-61.71
344.843	-62.16
345.226	-54.02
345.61	-21.48
345.993	-12.44
346.376	-1.14
346.759	29.82
347.142	26.65
347.525	49.7
347.908	61.91
348.291	86.54
348.674	88.57
349.057	105.52
349.44	126.76
349.823	133.54
350.206	174.9
350.588	201.79
350.971	217.16
351.354	222.13
351.737	227.55
352.119	258.28
352.502	252.18
352.884	258.06
353.267	275.91
353.65	299.41
354.032	291.05
354.414	302.35
354.797	291.05
355.179	313.42
355.562	322.92
355.944	320.66
356.326	320.43
356.709	316.14
357.091	335.34
357.473	343.25
357.855	344.84
358.238	340.09
358.62	338.73
359.002	339.86
359.384	339.86
359.766	328.34
360.148	342.58
360.53	330.37
360.912	321.11
361.294	343.25
361.676	350.71
362.057	343.25
362.439	350.71
362.821	345.97
363.203	343.25
363.584	359.52
363.966	350.49
364.348	359.07
364.729	336.93
365.111	344.84
365.493	331.05
365.874	329.69
366.256	337.38
366.637	343.25
367.019	328.11
367.4	337.15
367.781	333.76
368.163	315.01
368.544	332.63
368.925	340.32
369.306	341.67
369.688	343.71
370.069	326.3
370.45	327.66
370.831	341.45
371.212	349.13
371.593	346.64
371.974	327.89
372.355	351.16
372.736	363.37
373.117	361.11
373.498	342.8
373.879	366.08
374.26	348
374.641	335.12
375.021	350.26
375.402	360.88
375.783	356.36
376.163	376.93
376.544	382.35
376.925	361.11
377.305	375.8
377.686	404.04
378.066	361.33
378.447	364.27
378.827	376.47
379.208	362.01
379.588	385.29
379.968	395
380.349	394.55
380.729	399.3
381.109	386.87
381.489	402.01
381.87	400.2
382.25	403.59
382.63	400.88
383.01	405.85
383.39	423.03
383.77	400.65
384.15	393.65
384.53	399.52
384.91	416.47
385.29	405.17
385.67	443.14
386.049	433.87
386.429	423.7
386.809	454.44
387.189	436.58
387.568	422.8
387.948	436.81
388.328	436.13
388.707	445.17
389.087	475.45
389.466	459.18
389.846	450.37
390.225	455.57
390.605	472.29
390.984	470.26
391.363	477.04
391.743	471.39
392.122	478.84
392.501	481.78
392.881	502.12
393.26	499.41
393.639	499.63
394.018	527.2
394.397	529.92
394.776	527.88
395.155	522.01
395.534	539.18
395.913	517.49
396.292	522.91
396.671	566.3
397.05	555.68
397.429	552.97
397.808	547.77
398.186	553.87
398.565	550.03
398.944	564.04
399.323	564.04
399.701	571.04
400.08	575.34
400.458	557.71
400.837	556.13
401.215	560.88
401.594	576.47
401.972	578.73
402.351	584.6
402.729	599.97
403.107	620.76
403.486	609.91
403.864	608.11
404.242	625.51
404.62	643.58
404.999	641.32
405.377	649.69
405.755	641.1
406.133	665.73
406.511	648.56
406.889	672.28
407.267	676.13
407.645	665.96
408.023	695.79
408.401	723.13
408.779	692.4
409.156	717.71
409.534	719.97
409.912	722.45
410.29	722.23
410.667	748.21
411.045	756.58
411.422	774.2
411.8	756.58
412.178	769.68
412.555	772.62
412.933	802.9
413.31	842.22
413.687	812.39
414.065	805.16
414.442	851.94
414.819	842.68
415.197	820.3
415.574	877.7
415.951	867.99
416.328	869.12
416.705	879.06
417.082	886.97
417.46	883.8
417.837	904.37
418.214	899.62
418.591	926.97
418.967	914.99
419.344	927.19
419.721	924.26
420.098	959.73
420.475	978.94
420.852	964.71
421.228	947.53
421.605	958.83
421.982	993.86
422.358	1015.1
422.735	1018.94
423.111	1018.72
423.488	1021.2
423.864	1050.35
424.241	1037.7
424.617	1079.28
424.994	1067.98
425.37	1076.57
425.746	1101.2
426.123	1085.61
426.499	1104.14
426.875	1131.93
427.251	1147.3
427.627	1189.11
428.003	1182.33
428.379	1174.19
428.756	1185.72
429.132	1206.51
429.507	1217.58
429.883	1257.58
430.259	1255.32
430.635	1256.68
431.011	1278.6
431.387	1321.08
431.763	1353.4
432.138	1348.88
432.514	1355.43
432.89	1336.67
433.265	1399.27
433.641	1402.43
434.016	1400.4
434.392	1448.54
434.767	1489.21
435.143	1458.03
435.518	1472.72
435.894	1500.51
436.269	1506.16
436.644	1513.84
437.02	1535.54
437.395	1567.63
437.77	1582.32
438.145	1600.85
438.52	1623.45
438.895	1625.03
439.271	1647.17
439.646	1659.83
440.021	1674.97
440.395	1660.28
440.77	1668.19
441.145	1693.95
441.52	1734.86
441.895	1737.79
442.27	1750.9
442.645	1746.83
443.019	1766.27
443.394	1777.34
443.769	1783.67
444.143	1799.71
444.518	1786.38
444.892	1806.49
445.267	1856.89
445.641	1835.42
446.016	1874.06
446.39	1870.9
446.764	1904.34
447.139	1910.22
447.513	1910.67
447.887	1938.69
448.262	1910.22
448.636	1960.61
449.01	1954.51
449.384	2003.55
449.758	2010.78
450.132	2015.3
450.506	2041.51
450.88	2060.72
451.254	2042.42
451.628	2072.93
452.002	2093.26
452.376	2124.22
452.75	2181.62
453.123	2167.84
453.497	2211.23
453.871	2242.86
454.244	2276.76
454.618	2297.33
454.992	2295.74
455.365	2323.54
455.739	2350.66
456.112	2402.63
456.486	2468.17
456.859	2466.14
457.232	2484.44
457.606	2481.05
457.979	2494.38
458.352	2525.8
458.725	2596.53
459.099	2613.93
459.472	2676.98
459.845	2716.52
460.218	2721.72
460.591	2733.93
460.964	2741.38
461.337	2800.36
461.71	2867.48
462.083	2902.28
462.456	2868.16
462.829	2923.52
463.201	2985.22
463.574	2978.21
463.947	3024.99
464.32	3126.91
464.692	3129.85
465.065	3153.12
465.438	3170.52
465.81	3237.64
466.183	3257.98
466.555	3389.5
466.928	3351.08
467.3	3374.59
467.672	3389.5
468.045	3498.42
468.417	3513.79
468.789	3540.68
469.161	3592.66
469.534	3660
469.906	3673.34
470.278	3760.79
470.65	3802.82
471.022	3858.42
471.394	3921.01
471.766	3995.14
472.138	3990.16
472.51	4092.31
472.882	4137.5
473.253	4200.33
473.625	4266.31
473.997	4368.01
474.369	4337.95
474.74	4449.81
475.112	4517.38
475.484	4590.15
475.855	4709.01
476.227	4716.7
476.598	4832.4
476.97	4876.92
477.341	4960.99
477.713	5053.64
478.084	5076.24
478.455	5202.56
478.827	5235.1
479.198	5461.76
479.569	5445.94
479.94	5597.8
480.311	5639.84
480.682	5729.55
481.053	5897.68
481.424	5984.91
481.795	6014.74
482.166	6151.24
482.537	6220.61
482.908	6375.41
483.279	6382.42
483.65	6490.21
484.021	6633.26
484.391	6695.4
484.762	6792.58
485.133	6847.49
485.503	6899.47
485.874	7124.54
486.244	7144.2
486.615	7270.08
486.985	7404.76
487.356	7484.08
487.726	7558.88
488.097	7742.83
488.467	7756.17
488.837	7881.13
489.207	8066.89
489.578	8161.35
489.948	8198.19
490.318	8320.67
490.688	8381.01
491.058	8454.9
491.428	8640.44
491.798	8663.49
492.168	8916.59
492.538	8898.51
492.908	9025.29
493.278	9131.95
493.648	9128.56
494.017	9256.92
494.387	9357.71
494.757	9453.3
495.126	9542.33
495.496	9565.84
495.866	9691.48
496.235	9722.22
496.605	9825.72
496.974	9898.48
497.344	9973.51
497.713	10038.37
498.082	10195.65
498.452	10249.89
498.821	10288.98
499.19	10403.33
499.559	10492.14
499.928	10480.61
500.298	10630.44
500.667	10693.04
501.036	10712.7
501.405	10871.79
501.774	10882.86
502.143	11015.52
502.512	11088.73
502.88	11199.47
503.249	11175.51
503.618	11219.8
503.987	11270.2
504.356	11399.91
504.724	11476.75
505.093	11511.55
505.462	11611.43
505.83	11668.15
506.199	11833.12
506.567	11897.3
506.936	11879.67
507.304	12105.66
507.672	12075.15
508.041	12151.08
508.409	12284.18
508.777	12413.44
509.145	12511.52
509.514	12500.9
509.882	12634.23
510.25	12607.11
510.618	12815.92
510.986	12836.48
511.354	13013.43
511.722	12999.87
512.09	13184.5
512.458	13270.37
512.826	13355.34
513.193	13433.3
513.561	13515.11
513.929	13580.42
514.297	13755.78
514.664	13878.72
515.032	13884.82
515.4	13998.26
515.767	14036.9
516.135	14161.65
516.502	14174.98
516.869	14403.45
517.237	14506.95
517.604	14547.17
517.972	14714.4
518.339	14617.23
518.706	14764.8
519.073	14841.4
519.44	14971.34
519.808	15129.53
520.175	15149.87
520.542	15396.42
520.909	15533.36
521.276	15505.34
521.643	15702.85
522.009	15856.29
522.376	15888.61
522.743	15942.39
523.11	16198.66
523.477	16375.37
523.843	16404.98
524.21	16647.91
524.577	16783.73
524.943	16785.08
525.31	16936.49
525.676	17144.17
526.043	17241.57
526.409	17324.73
526.776	17534.21
527.142	17535.8
527.508	17580.77
527.874	17792.51
528.241	17936.46
528.607	17983.02
528.973	18233.4
529.339	18160.64
529.705	18376.9
530.071	18449.9
530.437	18646.28
530.803	18724.47
531.169	18755.42
531.535	18923.78
531.901	18905.93
532.267	19072.48
532.632	19103.89
532.998	19297.11
533.364	19307.73
533.73	19421.62
534.095	19573.26
534.461	19591.34
534.826	19764.89
535.192	19788.39
535.557	19884.43
535.923	19977.09
536.288	20111.77
536.653	20182.51
537.019	20106.8
537.384	20371.43
537.749	20313.8
538.114	20392.67
538.479	20514.47
538.845	20667.47
539.21	20657.07
539.575	20740.68
539.94	20744.07
540.305	20896.39
540.67	20872.88
541.034	21035.59
541.399	21139.99
541.764	21145.64
542.129	21212.08
542.494	21331.18
542.858	21413.89
543.223	21536.14
543.587	21514.67
543.952	21611.4
544.316	21643.94
544.681	21678.74
545.045	21908.56
545.41	21968.45
545.774	21988.79
546.138	22107.2
546.503	22156.92
546.867	22114.88
547.231	22403.46
547.595	22364.82
547.959	22464.25
548.324	22382.9
548.688	22530.24
549.052	22679.62
549.416	22676.45
549.779	22658.6
550.143	22795.54
550.507	22994.64
550.871	22935.2
551.235	23066.95
551.599	23219.26
551.962	23466.94
552.326	23440.95
552.689	23414.06
553.053	23508.29
553.417	23581.29
553.78	23832.58
554.143	23708.52
554.507	23871.45
554.87	23857.89
555.234	24180.82
555.597	24099.69
555.96	24261.49
556.323	24373.81
556.686	24422.85
557.05	24553.24
557.413	24648.15
557.776	24637.53
558.139	24960.91
558.502	24907.81
558.865	24953.91
559.228	25062.6
559.59	25323.61
559.953	25477.06
560.316	25524.51
560.679	25519.77
561.041	25763.6
561.404	25805.64
561.767	26053.99
562.129	25952.75
562.492	26206.75
562.854	26269.13
563.217	26268.67
563.579	26457.14
563.941	26663.69
564.304	26692.62
564.666	26830.47
565.028	26861.88
565.39	26997.24
565.753	27105.71
566.115	27284.24
566.477	27337.35
566.839	27386.84
567.201	27615.08
567.563	27601.97
567.925	27943.88
568.287	27902.53
568.648	27900.72
569.01	28151.56
569.372	28218.45
569.734	28180.49
570.095	28420.71
570.457	28464.1
570.819	28542.51
571.18	28634.26
571.542	28624.77
571.903	28814.14
572.265	28998.09
572.626	28919.45
572.987	29078.32
573.349	29204.19
573.71	29273.34
574.071	29271.31
574.432	29441.25
574.794	29609.15
575.155	29583.84
575.516	29484.63
575.877	29681.69
576.238	29676.49
576.599	29941.35
576.96	29892.76
577.32	29803.04
577.681	30057.05
578.042	30024.28
578.403	30072.19
578.763	30134.33
579.124	30100.66
579.485	30276.93
579.845	30374.78
580.206	30363.93
580.566	30330.04
580.927	30330.26
581.287	30400.99
581.648	30293.43
582.008	30535.68
582.368	30336.59
582.728	30581.78
583.089	30499.3
583.449	30459.75
583.809	30625.85
584.169	30577.71
584.529	30531.39
584.889	30888.67
585.249	30641.89
585.609	30464.27
585.969	30686.18
586.329	30568
586.688	30630.14
587.048	30619.29
587.408	30509.47
587.768	30564.61
588.127	30592.4
588.487	30467.21
588.846	30874.88
589.206	30762.11
589.565	30758.95
589.925	30762.34
590.284	30746.07
590.643	30786.07
591.003	30850.47
591.362	30897.48
591.721	30853.64
592.08	30832.4
592.44	30855.45
592.799	30874.88
593.158	30848.89
593.517	30806.18
593.876	30913.07
594.235	30778.16
594.593	30946.52
594.952	30960.98
595.311	30950.36
595.67	30977.7
596.029	31217.02
596.387	31127.08
596.746	31354.42
597.104	31010.47
597.463	31039.4
597.822	31122.78
598.18	31077.36
598.538	31135.89
598.897	31294.98
599.255	31065.84
599.613	31417.24
599.972	31183.8
600.33	31312.61
600.688	31135.89
601.046	31366.62
601.404	31468.99
601.762	31357.58
602.12	31472.83
602.478	31504.92
602.836	31510.12
603.194	31336.11
603.552	31571.13
603.91	31446.16
604.268	31482.1
604.625	31560.06
604.983	31593.28
605.341	31520.96
605.698	31653.62
606.056	31682.32
606.413	31580.4
606.771	31763.22
607.128	31926.15
607.485	31741.3
607.843	31804.35
608.2	31991.46
608.557	31974.96
608.914	32029.2
609.272	32071.01
609.629	32133.6
609.986	32173.15
610.343	32096.09
610.7	32318.01
611.057	32076.2
611.414	32199.14
611.771	32196.43
612.127	32367.5
612.484	32222.64
612.841	32277.78
613.198	32265.8
613.554	32373.82
613.911	32569.07
614.267	32622.18
614.624	32512.8
614.98	32526.81
615.337	32663.99
615.693	32642.74
616.05	32508.74
616.406	32677.54
616.762	32652.91
617.118	32563.65
617.475	32717.77
617.831	32782.17
618.187	32818.78
618.543	32836.18
618.899	33047.48
619.255	33048.16
619.611	32869.63
619.967	33033.02
620.323	33105.56
620.678	32893.58
621.034	33035.5
621.39	32951.21
621.746	32844.55
622.101	33292.9
622.457	32965.22
622.812	33068.72
623.168	33117.53
623.523	33028.04
623.879	33143.52
624.234	32975.39
624.589	33099.91
624.945	33132
625.3	33138.55
625.655	33099.68
626.01	33188.49
626.365	33088.38
626.72	33165.22
627.075	33105.78
627.43	33004.77
627.785	32979.46
628.14	33018.33
628.495	33145.78
628.85	32983.75
629.205	32940.81
629.559	33060.13
629.914	32968.38
630.269	32923.41
630.623	32852.91
630.978	32866.47
631.332	32906.69
631.687	32955.73
632.041	32812.91
632.396	32938.78
632.75	32738.33
633.104	32754.83
633.459	32558.45
633.813	32600.26
634.167	32602.52
634.521	32564.1
634.875	32526.59
635.229	32490.43
635.583	32451.11
635.937	32423.31
636.291	32274.39
636.645	32419.7
636.999	32252.47
637.352	32304.45
637.706	32214.28
638.06	32379.02
638.413	32143.1
638.767	32179.7
639.121	32162.3
639.474	31983.1
639.828	32083.89
640.181	32036.21
640.534	31977.9
640.888	31924.8
641.241	31865.59
641.594	31817.68
641.947	31884.35
642.301	31787.4
642.654	31789.43
643.007	31917.79
643.36	31758.25
643.713	31613.39
644.066	31850.9
644.419	31568.65
644.771	31447.29
645.124	31121.65
645.477	31115.78
645.83	30909.91
646.182	30607.09
646.535	30682.34
646.888	30565.74
647.24	30475.12
647.593	30580.88
647.945	30459.75
648.298	30470.82
648.65	30286.2
649.002	30233.99
649.355	30445.06
649.707	30384.05
650.059	30542.46
650.411	30849.12
650.763	30843.02
651.115	31187.19
651.467	31052.5
651.819	30984.93
652.171	30942.68
652.523	30826.07
652.875	30770.02
653.227	30737.71
653.578	30815.45
653.93	30895.22
654.282	30720.53
654.633	30565.28
654.985	30526.19
655.337	30697.26
655.688	30592.85
656.039	30611.84
656.391	30476.02
656.742	30511.05
657.094	30659.97
657.445	30688.22
657.796	30592.85
658.147	30434.89
658.498	30393.54
658.849	30515.12
659.2	30442.58
659.551	30388.79
659.902	30540.2
660.253	30466.08
660.604	30479.86
660.955	30247.55
661.306	30449.13
661.656	30333.2
662.007	30342.24
662.358	30338.4
662.708	30288.23
663.059	30256.14
663.409	30156.93
663.76	30269.25
664.11	30249.81
664.461	30230.6
664.811	30192.41
665.161	30201
665.511	30066.09
665.862	30027.22
666.212	30166.88
666.562	30250.94
666.912	30118.06
667.262	30156.26
667.612	29972.31
667.962	30117.16
668.312	30021.57
668.662	30221.34
669.011	30083.94
669.361	29975.47
669.711	29984.51
670.06	30007.33
670.41	29927.56
670.76	29895.02
671.109	30007.11
671.459	29900.22
671.808	29975.24
672.157	29951.29
672.507	29732.99
672.856	29756.49
673.205	29739.32
673.554	29879.2
673.904	29688.92
674.253	29909.71
674.602	29749.71
674.951	29396.5
675.3	29290.74
675.649	29558.08
675.998	29539.1
676.346	29573.9
676.695	29648.7
677.044	29442.38
677.393	29478.53
677.741	29585.87
678.09	29498.42
678.438	29398.99
678.787	29413.68
679.135	29549.72
679.484	29277.63
679.832	29455.71
680.181	29187.92
680.529	29284.19
680.877	29217.75
681.225	29184.53
681.573	29252.78
681.922	29035.15
682.27	29073.35
682.618	29041.03
682.966	28946.8
683.314	29053.69
683.661	28930.07
684.009	28754.26
684.357	28651.21
684.705	28619.8
685.053	28685.33
685.4	28701.6
685.748	28528.95
686.095	28443.98
686.443	28363.08
686.79	28284.21
687.138	28326.7
687.485	28416.87
687.832	28238.57
688.18	28270.2
688.527	28172.13
688.874	28121.05
689.221	28073.15
689.568	27934.62
689.915	27956.76
690.262	27922.64
690.609	27964.22
690.956	27818.24
691.303	27806.03
691.65	27545.93
691.997	27618.92
692.344	27383.45
692.69	27420.96
693.037	27481.52
693.383	27099.84
693.73	27201.08
694.077	27060.97
694.423	27156.11
694.769	26943.23
695.116	26961.54
695.462	26930.8
695.808	26816.91
696.155	26817.13
696.501	26616.69
696.847	26699.85
697.193	26338.95
697.539	26599.29
697.885	26301.67
698.231	26247.21
698.577	26264.83
698.923	26251.5
699.269	26080.43
699.614	26014.22
699.96	25918.85
700.306	25886.99
700.651	25821.23
700.997	25755.01
701.342	25806.09
701.688	25706.65
702.033	25564.74
702.379	25514.57
702.724	25419.43
703.069	25509.6
703.415	25257.85
703.76	25270.06
704.105	25219.21
704.45	25196.61
704.795	25013.11
705.14	25045.43
705.485	25048.82
705.83	24888.82
706.175	24757.75
706.52	24791.2
706.865	24734.25
707.209	24663.52
707.554	24603.18
707.899	24704.87
708.243	24498.32
708.588	24504.88
708.932	24301.72
709.277	24273.92
709.621	24329.29
709.966	24086.58
710.31	24119.8
710.654	23957.77
710.998	24034.61
711.342	24032.12
711.687	23947.6
712.031	23834.16
712.375	23756.42
712.719	23821.05
713.063	23801.39
713.407	23705.58
713.75	23623.09
714.094	23589.87
714.438	23517.11
714.782	23562.98
715.125	23394.62
715.469	23361.18
715.812	23288.64
716.156	23228.53
716.499	23252.71
716.843	23237.11
717.186	23081.64
717.53	23172.26
717.873	23142.88
718.216	23088.19
718.559	23041.64
718.902	22922.77
719.246	22909.44
719.589	22749.44
719.932	22888.88
720.275	22662.44
720.617	22767.07
720.96	22699.73
721.303	22730.69
721.646	22663.34
721.989	22497.47
722.331	22584.25
722.674	22434.2
723.016	22487.53
723.359	22373.63
723.701	22395.56
724.044	22294.09
724.386	22266.07
724.729	22403.92
725.071	22207.76
725.413	22208.89
725.755	22164.6
726.097	22113.75
726.439	22052.74
726.782	21924.61
727.124	22143.36
727.465	22014.32
727.807	21944.04
728.149	21929.8
728.491	21856.36
728.833	21850.71
729.175	21692.75
729.516	21665.63
729.858	21786.08
730.199	21814.55
730.541	21730.94
730.882	21692.97
731.224	21715.35
731.565	21456.14
731.906	21608.01
732.248	21453.66
732.589	21452.53
732.93	21408.01
733.271	21381.34
733.612	21371.63
733.953	21332.98
734.294	21332.76
734.635	21247.11
734.976	21248.69
735.317	21148.81
735.658	21156.27
735.999	21095.25
736.339	21079.88
736.68	21095.25
737.021	21054.35
737.361	20898.87
737.702	21003.05
738.042	20979.1
738.383	20920.57
738.723	20946.1
739.063	20876.27
739.404	20860.91
739.744	20773.68
740.084	20687.8
740.424	20705.66
740.764	20702.72
741.104	20700.01
741.444	20685.09
741.784	20629.73
742.124	20608.48
742.464	20538.43
742.804	20456.4
743.143	20492.55
743.483	20533.01
743.823	20416.4
744.162	20355.16
744.502	20391.54
744.841	20326.46
745.181	20342.95
745.52	20267.7
745.86	20138.21
746.199	20129.63
746.538	20174.6
746.877	20203.75
747.216	20120.81
747.556	19965.56
747.895	20060.25
748.234	19978.22
748.573	19941.61
748.911	19895.73
749.25	19897.99
749.589	19807.15
749.928	19836.07
750.267	19883.53
750.605	19734.38
750.944	19726.47
751.283	19622.75
751.621	19662.75
751.96	19537.55
752.298	19561.05
752.636	19529.42
752.975	19415.52
753.313	19428.4
753.651	19420.49
753.989	19239.25
754.327	19189.09
754.666	19085.36
755.004	19342.98
755.342	19213.27
755.679	19131.91
756.017	18936.44
756.355	19108.18
756.693	18888.3
757.031	18968.75
757.368	18916.55
757.706	18827.06
758.044	18814.86
758.381	18764.92
758.719	18710
759.056	18662.32
759.394	18696.9
759.731	18589.55
760.068	18518.82
760.405	18476.79
760.743	18391.14
761.08	18435.21
761.417	18342.1
761.754	18157.47
762.091	18294.42
762.428	18198.15
762.765	18044.48
763.102	18156.8
763.438	17931.04
763.775	17873.19
764.112	17944.82
764.449	17942.79
764.785	17875.67
765.122	17701.44
765.458	17656.24
765.795	17679.75
766.131	17571.5
766.467	17562.24
766.804	17448.34
767.14	17367.44
767.476	17374.22
767.812	17256.48
768.148	17304.84
768.485	17175.58
768.821	17140.33
769.157	17152.53
769.492	16950.73
769.828	16926.32
770.164	16844.74
770.5	16868.92
770.836	16842.93
771.171	16651.3
771.507	16671.64
771.842	16515.26
772.178	16588.25
772.513	16472.1
772.849	16417.63
773.184	16331.53
773.519	16348.26
773.855	16212.89
774.19	16166.34
774.525	16094.7
774.86	16142.84
775.195	16090.18
775.53	16014.25
775.865	15942.39
776.2	15861.72
776.535	15744.66
776.87	15772.9
777.205	15662.62
777.539	15579.69
777.874	15584.66
778.209	15510.76
778.543	15478.9
778.878	15358.45
779.212	15400.71
779.547	15237.33
779.881	15302.41
780.215	15118.68
780.55	15134.96
780.884	15100.15
781.218	15054.05
781.552	15057.9
781.886	14886.83
782.22	14850.67
782.554	14752.82
782.888	14662.2
783.222	14693.61
783.556	14670.56
783.889	14538.59
784.223	14490
784.557	14416.1
784.89	14454.75
785.224	14279.61
785.557	14288.88
785.891	14315.09
786.224	14207.75
786.558	14150.8
786.891	14075.77
787.224	14079.62
787.557	14055.66
787.891	13944.25
788.224	13942.44
788.557	13862.67
788.89	13869.68
789.223	13880.3
789.556	13749.23
789.888	13821.54
790.221	13667.88
790.554	13606.63
790.887	13620.87
791.219	13536.13
791.552	13486.86
791.884	13410.25
792.217	13419.07
792.549	13382.91
792.882	13234.67
793.214	13181.11
793.546	13265.17
793.879	13110.83
794.211	13051.62
794.543	13134.33
794.875	13059.3
795.207	13059.08
795.539	12925.97
795.871	12909.02
796.203	12807.78
796.535	12816.15
796.867	12823.15
797.198	12670.61
797.53	12762.59
797.862	12659.31
798.193	12677.17
798.525	12531.86
798.856	12577.73
799.188	12502.26
799.519	12484.18
799.85	12363.5
800.182	12356.05
800.513	12337.97
800.844	12228.14
801.175	12385.65
801.506	12262.04
801.837	12254.8
802.168	12187.24
802.499	12083.06
802.83	12095.49
803.161	12026.56
803.491	11973
803.822	11963.51
804.153	12014.59
804.483	11879.67
804.814	11834.48
805.145	11837.19
805.475	11763.97
805.805	11815.95
806.136	11697.98
806.466	11738.43
806.796	11679
807.126	11676.52
807.457	11602.17
807.787	11547.03
808.117	11544.32
808.447	11491.44
808.777	11549.06
809.107	11516.97
809.436	11426.13
809.766	11413.02
810.096	11380.7
810.426	11355.39
810.755	11329.18
811.085	11309.97
811.414	11252.35
811.744	11196.75
812.073	11164.21
812.403	11240.59
812.732	11090.32
813.061	11097.55
813.39	11024.33
813.719	11053.03
814.049	11051.45
814.378	10999.24
814.707	10944.56
815.036	10891.45
815.365	10822.53
815.693	10881.96
816.022	10859.14
816.351	10781.85
816.68	10667.95
817.008	10724.68
817.337	10650.78
817.665	10606.49
817.994	10627.73
818.322	10669.76
818.651	10574.62
818.979	10518.58
819.307	10605.58
819.636	10592.7
819.964	10522.87
820.292	10565.81
820.62	10543.21
820.948	10488.07
821.276	10546.6
821.604	10490.33
821.932	10549.76
822.259	10511.8
822.587	10479.26
822.915	10424.34
823.243	10442.88
823.57	10461.18
823.898	10492.59
824.225	10391.8
824.553	10450.78
824.88	10462.08
825.207	10503.89
825.535	10491.46
825.862	10534.62
826.189	10487.62
826.516	10417.79
826.843	10444.91
827.17	10530.56
827.497	10481.52
827.824	10476.77
828.151	10440.84
828.478	10524.68
828.805	10473.83
829.131	10432.03
829.458	10429.54
829.785	10324.01
830.111	10395.87
830.438	10421.63
830.764	10379.37
831.09	10481.52
831.417	10348.64
831.743	10460.28
832.069	10342.54
832.395	10323.78
832.722	10458.02
833.048	10401.75
833.374	10376.66
833.7	10280.85
834.026	10427.51
834.351	10342.31
834.677	10398.81
835.003	10310
835.329	10300.51
835.654	10239.04
835.98	10182.54
836.306	10253.05
836.631	10251.24
836.956	10295.53
837.282	10275.87
837.607	10238.59
837.932	10163.11
838.258	10173.96
838.583	10088.53
838.908	10128.08
839.233	10146.39
839.558	10097.8
839.883	10087.86
840.208	10036.33
840.533	10028.2
840.858	10049.44
841.182	10025.48
841.507	10031.81
841.832	10002.43
842.156	9912.95
842.481	9979.61
842.805	9921.76
843.13	9897.58
843.454	9836.11
843.778	9804.93
844.103	9737.13
844.427	9744.59
844.751	9768.32
845.075	9748.88
845.399	9724.25
845.723	9713.63
846.047	9648.32
846.371	9679.28
846.695	9596.34
847.019	9477.7
847.343	9475.67
847.666	9454.2
847.99	9476.35
848.313	9423.47
848.637	9310.48
848.96	9315
849.284	9335.79
849.607	9242.91
849.931	9245.17
850.254	9182.12
850.577	9145.73
850.9	9067.09
851.223	9078.62
851.546	8980.31
851.869	8960.65
852.192	8991.39
852.515	8962.01
852.838	8920.43
853.161	8911.16
853.483	8769.7
853.806	8812.18
854.129	8738.97
854.451	8677.5
854.774	8682.92
855.096	8641.57
855.419	8653.09
855.741	8688.12
856.063	8584.62
856.385	8504.17
856.708	8532.87
857.03	8506.2
857.352	8506.88
857.674	8475.7
857.996	8447.67
858.318	8403.38
858.64	8432.31
858.961	8416.26
859.283	8339.2
859.605	8297.85
859.926	8297.62
860.248	8343.95
860.57	8299.2
860.891	8291.52
861.212	8242.48
861.534	8203.16
861.855	8180.11
862.176	8219.66
862.498	8200.45
862.819	8184.86
863.14	8181.01
863.461	8108.47
863.782	8136.5
864.103	8135.14
864.424	8068.02
864.745	8085.42
865.065	8021.7
865.386	8059.89
865.707	8021.02
866.027	8069.15
866.348	8030.51
866.668	8028.93
866.989	8013.56
867.309	7974.69
867.63	7896.28
867.95	7918.65
868.27	7851.3
868.59	7942.15
868.91	7846.79
869.23	7882.04
869.55	7856.95
869.87	7886.56
870.19	7879.33
870.51	7852.66
870.83	7862.38
871.15	7810.18
871.469	7759.1
871.789	7769.27
872.109	7744.87
872.428	7735.38
872.748	7715.72
873.067	7747.13
873.386	7737.18
873.706	7711.65
874.025	7637.75
874.344	7583.74
874.663	7724.3
874.982	7636.85
875.301	7611.99
875.62	7667.81
875.939	7568.15
876.258	7616.06
876.577	7576.51
876.896	7572.22
877.214	7580.35
877.533	7591.88
877.852	7576.96
878.17	7495.38
878.489	7509.39
878.807	7524.76
879.125	7504.65
879.444	7459.9
879.762	7473.91
880.08	7476.4
880.398	7448.83
880.716	7456.06
881.034	7371.54
881.352	7371.32
881.67	7431.2
881.988	7382.84
882.306	7317.53
882.624	7367.48
882.941	7348.49
883.259	7275.27
883.577	7331.32
883.894	7296.52
884.212	7299.23
884.529	7288.38
884.846	7232.56
885.164	7175.84
885.481	7164.77
885.798	7149.85
886.115	7173.36
886.432	7183.75
886.75	7148.95
887.067	7117.31
887.383	7093.36
887.7	7112.79
888.017	7037.99
888.334	7022.4
888.651	7054.26
888.967	6990.08
889.284	7050.2
889.6	6974.72
889.917	6918.22
890.233	6889.52
890.55	6918.67
890.866	6891.1
891.182	6870.31
891.498	6859.47
891.815	6813.59
892.131	6755.51
892.447	6844.78
892.763	6795.29
893.079	6768.4
893.395	6731.11
893.71	6736.53
894.026	6693.6
894.342	6704.44
894.657	6687.72
894.973	6654.05
895.289	6669.64
895.604	6617.44
895.92	6602.3
896.235	6596.2
896.55	6582.86
896.865	6497.44
897.181	6535.63
897.496	6511.45
897.811	6447.27
898.126	6418.12
898.441	6428.74
898.756	6428.52
899.071	6392.59
899.386	6383.32
899.7	6279.82
900.015	6339.48
900.33	6275.75
900.644	6280.95
900.959	6243.66
901.273	6266.94
901.588	6215.42
901.902	6175.42
902.216	6197.34
902.531	6137.45
902.845	6149.2
903.159	6075.53
903.473	6063.33
903.787	6045.48
904.101	6052.26
904.415	6026.95
904.729	6034.18
905.042	5993.5
905.356	5929.77
905.67	5962.99
905.984	5925.93
906.297	5891.13
906.611	5854.3
906.924	5840.06
907.237	5816.33
907.551	5837.35
907.864	5754.41
908.177	5775.43
908.491	5722.77
908.804	5697.92
909.117	5684.81
909.43	5680.97
909.743	5648.2
910.056	5630.8
910.368	5648.2
910.681	5603.68
910.994	5570.69
911.307	5560.29
911.619	5555.09
911.932	5512.61
912.244	5428.09
912.557	5489.33
912.869	5420.63
913.181	5431.03
913.494	5393.06
913.806	5376.12
914.118	5390.8
914.43	5284.59
914.742	5338.83
915.054	5304.03
915.366	5296.34
915.678	5270.36
915.99	5246.18
916.302	5195.56
916.613	5189.45
916.925	5154.88
917.236	5114.65
917.548	5078.04
917.859	5109
918.171	5098.83
918.482	5063.13
918.794	5037.82
919.105	5023.81
919.416	5026.07
919.727	5008.44
920.038	4979.52
920.349	4935.45
920.66	4903.13
920.971	4906.07
921.282	4876.24
921.593	4854.32
921.903	4866.3
922.214	4835.11
922.525	4770.71
922.835	4784.49
923.146	4801.67
923.456	4753.31
923.767	4741.1
924.077	4696.36
924.387	4741.78
924.697	4642.8
925.008	4680.09
925.318	4667.43
925.628	4674.44
925.938	4637.6
926.248	4561.67
926.558	4528.23
926.867	4535.91
927.177	4530.71
927.487	4503.82
927.796	4472.41
928.106	4444.61
928.416	4427.44
928.725	4468.57
929.034	4427.89
929.344	4376.37
929.653	4395.35
929.962	4350.61
930.271	4354.45
930.581	4310.38
930.89	4327.1
931.199	4281.68
931.508	4271.29
931.817	4225.86
932.125	4248.24
932.434	4215.02
932.743	4182.47
933.051	4158.97
933.36	4142.93
933.669	4169.37
933.977	4172.76
934.286	4126.88
934.594	4086.88
934.902	4071.07
935.21	4074.46
935.519	4010.95
935.827	4002.59
936.135	4019.77
936.443	3981.8
936.751	3947
937.059	3981.58
937.367	3996.26
937.674	3926.21
937.982	3901.35
938.29	3898.41
938.597	3871.52
938.905	3867
939.213	3859.09
939.52	3819.09
939.827	3813.44
940.135	3777.29
940.442	3765.76
940.749	3783.62
941.056	3785.88
941.363	3751.98
941.67	3710.62
941.977	3736.84
942.284	3710.62
942.591	3690.51
942.898	3665.43
943.205	3634.47
943.511	3631.53
943.818	3654.35
944.125	3589.04
944.431	3592.66
944.738	3584.75
945.044	3565.77
945.35	3537.52
945.657	3547.92
945.963	3518.99
946.269	3473.79
946.575	3506.56
946.881	3487.35
947.187	3502.27
947.493	3451.19
947.799	3430.86
948.105	3415.72
948.41	3424.3
948.716	3392.67
949.022	3362.38
949.327	3375.94
949.633	3401.93
949.938	3370.07
950.244	3329.84
950.549	3316.28
950.854	3286
951.16	3302.5
951.465	3269.5
951.77	3267.47
952.075	3288.04
952.38	3217.75
952.685	3219.56
952.99	3218.43
953.294	3190.18
953.599	3168.72
953.904	3138.43
954.209	3172.56
954.513	3141.15
954.818	3130.53
955.122	3140.47
955.426	3091.66
955.731	3095.95
956.035	3060.24
956.339	3074.93
956.643	3056.18
956.948	3076.97
957.252	3012.11
957.556	3048.95
957.86	2979.12
958.163	2991.77
958.467	2947.25
958.771	2973.92
959.075	2978.21
959.378	2950.42
959.682	2946.35
959.985	2903.41
960.289	2886.92
960.592	2866.35
960.896	2863.64
961.199	2864.54
961.502	2854.83
961.805	2862.28
962.108	2836.75
962.411	2803.75
962.714	2762.17
963.017	2784.55
963.32	2748.84
963.623	2781.38
963.926	2750.2
964.228	2733.93
964.531	2735.51
964.833	2717.65
965.136	2708.62
965.438	2681.27
965.741	2696.41
966.043	2687.37
966.345	2681.05
966.648	2669.52
966.95	2643.31
967.252	2635.85
967.554	2612.8
967.856	2632.46
968.158	2579.58
968.46	2585.68
968.761	2603.99
969.063	2582.97
969.365	2541.16
969.666	2594.04
969.968	2504.55
970.269	2530.77
970.571	2506.13
970.872	2532.35
971.174	2505
971.475	2502.07
971.776	2480.82
972.077	2470.88
972.378	2470.88
972.679	2459.58
972.98	2463.88
973.281	2409.19
973.582	2440.37
973.883	2402.18
974.183	2370.32
974.484	2401.28
974.785	2373.03
975.085	2353.37
975.386	2372.8
975.686	2343.2
975.986	2319.7
976.287	2340.26
976.587	2317.44
976.887	2323.99
977.187	2321.51
977.487	2266.37
977.787	2327.16
978.087	2279.25
978.387	2273.37
978.687	2274.95
978.987	2291
979.286	2220.04
979.586	2237.44
979.885	2220.27
980.185	2223.88
980.484	2196.31
980.784	2206.48
981.083	2193.15
981.382	2173.71
981.682	2166.03
981.981	2114.73
982.28	2149.53
982.579	2122.64
982.878	2148.63
983.177	2114.28
983.475	2121.74
983.774	2099.14
984.073	2101.17
984.372	2083.55
984.67	2045.36
984.969	2076.09
985.267	2033.15
985.566	2081.74
985.864	2073.15
986.162	2037.9
986.461	1997
986.759	2018.24
987.057	1982.31
987.355	1971.23
987.653	1997.22
987.951	2000.84
988.249	2007.39
988.547	2003.32
988.844	1974.4
989.142	1949.31
989.44	1926.71
989.737	1921.74
990.035	1928.97
990.332	1940.05
990.63	1917.68
990.927	1881.74
991.224	1889.65
991.521	1902.99
991.819	1891.69
992.116	1890.78
992.413	1849.65
992.71	1843.33
993.006	1849.2
993.303	1841.97
993.6	1829.09
993.897	1810.56
994.193	1817.57
994.49	1816.44
994.787	1798.36
995.083	1781.41
995.379	1783.22
995.676	1750.22
995.972	1776.44
996.268	1758.36
996.565	1725.59
996.861	1734.4
997.157	1725.59
997.453	1717.23
997.749	1712.26
998.044	1721.75
998.34	1697.57
998.636	1701.41
998.932	1690.79
999.227	1647.4
999.523	1650.11
999.818	1669.09
1000.114	1638.59
1000.409	1636.33
1000.704	1644.24
1001	1620.28
1001.295	1640.17
1001.59	1608.08
1001.885	1618.7
1002.18	1573.05
1002.475	1586.84
1002.77	1590.9
1003.065	1552.71
1003.359	1549.32
1003.654	1569.44
1003.949	1559.49
1004.243	1543.9
1004.538	1542.32
1004.832	1508.87
1005.127	1507.74
1005.421	1497.12
1005.715	1519.49
1006.009	1498.48
1006.304	1477.01
1006.598	1474.52
1006.892	1491.7
1007.186	1443.11
1007.48	1462.32
1007.773	1446.95
1008.067	1444.92
1008.361	1457.8
1008.655	1431.13
1008.948	1413.28
1009.242	1394.53
1009.535	1416.45
1009.829	1392.94
1010.122	1427.07
1010.415	1405.15
1010.708	1387.97
1011.001	1344.13
1011.295	1364.02
1011.588	1347.3
1011.881	1348.2
1012.173	1347.07
1012.466	1351.59
1012.759	1338.03
1013.052	1317.69
1013.344	1300.74
1013.637	1285.38
1013.93	1292.61
1014.222	1298.48
1014.514	1299.39
1014.807	1302.55
1015.099	1258.26
1015.391	1282.21
1015.683	1242.89
1015.976	1277.01
1016.268	1218.03
1016.56	1245.15
1016.851	1228.43
1017.143	1211.71
1017.435	1223.68
1017.727	1218.03
1018.018	1207.64
1018.31	1194.08
1018.602	1197.47
1018.893	1195.66
1019.185	1158.6
1019.476	1167.86
1019.767	1159.5
1020.058	1148.66
1020.35	1153.63
1020.641	1132.61
1020.932	1117.7
1021.223	1110.01
1021.514	1118.15
1021.804	1096.91
1022.095	1106.4
1022.386	1104.82
1022.677	1090.13
1022.967	1114.98
1023.258	1100.75
1023.548	1075.66
1023.839	1048.32
1024.129	1064.36
1024.419	1058.94
1024.709	1053.74
1025	1049.22
1025.29	1043.8
1025.58	1021.65
1025.87	1036.57
1026.16	1006.97
1026.449	996.57
1026.739	1002.67
1027.029	966.06
1027.319	1011.26
1027.608	995.44
1027.898	1004.25
1028.187	988.43
1028.477	975.78
1028.766	975.1
1029.055	972.16
1029.344	955.44
1029.634	931.94
1029.923	932.84
1030.212	939.4
1030.501	941.66
1030.79	919.28
1031.078	915.22
1031.367	897.36
1031.656	904.59
1031.945	918.38
1032.233	903.92
1032.522	891.49
1032.81	891.04
1033.099	881.32
1033.387	882.9
1033.675	865.27
1033.963	879.06
1034.251	867.08
1034.54	864.82
1034.828	850.81
1035.116	846.29
1035.403	826.63
1035.691	837.03
1035.979	822.34
1036.267	830.25
1036.554	822.79
1036.842	783.47
1037.129	818.5
1037.417	794.77
1037.704	803.58
1037.992	784.82
1038.279	798.16
1038.566	786.18
1038.853	786.18
1039.14	786.18
