Data from breadboard_white_FLMS001491_00093.txt Node
Date: Wed Feb 08 10:48:33 GMT 2017
User: dcchb
Spectrometer: FLMS00149
Trigger mode: 0
Integration Time (sec): 2.000000E-2
Scans to average: 10
Electric dark correction enabled: true
Nonlinearity correction enabled: false
Boxcar width: 0
XAxis mode: Wavelengths
Number of Pixels in Spectrum: 2048
>>>>>Begin Spectral Data<<<<<
341.393	-10.48
341.776	-10.48
342.16	-10.48
342.543	-80.99
342.927	-66.07
343.31	-60.2
343.693	-58.61
344.077	-57.26
344.46	-60.2
344.843	-63.36
345.226	-33.98
345.61	-37.15
345.993	-23.59
346.376	-7.54
346.759	6.24
347.142	29.52
347.525	49.18
347.908	63.64
348.291	62.51
348.674	87.6
349.057	103.19
349.44	118.56
349.823	162.85
350.206	166.01
350.588	200.81
350.971	231.32
351.354	224.54
351.737	248.5
352.119	249.63
352.502	288.5
352.884	268.38
353.267	302.05
353.65	306.57
354.032	290.98
354.414	300.92
354.797	315.61
355.179	332.56
355.562	347.25
355.944	331.43
356.326	335.27
356.709	358.32
357.091	343.86
357.473	354.48
357.855	343.86
358.238	340.92
358.62	362.84
359.002	352
359.384	352.67
359.766	344.54
360.148	358.1
360.53	340.02
360.912	345.89
361.294	337.99
361.676	333.47
362.057	340.7
362.439	365.1
362.821	342.73
363.203	328.49
363.584	331.21
363.966	338.66
364.348	330.3
364.729	332.11
365.111	350.41
365.493	338.66
365.874	340.47
366.256	328.95
366.637	323.75
367.019	322.39
367.4	333.01
367.781	325.78
368.163	331.88
368.544	333.69
368.925	327.59
369.306	333.01
369.688	329.62
370.069	338.66
370.45	341.38
370.831	338.89
371.212	313.81
371.593	313.13
371.974	354.71
372.355	328.95
372.736	328.95
373.117	342.51
373.498	339.79
373.879	367.59
374.26	335.5
374.641	348.15
375.021	335.73
375.402	358.78
375.783	357.87
376.163	359
376.544	371.88
376.925	352.22
377.305	359.68
377.686	358.1
378.066	360.58
378.447	355.84
378.827	355.39
379.208	374.82
379.588	370.98
379.968	369.85
380.349	371.43
380.729	390.19
381.109	364.65
381.489	385.44
381.87	381.37
382.25	373.46
382.63	372.56
383.01	376.18
383.39	404.65
383.77	390.19
384.15	389.74
384.53	389.28
384.91	384.09
385.29	388.38
385.67	399.68
386.049	405.1
386.429	413.69
386.809	433.12
387.189	410.3
387.568	419.57
387.948	419.11
388.328	445.55
388.707	444.42
389.087	429.51
389.466	443.52
389.846	435.16
390.225	459.34
390.605	447.59
390.984	465.67
391.363	447.59
391.743	452.33
392.122	491.65
392.501	464.54
392.881	482.16
393.26	487.36
393.639	510.64
394.018	519.22
394.397	506.34
394.776	511.99
395.155	502.95
395.534	516.74
395.913	528.26
396.292	522.84
396.671	546.79
397.05	550.86
397.429	541.82
397.808	548.38
398.186	555.61
398.565	554.48
398.944	581.14
399.323	575.04
399.701	609.16
400.08	595.83
400.458	623.4
400.837	608.03
401.215	620.01
401.594	632.44
401.972	628.6
402.351	636.73
402.729	649.84
403.107	648.03
403.486	694.59
403.864	669.28
404.242	698.2
404.62	693.23
404.999	700.69
405.377	723.51
405.755	756.51
406.133	733.23
406.511	755.38
406.889	771.42
407.267	798.76
407.645	808.48
408.023	823.4
408.401	824.07
408.779	817.07
409.156	866.56
409.534	860.23
409.912	894.81
410.29	909.95
410.667	930.06
411.045	914.02
411.422	953.56
411.8	977.52
412.178	991.98
412.555	1018.19
412.933	1016.84
413.31	1038.76
413.687	1049.83
414.065	1063.84
414.442	1078.76
414.819	1104.74
415.197	1106.78
415.574	1138.42
415.951	1155.82
416.328	1164.18
416.705	1183.16
417.082	1177.29
417.46	1197.85
417.837	1211.63
418.214	1205.31
418.591	1275.81
418.967	1259.77
419.344	1267.9
419.721	1293.67
420.098	1324.17
420.475	1351.52
420.852	1348.13
421.228	1350.84
421.605	1391.29
421.982	1389.71
422.358	1438.97
422.735	1430.61
423.111	1448.24
423.488	1491.85
423.864	1480.55
424.241	1479.2
424.617	1503.15
424.994	1500.89
425.37	1581.57
425.746	1549.93
426.123	1602.58
426.499	1607.56
426.875	1632.64
427.251	1666.99
427.627	1708.57
428.003	1689.59
428.379	1708.57
428.756	1744.05
429.132	1803.94
429.507	1810.94
429.883	1801.45
430.259	1865.18
430.635	1857.04
431.011	1899.07
431.387	1924.61
431.763	1977.26
432.138	1982.01
432.514	2025.85
432.89	2041.44
433.265	2074.44
433.641	2115.79
434.016	2124.38
434.392	2149.92
434.767	2187.65
435.143	2163.93
435.518	2217.03
435.894	2222
436.269	2295
436.644	2311.27
437.02	2319.63
437.395	2338.38
437.77	2377.03
438.145	2423.81
438.52	2409.12
438.895	2459.96
439.271	2461.77
439.646	2532.96
440.021	2561.66
440.395	2580.41
440.77	2534.99
441.145	2573.86
441.52	2659.05
441.895	2635.78
442.27	2705.15
442.645	2701.77
443.019	2728.43
443.394	2719.17
443.769	2766.62
444.143	2787.64
444.518	2827.86
444.892	2779.28
445.267	2802.55
445.641	2862.66
446.016	2895.43
446.39	2883.23
446.764	2907.18
447.139	2928.88
447.513	2921.42
447.887	3014.07
448.262	2997.8
448.636	3007.52
449.01	3073.05
449.384	3078.25
449.758	3100.4
450.132	3153.73
450.506	3174.3
450.88	3189.66
451.254	3181.75
451.628	3279.38
452.002	3295.87
452.376	3319.15
452.75	3335.19
453.123	3367.96
453.497	3420.39
453.871	3451.58
454.244	3486.83
454.618	3537.68
454.992	3564.79
455.365	3611.57
455.739	3689.99
456.112	3738.8
456.486	3796.2
456.859	3793.49
457.232	3897.89
457.606	3878.68
457.979	3909.19
458.352	4042.97
458.725	4020.83
459.099	4092.24
459.472	4150.77
459.845	4193.48
460.218	4261.95
460.591	4272.35
460.964	4312.8
461.337	4432.57
461.71	4492
462.083	4547.82
462.456	4580.59
462.829	4582.62
463.201	4695.16
463.574	4693.58
463.947	4770.41
464.32	4872.1
464.692	4917.53
465.065	5014.02
465.438	5027.58
465.81	5124.53
466.183	5109.84
466.555	5306.89
466.928	5295.82
467.3	5301.47
467.672	5404.74
468.045	5504.4
468.417	5615.36
468.789	5594.8
469.161	5697.39
469.534	5736.04
469.906	5888.12
470.278	5945.52
470.65	6019.42
471.022	6087.66
471.394	6246.98
471.766	6281.33
472.138	6363.82
472.51	6475.45
472.882	6615.11
473.253	6656.92
473.625	6842.67
473.997	6938.94
474.369	6988.66
474.74	7074.08
475.112	7219.61
475.484	7299.16
475.855	7484.24
476.227	7527.17
476.598	7733.27
476.97	7785.7
477.341	7992.93
477.713	8112.7
478.084	8125.35
478.455	8401.05
478.827	8423.65
479.198	8726.24
479.569	8697.09
479.94	8972.11
480.311	9084.87
480.682	9353.12
481.053	9559.21
481.424	9621.58
481.795	9643.28
482.166	9892.31
482.537	10059.31
482.908	10202.13
483.279	10277.16
483.65	10494.1
484.021	10707.66
484.391	10820.65
484.762	10969.34
485.133	10992.62
485.503	11235.55
485.874	11513.06
486.244	11540.18
486.615	11822.88
486.985	12007.28
487.356	12134.51
487.726	12259.48
488.097	12506.93
488.467	12590.09
488.837	12871.67
489.207	12999.8
489.578	13143.3
489.948	13296.74
490.318	13463.97
490.688	13585.32
491.058	13775.6
491.428	14005.2
491.798	14058.3
492.168	14377.16
492.538	14481.57
492.908	14677.72
493.278	14735.12
493.648	14837.49
494.017	15062.57
494.387	15145.05
494.757	15259.85
495.126	15481.77
495.496	15574.65
495.866	15729.22
496.235	15853.74
496.605	15992.26
496.974	16113.16
497.344	16321.97
497.713	16418.47
498.082	16495.53
498.452	16719.48
498.821	16691.45
499.19	16849.87
499.559	17074.04
499.928	17147.71
500.298	17243.3
500.667	17452.56
501.036	17501.6
501.405	17687.59
501.774	17679.22
502.143	18009.16
502.512	17992.66
502.88	18169.61
503.249	18047.12
503.618	18330.05
503.987	18457.06
504.356	18591.97
504.724	18635.81
505.093	18797.39
505.462	18896.14
505.83	19020.88
506.199	19141.11
506.567	19478.5
506.936	19416.81
507.304	19659.96
507.672	19895.21
508.041	19929.56
508.409	20094.98
508.777	20186.73
509.145	20362.32
509.514	20428.76
509.882	20617.45
510.25	20724.34
510.618	20877.56
510.986	20948.52
511.354	21170.43
511.722	21338.79
512.09	21497.2
512.458	21502.85
512.826	21699.01
513.193	21809.51
513.561	22057.64
513.929	22254.25
514.297	22289.27
514.664	22565.88
515.032	22682.71
515.4	22903.27
515.767	23028.46
516.135	23117.27
516.502	23066.2
516.869	23393.2
517.237	23602.23
517.604	23500.99
517.972	23930.13
518.339	24111.82
518.706	24085.16
519.073	24398.6
519.44	24501.42
519.808	24847.85
520.175	24731.92
520.542	24990.22
520.909	25148.18
521.276	25337.1
521.643	25577.32
522.009	25774.83
522.376	25906.8
522.743	26135.05
523.11	26436.28
523.477	26539.1
523.843	26850.96
524.21	27146.09
524.577	27287.56
524.943	27427.44
525.31	27624.95
525.676	27853.19
526.043	28118.05
526.409	28144.49
526.776	28513.74
527.142	28625.83
527.508	28761.64
527.874	28892.04
528.241	29227.4
528.607	29244.12
528.973	29575.86
529.339	29640.27
529.705	30023.08
530.071	30219.46
530.437	30281.38
530.803	30505.33
531.169	30637.53
531.535	30657.19
531.901	30802.27
532.267	31066.44
532.632	31186.89
532.998	31358.41
533.364	31385.98
533.73	31569.93
534.095	31775.35
534.461	32034.55
534.826	32228.9
535.192	32377.14
535.557	32529
535.923	32413.07
536.288	32597.02
536.653	32853.97
537.019	32765.16
537.384	33117.91
537.749	33051.02
538.114	33123.56
538.479	33254.41
538.845	33487.85
539.21	33538.02
539.575	33848.74
539.94	33755.86
540.305	34017.55
540.67	33938.01
541.034	34208.96
541.399	34376.86
541.764	34338.22
542.129	34494.15
542.494	34524.66
542.858	34823.86
543.223	34819.11
543.587	35129.84
543.952	35056.39
544.316	35270.17
544.681	35207.58
545.045	35423.62
545.41	35566.21
545.774	35586.78
546.138	35771.63
546.503	35741.8
546.867	35891.17
547.231	36163.48
547.595	36262.01
547.959	36364.16
548.324	36488.45
548.688	36529.35
549.052	36699.74
549.416	36742.45
549.779	36884.14
550.143	36973.86
550.507	37205.26
550.871	37282.78
551.235	37306.5
551.599	37601.64
551.962	37595.54
552.326	37749.43
552.689	38033.27
553.053	37910.56
553.417	38063.55
553.78	38482.07
554.143	38333.82
554.507	38642.74
554.87	38676.19
555.234	39076.85
555.597	39067.81
555.96	39118.66
556.323	39283.85
556.686	39318.43
557.05	39573.34
557.413	39763.84
557.776	39823.05
558.139	40079.09
558.502	40185.07
558.865	40251.51
559.228	40600.88
559.59	40633.42
559.953	40850.37
560.316	41174.88
560.679	41160.41
561.041	41447.41
561.404	41541.42
561.767	41763.34
562.129	41727.41
562.492	42183.44
562.854	42206.94
563.217	42148.41
563.579	42451.45
563.941	42546.59
564.304	42843.99
564.666	43135.28
565.028	43097.09
565.39	43211.89
565.753	43393.8
566.115	43620.01
566.477	43814.36
566.839	43784.98
567.201	44010.28
567.563	44194.46
567.925	44315.13
568.287	44512.19
568.648	44631.96
569.01	44771.17
569.372	45194.66
569.734	44936.59
570.095	45082.35
570.457	45523.01
570.819	45486.85
571.18	45550.58
571.542	45710.8
571.903	45785.6
572.265	45937.24
572.626	46119.38
572.987	46236.89
573.349	46269.89
573.71	46369.32
574.071	46401.41
574.432	46575.41
574.794	46840.94
575.155	46730.66
575.516	46833.03
575.877	46871.9
576.238	47092.24
576.599	47158
576.96	47223.08
577.32	47217.66
577.681	47432.34
578.042	47367.94
578.403	47366.58
578.763	47464.66
579.124	47572
579.485	47577.2
579.845	47775.83
580.206	47729.06
580.566	47717.53
580.927	47658.55
581.287	47868.49
581.648	47753.24
582.008	47963.4
582.368	47854.48
582.728	48002.04
583.089	47946
583.449	47901.48
583.809	47988.03
584.169	48149.16
584.529	47931.31
584.889	48282.04
585.249	48022.83
585.609	47861.71
585.969	48082.04
586.329	47979.9
586.688	48091.08
587.048	48105.54
587.408	48018.99
587.768	47980.8
588.127	47999.33
588.487	48010.63
588.846	48147.12
589.206	48063.06
589.565	48017.18
589.925	48194.13
590.284	48059.67
590.643	48155.26
591.003	48185.09
591.362	48316.38
591.721	48305.99
592.08	48314.8
592.44	48497.62
592.799	48471.64
593.158	48311.19
593.517	48389.6
593.876	48298.08
594.235	48316.38
594.593	48365.42
594.952	48428.92
595.311	48185.99
595.67	48385.99
596.029	48630.05
596.387	48628.92
596.746	48651.29
597.104	48553.21
597.463	48568.36
597.822	48664.4
598.18	48559.77
598.538	48457.17
598.897	48677.96
599.255	48389.15
599.613	48970.15
599.972	48742.14
600.33	48826.2
600.688	48679.54
601.046	48775.58
601.404	48935.58
601.762	48827.11
602.12	49018.06
602.478	49023.48
602.836	49016.71
603.194	48901.91
603.552	48885.64
603.91	48833.43
604.268	49075.69
604.625	49060.77
604.983	49179.64
605.341	49008.8
605.698	49244.72
606.056	49214.21
606.413	49139.87
606.771	49389.8
607.128	49449.69
607.485	49253.76
607.843	49247.89
608.2	49533.08
608.557	49450.37
608.914	49400.2
609.272	49611.27
609.629	49603.81
609.986	49705.05
610.343	49540.53
610.7	49909.79
611.057	49749.57
611.414	49691.72
611.771	49692.85
612.127	49934.65
612.484	49856.01
612.841	49872.95
613.198	49782.56
613.554	49902.78
613.911	50241.53
614.267	50053.29
614.624	50007.64
614.98	50133.74
615.337	50285.15
615.693	50279.72
616.05	50148.43
616.406	50355.2
616.762	50084.93
617.118	50251.7
617.475	50252.38
617.831	50440.4
618.187	50437.23
618.543	50502.54
618.899	50627.06
619.255	50576.44
619.611	50571.24
619.967	50712.93
620.323	50728.3
620.678	50535.31
621.034	50507.74
621.39	50578.7
621.746	50510.45
622.101	50818.01
622.457	50593.39
622.812	50644.23
623.168	50772.82
623.523	50791.8
623.879	50829.54
624.234	50645.36
624.589	50746.15
624.945	50741.41
625.3	50692.59
625.655	50687.17
626.01	50805.59
626.365	50660.05
626.72	50729.43
627.075	50628.19
627.43	50704.12
627.785	50563.11
628.14	50672.48
628.495	50683.55
628.85	50669.77
629.205	50522.88
629.559	50638.58
629.914	50511.81
630.269	50593.16
630.623	50441.98
630.978	50337.12
631.332	50507.97
631.687	50558.59
632.041	50307.29
632.396	50509.32
632.75	50314.07
633.104	50228.43
633.459	50121.76
633.813	50217.8
634.167	50146.85
634.521	50127.18
634.875	50224.36
635.229	50138.48
635.583	49976.91
635.937	49982.78
636.291	49940.07
636.645	49958.38
636.999	49697.59
637.352	49867.76
637.706	49628.21
638.06	49822.11
638.413	49664.6
638.767	49689.23
639.121	49702.34
639.474	49529.01
639.828	49340.09
640.181	49399.29
640.534	49453.08
640.888	49326.3
641.241	49204.27
641.594	49309.35
641.947	49338.05
642.301	49250.6
642.654	49251.73
643.007	49255.34
643.36	49143.71
643.713	49150.04
644.066	49255.12
644.419	49021.9
644.771	48849.25
645.124	48538.75
645.477	48431.41
645.83	48081.14
646.182	47785.1
646.535	47774.48
646.888	47765.44
647.24	47429.63
647.593	47796.85
647.945	47668.04
648.298	47383.08
648.65	47397.31
649.002	47287.94
649.355	47428.27
649.707	47301.27
650.059	47438.44
650.411	48147.12
650.763	48079.56
651.115	48358.64
651.467	48155.49
651.819	48210.85
652.171	48099.22
652.523	47980.35
652.875	47995.94
653.227	47781.03
653.578	48170.17
653.93	48068.93
654.282	47805.44
654.633	47780.13
654.985	47801.82
655.337	47853.8
655.688	47833.01
656.039	47867.13
656.391	47674.14
656.742	47612.22
657.094	47602.28
657.445	47631.88
657.796	47553.02
658.147	47567.7
658.498	47526.8
658.849	47568.38
659.2	47548.27
659.551	47297.88
659.902	47543.07
660.253	47447.93
660.604	47476.86
660.955	47354.6
661.306	47371.78
661.656	47337.2
662.007	47300.82
662.358	47301.27
662.708	47281.84
663.059	47280.93
663.409	46870.1
663.76	47258.56
664.11	47403.64
664.461	47267.15
664.811	47178.34
665.161	47148.28
665.511	46999.81
665.862	47006.81
666.212	47207.49
666.562	47125.46
666.912	47012.92
667.262	47150.54
667.612	47002.52
667.962	47071.22
668.312	47005.23
668.662	47195.51
669.011	47096.76
669.361	46908.51
669.711	46936.08
670.06	47008.4
670.41	46727.5
670.76	46650.44
671.109	46943.77
671.459	46861.28
671.808	46818.8
672.157	46778.57
672.507	46559.82
672.856	46561.85
673.205	46597.33
673.554	46578.35
673.904	46563.66
674.253	46754.84
674.602	46686.82
674.951	46112.6
675.3	45843.68
675.649	46375.19
675.998	46449.09
676.346	46344.46
676.695	46436.89
677.044	46217.46
677.393	46276.21
677.741	46322.54
678.09	46228.53
678.438	46132.04
678.787	46217.46
679.135	46161.41
679.484	45780.63
679.832	46040.06
680.181	45718.04
680.529	45794.64
680.877	45873.96
681.225	45739.73
681.573	46058.82
681.922	45659.51
682.27	45592.39
682.618	45577.02
682.966	45549.9
683.314	45597.59
683.661	45320.08
684.009	45201.44
684.357	45095
684.705	45088.22
685.053	44939.75
685.4	45132.74
685.748	44829.24
686.095	44696.59
686.443	44677.84
686.79	44677.38
687.138	44808.91
687.485	44798.06
687.832	44464.73
688.18	44581.34
688.527	44384.96
688.874	44327.34
689.221	44166.66
689.568	43925.77
689.915	43931.87
690.262	43912.88
690.609	43731.42
690.956	43707.01
691.303	43676.73
691.65	43414.82
691.997	43427.47
692.344	43187.48
692.69	43212.34
693.037	43065.22
693.383	42721.96
693.73	42913.14
694.077	42748.85
694.423	42698.45
694.769	42466.37
695.116	42602.64
695.462	42573.94
695.808	42310.44
696.155	42341.85
696.501	42064.8
696.847	42065.02
697.193	41840.62
697.539	41957.68
697.885	41646.05
698.231	41513.85
698.577	41523.57
698.923	41520.41
699.269	41244.71
699.614	40968.56
699.96	40985.28
700.306	40946.64
700.651	40837.03
700.997	40712.52
701.342	40697.15
701.688	40607.21
702.033	40479.3
702.379	40530.6
702.724	40324.5
703.069	40423.49
703.415	40004.29
703.76	39884.06
704.105	39909.15
704.45	39808.13
704.795	39478.65
705.14	39337.19
705.485	39452.89
705.83	39285.21
706.175	39410.63
706.52	39231.88
706.865	39223.06
707.209	39072.33
707.554	38990.53
707.899	39002.51
708.243	38822.85
708.588	38641.84
708.932	38459.02
709.277	38511.67
709.621	38425.12
709.966	38268.06
710.31	38299.7
710.654	37855.87
710.998	38042.98
711.342	38108.07
711.687	37908.07
712.031	37840.73
712.375	37499.04
712.719	37637.12
713.063	37545.14
713.407	37639.15
713.75	37412.49
714.094	37271.25
714.438	37220.86
714.782	37232.61
715.125	36992.39
715.469	37120.75
715.812	36903.8
716.156	36769.8
716.499	36740.42
716.843	36818.16
717.186	36618.39
717.53	36739.97
717.873	36671.49
718.216	36544.27
718.559	36440.54
718.902	36223.6
719.246	36285.29
719.589	36133.88
719.932	36054.33
720.275	36011.85
720.617	35913.55
720.96	35872.42
721.303	35871.97
721.646	35772.53
721.989	35555.82
722.331	35742.7
722.674	35538.87
723.016	35506.1
723.359	35445.08
723.701	35465.88
724.044	35250.74
724.386	35114.7
724.729	35311.08
725.071	35113.57
725.413	35211.87
725.755	35002.38
726.097	34868.83
726.439	34607.37
726.782	34782.73
727.124	34910.86
727.465	34729.17
727.807	34654.82
728.149	34576.86
728.491	34474.71
728.833	34555.16
729.175	34317.21
729.516	34367.15
729.858	34270.2
730.199	34258.9
730.541	34205.12
730.882	34102.75
731.224	34224.78
731.565	33835.86
731.906	33944.79
732.248	34001.06
732.589	33825.69
732.93	33707.5
733.271	33698.01
733.612	33766.94
733.953	33707.73
734.294	33618.47
734.635	33443.1
734.976	33565.81
735.317	33455.31
735.658	33455.31
735.999	33308.42
736.339	33285.59
736.68	33290.11
737.021	33219.38
737.361	32915.89
737.702	33185.48
738.042	33066.84
738.383	33035.2
738.723	33001.76
739.063	32851.48
739.404	32903.68
739.744	32727.19
740.084	32556.57
740.424	32739.39
740.764	32641.54
741.104	32634.09
741.444	32439.51
741.784	32446.52
742.124	32476.58
742.464	32304.6
742.804	32176.24
743.143	32115.23
743.483	32092.4
743.823	32061.22
744.162	32066.19
744.502	31946.19
744.841	31848.12
745.181	31947.78
745.52	31743.04
745.86	31835.01
746.199	31729.48
746.538	31796.82
746.877	31654.68
747.216	31577.16
747.556	31475.47
747.895	31566.32
748.234	31301.01
748.573	31358.86
748.911	31289.71
749.25	31363.84
749.589	31106.67
749.928	31122.94
750.267	31068.02
750.605	31010.85
750.944	30999.1
751.283	30860.8
751.621	30909.61
751.96	30764.08
752.298	30724.76
752.636	30651.31
752.975	30387.14
753.313	30402.28
753.651	30445.22
753.989	30238.22
754.327	30173.59
754.666	30041.61
755.004	29984.21
755.342	30016.08
755.679	29974.27
756.017	29760.94
756.355	29952.57
756.693	29709.42
757.031	29849.98
757.368	29558.01
757.706	29613.37
758.044	29451.8
758.381	29487.5
758.719	29270.33
759.056	29358.69
759.394	29190.11
759.731	29014.75
760.068	29041.19
760.405	28997.57
760.743	28853.62
761.08	28851.59
761.417	28604.13
761.754	28693.85
762.091	28582.21
762.428	28436.23
762.765	28171.15
763.102	28398.72
763.438	28203.47
763.775	28053.19
764.112	28085.05
764.449	28080.08
764.785	27875.79
765.122	27698.4
765.458	27615.46
765.795	27647.1
766.131	27559.87
766.467	27437.39
766.804	27389.93
767.14	27155.59
767.476	27098.19
767.812	26901.81
768.148	27012.76
768.485	26840.57
768.821	26697.74
769.157	26735.26
769.492	26555.6
769.828	26535.94
770.164	26397.64
770.5	26212.11
770.836	26255.5
771.171	26096.4
771.507	25980.25
771.842	25806.69
772.178	25858.9
772.513	25888.27
772.849	25700.93
773.184	25542.29
773.519	25550.2
773.855	25355.18
774.19	25387.27
774.525	25193.6
774.86	25144.34
775.195	25079.93
775.53	24948.41
775.865	24806.04
776.2	24701.86
776.535	24463
776.87	24543.68
777.205	24543.9
777.539	24346.39
777.874	24362.66
778.209	24217.81
778.543	24094.87
778.878	23894.43
779.212	23983.92
779.547	23791.61
779.881	23783.92
780.215	23632.74
780.55	23800.19
780.884	23561.33
781.218	23508.9
781.552	23478.17
781.886	23410.37
782.22	23117.73
782.554	23133.77
782.888	22884.51
783.222	22856.94
783.556	22689.26
783.889	22844.06
784.223	22480
784.557	22521.13
784.89	22500.11
785.224	22366.11
785.557	22233.68
785.891	22258.99
786.224	22167.02
786.558	22041.6
786.891	21969.06
787.224	21861.26
787.557	21699.23
787.891	21733.13
788.224	21701.27
788.557	21739.91
788.89	21600.93
789.223	21503.98
789.556	21434.15
789.888	21365.68
790.221	21300.37
790.554	21068.74
790.887	21127.72
791.219	20995.3
791.552	20961.17
791.884	20915.52
792.217	20834.62
792.549	20759.6
792.882	20582.88
793.214	20449.77
793.546	20513.05
793.879	20317.57
794.211	20338.59
794.543	20254.07
794.875	20265.37
795.207	20247.07
795.539	20099.73
795.871	20117.8
796.203	19877.58
796.535	19837.81
796.867	19795.78
797.198	19743.8
797.53	19733.41
797.862	19508.78
798.193	19665.16
798.525	19549.68
798.856	19560.53
799.188	19310.37
799.519	19203.25
799.85	19156.02
800.182	19116.25
800.513	19059.98
800.844	18912.64
801.175	19007.33
801.506	19003.71
801.837	18946.31
802.168	18880.1
802.499	18724.62
802.83	18658.63
803.161	18498.64
803.491	18614.79
803.822	18561.91
804.153	18474.68
804.483	18350.62
804.814	18244.86
805.145	18314.46
805.475	18270.62
805.805	18165.99
806.136	18121.25
806.466	18144.07
806.796	18074.24
807.126	17926.68
807.457	17938.2
807.787	17902.27
808.117	17892.55
808.447	17796.51
808.777	17808.94
809.107	17756.51
809.436	17587.93
809.766	17638.55
810.096	17521.49
810.426	17470.64
810.755	17494.14
811.085	17482.85
811.414	17368.95
811.744	17285.11
812.073	17167.6
812.403	17243.53
812.732	17134.38
813.061	17138.22
813.39	16910.43
813.719	16983.42
814.049	17036.76
814.378	17040.15
814.707	16905.01
815.036	16869.75
815.365	16801.51
815.693	16628.4
816.022	16686.26
816.351	16534.62
816.68	16505.47
817.008	16606.48
817.337	16353.84
817.665	16375.3
817.994	16439.48
818.322	16377.56
818.651	16253.05
818.979	16284.01
819.307	16295.31
819.636	16177.34
819.964	16141.19
820.292	16173.05
820.62	16160.85
820.948	16160.39
821.276	16118.59
821.604	16083.56
821.932	16125.37
822.259	16155.65
822.587	16026.61
822.915	16045.14
823.243	16115.65
823.57	15973.05
823.898	16081.75
824.225	16004.69
824.553	15962.43
824.88	15938.48
825.207	15999.27
825.535	15998.36
825.862	16067.97
826.189	15911.81
826.516	15990
826.843	16019.61
827.17	15998.14
827.497	15956.33
827.824	16037.69
828.151	15992.94
828.478	16011.02
828.805	16035.65
829.131	15991.13
829.458	16025.26
829.785	15890.57
830.111	15968.08
830.438	16003.79
830.764	15927.86
831.09	15885.6
831.417	15760.63
831.743	15901.64
832.069	15919.5
832.395	15776.68
832.722	15892.6
833.048	15837.46
833.374	15852.38
833.7	15703.68
834.026	15820.06
834.351	15772.16
834.677	15725.38
835.003	15747.75
835.329	15697.81
835.654	15739.16
835.98	15662.1
836.306	15668.66
836.631	15623.23
836.956	15654.19
837.282	15672.27
837.607	15460.07
837.932	15537.36
838.258	15484.48
838.583	15395.67
838.908	15381.21
839.233	15467.08
839.558	15309.57
839.883	15331.04
840.208	15225.5
840.533	15232.28
840.858	15243.81
841.182	15198.39
841.507	15324.94
841.832	15105.51
842.156	15180.99
842.481	15072.29
842.805	15022.12
843.13	15036.13
843.454	14929.92
843.778	14965.62
844.103	14890.15
844.427	14844.72
844.751	14892.63
845.075	14764.5
845.399	14803.82
845.723	14613.99
846.047	14616.25
846.371	14506.88
846.695	14509.59
847.019	14418.07
847.343	14417.39
847.666	14277.96
847.99	14261.24
848.313	14082.26
848.637	14122.03
848.96	14124.29
849.284	14056.72
849.607	13995.93
849.931	13967.68
850.254	13842.49
850.577	13811.98
850.9	13679.56
851.223	13695.83
851.546	13690.63
851.869	13528.37
852.192	13648.82
852.515	13524.31
852.838	13428.04
853.161	13443.18
853.483	13341.03
853.806	13338.77
854.129	13276.63
854.451	13209.51
854.774	13137.42
855.096	13045
855.419	13084.09
855.741	13095.16
856.063	12966.35
856.385	12986.01
856.708	12913.93
857.03	12848.16
857.352	12880.03
857.674	12794.61
857.996	12831.89
858.318	12615.85
858.64	12688.62
858.961	12641.62
859.283	12585.35
859.605	12508.06
859.926	12586.25
860.248	12513.48
860.57	12417.89
860.891	12416.09
861.212	12371.79
861.534	12411.34
861.855	12347.84
862.176	12316.2
862.498	12287.28
862.819	12281.4
863.14	12275.3
863.461	12261.29
863.782	12187.17
864.103	12192.81
864.424	12091.57
864.745	12191.69
865.065	12119.82
865.386	12032.37
865.707	12062.2
866.027	12054.29
866.348	11945.59
866.668	11932.48
866.989	11885.48
867.309	11803.45
867.63	11915.31
867.95	11854.74
868.27	11723.22
868.59	11773.84
868.91	11842.77
869.23	11800.28
869.55	11633.73
869.87	11815.65
870.19	11729.55
870.51	11716.9
870.83	11655.43
871.15	11654.07
871.469	11571.81
871.789	11559.84
872.109	11580.85
872.428	11519.61
872.748	11566.84
873.067	11584.24
873.386	11549.44
873.706	11446.39
874.025	11482.33
874.344	11426.73
874.663	11441.42
874.982	11367.3
875.301	11340.41
875.62	11280.52
875.939	11254.99
876.258	11361.65
876.577	11240.75
876.896	11256.57
877.214	11252.73
877.533	11258.38
877.852	11254.08
878.17	11230.81
878.489	11243.91
878.807	11161.88
879.125	11155.33
879.444	11101.77
879.762	11078.72
880.08	11134.76
880.398	11124.14
880.716	11095.89
881.034	11042.56
881.352	11078.72
881.67	10970.47
881.988	11076.01
882.306	10955.56
882.624	10989
882.941	10843.7
883.259	10884.15
883.577	10810.93
883.894	10769.58
884.212	10788.78
884.529	10713.76
884.846	10709.92
885.164	10647.54
885.481	10713.31
885.798	10724.15
886.115	10652.74
886.432	10642.57
886.75	10584.95
887.067	10603.7
887.383	10639.86
887.7	10600.77
888.017	10514.89
888.334	10502.01
888.651	10461.34
888.967	10480.09
889.284	10383.6
889.6	10381.56
889.917	10284.39
890.233	10299.31
890.55	10240.55
890.866	10202.13
891.182	10187.67
891.498	10157.84
891.815	10088.24
892.131	10012.99
892.447	10062.02
892.763	10070.84
893.079	10029.26
893.395	10054.57
893.71	9987.45
894.026	9914.91
894.342	9821.58
894.657	9879.43
894.973	9794.69
895.289	9836.04
895.604	9785.65
895.92	9743.39
896.235	9680.11
896.55	9704.29
896.865	9685.08
897.181	9581.36
897.496	9597.85
897.811	9572.54
898.126	9524.18
898.441	9464.98
898.756	9471.3
899.071	9392.89
899.386	9301.82
899.7	9330.07
900.015	9328.48
900.33	9267.24
900.644	9249.62
900.959	9274.7
901.273	9171.88
901.588	9182.05
901.902	9098.89
902.216	9051.43
902.531	9065.67
902.845	9036.29
903.159	8975.05
903.473	8970.98
903.787	8904.54
904.101	8840.59
904.415	8847.37
904.729	8841.72
905.042	8760.59
905.356	8786.12
905.67	8730.08
905.984	8673.81
906.297	8657.31
906.611	8583.87
906.924	8590.2
907.237	8573.48
907.551	8510.43
907.864	8476.98
908.177	8453.48
908.491	8433.37
908.804	8348.62
909.117	8406.25
909.43	8253.03
909.743	8242.18
910.056	8273.14
910.368	8223.65
910.681	8182.07
910.994	8099.36
911.307	8136.42
911.619	8052.58
911.932	8061.17
912.244	7926.26
912.557	7974.39
912.869	7979.82
913.181	7975.75
913.494	7889.2
913.806	7886.26
914.118	7816.88
914.43	7736.43
914.742	7745.02
915.054	7698.92
915.366	7684.91
915.678	7680.62
915.99	7617.12
916.302	7577.57
916.613	7554.74
916.925	7472.49
917.236	7498.02
917.548	7468.19
917.859	7472.94
918.171	7369.66
918.482	7326.5
918.794	7310.23
919.105	7364.24
919.416	7207.86
919.727	7240.4
920.038	7274.53
920.349	7171.03
920.66	7166.28
920.971	7077.92
921.282	7069.11
921.593	7075.66
921.903	6933.97
922.214	6993.18
922.525	6956.79
922.835	6979.62
923.146	6942.33
923.456	6846.06
923.767	6808.32
924.077	6809.68
924.387	6818.04
924.697	6796.57
925.008	6758.61
925.318	6710.02
925.628	6663.24
925.938	6665.05
926.248	6563.58
926.558	6525.17
926.867	6545.05
927.177	6533.75
927.487	6503.7
927.796	6450.82
928.106	6421.67
928.416	6369.24
928.725	6409.01
929.034	6373.08
929.344	6296.7
929.653	6351.39
929.962	6285.63
930.271	6241.56
930.581	6211.73
930.89	6195.68
931.199	6142.13
931.508	6143.48
931.817	6145.74
932.125	6083.37
932.434	6091.51
932.743	6040.43
933.051	6038.63
933.36	5988.23
933.669	5990.04
933.977	5972.19
934.286	5927.67
934.594	5936.26
934.902	5844.28
935.21	5856.71
935.519	5806.54
935.827	5781.68
936.135	5738.75
936.443	5723.38
936.751	5710.73
937.059	5694.68
937.367	5621.46
937.674	5654.91
937.982	5611.52
938.29	5566.32
938.597	5557.06
938.905	5600.22
939.213	5513.44
939.52	5494.01
939.827	5492.65
940.135	5440.9
940.442	5448.13
940.749	5447.91
941.056	5411.75
941.363	5374.69
941.67	5361.13
941.977	5320.91
942.284	5258.99
942.591	5225.31
942.898	5218.31
943.205	5225.09
943.511	5194.81
943.818	5191.42
944.125	5130.85
944.431	5138.09
944.738	5075.49
945.044	5107.58
945.35	5011.08
945.657	5065.09
945.963	5031.65
946.269	4993
946.575	5015.38
946.881	4937.86
947.187	4973.12
947.493	4929.96
947.799	4926.11
948.105	4894.93
948.41	4845.44
948.716	4839.11
949.022	4807.02
949.327	4823.52
949.633	4765.44
949.938	4785.78
950.244	4783.74
950.549	4720.92
950.854	4687.93
951.16	4694.26
951.465	4676.18
951.77	4593.92
952.075	4676.4
952.38	4605.9
952.685	4598.21
952.99	4562.51
953.294	4519.12
953.599	4502.62
953.904	4507.82
954.209	4426.92
954.513	4439.12
954.818	4482.06
955.122	4418.78
955.426	4403.64
955.731	4380.14
956.035	4353.02
956.339	4330.65
956.643	4313.93
956.948	4288.16
957.252	4235.06
957.556	4311.44
957.86	4244.32
958.163	4283.64
958.467	4185.12
958.771	4160.03
959.075	4160.03
959.378	4145.12
959.682	4106.93
959.985	4118.68
960.289	4118.9
960.592	4064.44
960.896	4041.39
961.199	4024.89
961.502	4013.37
961.805	4026.93
962.108	4000.94
962.411	3976.08
962.714	3959.81
963.017	3983.77
963.32	3917.78
963.623	3932.69
963.926	3841.4
964.228	3836.88
964.531	3828.06
964.833	3827.84
965.136	3812.47
965.438	3825.13
965.741	3780.38
966.043	3771.34
966.345	3728.86
966.648	3776.31
966.95	3748.07
967.252	3713.26
967.554	3692.02
967.856	3614.74
968.158	3616.54
968.46	3659.48
968.761	3596.66
969.063	3621.29
969.365	3584.23
969.666	3563.21
969.968	3569.54
970.269	3512.59
970.571	3549.2
970.872	3505.36
971.174	3488.86
971.475	3539.26
971.776	3441.18
972.077	3494.29
972.378	3455.64
972.679	3463.78
972.98	3400.05
973.281	3402.76
973.582	3388.07
973.883	3379.04
974.183	3338.81
974.484	3318.25
974.785	3320.96
975.085	3310.11
975.386	3321.86
975.686	3285.48
975.986	3270.56
976.287	3281.64
976.587	3206.84
976.887	3211.81
977.187	3232.82
977.487	3187.18
977.787	3196.89
978.087	3142.43
978.387	3175.42
978.687	3175.42
978.987	3097.69
979.286	3068.76
979.586	3079.38
979.885	3079.61
980.185	3078.48
980.484	3050
980.784	3027.86
981.083	3045.94
981.382	3007.97
981.682	2969.55
981.981	2988.76
982.28	2966.84
982.579	2958.71
982.878	2952.61
983.177	2922.78
983.475	2940.85
983.774	2860.86
984.073	2915.32
984.372	2842.33
984.67	2868.09
984.969	2893.4
985.267	2824.02
985.566	2836
985.864	2791.25
986.162	2793.29
986.461	2820.18
986.759	2791.93
987.057	2738.83
987.355	2756.23
987.653	2730.69
987.951	2707.64
988.249	2730.24
988.547	2700.18
988.844	2681.88
989.142	2652.5
989.44	2661.54
989.737	2662.22
990.035	2636
990.332	2600.52
990.63	2603.46
990.927	2611.82
991.224	2616.8
991.521	2557.36
991.819	2571.37
992.116	2548.1
992.413	2508.78
992.71	2500.64
993.006	2513.3
993.303	2505.84
993.6	2498.15
993.897	2513.97
994.193	2494.99
994.49	2454.54
994.787	2476.91
995.083	2433.98
995.379	2431.04
995.676	2423.35
995.972	2362.56
996.268	2396.46
996.565	2379.29
996.861	2365.05
997.157	2356.92
997.453	2329.57
997.749	2336.13
998.044	2320.31
998.34	2303.36
998.636	2297.26
998.932	2281.21
999.227	2273.08
999.523	2253.42
999.818	2263.58
1000.114	2265.84
1000.409	2214.32
1000.704	2217.71
1001	2193.98
1001.295	2193.3
1001.59	2166.64
1001.885	2139.97
1002.18	2159.18
1002.475	2148.11
1002.77	2125.74
1003.065	2122.12
1003.359	2105.4
1003.654	2094.55
1003.949	2097.04
1004.243	2086.19
1004.538	2040.09
1004.832	2027.43
1005.127	2028.79
1005.421	1987.89
1005.715	1993.08
1006.009	1977.26
1006.304	1955.12
1006.598	1969.58
1006.892	1970.26
1007.186	1930.49
1007.48	1923.48
1007.773	1906.08
1008.067	1925.29
1008.361	1915.12
1008.655	1922.35
1008.948	1893.2
1009.242	1885.29
1009.535	1877.83
1009.829	1843.26
1010.122	1836.25
1010.415	1803.48
1010.708	1839.64
1011.001	1809.36
1011.295	1816.36
1011.588	1797.38
1011.881	1772.3
1012.173	1784.28
1012.466	1727.33
1012.759	1755.58
1013.052	1725.97
1013.344	1739.3
1013.637	1739.76
1013.93	1688.01
1014.222	1698.4
1014.514	1696.82
1014.807	1671.06
1015.099	1683.49
1015.391	1666.31
1015.683	1659.53
1015.976	1641.68
1016.268	1615.47
1016.56	1657.95
1016.851	1626.31
1017.143	1617.05
1017.435	1597.84
1017.727	1582.02
1018.018	1601
1018.31	1584.05
1018.602	1557.39
1018.893	1543.38
1019.185	1542.93
1019.476	1536.6
1019.767	1530.04
1020.058	1503.6
1020.35	1520.78
1020.641	1499.76
1020.932	1450.72
1021.223	1448.69
1021.514	1459.76
1021.804	1462.7
1022.095	1432.87
1022.386	1435.58
1022.677	1423.38
1022.967	1422.93
1023.258	1392.87
1023.548	1381.8
1023.839	1398.3
1024.129	1375.25
1024.419	1364.63
1024.709	1349.71
1025	1349.26
1025.29	1323.5
1025.58	1334.12
1025.87	1314.23
1026.16	1328.47
1026.449	1315.59
1026.739	1320.11
1027.029	1266.32
1027.319	1274.46
1027.608	1251.63
1027.898	1257.96
1028.187	1229.49
1028.477	1234.23
1028.766	1217.28
1029.055	1234.69
1029.344	1177.74
1029.634	1200.11
1029.923	1206.21
1030.212	1194.23
1030.501	1194.46
1030.79	1170.05
1031.078	1145.42
1031.367	1164.4
1031.656	1150.17
1031.945	1167.57
1032.233	1128.7
1032.522	1147
1032.81	1127.57
1033.099	1086.44
1033.387	1116.04
1033.675	1108.59
1033.963	1125.08
1034.251	1093.45
1034.54	1089.83
1034.828	1081.69
1035.116	1086.44
1035.403	1064.07
1035.691	1049.83
1035.979	1063.84
1036.267	1048.02
1036.554	1044.63
1036.842	1025.2
1037.129	1028.14
1037.417	1039.89
1037.704	1033.33
1037.992	989.72
1038.279	994.24
1038.566	973
1038.853	973
1039.14	973
