Data from breadboard_white_FLMS001491_00012.txt Node
Date: Wed Feb 08 10:47:20 GMT 2017
User: dcchb
Spectrometer: FLMS00149
Trigger mode: 0
Integration Time (sec): 2.000000E-2
Scans to average: 10
Electric dark correction enabled: true
Nonlinearity correction enabled: false
Boxcar width: 0
XAxis mode: Wavelengths
Number of Pixels in Spectrum: 2048
>>>>>Begin Spectral Data<<<<<
341.393	10.28
341.776	10.28
342.16	10.28
342.543	-64.74
342.927	-61.58
343.31	-78.53
343.693	-53.67
344.077	-81.01
344.46	-60.22
344.843	-69.94
345.226	-60.22
345.61	-19.32
345.993	-23.84
346.376	-7.57
346.759	19.32
347.142	31.52
347.525	57.06
347.908	59.77
348.291	82.37
348.674	97.74
349.057	106.55
349.44	141.8
349.823	130.96
350.206	166.21
350.588	201.24
350.971	257.96
351.354	243.5
351.737	266.55
352.119	285.3
352.502	287.79
352.884	309.26
353.267	296.83
353.65	342.02
354.032	332.76
354.414	323.49
354.797	339.99
355.179	360.33
355.562	332.31
355.944	347.9
356.326	360.33
356.709	372.98
357.091	354.68
357.473	376.6
357.855	365.3
358.238	371.18
358.62	370.05
359.002	368.46
359.384	357.39
359.766	368.69
360.148	364.4
360.53	372.53
360.912	375.47
361.294	367.56
361.676	368.01
362.057	364.62
362.439	391.74
362.821	377.28
363.203	379.76
363.584	376.37
363.966	374.34
364.348	365.75
364.729	346.54
365.111	373.21
365.493	352.42
365.874	337.05
366.256	356.04
366.637	349.03
367.019	358.52
367.4	355.13
367.781	356.26
368.163	351.06
368.544	369.59
368.925	365.3
369.306	362.36
369.688	365.98
370.069	381.35
370.45	364.62
370.831	355.81
371.212	368.46
371.593	382.48
371.974	375.92
372.355	359.43
372.736	384.51
373.117	372.31
373.498	375.24
373.879	343.61
374.26	363.27
374.641	397.62
375.021	375.7
375.402	379.76
375.783	381.35
376.163	403.04
376.544	394.68
376.925	387.22
377.305	377.73
377.686	401.68
378.066	398.97
378.447	405.53
378.827	398.52
379.208	410.5
379.588	427.22
379.968	413.21
380.349	424.06
380.729	411.18
381.109	428.12
381.489	417.05
381.87	429.71
382.25	443.04
382.63	430.16
383.01	437.16
383.39	440.1
383.77	459.31
384.15	427.45
384.53	441.23
384.91	441.91
385.29	456.82
385.67	466.32
386.049	444.85
386.429	484.39
386.809	465.19
387.189	476.71
387.568	467.45
387.948	479.87
388.328	473.77
388.707	497.05
389.087	497.73
389.466	507.44
389.846	508.57
390.225	527.78
390.605	527.78
390.984	505.64
391.363	523.49
391.743	542.47
392.122	548.8
392.501	544.28
392.881	560.55
393.26	577.27
393.639	572.08
394.018	569.14
394.397	608.91
394.776	580.21
395.155	585.86
395.534	603.03
395.913	633.77
396.292	625.63
396.671	629.25
397.05	642.36
397.429	631.51
397.808	680.32
398.186	666.76
398.565	689.36
398.944	690.49
399.323	666.76
399.701	695.69
400.08	709.7
400.458	732.75
400.837	713.09
401.215	756.48
401.594	741.56
401.972	761.22
402.351	776.82
402.729	791.28
403.107	789.92
403.486	841.45
403.864	809.81
404.242	833.09
404.62	851.84
404.999	870.82
405.377	883.03
405.755	872.63
406.133	915.12
406.511	922.35
406.889	947.21
407.267	979.07
407.645	982.46
408.023	969.81
408.401	1016.13
408.779	1047.09
409.156	1060.88
409.534	1061.78
409.912	1064.94
410.29	1109.24
410.667	1129.8
411.045	1151.95
411.422	1170.7
411.8	1193.98
412.178	1233.3
412.555	1247.54
412.933	1283.92
413.31	1293.41
413.687	1305.84
414.065	1324.6
414.442	1372.51
414.819	1366.63
415.197	1386.52
415.574	1432.84
415.951	1465.16
416.328	1474.65
416.705	1476.91
417.082	1484.14
417.46	1529.11
417.837	1545.16
418.214	1553.52
418.591	1592.61
418.967	1595.55
419.344	1637.13
419.721	1657.24
420.098	1664.48
420.475	1697.47
420.852	1696.57
421.228	1721.88
421.605	1777.02
421.982	1780.63
422.358	1790.12
422.735	1800.52
423.111	1832.83
423.488	1895.88
423.864	1874.87
424.241	1923.45
424.617	1930.23
424.994	1934.98
425.37	1983.11
425.746	2011.81
426.123	1991.25
426.499	2028.99
426.875	2080.96
427.251	2088.65
427.627	2160.28
428.003	2155.76
428.379	2211.58
428.756	2244.12
429.132	2283.67
429.507	2305.36
429.883	2335.19
430.259	2340.62
430.635	2370.45
431.011	2405.25
431.387	2474.17
431.763	2510.1
432.138	2505.36
432.514	2541.52
432.89	2610.89
433.265	2623.55
433.641	2675.97
434.016	2696.09
434.392	2792.81
434.767	2821.28
435.143	2809.76
435.518	2863.77
435.894	2888.17
436.269	2937.89
436.644	2950.32
437.02	3007.04
437.395	2955.74
437.77	3055.85
438.145	3089.3
438.52	3123.87
438.895	3172.23
439.271	3137.88
439.646	3269.18
440.021	3285.22
440.395	3317.09
440.77	3297.43
441.145	3333.58
441.52	3366.35
441.895	3414.26
442.27	3390.31
442.645	3457.2
443.019	3529.06
443.394	3495.16
443.769	3559.12
444.143	3511.66
444.518	3602.28
444.892	3564.31
445.267	3658.1
445.641	3650.64
446.016	3659.68
446.39	3694.25
446.764	3768.38
447.139	3757.3
447.513	3790.75
447.887	3814.25
448.262	3797.3
448.636	3831.88
449.01	3921.37
449.384	3941.03
449.758	3968.14
450.132	3995.94
450.506	4038.88
450.88	4102.38
451.254	4084.3
451.628	4155.71
452.002	4214.69
452.376	4217.4
452.75	4253.79
453.123	4291.98
453.497	4370.85
453.871	4424.18
454.244	4543.04
454.618	4522.71
454.992	4605.19
455.365	4595.92
455.739	4768.35
456.112	4790.04
456.486	4811.29
456.859	4859.87
457.232	5023.03
457.606	5009.92
457.979	5062.13
458.352	5175.34
458.725	5215.34
459.099	5293.76
459.472	5361.78
459.845	5398.84
460.218	5456.69
460.591	5508.22
460.964	5551.38
461.337	5665.73
461.71	5779.85
462.083	5831.15
462.456	5863.91
462.829	5883.57
463.201	6017.13
463.574	6059.84
463.947	6151.82
464.32	6292.15
464.692	6302.77
465.065	6366.05
465.438	6511.13
465.81	6536.89
466.183	6658.02
466.555	6769.88
466.928	6808.97
467.3	6813.49
467.672	6958.57
468.045	7179.36
468.417	7140.26
468.789	7159.47
469.161	7307.94
469.534	7390.2
469.906	7639.46
470.278	7673.36
470.65	7744.09
471.022	7920.36
471.394	8083.06
471.766	8104.76
472.138	8189.73
472.51	8390.85
472.882	8502.04
473.253	8602.6
473.625	8751.97
473.997	8989.93
474.369	8976.37
474.74	9119.87
475.112	9297.27
475.484	9465.85
475.855	9574.55
476.227	9611.61
476.598	9952.17
476.97	10041.88
477.341	10268.32
477.713	10423.12
478.084	10477.35
478.455	10745.14
478.827	10886.83
479.198	11160.5
479.569	11207.5
479.94	11605.46
480.311	11699.01
480.682	11892.91
481.053	12192.56
481.424	12355.49
481.795	12535.6
482.166	12693.56
482.537	12878.64
482.908	13216.26
483.279	13305.75
483.65	13591.85
484.021	13800.2
484.391	13940.09
484.762	14028.9
485.133	14293.3
485.503	14432.95
485.874	14820.29
486.244	14903.22
486.615	15143.44
486.985	15366.26
487.356	15569.42
487.726	15738.68
488.097	16141.38
488.467	16187.26
488.837	16573.69
489.207	16710.41
489.578	16905.88
489.948	17087.8
490.318	17354.23
490.688	17448.24
491.058	17675.35
491.428	18006.42
491.798	18161.67
492.168	18520.53
492.538	18625.16
492.908	18831.93
493.278	18993.74
493.648	19138.14
494.017	19322.77
494.387	19543.1
494.757	19705.13
495.126	19909.87
495.496	19942.87
495.866	20072.58
496.235	20382.18
496.605	20587.82
496.974	20687.03
497.344	20864.88
497.713	21021.26
498.082	21219.89
498.452	21355.03
498.821	21666.21
499.19	21619.21
499.559	21876.83
499.928	21949.37
500.298	22137.61
500.667	22380.32
501.036	22359.98
501.405	22565.17
501.774	22617.15
502.143	22858.95
502.512	23024.59
502.88	23300.29
503.249	23311.82
503.618	23482.43
503.987	23546.84
504.356	23677
504.724	23904.8
505.093	24016.2
505.462	24157.9
505.83	24334.61
506.199	24581.84
506.567	24785.45
506.936	24782.06
507.304	25126.68
507.672	25247.36
508.041	25399.67
508.409	25582.94
508.777	25854.12
509.145	25962.37
509.514	25996.49
509.882	26201.68
510.25	26303.83
510.618	26565.74
510.986	26668.79
511.354	26904.49
511.722	27040.08
512.09	27305.16
512.458	27340.64
512.826	27683.45
513.193	27844.8
513.561	27982.43
513.929	28207.51
514.297	28394.85
514.664	28652.92
515.032	28812.24
515.4	29051.55
515.767	29124.54
516.135	29432.56
516.502	29307.36
516.869	29775.6
517.237	29918.2
517.604	29908.25
517.972	30317.28
518.339	30517.28
518.706	30536.71
519.073	30820.09
519.44	31042.23
519.808	31421.66
520.175	31412.85
520.542	31701.2
520.909	32001.98
521.276	31931.7
521.643	32398.13
522.009	32661.85
522.376	32869.53
522.743	33099.81
523.11	33302.97
523.477	33740.47
523.843	33973.01
524.21	34315.59
524.577	34304.07
524.943	34676.26
525.31	34814.56
525.676	35071.73
526.043	35383.14
526.409	35596.47
526.776	35983.35
527.142	36168.2
527.508	36384.24
527.874	36412.04
528.241	36697.91
528.607	36810.22
528.973	37276.65
529.339	37180.38
529.705	37566.36
530.071	37799.57
530.437	38089.28
530.803	38258.09
531.169	38386.45
531.535	38496.5
531.901	38761.81
532.267	38876.83
532.632	39012.19
532.998	39225.52
533.364	39394.56
533.73	39565.63
534.095	39778.28
534.461	40111.37
534.826	40247.42
535.192	40287.64
535.557	40849.89
535.923	40639.5
536.288	40910.45
536.653	40963.1
537.019	41060.5
537.384	41332.81
537.749	41386.37
538.114	41548.63
538.479	41697.32
538.845	41837.66
539.21	41834.95
539.575	42032.23
539.94	42100.7
540.305	42402.39
540.67	42241.04
541.034	42560.58
541.399	42854.13
541.764	42884.86
542.129	42811.87
542.494	43134.57
542.858	43310.61
543.223	43373.66
543.587	43590.61
543.952	43608.01
544.316	43876.7
544.681	43753.54
545.045	43931.16
545.41	44255.22
545.774	44271.04
546.138	44430.81
546.503	44473.52
546.867	44545.38
547.231	44779.95
547.595	44811.82
547.959	44967.29
548.324	45076.89
548.688	45137.68
549.052	45346.27
549.416	45500.39
549.779	45527.96
550.143	45633.49
550.507	45986.7
550.871	45940.37
551.235	46075.51
551.599	46389.18
551.962	46582.62
552.326	46536.52
552.689	46774.02
553.053	46616.06
553.417	46740.13
553.78	47337.4
554.143	47104.86
554.507	47244.75
554.87	47437.28
555.234	47918.4
555.597	47670.27
555.96	47803.15
556.323	48112.97
556.686	48090.83
557.05	48470.25
557.413	48548.67
557.776	48573.3
558.139	48835.44
558.502	48950.46
558.865	49009.9
559.228	49368.98
559.59	49531.01
559.953	49566.95
560.316	49794.28
560.679	49845.58
561.041	50021.17
561.404	50241.96
561.767	50470.2
562.129	50251.9
562.492	50773.02
562.854	50764.2
563.217	50754.26
563.579	50956.97
563.941	51165.77
564.304	51351.08
564.666	51410.29
565.028	51529.83
565.39	51592.2
565.753	51804.85
566.115	51919.43
566.477	52053.66
566.839	52105.18
567.201	52325.52
567.563	52363.93
567.925	52609.35
568.287	52685.51
568.648	52603.7
569.01	52870.36
569.372	53026.97
569.734	52976.12
570.095	53164.36
570.457	53311.93
570.819	53336.56
571.18	53416.11
571.542	53477.8
571.903	53640.28
572.265	53757.34
572.626	53771.13
572.987	53850.9
573.349	53936.32
573.71	54045.47
574.071	54179.71
574.432	54203.66
574.794	54371.56
575.155	54310.1
575.516	54337.22
575.877	54378.34
576.238	54409.98
576.599	54691.1
576.96	54484.1
577.32	54618.34
577.681	54684.1
578.042	54823.53
578.403	54781.95
578.763	54891.33
579.124	54858.11
579.485	54915.51
579.845	55001.38
580.206	54935.39
580.566	55003.64
580.927	55004.09
581.287	55113.01
581.648	55053.35
582.008	55163.41
582.368	55088.83
582.728	55188.72
583.089	55159.34
583.449	55149.4
583.809	55228.72
584.169	55252.67
584.529	55093.58
584.889	55325.44
585.249	55191.66
585.609	55109.17
585.969	55236.85
586.329	55182.16
586.688	55191.43
587.048	55234.37
587.408	55209.51
587.768	55145.33
588.127	55233.69
588.487	55118.89
588.846	55297.87
589.206	55197.08
589.565	55185.33
589.925	55231.66
590.284	55125.9
590.643	55312.1
591.003	55399.56
591.362	55317.75
591.721	55304.42
592.08	55323.4
592.44	55355.95
592.799	55273.01
593.158	55256.74
593.517	55301.26
593.876	55309.17
594.235	55298.32
594.593	55363.4
594.952	55378.54
595.311	55269.17
595.67	55404.98
596.029	55479.33
596.387	55473
596.746	55534.92
597.104	55416.73
597.463	55420.8
597.822	55532.21
598.18	55426
598.538	55475.26
598.897	55652.89
599.255	55365.44
599.613	55755.71
599.972	55483.85
600.33	55727.91
600.688	55479.78
601.046	55545.32
601.404	55724.98
601.762	55681.59
602.12	55741.25
602.478	55812.43
602.836	55733.34
603.194	55698.54
603.552	55781.92
603.91	55660.8
604.268	55885.88
604.625	55716.61
604.983	55918.64
605.341	55683.17
605.698	55889.94
606.056	55919.09
606.413	55893.78
606.771	55950.51
607.128	56036.38
607.485	55908.7
607.843	55880.45
608.2	56066.21
608.557	56147.79
608.914	55983.95
609.272	56190.73
609.629	56213.32
609.986	56285.64
610.343	56093.1
610.7	56388.23
611.057	56290.61
611.414	56322.25
611.771	56324.96
612.127	56382.81
612.484	56395.92
612.841	56471.4
613.198	56315.92
613.554	56418.06
613.911	56581.9
614.267	56454
614.624	56467.1
614.98	56527.89
615.337	56663.71
615.693	56574.22
616.05	56541.68
616.406	56784.83
616.762	56586.42
617.118	56695.12
617.475	56645.63
617.831	56685.18
618.187	56757.26
618.543	56743.71
618.899	56921.33
619.255	56863.93
619.611	56744.16
619.967	56874.78
620.323	56922.68
620.678	56803.37
621.034	56729.24
621.39	56730.15
621.746	56787.77
622.101	56988.9
622.457	56677.94
622.812	56821.22
623.168	56937.6
623.523	56905.96
623.879	56911.16
624.234	56810.14
624.589	56870.26
624.945	56958.16
625.3	56991.38
625.655	56920.65
626.01	56922.46
626.365	56915.45
626.72	56928.79
627.075	56845.4
627.43	56848.56
627.785	56816.92
628.14	56834.1
628.495	56835.45
628.85	56822.8
629.205	56693.99
629.559	56842.46
629.914	56714.1
630.269	56658.51
630.623	56624.84
630.978	56595.69
631.332	56648.12
631.687	56697.61
632.041	56463.94
632.396	56576.93
632.75	56524.5
633.104	56489.25
633.459	56319.54
633.813	56318.86
634.167	56386.65
634.521	56349.14
634.875	56353.89
635.229	56374
635.583	56219.2
635.937	56243.83
636.291	56211.29
636.645	56127.68
636.999	56101.91
637.352	56274.34
637.706	55939.43
638.06	56118.86
638.413	56015.82
638.767	55907.12
639.121	56021.01
639.474	55797.74
639.828	55902.82
640.181	55894.69
640.534	55787.8
640.888	55754.81
641.241	55627.12
641.594	55720.91
641.947	55727.69
642.301	55653.79
642.654	55702.15
643.007	55618.31
643.36	55562.95
643.713	55547.58
644.066	55650.85
644.419	55479.33
644.771	55298.77
645.124	55041.83
645.477	54992.11
645.83	54837.54
646.182	54664.21
646.535	54489.08
646.888	54616.53
647.24	54357.1
647.593	54568.62
647.945	54404.56
648.298	54244.79
648.65	54224.22
649.002	54164.34
649.355	54304.9
649.707	54222.19
650.059	54331.57
650.411	54685.23
650.763	54761.84
651.115	55024.88
651.467	54938.1
651.819	54827.82
652.171	54737.88
652.523	54730.88
652.875	54689.3
653.227	54581.95
653.578	54763.87
653.93	54727.26
654.282	54586.93
654.633	54488.4
654.985	54556.42
655.337	54580.6
655.688	54546.25
656.039	54590.77
656.391	54388.97
656.742	54388.29
657.094	54406.59
657.445	54526.14
657.796	54406.59
658.147	54330.89
658.498	54325.24
658.849	54326.14
659.2	54311
659.551	54348.74
659.902	54413.82
660.253	54297.89
660.604	54409.53
660.955	54104.68
661.306	54162.53
661.656	54185.58
662.007	54179.25
662.358	54088.18
662.708	54120.5
663.059	54144.9
663.409	53945.59
663.76	54144
664.11	53956.43
664.461	54033.49
664.811	54006.38
665.161	53960.28
665.511	53925.47
665.862	53900.16
666.212	54048.41
666.562	53936.55
666.912	53903.1
667.262	53899.94
667.612	53809.55
667.962	53879.6
668.312	53824.23
668.662	53984.91
669.011	53947.17
669.361	53816.1
669.711	53803.22
670.06	53693.62
670.41	53667.18
670.76	53680.74
671.109	53805.25
671.459	53547.41
671.808	53611.58
672.157	53705.37
672.507	53450.46
672.856	53460.4
673.205	53495.43
673.554	53584.01
673.904	53341.31
674.253	53574.75
674.602	53508.31
674.951	52959.17
675.3	52893.86
675.649	53358.48
675.998	53364.13
676.346	53314.19
676.695	53384.47
677.044	53129.79
677.393	53253.18
677.741	53261.31
678.09	53138.6
678.438	53141.54
678.787	53165.95
679.135	53146.96
679.484	52989.68
679.832	53060.19
680.181	52801.89
680.529	52935.67
680.877	52765.28
681.225	52808.22
681.573	52976.8
681.922	52729.12
682.27	52704.72
682.618	52698.84
682.966	52608
683.314	52685.73
683.661	52563.48
684.009	52357.38
684.357	52315.12
684.705	52207.55
685.053	52291.85
685.4	52271.73
685.748	52135.69
686.095	52092.08
686.443	51928.01
686.79	51841.01
687.138	51880.56
687.485	51869.71
687.832	51724.85
688.18	51819.77
688.527	51501.13
688.874	51578.64
689.221	51493.22
689.568	51409.16
689.915	51249.61
690.262	51246.45
690.609	51164.64
690.956	51100.92
691.303	51072.67
691.65	50856.18
691.997	50820.7
692.344	50672.68
692.69	50652.11
693.037	50630.87
693.383	50311.78
693.73	50462.29
694.077	50175.97
694.423	50234.95
694.769	50057.78
695.116	50033.83
695.462	49942.08
695.808	49841.06
696.155	49934.17
696.501	49568.53
696.847	49610.11
697.193	49350.68
697.539	49552.48
697.885	49232.49
698.231	49025.49
698.577	49073.85
698.923	49099.39
699.269	48803.35
699.614	48688.78
699.96	48525.16
700.306	48563.81
700.651	48366.07
700.997	48290.82
701.342	48224.61
701.688	48096.48
702.033	48037.49
702.379	47918.63
702.724	47744.85
703.069	47850.83
703.415	47420.79
703.76	47471.86
704.105	47422.14
704.45	47393.9
704.795	47053.57
705.14	47039.33
705.485	47054.69
705.83	46843.63
706.175	46758.88
706.52	46680.47
706.865	46504.2
707.209	46499.46
707.554	46272.34
707.899	46384.66
708.243	46210.2
708.588	46115.51
708.932	45929.3
709.277	45813.6
709.621	45828.06
709.966	45611.34
710.31	45690.44
710.654	45384
710.998	45293.39
711.342	45451.8
711.687	45124.35
712.031	45014.07
712.375	44958.03
712.719	44928.42
713.063	44772.72
713.407	45026.73
713.75	44628.54
714.094	44692.05
714.438	44554.2
714.782	44523.91
715.125	44314.2
715.469	44288.21
715.812	44136.58
716.156	44035.34
716.499	44002.57
716.843	44136.81
717.186	43751.96
717.53	43913.53
717.873	43894.1
718.216	43822.24
718.559	43647.33
718.902	43397.62
719.246	43356.71
719.589	43316.71
719.932	43141.13
720.275	43135.25
720.617	43158.53
720.96	42856.16
721.303	42829.72
721.646	43016.84
721.989	42612.33
722.331	42786.33
722.674	42569.16
723.016	42718.99
723.359	42523.97
723.701	42484.19
724.044	42159.23
724.386	42000.36
724.729	42185.44
725.071	42175.05
725.413	42116.29
725.755	41962.85
726.097	41803.08
726.439	41575.07
726.782	41705.01
727.124	41903.64
727.465	41559.7
727.807	41582.52
728.149	41342.98
728.491	41335.98
728.833	41309.08
729.175	41136.66
729.516	41073.38
729.858	41081.74
730.199	41072.93
730.541	40985.02
730.882	40983.89
731.224	40968.3
731.565	40679.27
731.906	40587.07
732.248	40703.9
732.589	40499.61
732.93	40423.46
733.271	40371.03
733.612	40428.65
733.953	40384.59
734.294	40115.22
734.635	40063.69
734.976	40282.67
735.317	39883.58
735.658	39999.97
735.999	39871.38
736.339	39618.73
736.68	39802.46
737.021	39648.11
737.361	39479.98
737.702	39719.52
738.042	39503.26
738.383	39429.13
738.723	39430.04
739.063	39278.18
739.404	39373.77
739.744	39220.1
740.084	39186.43
740.424	39134.68
740.764	38831.18
741.104	39169.48
741.444	38778.08
741.784	38803.84
742.124	38881.8
742.464	38764.74
742.804	38729.49
743.143	38538.08
743.483	38515.03
743.823	38251.99
744.162	38437.29
744.502	38287.69
744.841	38090.18
745.181	38425.77
745.52	38109.85
745.86	38213.35
746.199	37953.92
746.538	37969.96
746.877	37999.57
747.216	37948.04
747.556	37784.66
747.895	37868.72
748.234	37656.52
748.573	37581.05
748.911	37471.44
749.25	37472.12
749.589	37233.94
749.928	37232.13
750.267	37346.48
750.605	37125.01
750.944	37054.96
751.283	36899.48
751.621	36925.02
751.96	36776.32
752.298	36750.56
752.636	36619.72
752.975	36548.76
753.313	36330.01
753.651	36516.44
753.989	36236.9
754.327	36215.43
754.666	36006.62
755.004	36132.27
755.342	36037.13
755.679	35955.1
756.017	35706.74
756.355	35664.94
756.693	35672.17
757.031	35720.53
757.368	35487.99
757.706	35227.44
758.044	35279.41
758.381	35197.61
758.719	35074.22
759.056	35008.01
759.394	34937.5
759.731	34849.82
760.068	34691.63
760.405	34614.34
760.743	34503.16
761.08	34553.33
761.417	34260.68
761.754	34283.96
762.091	34053.68
762.428	33930.07
762.765	33726.23
763.102	33936.62
763.438	33736.18
763.775	33583.86
764.112	33619.79
764.449	33446.01
764.785	33218.67
765.122	33020.04
765.458	33012.35
765.795	32880.6
766.131	32930.09
766.467	32737.33
766.804	32757.22
767.14	32473.38
767.476	32347.96
767.812	32234.97
768.148	32341.18
768.485	32105.71
768.821	31939.61
769.157	31914.53
769.492	31874.53
769.828	31679.28
770.164	31438.61
770.5	31392.51
770.836	31502.34
771.171	31139.41
771.507	31092.4
771.842	30816.25
772.178	30987.55
772.513	30738.51
772.849	30684.05
773.184	30690.15
773.519	30601.12
773.855	30296.27
774.19	30258.07
774.525	30137.17
774.86	30082.49
775.195	30126.78
775.53	29950.96
775.865	29719.78
776.2	29507.59
776.535	29383.52
776.87	29423.52
777.205	29224.43
777.539	28999.35
777.874	29109.86
778.209	28820.15
778.543	28649.53
778.878	28608.4
779.212	28536.54
779.547	28530.21
779.881	28547.84
780.215	28375.41
780.55	28263.1
780.884	28148.3
781.218	27995.54
781.552	27911.02
781.886	27815.88
782.22	27719.38
782.554	27605.26
782.888	27429.67
783.222	27377.47
783.556	27177.93
783.889	27203.47
784.223	26980.65
784.557	26889.8
784.89	26845.73
785.224	26782.46
785.557	26634.89
785.891	26569.13
786.224	26511.51
786.558	26365.52
786.891	26224.73
787.224	26154.23
787.557	26153.55
787.891	26027.23
788.224	25994.68
788.557	25727.8
788.89	25751.53
789.223	25702.94
789.556	25451.87
789.888	25370.75
790.221	25320.58
790.554	25138.89
790.887	25156.06
791.219	25107.25
791.552	24944.32
791.884	24864.54
792.217	24757.43
792.549	24829.74
792.882	24515.4
793.214	24385.23
793.546	24538.22
793.879	24366.7
794.211	24196.76
794.543	24252.58
794.875	24149.76
795.207	24234.28
795.539	23942.31
795.871	23931.46
796.203	23737.12
796.535	23646.95
796.867	23579.61
797.198	23524.47
797.53	23546.39
797.862	23315.21
798.193	23326.73
798.525	23238.15
798.856	23265.94
799.188	22880.19
799.519	22820.98
799.85	22773.3
800.182	22758.38
800.513	22748.44
800.844	22585.06
801.175	22698.5
801.506	22566.07
801.837	22496.02
802.168	22528.56
802.499	22380.32
802.83	22249.47
803.161	22118.18
803.491	22154.33
803.822	22139.64
804.153	21994.56
804.483	21789.82
804.814	21729.71
805.145	21787.79
805.475	21721.12
805.805	21602.03
806.136	21649.49
806.466	21611.07
806.796	21514.35
807.126	21333.56
807.457	21373.11
807.787	21261.93
808.117	21192.78
808.447	21141.25
808.777	21200.46
809.107	20976.51
809.436	20922.73
809.766	20908.26
810.096	20796.85
810.426	20740.13
810.755	20750.98
811.085	20716.63
811.414	20598.44
811.744	20547.82
812.073	20500.14
812.403	20429.86
812.732	20412.91
813.061	20397.32
813.39	20268.28
813.719	20162.29
814.049	20193.71
814.378	20113.71
814.707	20152.8
815.036	20061.05
815.365	19976.54
815.693	19719.59
816.022	19782.42
816.351	19808.86
816.68	19567.06
817.008	19701.29
817.337	19503.78
817.665	19498.13
817.994	19464.69
818.322	19506.94
818.651	19428.3
818.979	19267.85
819.307	19322.32
819.636	19273.96
819.964	19200.51
820.292	19150.8
820.62	19252.49
820.948	19116.45
821.276	19234.86
821.604	19123.45
821.932	19173.62
822.259	19054.08
822.587	19160.74
822.915	19077.58
823.243	19120.06
823.57	18951.25
823.898	19079.39
824.225	18946.06
824.553	19076
824.88	19045.49
825.207	19067.18
825.535	18970.69
825.862	18982.21
826.189	18934.76
826.516	19044.13
826.843	19048.2
827.17	19114.41
827.497	18969.56
827.824	19111.47
828.151	19000.52
828.478	18973.4
828.805	19050.91
829.131	19004.36
829.458	18891.59
829.785	18857.92
830.111	18951.03
830.438	18906.96
830.764	18861.99
831.09	18936.34
831.417	18776.79
831.743	18810.24
832.069	18919.62
832.395	18717.13
832.722	18859.96
833.048	18812.05
833.374	18782.67
833.7	18619.28
834.026	18779.51
834.351	18755.78
834.677	18713.07
835.003	18765.95
835.329	18833.74
835.654	18591.26
835.98	18638.49
836.306	18683.01
836.631	18493.86
836.956	18639.4
837.282	18502
837.607	18358.73
837.932	18479.85
838.258	18503.58
838.583	18353.75
838.908	18282.12
839.233	18331.61
839.558	18176.58
839.883	18237.15
840.208	18186.08
840.533	18085.29
840.858	18172.74
841.182	18082.12
841.507	17944.95
841.832	17916.03
842.156	17937.04
842.481	17948.12
842.805	17908.79
843.13	17899.98
843.454	17778.63
843.778	17708.57
844.103	17642.36
844.427	17623.6
844.751	17711.51
845.075	17592.64
845.399	17548.13
845.723	17398.3
846.047	17453.67
846.371	17277.4
846.695	17281.69
847.019	17176.61
847.343	17081.47
847.666	16965.77
847.99	16911.31
848.313	16884.87
848.637	16847.13
848.96	16751.08
849.284	16771.88
849.607	16558.55
849.931	16411.21
850.254	16403.07
850.577	16382.28
850.9	16170.76
851.223	16163.98
851.546	16052.8
851.869	16000.6
852.192	16140.93
852.515	16000.37
852.838	15867.04
853.161	15831.11
853.483	15720.6
853.806	15659.14
854.129	15593.15
854.451	15565.35
854.774	15499.14
855.096	15489.65
855.419	15417.33
855.741	15398.58
856.063	15365.13
856.385	15256.89
856.708	15241.29
857.03	15148.42
857.352	15168.3
857.674	15213.05
857.996	15021.86
858.318	15012.83
858.64	15014.63
858.961	15013.96
859.283	14982.09
859.605	14794.98
859.926	14801.98
860.248	14896.44
860.57	14731.7
860.891	14733.96
861.212	14688.54
861.534	14663.23
861.855	14547.3
862.176	14611.03
862.498	14547.08
862.819	14509.11
863.14	14420.52
863.461	14400.86
863.782	14376.91
864.103	14339.17
864.424	14292.39
864.745	14303.92
865.065	14276.12
865.386	14183.92
865.707	14282.9
866.027	14176.92
866.348	14139.18
866.668	14239.51
866.989	14068.22
867.309	13922.91
867.63	13985.51
867.95	14024.6
868.27	14032.06
868.59	13962.68
868.91	13923.59
869.23	13843.82
869.55	13814.67
869.87	13837.49
870.19	13800.88
870.51	13804.95
870.83	13749.36
871.15	13686.31
871.469	13670.04
871.789	13634.56
872.109	13610.6
872.428	13595.01
872.748	13662.58
873.067	13577.16
873.386	13571.06
873.706	13553.88
874.025	13363.83
874.344	13437.05
874.663	13444.96
874.982	13419.42
875.301	13391.4
875.62	13346.2
875.939	13282.48
876.258	13355.69
876.577	13279.31
876.896	13323.15
877.214	13226.21
877.533	13214.23
877.852	13251.06
878.17	13226.43
878.489	13205.19
878.807	13138.52
879.125	13105.31
879.444	13104.18
879.762	13006.55
880.08	13049.94
880.398	13035.48
880.716	13035.7
881.034	12978.08
881.352	13000.45
881.67	12903.95
881.988	12888.59
882.306	12838.42
882.624	12910.96
882.941	12854.69
883.259	12769.27
883.577	12734.47
883.894	12721.81
884.212	12691.3
884.529	12658.09
884.846	12584.64
885.164	12651.08
885.481	12569.95
885.798	12541.03
886.115	12523.4
886.432	12445.89
886.75	12496.73
887.067	12455.38
887.383	12377.87
887.7	12337.42
888.017	12299.22
888.334	12277.3
888.651	12253.35
888.967	12239.11
889.284	12157.08
889.6	12158.44
889.917	12109.85
890.233	12132.45
890.55	12068.5
890.866	12105.33
891.182	11944.66
891.498	11960.7
891.815	11935.62
892.131	11847.26
892.447	11815.17
892.763	11838.9
893.079	11849.74
893.395	11713.7
893.71	11735.62
894.026	11613.37
894.342	11695.17
894.657	11543.76
894.973	11517.1
895.289	11592.58
895.604	11536.76
895.92	11389.87
896.235	11357.33
896.55	11355.52
896.865	11355.07
897.181	11298.35
897.496	11363.66
897.811	11204.11
898.126	11204.79
898.441	11133.83
898.756	11057.45
899.071	11091.8
899.386	11082.53
899.7	10959.15
900.015	10960.28
900.33	10824.69
900.644	10794.41
900.959	10846.61
901.273	10811.35
901.588	10741.07
901.902	10654.52
902.216	10627.86
902.531	10589.21
902.845	10583.79
903.159	10500.63
903.473	10517.12
903.787	10401.42
904.101	10363.68
904.415	10292.95
904.729	10274.87
905.042	10338.6
905.356	10259.73
905.67	10255.66
905.984	10200.75
906.297	10161.65
906.611	10018.38
906.924	10033.52
907.237	10039.17
907.551	9943.81
907.864	9946.07
908.177	9853.87
908.491	9892.96
908.804	9812.51
909.117	9749.69
909.43	9680.99
909.743	9622.01
910.056	9635.11
910.368	9634.66
910.681	9560.09
910.994	9551.73
911.307	9476.7
911.619	9367.32
911.932	9411.84
912.244	9349.92
912.557	9349.92
912.869	9260.21
913.181	9223.6
913.494	9224.96
913.806	9121.91
914.118	9160.78
914.43	9124.17
914.742	9003.27
915.054	9079.42
915.366	9005.07
915.678	8934.57
915.99	8899.77
916.302	8820.9
916.613	8823.84
916.925	8785.42
917.236	8747
917.548	8718.3
917.859	8715.82
918.171	8629.49
918.482	8603.28
918.794	8530.96
919.105	8609.15
919.416	8419.78
919.727	8474.92
920.038	8379.1
920.349	8362.38
920.66	8293
920.971	8326.9
921.282	8306.11
921.593	8184.3
921.903	8189.05
922.214	8149.05
922.525	8114.02
922.835	8130.52
923.146	8014.37
923.456	8040.35
923.767	7982.5
924.077	7940.7
924.387	7932.56
924.697	7839.23
925.008	7842.84
925.318	7772.11
925.628	7755.16
925.938	7798.55
926.248	7660.7
926.558	7677.88
926.867	7586.13
927.177	7624.09
927.487	7577.31
927.796	7473.81
928.106	7450.31
928.416	7456.64
928.725	7384.1
929.034	7420.03
929.344	7406.47
929.653	7396.98
929.962	7300.94
930.271	7308.17
930.581	7212.13
930.89	7180.72
931.199	7158.34
931.508	7126.03
931.817	7099.14
932.125	7058.23
932.434	7069.98
932.743	6993.6
933.051	6955.41
933.36	6988.18
933.669	6887.39
933.977	6918.12
934.286	6859.14
934.594	6879.03
934.902	6833.38
935.21	6742.31
935.519	6677.9
935.827	6740.05
936.135	6723.78
936.443	6660.73
936.751	6572.6
937.059	6579.38
937.367	6603.1
937.674	6540.28
937.982	6508.42
938.29	6472.71
938.597	6430.23
938.905	6383.67
939.213	6377.12
939.52	6397.68
939.827	6399.49
940.135	6355.88
940.442	6275.88
940.749	6245.37
941.056	6235.88
941.363	6178.48
941.67	6168.09
941.977	6164.02
942.284	6092.83
942.591	6139.61
942.898	6078.82
943.205	6015.1
943.511	5982.33
943.818	5988.2
944.125	5980.52
944.431	5892.84
944.738	5911.14
945.044	5872.5
945.35	5812.39
945.657	5823.91
945.963	5797.47
946.269	5752.5
946.575	5782.33
946.881	5707.31
947.187	5709.79
947.493	5671.6
947.799	5692.62
948.105	5635.67
948.41	5606.97
948.716	5570.36
949.022	5609.01
949.327	5532.85
949.633	5486.07
949.938	5506.18
950.244	5489.91
950.549	5477.94
950.854	5436.81
951.16	5379.63
951.465	5353.19
951.77	5355.23
952.075	5283.36
952.38	5290.6
952.685	5273.42
952.99	5246.98
953.294	5216.92
953.599	5221.67
953.904	5167.89
954.209	5162.69
954.513	5156.14
954.818	5108.45
955.122	5068.23
955.426	5042.24
955.731	5050.15
956.035	4990.49
956.339	4950.04
956.643	4947.78
956.948	4924.5
957.252	4914.11
957.556	4917.05
957.86	4827.33
958.163	4855.35
958.467	4813.09
958.771	4785.3
959.075	4769.25
959.378	4760.89
959.682	4776.48
959.985	4726.09
960.289	4663.95
960.592	4655.13
960.896	4629.82
961.199	4601.8
961.502	4591.63
961.805	4533.55
962.108	4598.64
962.411	4547.11
962.714	4526.32
963.017	4510.05
963.32	4527.9
963.623	4542.59
963.926	4484.97
964.228	4428.7
964.531	4388.47
964.833	4384.86
965.136	4326.1
965.438	4399.32
965.741	4308.25
966.043	4335.37
966.345	4317.74
966.648	4249.04
966.95	4287.01
967.252	4242.71
967.554	4256.5
967.856	4207.46
968.158	4167.69
968.46	4148.48
968.761	4101.47
969.063	4140.12
969.365	4081.14
969.666	4087.92
969.968	4081.81
970.269	4023.74
970.571	4029.84
970.872	3987.35
971.174	3957.75
971.475	3989.16
971.776	3984.42
972.077	3949.61
972.378	3934.47
972.679	3928.15
972.98	3900.58
973.281	3851.99
973.582	3839.33
973.883	3841.14
974.183	3813.8
974.484	3797.3
974.785	3776.06
975.085	3803.18
975.386	3796.17
975.686	3758.88
975.986	3712.33
976.287	3685.21
976.587	3643.18
976.887	3642.73
977.187	3649.73
977.487	3624.2
977.787	3601.15
978.087	3562.28
978.387	3594.59
978.687	3563.64
978.987	3557.31
979.286	3540.81
979.586	3529.06
979.885	3515.5
980.185	3518.66
980.484	3461.72
980.784	3440.93
981.083	3436.63
981.382	3413.58
981.682	3411.55
981.981	3388.95
982.28	3348.05
982.579	3356.63
982.878	3369.97
983.177	3341.27
983.475	3296.07
983.774	3316.64
984.073	3269.41
984.372	3244.1
984.67	3315.28
984.969	3265.56
985.267	3245.45
985.566	3215.62
985.864	3180.37
986.162	3169.3
986.461	3160.71
986.759	3156.87
987.057	3119.35
987.355	3141.5
987.653	3124.55
987.951	3057.66
988.249	3115.74
988.547	3051.33
988.844	3064.67
989.142	3055.85
989.44	3005.91
989.737	2998.23
990.035	3007.27
990.332	2989.64
990.63	2981.05
990.927	2957.1
991.224	2949.41
991.521	2929.75
991.819	2916.87
992.116	2920.26
992.413	2890.88
992.71	2875.97
993.006	2864.67
993.303	2857.66
993.6	2846.14
993.897	2819.02
994.193	2798.68
994.49	2795.97
994.787	2757.33
995.083	2807.04
995.379	2730.44
995.676	2749.42
995.972	2673.04
996.268	2709.87
996.565	2711
996.861	2677.78
997.157	2621.74
997.453	2632.13
997.749	2624.9
998.044	2606.15
998.34	2594.62
998.636	2559.59
998.932	2538.13
999.227	2555.53
999.523	2497.45
999.818	2527.05
1000.114	2533.61
1000.409	2509.2
1000.704	2508.07
1001	2496.09
1001.295	2451.12
1001.59	2445.7
1001.885	2429.2
1002.18	2466.49
1002.475	2393.27
1002.77	2402.76
1003.065	2369.54
1003.359	2365.25
1003.654	2346.04
1003.949	2335.87
1004.243	2336.1
1004.538	2320.05
1004.832	2324.8
1005.127	2314.18
1005.421	2275.76
1005.715	2262.65
1006.009	2251.35
1006.304	2230.11
1006.598	2208.87
1006.892	2245.7
1007.186	2193.28
1007.48	2197.8
1007.773	2179.49
1008.067	2164.35
1008.361	2131.81
1008.655	2131.81
1008.948	2133.16
1009.242	2128.87
1009.535	2099.04
1009.829	2089.78
1010.122	2056.1
1010.415	2049.32
1010.708	2044.35
1011.001	2018.59
1011.295	2018.59
1011.588	2027.63
1011.881	1990.8
1012.173	1998.7
1012.466	1986.28
1012.759	1975.43
1013.052	1956.45
1013.344	1939.5
1013.637	1915.99
1013.93	1886.17
1014.222	1915.54
1014.514	1887.75
1014.807	1895.88
1015.099	1853.62
1015.391	1874.19
1015.683	1863.57
1015.976	1851.36
1016.268	1799.61
1016.56	1822.21
1016.851	1809.56
1017.143	1802.55
1017.435	1751.25
1017.727	1770.69
1018.018	1715.1
1018.31	1755.55
1018.602	1728.2
1018.893	1735.21
1019.185	1715.55
1019.476	1718.03
1019.767	1697.24
1020.058	1677.81
1020.35	1717.58
1020.641	1631.03
1020.932	1639.84
1021.223	1625.38
1021.514	1626.06
1021.804	1596.68
1022.095	1570.69
1022.386	1570.02
1022.677	1610.69
1022.967	1584.7
1023.258	1562.11
1023.548	1553.52
1023.839	1535.21
1024.129	1530.69
1024.419	1512.39
1024.709	1510.58
1025	1474.65
1025.29	1500.64
1025.58	1478.49
1025.87	1457.25
1026.16	1444.82
1026.449	1459.51
1026.739	1414.09
1027.029	1462.22
1027.319	1431.26
1027.608	1371.6
1027.898	1415.44
1028.187	1402.56
1028.477	1377.93
1028.766	1370.25
1029.055	1368.89
1029.344	1342.68
1029.634	1358.72
1029.923	1355.56
1030.212	1318.04
1030.501	1309.01
1030.79	1294.77
1031.078	1297.71
1031.367	1291.15
1031.656	1269.91
1031.945	1269.01
1032.233	1279.63
1032.522	1234.43
1032.81	1244.6
1033.099	1219.52
1033.387	1219.06
1033.675	1215.9
1033.963	1228.33
1034.251	1205.96
1034.54	1183.81
1034.828	1173.19
1035.116	1183.13
1035.403	1180.65
1035.691	1166.86
1035.979	1156.69
1036.267	1158.5
1036.554	1122.34
1036.842	1142.46
1037.129	1122.34
1037.417	1133.42
1037.704	1108.33
1037.992	1104.94
1038.279	1132.74
1038.566	1061.33
1038.853	1061.33
1039.14	1061.33
