Data from breadboard_white_FLMS001491_00007.txt Node
Date: Wed Feb 08 10:47:09 GMT 2017
User: dcchb
Spectrometer: FLMS00149
Trigger mode: 0
Integration Time (sec): 2.000000E-2
Scans to average: 10
Electric dark correction enabled: true
Nonlinearity correction enabled: false
Boxcar width: 0
XAxis mode: Wavelengths
Number of Pixels in Spectrum: 2048
>>>>>Begin Spectral Data<<<<<
341.393	-4.05
341.776	-4.05
342.16	-4.05
342.543	-55.58
342.927	-59.19
343.31	-79.31
343.693	-55.8
344.077	-76.37
344.46	-67.33
344.843	-62.58
345.226	-28.23
345.61	-21.91
345.993	-21
346.376	-13.77
346.759	6.57
347.142	32.33
347.525	44.98
347.908	64.87
348.291	81.14
348.674	93.57
349.057	102.84
349.44	136.73
349.823	138.09
350.206	155.72
350.588	210.63
350.971	225.32
351.354	248.82
351.737	257.63
352.119	277.07
352.502	274.58
352.884	277.97
353.267	292.21
353.65	312.77
354.032	332.66
354.414	336.95
354.797	337.41
355.179	357.74
355.562	329.72
355.944	359.1
356.326	364.52
356.709	345.54
357.091	349.84
357.473	349.16
357.855	348.25
358.238	376.5
358.62	376.73
359.002	368.82
359.384	355.94
359.766	351.42
360.148	360.46
360.53	387.8
360.912	358.65
361.294	358.65
361.676	351.19
362.057	369.72
362.439	365.43
362.821	355.03
363.203	363.39
363.584	362.94
363.966	351.42
364.348	344.64
364.729	360.46
365.111	345.54
365.493	353
365.874	359.1
366.256	343.73
366.637	357.29
367.019	347.35
367.4	357.97
367.781	364.3
368.163	340.12
368.544	349.84
368.925	346.67
369.306	357.29
369.688	367.69
370.069	347.35
370.45	362.49
370.831	367.69
371.212	347.58
371.593	352.32
371.974	367.01
372.355	363.17
372.736	368.82
373.117	357.07
373.498	369.5
373.879	378.76
374.26	354.58
374.641	384.86
375.021	364.3
375.402	350.06
375.783	393.68
376.163	384.64
376.544	390.74
376.925	363.62
377.305	388.93
377.686	398.42
378.066	361.13
378.447	414.01
378.827	389.16
379.208	410.62
379.588	374.24
379.968	411.75
380.349	381.47
380.729	400
381.109	378.31
381.489	421.47
381.87	398.87
382.25	413.79
382.63	443.84
383.01	410.17
383.39	421.47
383.77	423.28
384.15	431.64
384.53	418.76
384.91	417.86
385.29	436.16
385.67	420.34
386.049	435.03
386.429	436.61
386.809	431.64
387.189	458.76
387.568	478.19
387.948	443.17
388.328	464.86
388.707	482.71
389.087	484.3
389.466	472.54
389.846	493.11
390.225	496.72
390.605	510.28
390.984	479.55
391.363	463.5
391.743	514.58
392.122	508.48
392.501	510.74
392.881	535.82
393.26	530.4
393.639	537.18
394.018	509.38
394.397	543.95
394.776	553.9
395.155	545.76
395.534	569.94
395.913	579.66
396.292	574.46
396.671	600.22
397.05	589.15
397.429	599.09
397.808	596.83
398.186	616.72
398.565	632.31
398.944	636.83
399.323	642.48
399.701	639.09
400.08	639.55
400.458	678.64
400.837	664.4
401.215	695.82
401.594	703.27
401.972	710.5
402.351	730.39
402.729	745.98
403.107	749.15
403.486	781.01
403.864	767.45
404.242	779.88
404.62	796.83
404.999	795.25
405.377	834.57
405.755	854.23
406.133	835.25
406.511	876.15
406.889	887.67
407.267	883.61
407.645	891.52
408.023	930.84
408.401	937.16
408.779	958.86
409.156	1004.51
409.534	1000.67
409.912	1031.4
410.29	1064.62
410.667	1094.22
411.045	1087.44
411.422	1109.59
411.8	1144.16
412.178	1153.88
412.555	1207.89
412.933	1221.9
413.31	1211.28
413.687	1236.82
414.065	1257.16
414.442	1286.76
414.819	1334.44
415.197	1338.51
415.574	1361.56
415.951	1357.04
416.328	1366.31
416.705	1395.68
417.082	1404.5
417.46	1465.51
417.837	1482.01
418.214	1494.21
418.591	1486.75
418.967	1553.19
419.344	1561.33
419.721	1566.07
420.098	1601.78
420.475	1611.5
420.852	1608.56
421.228	1646.3
421.605	1680.65
421.982	1710.93
422.358	1729.01
422.735	1773.75
423.111	1728.56
423.488	1755.67
423.864	1792.96
424.241	1828.89
424.617	1846.75
424.994	1859.85
425.37	1861.43
425.746	1902.34
426.123	1920.19
426.499	1969.68
426.875	1946.4
427.251	2006.29
427.627	2054.2
428.003	2069.56
428.379	2074.54
428.756	2138.04
429.132	2123.12
429.507	2184.36
429.883	2197.7
430.259	2242.67
430.635	2249.67
431.011	2298.48
431.387	2354.08
431.763	2397.01
432.138	2400.4
432.514	2433.62
432.89	2481.3
433.265	2489.67
433.641	2523.56
434.016	2553.39
434.392	2616.89
434.767	2651.7
435.143	2662.54
435.518	2674.29
435.894	2694.41
436.269	2782.31
436.644	2820.05
437.02	2865.02
437.395	2850.56
437.77	2886.94
438.145	2916.32
438.52	2957.22
438.895	3019.6
439.271	2975.98
439.646	3104.11
440.021	3081.74
440.395	3128.52
440.77	3102.53
441.145	3073.83
441.52	3219.82
441.895	3215.97
442.27	3236.99
442.645	3243.77
443.019	3268.18
443.394	3271.34
443.769	3289.19
444.143	3334.16
444.518	3374.16
444.892	3335.97
445.267	3400.15
445.641	3444.67
446.016	3454.61
446.39	3484.22
446.764	3513.37
447.139	3489.19
447.513	3569.41
447.887	3594.72
448.262	3590.88
448.636	3628.85
449.01	3647.83
449.384	3731.44
449.758	3713.14
450.132	3735.74
450.506	3784.1
450.88	3794.04
451.254	3835.85
451.628	3898.89
452.002	3932.57
452.376	3944.54
452.75	4013.92
453.123	4039.68
453.497	4117.65
453.871	4136.18
454.244	4228.6
454.618	4221.15
454.992	4286.68
455.365	4311.77
455.739	4441.48
456.112	4429.95
456.486	4454.81
456.859	4528.71
457.232	4639.44
457.606	4645.09
457.979	4751.08
458.352	4813.45
458.725	4854.12
459.099	4890.06
459.472	4972.99
459.845	5026.1
460.218	5095.47
460.591	5083.72
460.964	5132.53
461.337	5294.11
461.71	5359.2
462.083	5387.9
462.456	5488.01
462.829	5518.29
463.201	5528.23
463.574	5592.41
463.947	5717.83
464.32	5808.45
464.692	5829.47
465.065	5907.88
465.438	6038.27
465.81	6087.76
466.183	6129.8
466.555	6260.87
466.928	6322.56
467.3	6319.4
467.672	6435.33
468.045	6612.27
468.417	6660.18
468.789	6596.22
469.161	6733.85
469.534	6841.42
469.906	7041.64
470.278	7069.43
470.65	7129.54
471.022	7277.79
471.394	7454.73
471.766	7516.88
472.138	7589.87
472.51	7753.26
472.882	7833.48
473.253	7931.56
473.625	8082.51
473.997	8284.54
474.369	8297.88
474.74	8388.95
475.112	8558.89
475.484	8694.93
475.855	8789.61
476.227	8890.4
476.598	9161.13
476.97	9258.3
477.341	9429.6
477.713	9591.4
478.084	9654.45
478.455	9919.3
478.827	9988.9
479.198	10314.32
479.569	10314.32
479.94	10615.55
480.311	10775.78
480.682	10943.91
481.053	11198.36
481.424	11270
481.795	11435.65
482.166	11614.4
482.537	11783.21
482.908	12011.22
483.279	12178.45
483.65	12409.63
484.021	12686.23
484.391	12818.21
484.762	12961.48
485.133	13001.03
485.503	13147.01
485.874	13559.66
486.244	13610.5
486.615	13930.04
486.985	14013.2
487.356	14284.16
487.726	14479.41
488.097	14706.52
488.467	14703.13
488.837	15116.68
489.207	15216.79
489.578	15459.04
489.948	15624.24
490.318	15845.93
490.688	15910.56
491.058	16235.52
491.428	16403.88
491.798	16533.59
492.168	16905.33
492.538	17021.49
492.908	17184.87
493.278	17355.49
493.648	17314.36
494.017	17675.48
494.387	17739.66
494.757	17971.07
495.126	18116.15
495.496	18210.16
495.866	18286.54
496.235	18570.15
496.605	18677.72
496.974	18891.04
497.344	19069.12
497.713	19063.47
498.082	19334.42
498.452	19346.17
498.821	19620.97
499.19	19754.97
499.559	19749.1
499.928	19900.51
500.298	20130.33
500.667	20382.76
501.036	20375.3
501.405	20519.93
501.774	20462.53
502.143	20767.83
502.512	20898.22
502.88	21035.17
503.249	21092.57
503.618	21264.31
503.987	21380.92
504.356	21606.68
504.724	21664.53
505.093	21807.35
505.462	21843.73
505.83	22050.06
506.199	22196.72
506.567	22574.56
506.936	22563.04
507.304	22710.83
507.672	22910.6
508.041	22894.33
508.409	23178.16
508.777	23298.16
509.145	23496.35
509.514	23592.39
509.882	23796.45
510.25	23779.73
510.618	23982.43
510.986	24192.6
511.354	24348.75
511.722	24556.88
512.09	24675.3
512.458	24729.31
512.826	24976.08
513.193	25193.93
513.561	25217.43
513.929	25499.23
514.297	25700.13
514.664	25875.27
515.032	26005.43
515.4	26270.06
515.767	26319.77
516.135	26611.52
516.502	26451.52
516.869	26868.01
517.237	26973.54
517.604	26970.15
517.972	27385.96
518.339	27486.52
518.706	27666.41
519.073	27874.08
519.44	27914.08
519.808	28286.5
520.175	28249.44
520.542	28704.57
520.909	28851.23
521.276	28949.76
521.643	29206.25
522.009	29394.04
522.376	29652.34
522.743	29909.28
523.11	30079.45
523.477	30375.94
523.843	30538.87
524.21	30854.12
524.577	31007.11
524.943	31251.4
525.31	31389.7
525.676	31637.6
526.043	31895.9
526.409	32041.88
526.776	32375.66
527.142	32457.24
527.508	32734.75
527.874	32905.59
528.241	33077.11
528.607	33128.41
528.973	33552.13
529.339	33547.61
529.705	33941.04
530.071	34056.29
530.437	34285.21
530.803	34520.24
531.169	34739.89
531.535	34712.1
531.901	34858.98
532.267	35079.54
532.632	35200.44
532.998	35254.23
533.364	35410.83
533.73	35606.08
534.095	35876.81
534.461	35998.84
534.826	36184.6
535.192	36346.86
535.557	36463.46
535.923	36654.42
536.288	36668.43
536.653	36940.29
537.019	36898.03
537.384	37039.72
537.749	37318.13
538.114	37386.6
538.479	37553.15
538.845	37641.06
539.21	37646.93
539.575	37810.09
539.94	37889.64
540.305	38176.19
540.67	38217.31
541.034	38229.52
541.399	38524.88
541.764	38505.67
542.129	38621.37
542.494	38886.9
542.858	39083.51
543.223	38954.7
543.587	39292.31
543.952	39221.58
544.316	39401.46
544.681	39504.29
545.045	39553.1
545.41	39780.21
545.774	39767.33
546.138	39902.47
546.503	40075.12
546.867	40076.25
547.231	40458.39
547.595	40381.33
547.959	40457.48
548.324	40493.19
548.688	40623.8
549.052	40894.08
549.416	41103.57
549.779	41109.22
550.143	41064.92
550.507	41478.92
550.871	41461.52
551.235	41604.8
551.599	41849.99
551.962	42059.47
552.326	42041.39
552.689	42252.24
553.053	42176.08
553.417	42265.8
553.78	42718.21
554.143	42574.49
554.507	42865.78
554.87	43105.77
555.234	43269.16
555.597	43270.29
555.96	43428.02
556.323	43602.26
556.686	43593.9
557.05	43818.75
557.413	43950.04
557.776	43983.72
558.139	44391.84
558.502	44540.31
558.865	44553.42
559.228	44888.78
559.59	44963.13
559.953	45086.96
560.316	45498.25
560.679	45350.91
561.041	45659.6
561.404	45829.32
561.767	46250.78
562.129	46024.57
562.492	46399.25
562.854	46448.96
563.217	46424.33
563.579	46657.54
563.941	47004.65
564.304	47179.56
564.666	47351.76
565.028	47408.03
565.39	47494.36
565.753	47762.83
566.115	47766.22
566.477	48010.73
566.839	48139.31
567.201	48424.05
567.563	48359.87
567.925	48641.9
568.287	48711.05
568.648	48761.44
569.01	48980.65
569.372	49158.95
569.734	49114.43
570.095	49362.78
570.457	49523.91
570.819	49606.39
571.18	49570.69
571.542	49817.91
571.903	49827.4
572.265	49931.13
572.626	50045.93
572.987	50175.87
573.349	50307.84
573.71	50437.11
574.071	50445.24
574.432	50493.15
574.794	50755.52
575.155	50791.45
575.516	50672.58
575.877	50734.27
576.238	50831.9
576.599	50924.78
576.96	50908.96
577.32	51013.14
577.681	51138.78
578.042	51328.83
578.403	51288.16
578.763	51229.4
579.124	51318.21
579.485	51371.32
579.845	51554.14
580.206	51491.54
580.566	51435.5
580.927	51484.99
581.287	51709.39
581.648	51534.93
582.008	51678.43
582.368	51588.94
582.728	51769.5
583.089	51606.11
583.449	51642.27
583.809	51657.19
584.169	51755.94
584.529	51654.02
584.889	51864.87
585.249	51697.41
585.609	51644.76
585.969	51905.77
586.329	51703.51
586.688	51697.64
587.048	51729.28
587.408	51704.64
587.768	51714.36
588.127	51736.96
588.487	51672.1
588.846	51857.41
589.206	51606.57
589.565	51762.95
589.925	51732.67
590.284	51655.15
590.643	51737.18
591.003	51731.31
591.362	51828.03
591.721	51812.89
592.08	51762.72
592.44	51890.4
592.799	51864.87
593.158	51809.27
593.517	51843.62
593.876	51923.17
594.235	51752.33
594.593	51801.82
594.952	51872.1
595.311	51770.4
595.67	51874.13
596.029	52014.24
596.387	52068.02
596.746	52149.15
597.104	51849.95
597.463	51850.63
597.822	52033.67
598.18	51920.91
598.538	51961.81
598.897	52217.17
599.255	51828.26
599.613	52298.3
599.972	52001.36
600.33	52134.46
600.688	52041.81
601.046	52101.92
601.404	52255.82
601.762	52234.35
602.12	52366.32
602.478	52366.09
602.836	52293.55
603.194	52203.16
603.552	52299.43
603.91	52243.61
604.268	52363.84
604.625	52257.62
604.983	52463.27
605.341	52207.68
605.698	52440.22
606.056	52520.89
606.413	52428.24
606.771	52658.74
607.128	52501.91
607.485	52483.61
607.843	52525.64
608.2	52644.05
608.557	52662.13
608.914	52664.39
609.272	52725.41
609.629	52849.02
609.986	52922.24
610.343	52646.54
610.7	52946.19
611.057	52869.81
611.414	52885.4
611.771	52956.36
612.127	52988
612.484	52969.47
612.841	53063.25
613.198	52903.03
613.554	52966.98
613.911	53226.19
614.267	53200.65
614.624	53123.14
614.98	53135.57
615.337	53302.57
615.693	53297.14
616.05	53209.46
616.406	53385.05
616.762	53285.62
617.118	53249.46
617.475	53237.94
617.831	53369.46
618.187	53409.23
618.543	53337.14
618.899	53518.38
619.255	53484.26
619.611	53336.46
619.967	53465.27
620.323	53535.1
620.678	53460.76
621.034	53329.91
621.39	53406.97
621.746	53319.29
622.101	53680.41
622.457	53425.5
622.812	53478.83
623.168	53580.53
623.523	53489.46
623.879	53717.92
624.234	53426.41
624.589	53524.48
624.945	53551.6
625.3	53566.06
625.655	53565.61
626.01	53503.69
626.365	53501.43
626.72	53505.05
627.075	53510.25
627.43	53424.6
627.785	53350.48
628.14	53424.6
628.495	53356.58
628.85	53358.16
629.205	53338.27
629.559	53444.71
629.914	53236.58
630.269	53247.65
630.623	53266.64
630.978	53132.4
631.332	53218.5
631.687	53278.84
632.041	53161.33
632.396	53248.33
632.75	53040.65
633.104	53099.41
633.459	52976.47
633.813	52940.32
634.167	52878.85
634.521	52885.18
634.875	52817.61
635.229	52847.21
635.583	52635.69
635.937	52733.54
636.291	52660.32
636.645	52659.19
636.999	52551.63
637.352	52588.69
637.706	52457.17
638.06	52560.89
638.413	52471.63
638.767	52374.23
639.121	52417.17
639.474	52239.32
639.828	52329.26
640.181	52305.76
640.534	52209.94
640.888	52226.21
641.241	52055.14
641.594	52146.21
641.947	52171.52
642.301	52069.83
642.654	52061.92
643.007	52051.75
643.36	52022.38
643.713	51919.33
644.066	52028.02
644.419	51720.01
644.771	51554.36
645.124	51305.78
645.477	51155.51
645.83	50930.65
646.182	50800.26
646.535	50673.48
646.888	50854.95
647.24	50534.96
647.593	50752.13
647.945	50615.18
648.298	50446.37
648.65	50427.84
649.002	50320.5
649.355	50496.09
649.707	50405.24
650.059	50460.61
650.411	50921.61
650.763	50862.18
651.115	51243.19
651.467	51125
651.819	51021.5
652.171	50922.74
652.523	50860.6
652.875	50920.94
653.227	50691.79
653.578	51002.74
653.93	50789.64
654.282	50635.07
654.633	50622.86
654.985	50666.93
655.337	50653.37
655.688	50551.91
656.039	50737.44
656.391	50530.66
656.742	50478.46
657.094	50581.96
657.445	50738.79
657.796	50399.82
658.147	50573.6
658.498	50411.12
658.849	50377.9
659.2	50343.32
659.551	50326.83
659.902	50426.94
660.253	50301.29
660.604	50376.09
660.955	50080.28
661.306	50325.92
661.656	50225.13
662.007	50272.59
662.358	50190.33
662.708	50066.95
663.059	50150.56
663.409	49905.82
663.76	50161.63
664.11	50060.62
664.461	50196.66
664.811	50143.55
665.161	50082.77
665.511	49944.24
665.862	49930.9
666.212	50014.29
666.562	49895.65
666.912	49944.01
667.262	49791.25
667.612	49777.69
667.962	49838.93
668.312	49708.76
668.662	50010.22
669.011	49901.98
669.361	49753.06
669.711	49645.71
670.06	49734.07
670.41	49631.48
670.76	49651.36
671.109	49743.79
671.459	49523.23
671.808	49480.97
672.157	49581.99
672.507	49347.19
672.856	49430.35
673.205	49474.42
673.554	49582.89
673.904	49394.42
674.253	49669.22
674.602	49326.4
674.951	48794.66
675.3	48657.94
675.649	49264.71
675.998	49138.61
676.346	49252.96
676.695	49280.53
677.044	48973.87
677.393	49045.96
677.741	49090.25
678.09	48972.06
678.438	48915.79
678.787	48980.87
679.135	48922.57
679.484	48771.39
679.832	48894.77
680.181	48631.5
680.529	48599.19
680.877	48519.64
681.225	48471.96
681.573	48800.54
681.922	48423.83
682.27	48287.11
682.618	48343.38
682.966	48222.02
683.314	48336.37
683.661	48138.18
684.009	48000.56
684.357	47942.93
684.705	47905.2
685.053	47942.93
685.4	47769.83
685.748	47699.78
686.095	47661.36
686.443	47401.93
686.79	47485.32
687.138	47385.89
687.485	47398.09
687.832	47217.98
688.18	47297.98
688.527	47092.34
688.874	46988.84
689.221	46897.76
689.568	46869.06
689.915	46705
690.262	46740.03
690.609	46661.39
690.956	46444.67
691.303	46417.55
691.65	46183.88
691.997	46245.13
692.344	45821.63
692.69	45939.15
693.037	45924.91
693.383	45518.37
693.73	45681.75
694.077	45485.6
694.423	45276.11
694.769	45263.46
695.116	45101.2
695.462	45102.11
695.808	44853.98
696.155	44942.11
696.501	44758.84
696.847	44690.82
697.193	44312.3
697.539	44593.42
697.885	44229.59
698.231	44058.06
698.577	44221
698.923	43954.11
699.269	43928.8
699.614	43587.12
699.96	43530.62
700.306	43527.91
700.651	43464.63
700.997	43280.01
701.342	43154.13
701.688	43088.82
702.033	43035.94
702.379	42889.28
702.724	42703.52
703.069	42799.57
703.415	42394.15
703.76	42364.32
704.105	42281.39
704.45	42348.05
704.795	41974.96
705.14	41951.68
705.485	41883.21
705.83	41745.81
706.175	41829.65
706.52	41582.65
706.865	41437.79
707.209	41350.34
707.554	41281.41
707.899	41468.08
708.243	41102.89
708.588	41069.22
708.932	40798.26
709.277	40730.69
709.621	40824.48
709.966	40458.39
710.31	40660.64
710.654	40138.39
710.998	40308.56
711.342	40323.93
711.687	40335.22
712.031	40052.07
712.375	39872.86
712.719	39835.35
713.063	39837.16
713.407	39861.34
713.75	39547.67
714.094	39654.79
714.438	39308.81
714.782	39490.05
715.125	39112.21
715.469	39268.81
715.812	39161.02
716.156	38748.37
716.499	39091.19
716.843	38855.49
717.186	38704.99
717.53	38869.27
717.873	38787.92
718.216	38673.12
718.559	38619.56
718.902	38414.15
719.246	38372.34
719.589	38268.84
719.932	38116.75
720.275	38164.66
720.617	38074.95
720.96	37952.01
721.303	37973.7
721.646	37981.39
721.989	37616.2
722.331	37783.88
722.674	37538.91
723.016	37643.77
723.359	37577.56
723.701	37552.7
724.044	37176.21
724.386	37193.39
724.729	37347.96
725.071	37103.45
725.413	37087.4
725.755	37069.32
726.097	36742.1
726.439	36708.43
726.782	36732.61
727.124	36834.07
727.465	36621.65
727.807	36564.93
728.149	36514.53
728.491	36371.49
728.833	36534.65
729.175	36168.33
729.516	36062.12
729.858	36102.34
730.199	36206.29
730.541	36091.49
730.882	36115.67
731.224	36191.6
731.565	35874.78
731.906	35922.91
732.248	35901.22
732.589	35721.33
732.93	35560.21
733.271	35708
733.612	35678.62
733.953	35668.68
734.294	35463.26
734.635	35383.49
734.976	35503.04
735.317	35184.85
735.658	35191.18
735.999	35124.06
736.339	35149.6
736.68	35128.36
737.021	34924.29
737.361	34835.26
737.702	34986.44
738.042	34783.51
738.383	34758.42
738.723	34861.47
739.063	34616.05
739.404	34743.06
739.744	34613.34
740.084	34471.88
740.424	34426.68
740.764	34378.32
741.104	34435.72
741.444	34200.92
741.784	34212.9
742.124	34093.81
742.464	34067.82
742.804	33927.94
743.143	33932.23
743.483	33866.24
743.823	33798.22
744.162	33665.8
744.502	33665.34
744.841	33574.72
745.181	33732.23
745.52	33513.71
745.86	33426.25
746.199	33337.44
746.538	33315.3
746.877	33383.77
747.216	33316.88
747.556	33166.83
747.895	33214.73
748.234	33049.77
748.573	32867.17
748.911	32990.79
749.25	32808.87
749.589	32631.02
749.928	32747.18
750.267	32795.08
750.605	32715.54
750.944	32621.3
751.283	32360.97
751.621	32399.61
751.96	32240.07
752.298	32220.18
752.636	32299.5
752.975	32095.44
753.313	31959.4
753.651	31896.58
753.989	31817.71
754.327	31666.3
754.666	31540.88
755.004	31618.17
755.342	31649.58
755.679	31518.06
756.017	31275.35
756.355	31358.29
756.693	31234.22
757.031	31245.29
757.368	31026.32
757.706	31014.34
758.044	30878.52
758.381	30838.53
758.719	30730.05
759.056	30738.41
759.394	30662.26
759.731	30403.73
760.068	30293.91
760.405	30255.72
760.743	30292.78
761.08	30222.04
761.417	30093.23
761.754	30134.36
762.091	29825.44
762.428	29846.46
762.765	29628.39
763.102	29755.16
763.438	29465.45
763.775	29346.59
764.112	29455.74
764.449	29378.68
764.785	29093.03
765.122	29001.29
765.458	28829.54
765.795	28891.01
766.131	28776.88
766.467	28672.48
766.804	28466.38
767.14	28400.4
767.476	28416.44
767.812	28180.06
768.148	28251.93
768.485	28029.33
768.821	27890.81
769.157	27931.03
769.492	27727.19
769.828	27776.23
770.164	27499.4
770.5	27461.44
770.836	27356.36
771.171	27281.56
771.507	27157.72
771.842	26958.18
772.178	26973.09
772.513	26846.31
772.849	26776.94
773.184	26503.05
773.519	26578.75
773.855	26512.76
774.19	26407.46
774.525	26236.84
774.86	26282.26
775.195	26191.87
775.53	25988.48
775.865	25903.51
776.2	25687.25
776.535	25708.49
776.87	25653.58
777.205	25507.14
777.539	25301.27
777.874	25407.03
778.209	25149.86
778.543	25142.18
778.878	24989.87
779.212	25021.05
779.547	24746.03
779.881	24790.1
780.215	24659.93
780.55	24662.19
780.884	24510.33
781.218	24468.98
781.552	24430.56
781.886	24184.69
782.22	24094.52
782.554	24032.6
782.888	23744.02
783.222	23738.82
783.556	23608.88
783.889	23610.24
784.223	23540.86
784.557	23410.02
784.89	23434.65
785.224	23234.21
785.557	23112.17
785.891	23050.48
786.224	23031.5
786.558	23075.79
786.891	22893.42
787.224	22686.2
787.557	22613.43
787.891	22659.76
788.224	22472.42
788.557	22462.25
788.89	22422.48
789.223	22250.28
789.556	22238.07
789.888	22080.34
790.221	21988.81
790.554	21973.45
790.887	21963.28
791.219	21839.67
791.552	21806.67
791.884	21714.92
792.217	21563.74
792.549	21567.36
792.882	21298.66
793.214	21234.48
793.546	21228.38
793.879	21112.23
794.211	21025
794.543	21027.48
794.875	20990.87
795.207	21015.28
795.539	20776.19
795.871	20816.19
796.203	20524.45
796.535	20458.23
796.867	20458.01
797.198	20383.88
797.53	20404
797.862	20271.57
798.193	20288.97
798.525	20179.14
798.856	20261.85
799.188	19951.58
799.519	19983.67
799.85	19849.44
800.182	19937.34
800.513	19824.58
800.844	19625.49
801.175	19695.77
801.506	19665.03
801.837	19472.95
802.168	19503.68
802.499	19435.44
802.83	19264.82
803.161	19254.2
803.491	19169.45
803.822	19161.09
804.153	19099.17
804.483	19008.55
804.814	18922.68
805.145	18851.04
805.475	18782.12
805.805	18850.14
806.136	18766.07
806.466	18706.41
806.796	18658.96
807.126	18510.71
807.457	18416.25
807.787	18444.95
808.117	18343.03
808.447	18309.14
808.777	18347.33
809.107	18321.79
809.436	18174.68
809.766	18167.9
810.096	18102.14
810.426	18057.17
810.755	18118.41
811.085	18008.58
811.414	17950.5
811.744	17927.9
812.073	17738.76
812.403	17811.75
812.732	17636.39
813.061	17657.85
813.39	17517.97
813.719	17487.92
814.049	17622.38
814.378	17523.85
814.707	17387.35
815.036	17347.81
815.365	17262.16
815.693	17118.89
816.022	17189.84
816.351	17119.79
816.68	17019.68
817.008	17102.16
817.337	16854.03
817.665	16926.8
817.994	16941.94
818.322	16796.63
818.651	16816.07
818.979	16702.85
819.307	16762.29
819.636	16634.38
819.964	16517.77
820.292	16667.37
820.62	16627.6
820.948	16551.9
821.276	16586.24
821.604	16552.12
821.932	16590.31
822.259	16598.9
822.587	16457.66
822.915	16487.04
823.243	16497.21
823.57	16475.29
823.898	16406.36
824.225	16389.41
824.553	16388.51
824.88	16432.12
825.207	16415.4
825.535	16425.57
825.862	16426.02
826.189	16339.25
826.516	16448.62
826.843	16438.23
827.17	16372.92
827.497	16384.44
827.824	16371.79
828.151	16494.04
828.478	16374.27
828.805	16426.93
829.131	16375.4
829.458	16371.79
829.785	16207.72
830.111	16262.64
830.438	16340.15
830.764	16365.46
831.09	16333.6
831.417	16242.3
831.743	16342.41
832.069	16361.39
832.395	16190.32
832.722	16258.34
833.048	16151.45
833.374	16212.02
833.7	16139.02
834.026	16170.66
834.351	16166.37
834.677	16124.56
835.003	16087.5
835.329	16043.21
835.654	16047.95
835.98	16031.91
836.306	15983.77
836.631	15992.81
836.956	15999.37
837.282	16015.41
837.607	15902.19
837.932	15923.89
838.258	15795.08
838.583	15831.01
838.908	15726.38
839.233	15833.72
839.558	15718.7
839.883	15669.43
840.208	15695.87
840.533	15618.36
840.858	15680.28
841.182	15594.63
841.507	15579.49
841.832	15448.42
842.156	15337.24
842.481	15453.17
842.805	15438.7
843.13	15358.93
843.454	15306.73
843.778	15249.56
844.103	15245.49
844.427	15220.18
844.751	15187.41
845.075	15152.84
845.399	15048.66
845.723	14952.39
846.047	14962.11
846.371	14922.56
846.695	14871.49
847.019	14725.28
847.343	14777.25
847.666	14541.78
847.99	14596.92
848.313	14533.64
848.637	14405.74
848.96	14426.08
849.284	14335
849.607	14191.73
849.931	14216.59
850.254	14101.11
850.577	14083.49
850.9	13890.72
851.223	13957.84
851.546	13841.01
851.869	13779.54
852.192	13763.04
852.515	13796.71
852.838	13674.91
853.161	13676.26
853.483	13600.79
853.806	13592.65
854.129	13501.35
854.451	13446.44
854.774	13395.37
855.096	13288.03
855.419	13287.12
855.741	13218.88
856.063	13125.32
856.385	13151.76
856.708	13041.03
857.03	13003.06
857.352	13003.06
857.674	13005.32
857.996	12977.98
858.318	12892.56
858.64	12880.58
858.961	12877.19
859.283	12757.42
859.605	12817.98
859.926	12727.36
860.248	12687.82
860.57	12693.01
860.891	12708.15
861.212	12604.2
861.534	12532.57
861.855	12505.9
862.176	12561.27
862.498	12489.18
862.819	12398.78
863.14	12414.83
863.461	12340.03
863.782	12354.04
864.103	12312.91
864.424	12282.86
864.745	12327.6
865.065	12160.6
865.386	12246.02
865.707	12240.37
866.027	12143.2
866.348	12149.98
866.668	12170.54
866.989	12109.07
867.309	12058.23
867.63	11991.56
867.95	12007.83
868.27	11977.33
868.59	11923.99
868.91	11927.84
869.23	11942.07
869.55	11766.71
869.87	11916.31
870.19	11782.53
870.51	11852.13
870.83	11835.86
871.15	11707.73
871.469	11719.48
871.789	11756.99
872.109	11741.4
872.428	11611.46
872.748	11646.49
873.067	11589.77
873.386	11627.73
873.706	11597.45
874.025	11508.86
874.344	11462.54
874.663	11483.78
874.982	11470.22
875.301	11474.29
875.62	11437.91
875.939	11375.76
876.258	11409.66
876.577	11330.56
876.896	11328.08
877.214	11275.88
877.533	11297.12
877.852	11282.2
878.17	11285.59
878.489	11309.55
878.807	11286.05
879.125	11232.71
879.444	11196.33
879.762	11178.03
880.08	11146.84
880.398	11066.62
880.716	11038.82
881.034	11055.77
881.352	11063.68
881.67	11023.91
881.988	11077.69
882.306	10979.39
882.624	10962.89
882.941	10978.48
883.259	10956.34
883.577	10869.78
883.894	10916.34
884.212	10894.87
884.529	10840.63
884.846	10845.83
885.164	10794.31
885.481	10740.07
885.798	10793.4
886.115	10645.84
886.432	10699.85
886.75	10678.83
887.067	10609.68
887.383	10635.44
887.7	10613.29
888.017	10524.48
888.334	10523.13
888.651	10485.84
888.967	10473.86
889.284	10432.73
889.6	10406.75
889.917	10338.27
890.233	10366.52
890.55	10233.19
890.866	10265.96
891.182	10251.27
891.498	10146.64
891.815	10171.72
892.131	10085.17
892.447	10123.14
892.763	10079.07
893.079	10045.85
893.395	9914.1
893.71	9942.8
894.026	9966.53
894.342	9934.22
894.657	9788.46
894.973	9804.95
895.289	9807.21
895.604	9806.54
895.92	9689.48
896.235	9729.25
896.55	9669.14
896.865	9730.15
897.181	9644.51
897.496	9643.38
897.811	9523.61
898.126	9550.27
898.441	9496.26
898.756	9515.24
899.071	9462.36
899.386	9445.42
899.7	9288.13
900.015	9305.31
900.33	9268.47
900.644	9208.36
900.959	9191.18
901.273	9154.12
901.588	9125.2
901.902	9096.72
902.216	9040.91
902.531	9000.68
902.845	9046.56
903.159	8909.16
903.473	8916.16
903.787	8842.04
904.101	8795.72
904.415	8825.32
904.729	8832.1
905.042	8788.94
905.356	8734.25
905.67	8770.86
905.984	8710.29
906.297	8621.71
906.611	8575.16
906.924	8623.06
907.237	8483.41
907.551	8462.62
907.864	8403.41
908.177	8360.7
908.491	8398.66
908.804	8307.37
909.117	8246.12
909.43	8203.64
909.743	8168.16
910.056	8186.01
910.368	8173.58
910.681	8057.2
910.994	8058.33
911.307	8119.35
911.619	7982.4
911.932	8033.48
912.244	7974.49
912.557	7957.32
912.869	7875.74
913.181	7823.31
913.494	7848.17
913.806	7765.46
914.118	7792.13
914.43	7741.05
914.742	7676.42
915.054	7624.22
915.366	7626.48
915.678	7589.87
915.99	7537.9
916.302	7477.78
916.613	7466.71
916.925	7459.93
917.236	7455.64
917.548	7424
917.859	7375.64
918.171	7336.54
918.482	7285.25
918.794	7248.41
919.105	7288.86
919.416	7151.01
919.727	7235.3
920.038	7161.86
920.349	7053.84
920.66	7086.16
920.971	7072.14
921.282	7002.09
921.593	6971.81
921.903	6946.27
922.214	6897.91
922.525	6869.89
922.835	6852.49
923.146	6816.78
923.456	6804.35
923.767	6721.19
924.077	6792.83
924.387	6669.67
924.697	6720.29
925.008	6633.96
925.318	6618.37
925.628	6564.81
925.938	6589.22
926.248	6502.67
926.558	6504.02
926.867	6503.12
927.177	6450.69
927.487	6398.26
927.796	6309.45
928.106	6312.62
928.416	6345.38
928.725	6262.45
929.034	6285.95
929.344	6288.21
929.653	6251.15
929.962	6167.08
930.271	6172.28
930.581	6125.95
930.89	6071.49
931.199	6065.62
931.508	6038.05
931.817	6050.02
932.125	5998.05
932.434	5980.65
932.743	5951.27
933.051	5922.8
933.36	5907.2
933.669	5848.45
933.977	5844.61
934.286	5836.47
934.594	5810.48
934.902	5702.92
935.21	5723.48
935.519	5683.25
935.827	5718.96
936.135	5659.53
936.443	5584.73
936.751	5554.44
937.059	5589.02
937.367	5568.91
937.674	5476.48
937.982	5531.85
938.29	5491.4
938.597	5496.37
938.905	5429.02
939.213	5477.16
939.52	5429.48
939.827	5413.21
940.135	5366.2
940.442	5283.04
940.749	5347.9
941.056	5297.05
941.363	5269.25
941.67	5242.81
941.977	5222.25
942.284	5190.84
942.591	5161.01
942.898	5144.29
943.205	5175.7
943.511	5111.52
943.818	5046.89
944.125	5018.41
944.431	5006.89
944.738	5018.64
945.044	4988.36
945.35	4953.78
945.657	4905.2
945.963	4922.37
946.269	4866.55
946.575	4901.81
946.881	4808.02
947.187	4819.55
947.493	4811.19
947.799	4806.89
948.105	4759.21
948.41	4715.37
948.716	4687.35
949.022	4669.27
949.327	4673.56
949.633	4645.77
949.938	4634.02
950.244	4577.97
950.549	4581.59
950.854	4575.04
951.16	4570.29
951.465	4522.38
951.77	4498.88
952.075	4503.4
952.38	4473.34
952.685	4434.47
952.99	4442.16
953.294	4402.16
953.599	4392.44
953.904	4382.5
954.209	4313.12
954.513	4375.94
954.818	4342.95
955.122	4314.25
955.426	4258.89
955.731	4293.01
956.035	4241.71
956.339	4222.05
956.643	4207.59
956.948	4225.44
957.252	4168.27
957.556	4152.22
957.86	4125.78
958.163	4141.15
958.467	4050.08
958.771	4076.52
959.075	4047.82
959.378	3999.91
959.682	4033.35
959.985	4046.91
960.289	3952.68
960.592	3969.4
960.896	3965.33
961.199	3922.17
961.502	3903.19
961.805	3905.9
962.108	3862.29
962.411	3847.14
962.714	3834.04
963.017	3811.44
963.32	3813.93
963.623	3782.29
963.926	3765.11
964.228	3726.92
964.531	3741.38
964.833	3780.03
965.136	3681.95
965.438	3690.09
965.741	3701.61
966.043	3648.05
966.345	3598.56
966.648	3626.36
966.95	3577.32
967.252	3564.21
967.554	3515.85
967.856	3538.45
968.158	3536.64
968.46	3498.23
968.761	3514.95
969.063	3496.65
969.365	3460.94
969.666	3483.76
969.968	3451.67
970.269	3444.9
970.571	3413.71
970.872	3450.77
971.174	3393.82
971.475	3359.7
971.776	3388.85
972.077	3342.75
972.378	3311.57
972.679	3299.14
972.98	3329.64
973.281	3257.33
973.582	3250.55
973.883	3234.51
974.183	3213.49
974.484	3250.78
974.785	3204.22
975.085	3197.9
975.386	3156.32
975.686	3157.45
975.986	3137.56
976.287	3209.65
976.587	3095.98
976.887	3102.31
977.187	3101.63
977.487	3094.4
977.787	3070.89
978.087	3072.48
978.387	3050.1
978.687	3046.04
978.987	3025.47
979.286	2961.74
979.586	3001.74
979.885	2980.95
980.185	2966.72
980.484	2951.8
980.784	2950.67
981.083	2919.71
981.382	2907.73
981.682	2892.14
981.981	2877.9
982.28	2848.75
982.579	2830.67
982.878	2860.28
983.177	2829.54
983.475	2810.56
983.774	2780.73
984.073	2782.77
984.372	2794.52
984.67	2747.96
984.969	2772.6
985.267	2731.92
985.566	2712.94
985.864	2728.53
986.162	2667.29
986.461	2723.11
986.759	2656.44
987.057	2666.61
987.355	2608.08
987.653	2659.61
987.951	2572.6
988.249	2613.73
988.547	2588.42
988.844	2587.52
989.142	2555.65
989.44	2585.03
989.737	2573.96
990.035	2560.85
990.332	2505.48
990.63	2507.97
990.927	2523.34
991.224	2522.43
991.521	2473.17
991.819	2425.71
992.116	2422.55
992.413	2407.63
992.71	2401.98
993.006	2420.74
993.303	2428.88
993.6	2406.28
993.897	2372.83
994.193	2380.29
994.49	2359.95
994.787	2374.64
995.083	2365.6
995.379	2331.03
995.676	2311.82
995.972	2291.48
996.268	2307.07
996.565	2292.84
996.861	2302.1
997.157	2249.67
997.453	2225.72
997.749	2236.79
998.044	2220.29
998.34	2205.83
998.636	2195.89
998.932	2199.96
999.227	2170.35
999.523	2131.26
999.818	2169.22
1000.114	2144.14
1000.409	2134.42
1000.704	2083.12
1001	2134.65
1001.295	2099.62
1001.59	2071.82
1001.885	2070.24
1002.18	2075.21
1002.475	2047.19
1002.77	2054.42
1003.065	2015.55
1003.359	2019.4
1003.654	2026.85
1003.949	1976.46
1004.243	2008.55
1004.538	1952.73
1004.832	1973.52
1005.127	1944.82
1005.421	1919.29
1005.715	1934.88
1006.009	1889.91
1006.304	1912.51
1006.598	1897.14
1006.892	1884.94
1007.186	1897.82
1007.48	1881.32
1007.773	1869.12
1008.067	1817.59
1008.361	1806.97
1008.655	1800.87
1008.948	1806.97
1009.242	1784.6
1009.535	1771.49
1009.829	1766.75
1010.122	1754.32
1010.415	1739.18
1010.708	1729.91
1011.001	1709.57
1011.295	1717.48
1011.588	1710.48
1011.881	1691.95
1012.173	1686.3
1012.466	1707.99
1012.759	1676.58
1013.052	1651.04
1013.344	1639.52
1013.637	1662.8
1013.93	1618.73
1014.222	1601.1
1014.514	1610.37
1014.807	1608.11
1015.099	1605.17
1015.391	1604.49
1015.683	1574.66
1015.976	1559.07
1016.268	1570.82
1016.56	1574.44
1016.851	1559.3
1017.143	1534.44
1017.435	1525.17
1017.727	1505.29
1018.018	1484.04
1018.31	1484.04
1018.602	1497.6
1018.893	1453.08
1019.185	1445.63
1019.476	1427.55
1019.767	1458.51
1020.058	1430.48
1020.35	1425.06
1020.641	1414.44
1020.932	1399.98
1021.223	1413.31
1021.514	1398.17
1021.804	1389.13
1022.095	1347.55
1022.386	1362.01
1022.677	1344.16
1022.967	1353.65
1023.258	1322.47
1023.548	1308.45
1023.839	1300.09
1024.129	1290.38
1024.419	1303.48
1024.709	1255.8
1025	1258.96
1025.29	1269.59
1025.58	1270.72
1025.87	1255.35
1026.16	1242.24
1026.449	1242.47
1026.739	1236.14
1027.029	1224.39
1027.319	1215.35
1027.608	1192.53
1027.898	1206.99
1028.187	1209.7
1028.477	1174.22
1028.766	1174.45
1029.055	1134.9
1029.344	1144.84
1029.634	1157.05
1029.923	1120.66
1030.212	1141.68
1030.501	1138.29
1030.79	1098.06
1031.078	1085.41
1031.367	1112.3
1031.656	1102.13
1031.945	1078.63
1032.233	1083.6
1032.522	1081.12
1032.81	1050.38
1033.099	1053.09
1033.387	1059.42
1033.675	1049.25
1033.963	1030.5
1034.251	1045.86
1034.54	1027.78
1034.828	1016.94
1035.116	1016.71
1035.403	1015.58
1035.691	998.63
1035.979	1006.99
1036.267	990.72
1036.554	982.36
1036.842	988.01
1037.129	975.58
1037.417	953.66
1037.704	973.55
1037.992	967.9
1038.279	967.9
1038.566	945.07
1038.853	945.07
1039.14	945.07
