Data from breadboard_black_back_FLMS001491_00040.txt Node
Date: Wed Feb 08 10:50:19 GMT 2017
User: dcchb
Spectrometer: FLMS00149
Trigger mode: 0
Integration Time (sec): 2.000000E-2
Scans to average: 10
Electric dark correction enabled: true
Nonlinearity correction enabled: false
Boxcar width: 0
XAxis mode: Wavelengths
Number of Pixels in Spectrum: 2048
>>>>>Begin Spectral Data<<<<<
341.393	2.19
341.776	2.19
342.16	2.19
342.543	-71.71
342.927	-65.38
343.31	-73.74
343.693	-80.29
344.077	-95.66
344.46	-58.6
344.843	-56.57
345.226	-38.71
345.61	-22.89
345.993	-24.93
346.376	8.74
346.759	9.42
347.142	40.83
347.525	51.45
347.908	64.11
348.291	67.72
348.674	86.93
349.057	122.19
349.44	112.92
349.823	149.3
350.206	175.74
350.588	213.94
350.971	217.78
351.354	229.98
351.737	243.09
352.119	267.27
352.502	269.53
352.884	278.34
353.267	287.83
353.65	303.42
354.032	306.59
354.414	298
354.797	313.37
355.179	334.38
355.562	338
355.944	335.29
356.326	334.61
356.709	343.88
357.091	340.26
357.473	360.15
357.855	355.4
358.238	368.06
358.62	353.37
359.002	337.1
359.384	355.17
359.766	342.29
360.148	350.2
360.53	354.72
360.912	342.07
361.294	361.73
361.676	334.84
362.057	351.78
362.439	374.61
362.821	351.56
363.203	356.76
363.584	342.07
363.966	348.85
364.348	355.63
364.729	359.24
365.111	350.43
365.493	341.84
365.874	343.88
366.256	353.82
366.637	356.98
367.019	325.57
367.4	344.33
367.781	342.52
368.163	341.16
368.544	341.84
368.925	345.01
369.306	354.27
369.688	342.52
370.069	339.13
370.45	355.17
370.831	344.33
371.212	352.24
371.593	338.68
371.974	316.08
372.355	365.8
372.736	356.08
373.117	364.44
373.498	359.69
373.879	343.42
374.26	350.43
374.641	353.37
375.021	346.13
375.402	372.8
375.783	355.4
376.163	373.93
376.544	375.96
376.925	374.61
377.305	355.63
377.686	373.48
378.066	381.39
378.447	366.7
378.827	386.59
379.208	367.15
379.588	380.71
379.968	388.62
380.349	408.51
380.729	392.01
381.109	415.29
381.489	384.33
381.87	392.24
382.25	402.86
382.63	413.25
383.01	408.73
383.39	384.78
383.77	419.35
384.15	406.7
384.53	438.34
384.91	415.06
385.29	436.08
385.67	451.89
386.049	444.21
386.429	431.33
386.809	444.66
387.189	440.82
387.568	430.2
387.948	427.71
388.328	461.39
388.707	449.64
389.087	474.72
389.466	477.88
389.846	463.65
390.225	453.25
390.605	475.4
390.984	458
391.363	483.08
391.743	446.7
392.122	487.15
392.501	511.55
392.881	495.28
393.26	508.39
393.639	518.11
394.018	530.76
394.397	511.55
394.776	533.7
395.155	523.53
395.534	508.39
395.913	523.76
396.292	517.43
396.671	543.19
397.05	560.14
397.429	538.9
397.808	547.26
398.186	573.25
398.565	552.68
398.944	526.47
399.323	564.89
399.701	575.51
400.08	587.48
400.458	568.05
400.837	605.34
401.215	597.43
401.594	579.58
401.972	613.25
402.351	605.56
402.729	606.24
403.107	622.29
403.486	607.6
403.864	609.4
404.242	632
404.62	617.77
404.999	630.2
405.377	661.61
405.755	648.5
406.133	658.22
406.511	651.44
406.889	676.07
407.267	670.87
407.645	693.7
408.023	676.52
408.401	706.58
408.779	707.48
409.156	718.33
409.534	724.66
409.912	733.92
410.29	733.92
410.667	776.63
411.045	738.67
411.422	762.17
411.8	757.42
412.178	789.29
412.555	780.47
412.933	804.43
413.31	835.84
413.687	852.79
414.065	812.79
414.442	832.22
414.819	863.18
415.197	838.55
415.574	860.25
415.951	864.54
416.328	860.7
416.705	863.41
417.082	889.85
417.46	896.63
417.837	888.27
418.214	889.85
418.591	931.43
418.967	904.99
419.344	942.73
419.721	942.73
420.098	953.58
420.475	980.02
420.852	985.21
421.228	986.8
421.605	1001.71
421.982	991.32
422.358	1008.26
422.735	1019.34
423.111	1012.56
423.488	1041.94
423.864	1052.78
424.241	1045.1
424.617	1070.86
424.994	1069.96
425.37	1071.77
425.746	1096.4
426.123	1102.95
426.499	1119.22
426.875	1129.62
427.251	1138.66
427.627	1167.13
428.003	1179.33
428.379	1184.08
428.756	1197.19
429.132	1211.87
429.507	1208.94
429.883	1196.51
430.259	1278.99
430.635	1275.83
431.011	1259.33
431.387	1301.36
431.763	1316.05
432.138	1329.84
432.514	1340.69
432.89	1338.88
433.265	1389.95
433.641	1408.93
434.016	1403.28
434.392	1430.17
434.767	1447.35
435.143	1442.15
435.518	1471.3
435.894	1489.83
436.269	1486.67
436.644	1548.36
437.02	1542.94
437.395	1544.97
437.77	1558.08
438.145	1564.18
438.52	1601.24
438.895	1603.28
439.271	1612.32
439.646	1642.37
440.021	1651.64
440.395	1687.34
440.77	1675.14
441.145	1660.9
441.52	1738.41
441.895	1724.86
442.27	1733.67
442.645	1740.22
443.019	1768.7
443.394	1780.45
443.769	1784.06
444.143	1775.93
444.518	1810.96
444.892	1848.92
445.267	1838.98
445.641	1853.67
446.016	1845.76
446.39	1902.03
446.764	1885.98
447.139	1895.7
447.513	1884.63
447.887	1887.11
448.262	1899.31
448.636	1935.02
449.01	1965.98
449.384	2022.02
449.758	1975.7
450.132	2006.43
450.506	2025.41
450.88	2044.4
451.254	2038.97
451.628	2082.13
452.002	2091.4
452.376	2114
452.75	2128.69
453.123	2155.8
453.497	2185.63
453.871	2192.41
454.244	2249.14
454.618	2262.47
454.992	2273.32
455.365	2299.53
455.739	2351.51
456.112	2344.73
456.486	2394.22
456.859	2397.61
457.232	2448.23
457.606	2480.32
457.979	2492.29
458.352	2531.39
458.725	2571.61
459.099	2605.28
459.472	2601.67
459.845	2674.66
460.218	2698.39
460.591	2719.63
460.964	2732.74
461.337	2799.86
461.71	2837.37
462.083	2857.03
462.456	2893.41
462.829	2891.38
463.201	2934.77
463.574	2937.25
463.947	3023.35
464.32	3064.93
464.692	3091.37
465.065	3130.92
465.438	3166.63
465.81	3227.87
466.183	3248.66
466.555	3332.95
466.928	3334.3
467.3	3298.6
467.672	3396.45
468.045	3483.91
468.417	3507.41
468.789	3486.17
469.161	3563.68
469.534	3654.07
469.906	3635.09
470.278	3725.71
470.65	3758.7
471.022	3819.04
471.394	3911.92
471.766	3868.08
472.138	3979.71
472.51	4060.61
472.882	4133.38
473.253	4173.15
473.625	4180.38
473.997	4273.94
474.369	4307.16
474.74	4374.73
475.112	4468.06
475.484	4520.94
475.855	4628.96
476.227	4609.75
476.598	4780.14
476.97	4808.84
477.341	4903.3
477.713	5034.37
478.084	5061.04
478.455	5207.93
478.827	5188.49
479.198	5393.01
479.569	5342.84
479.94	5516.85
480.311	5535.6
480.682	5703.96
481.053	5801.13
481.424	5929.04
481.795	5974.69
482.166	6067.79
482.537	6112.31
482.908	6229.14
483.279	6319.76
483.65	6442.92
484.021	6568.34
484.391	6637.04
484.762	6739.19
485.133	6763.37
485.503	6821.9
485.874	6991.38
486.244	7094.21
486.615	7178.27
486.985	7302.56
487.356	7397.25
487.726	7523.8
488.097	7605.61
488.467	7701.42
488.837	7830.01
489.207	7956.1
489.578	8050.34
489.948	8124.24
490.318	8163.56
490.688	8305.7
491.058	8374.17
491.428	8522.64
491.798	8613.04
492.168	8745.46
492.538	8800.38
492.908	8853.03
493.278	9044.21
493.648	9051.67
494.017	9226.58
494.387	9240.14
494.757	9333.02
495.126	9388.61
495.496	9420.7
495.866	9531.88
496.235	9655.27
496.605	9787.92
496.974	9851.42
497.344	9906.56
497.713	9908.6
498.082	10058.2
498.452	10218.19
498.821	10222.71
499.19	10250.28
499.559	10335.93
499.928	10445.08
500.298	10567.79
500.667	10629.71
501.036	10610.95
501.405	10700.89
501.774	10797.16
502.143	10848.91
502.512	10912.18
502.88	10985.4
503.249	11074.44
503.618	11106.98
503.987	11250.48
504.356	11231.05
504.724	11356.01
505.093	11369.8
505.462	11443.02
505.83	11494.99
506.199	11676.46
506.567	11789.45
506.936	11823.12
507.304	11974.98
507.672	12017.69
508.041	12141.31
508.409	12167.75
508.777	12323
509.145	12323.45
509.514	12404.12
509.882	12518.47
510.25	12540.62
510.618	12639.6
510.986	12713.72
511.354	12825.58
511.722	12947.61
512.09	13114.16
512.458	13007.5
512.826	13179.47
513.193	13253.59
513.561	13264.44
513.929	13487.48
514.297	13588.72
514.664	13704.43
515.032	13712.34
515.4	13910.07
515.767	13907.59
516.135	14034.14
516.502	14023.97
516.869	14168.6
517.237	14345.54
517.604	14358.2
517.972	14465.54
518.339	14495.82
518.706	14609.04
519.073	14732.88
519.44	14817.62
519.808	15017.84
520.175	14995.92
520.542	15264.61
520.909	15446.98
521.276	15381.67
521.643	15490.6
522.009	15598.62
522.376	15641.1
522.743	15849
523.11	16101.2
523.477	16140.75
523.843	16305.49
524.21	16434.07
524.577	16561.08
524.943	16804.01
525.31	16777.57
525.676	16953.61
526.043	17000.84
526.409	17121.74
526.776	17408.96
527.142	17397.89
527.508	17532.8
527.874	17577.77
528.241	17743.42
528.607	17801.27
528.973	18009.85
529.339	17994.03
529.705	18200.35
530.071	18405.32
530.437	18407.81
530.803	18515.37
531.169	18631.53
531.535	18633.56
531.901	18818.64
532.267	18898.42
532.632	18908.13
532.998	19064.51
533.364	19134.57
533.73	19212.53
534.095	19360.78
534.461	19386.99
534.826	19570.94
535.192	19697.49
535.557	19740.43
535.923	19803.7
536.288	19896.36
536.653	19949.46
537.019	19929.57
537.384	20040.98
537.749	20171.38
538.114	20193.97
538.479	20185.16
538.845	20366.63
539.21	20461.31
539.575	20493.85
539.94	20579.95
540.305	20745.6
540.67	20680.52
541.034	20782.89
541.399	21005.03
541.764	20968.42
542.129	21013.16
542.494	21099.49
542.858	21178.81
543.223	21284.12
543.587	21365.92
543.952	21306.71
544.316	21534.5
544.681	21392.36
545.045	21675.74
545.41	21719.36
545.774	21854.04
546.138	21783.09
546.503	21807.94
546.867	21912.8
547.231	22063.08
547.595	22090.42
547.959	22188.05
548.324	22264.43
548.688	22334.48
549.052	22369.28
549.416	22504.87
549.779	22507.13
550.143	22658.32
550.507	22650.86
550.871	22840.46
551.235	22688.6
551.599	22979.66
551.962	22972.66
552.326	23131.3
552.689	23308.7
553.053	23163.16
553.417	23308.92
553.78	23681.11
554.143	23497.62
554.507	23698.06
554.87	23802.47
555.234	23929.7
555.597	23914.55
555.96	23924.5
556.323	24096.47
556.686	24082.23
557.05	24299.18
557.413	24385.05
557.776	24457.82
558.139	24698.94
558.502	24658.94
558.865	24820.07
559.228	24986.17
559.59	25039.27
559.953	24939.84
560.316	25330.34
560.679	25290.79
561.041	25427.51
561.404	25451.24
561.767	25815.97
562.129	25601.74
562.492	25948.4
562.854	26028.62
563.217	26000.83
563.579	26166.25
563.941	26243.99
564.304	26421.16
564.666	26642.62
565.028	26663.86
565.39	26786.12
565.753	26921.48
566.115	27006.22
566.477	27057.97
566.839	27121.93
567.201	27382.26
567.563	27398.08
567.925	27562.37
568.287	27497.96
568.648	27715.36
569.01	27810.95
569.372	27992.41
569.734	27979.08
570.095	28231.96
570.457	28209.58
570.819	28297.94
571.18	28246.64
571.542	28462.68
571.903	28591.27
572.265	28641.66
572.626	28756.46
572.987	28738.83
573.349	28890.02
573.71	28878.49
574.071	29012.05
574.432	29068.54
574.794	29205.04
575.155	29339.04
575.516	29285.49
575.877	29420.62
576.238	29523.9
576.599	29500.4
576.96	29641.86
577.32	29637.79
577.681	29622.65
578.042	29785.36
578.403	29788.52
578.763	29607.74
579.124	29817
579.485	29981.29
579.845	30156.2
580.206	30028.29
580.566	30117.33
580.927	30171.34
581.287	30139.25
581.648	30068.07
582.008	30261.28
582.368	30145.8
582.728	30360.26
583.089	30209.3
583.449	30266.48
583.809	30125.01
584.169	30252.47
584.529	30288.4
584.889	30461.05
585.249	30271
585.609	30325.01
585.969	30447.04
586.329	30272.13
586.688	30415.17
587.048	30377.66
587.408	30341.28
587.768	30390.54
588.127	30303.31
588.487	30249.3
588.846	30542.4
589.206	30277.1
589.565	30413.37
589.925	30499.24
590.284	30334.05
590.643	30530.2
591.003	30487.94
591.362	30624.89
591.721	30492.69
592.08	30545.11
592.44	30623.76
592.799	30614.72
593.158	30466.25
593.517	30512.8
593.876	30641.61
594.235	30651.33
594.593	30635.96
594.952	30780.14
595.311	30564.32
595.67	30692
596.029	30894.94
596.387	30875.95
596.746	30889.29
597.104	30711.66
597.463	30786.24
597.822	30903.98
598.18	30798.89
598.538	30850.19
598.897	31048.83
599.255	30883.64
599.613	31104.42
599.972	30864.65
600.33	31017.87
600.688	30960.7
601.046	30942.39
601.404	31175.61
601.762	30960.47
602.12	31240.24
602.478	31146.68
602.836	31190.97
603.194	31077.08
603.552	31117.08
603.91	31061.94
604.268	31445.43
604.625	31199.56
604.983	31357.75
605.341	31283.63
605.698	31430.97
606.056	31575.82
606.413	31364.98
606.771	31597.29
607.128	31561.59
607.485	31411.98
607.843	31518.2
608.2	31627.35
608.557	31769.72
608.914	31567.23
609.272	31833.44
609.629	31828.25
609.986	31933.78
610.343	31828.92
610.7	31987.11
611.057	31960.44
611.414	31821.92
611.771	31957.51
612.127	32015.13
612.484	32056.49
612.841	32132.42
613.198	32014.68
613.554	31943.27
613.911	32254
614.267	32298.06
614.624	32150.27
614.98	32350.72
615.337	32395.24
615.693	32475.69
616.05	32307.78
616.406	32503.93
616.762	32399.98
617.118	32442.69
617.475	32383.71
617.831	32546.64
618.187	32598.62
618.543	32655.79
618.899	32714.32
619.255	32733.98
619.611	32635.46
619.967	32748.22
620.323	32777.15
620.678	32612.63
621.034	32703.93
621.39	32556.36
621.746	32536.25
622.101	32970.59
622.457	32702.57
622.812	32687.66
623.168	32879.74
623.523	32802.91
623.879	32982.34
624.234	32682.46
624.589	32717.26
624.945	32798.16
625.3	32852.62
625.655	32805.85
626.01	32871.16
626.365	32769.92
626.72	32773.53
627.075	32780.54
627.43	32700.31
627.785	32708.9
628.14	32716.81
628.495	32709.58
628.85	32782.12
629.205	32612.41
629.559	32850.82
629.914	32596.36
630.269	32570.82
630.623	32569.24
630.978	32587.77
631.332	32687.66
631.687	32755
632.041	32476.82
632.396	32444.73
632.75	32435.69
633.104	32539.64
633.459	32294.9
633.813	32399.08
634.167	32387.55
634.521	32333.09
634.875	32316.82
635.229	32210.83
635.583	32094.23
635.937	32078.41
636.291	32132.87
636.645	32113.21
636.999	32033.21
637.352	32122.93
637.706	31903.05
638.06	32250.61
638.413	31972.2
638.767	31945.53
639.121	31887.45
639.474	31769.72
639.828	31831.41
640.181	31766.78
640.534	31746.89
640.888	31601.58
641.241	31425.09
641.594	31640.45
641.947	31595.03
642.301	31442.27
642.654	31656.27
643.007	31560.46
643.36	31542.6
643.713	31423.28
644.066	31486.11
644.419	31293.34
644.771	31186.23
645.124	30858.55
645.477	30858.1
645.83	30578.79
646.182	30405.91
646.535	30341.5
646.888	30404.55
647.24	30199.59
647.593	30432.58
647.945	30260.15
648.298	30108.52
648.65	30107.61
649.002	29911.69
649.355	30079.59
649.707	30080.95
650.059	30309.87
650.411	30560.71
650.763	30518.45
651.115	30854.94
651.467	30878.67
651.819	30685.22
652.171	30767.03
652.523	30578.56
652.875	30676.64
653.227	30539.01
653.578	30674.15
653.93	30594.38
654.282	30395.74
654.633	30359.36
654.985	30417.21
655.337	30400.94
655.688	30405.01
656.039	30493.59
656.391	30128.63
656.742	30374.95
657.094	30289.98
657.445	30449.07
657.796	30218.12
658.147	30212.02
658.498	30278.68
658.849	30218.12
659.2	30156.88
659.551	30108.74
659.902	30259.02
660.253	30238.91
660.604	30184.67
660.955	30057.44
661.306	30055.64
661.656	30135.41
662.007	30149.42
662.358	30062.42
662.708	29968.63
663.059	29899.71
663.409	29739.03
663.76	30059.93
664.11	29971.12
664.461	30010.89
664.811	29923.66
665.161	30023.77
665.511	29777.45
665.862	29962.08
666.212	29951.01
666.562	29945.13
666.912	29956.88
667.262	29899.03
667.612	29850.44
667.962	29903.32
668.312	29896.32
668.662	29940.16
669.011	29798.02
669.361	29833.95
669.711	29822.42
670.06	29741.75
670.41	29632.37
670.76	29544.01
671.109	29780.84
671.459	29607.51
671.808	29620.17
672.157	29582.43
672.507	29410.68
672.856	29413.85
673.205	29403
673.554	29559.6
673.904	29615.65
674.253	29664.91
674.602	29484.35
674.951	29231.48
675.3	28977.25
675.649	29366.39
675.998	29315.54
676.346	29300.85
676.695	29378.82
677.044	29152.38
677.393	29256.11
677.741	29261.53
678.09	29137.92
678.438	29090.92
678.787	29149.9
679.135	29117.13
679.484	28959.62
679.832	28985.16
680.181	28988.55
680.529	29036.45
680.877	28793.52
681.225	28905.84
681.573	29054.98
681.922	28850.7
682.27	28773.41
682.618	28702.23
682.966	28620.65
683.314	28599.63
683.661	28740.64
684.009	28565.28
684.357	28539.29
684.705	28442.8
685.053	28536.81
685.4	28430.37
685.748	28215.91
686.095	28157.83
686.443	28042.81
686.79	28077.61
687.138	28064.73
687.485	28102.24
687.832	28003.71
688.18	28018.85
688.527	27987.22
688.874	27864.73
689.221	27638.75
689.568	27713.1
689.915	27679.88
690.262	27672.42
690.609	27521.24
690.956	27347.91
691.303	27452.99
691.65	27350.62
691.997	27344.3
692.344	27102.72
692.69	27172.32
693.037	27187.69
693.383	26848.71
693.73	27065.88
694.077	26927.13
694.423	26663.86
694.769	26734.82
695.116	26622.96
695.462	26539.34
695.808	26496.41
696.155	26674.48
696.501	26504.09
696.847	26385
697.193	26120.37
697.539	26316.75
697.885	26110.43
698.231	25982.07
698.577	25959.47
698.923	26040.83
699.269	25899.36
699.614	25674.96
699.96	25679.03
700.306	25733.49
700.651	25587.96
700.997	25469.32
701.342	25422.09
701.688	25427.51
702.033	25281.3
702.379	25299.15
702.724	25171.92
703.069	25298.25
703.415	24965.6
703.76	24979.39
704.105	24922.89
704.45	24945.71
704.795	24808.54
705.14	24761.31
705.485	24636.12
705.83	24590.24
706.175	24597.7
706.52	24503.01
706.865	24350.25
707.209	24502.79
707.554	24235.68
707.899	24346.63
708.243	24251.5
708.588	24217.37
708.932	24040.65
709.277	24091.73
709.621	24119.75
709.966	23877.49
710.31	24015.57
710.654	23672.08
710.998	23738.74
711.342	23755.46
711.687	23693.32
712.031	23585.98
712.375	23542.14
712.719	23498.97
713.063	23566.99
713.407	23586.88
713.75	23445.41
714.094	23454.23
714.438	23382.14
714.782	23407
715.125	23166.33
715.469	23291.29
715.812	23047.23
716.156	23005.88
716.499	22985.31
716.843	22983.73
717.186	22928.37
717.53	23033.67
717.873	22896.5
718.216	22958.87
718.559	22808.6
718.902	22598.66
719.246	22762.04
719.589	22586.68
719.932	22533.35
720.275	22513.01
720.617	22499
720.96	22481.82
721.303	22553.01
721.646	22492.45
721.989	22355.73
722.331	22291.09
722.674	22261.26
723.016	22235.95
723.359	22184.88
723.701	22200.7
724.044	22082.74
724.386	21968.62
724.729	22077.99
725.071	21928.62
725.413	22006.81
725.755	21906.25
726.097	21892.91
726.439	21802.07
726.782	21721.84
727.124	21884.78
727.465	21742.18
727.807	21656.08
728.149	21566.14
728.491	21570.66
728.833	21579.02
729.175	21593.49
729.516	21560.72
729.858	21511.23
730.199	21507.16
730.541	21388.52
730.882	21383.55
731.224	21440.04
731.565	21216.32
731.906	21249.99
732.248	21329.09
732.589	21268.75
732.93	21104.46
733.271	21136.77
733.612	21169.32
733.953	21115.98
734.294	21035.99
734.635	20988.53
734.976	20996.89
735.317	20988.76
735.658	20867.4
735.999	20967.97
736.339	20810.68
736.68	20910.11
737.021	20723.23
737.361	20763.9
737.702	20791.47
738.042	20675.77
738.383	20647.07
738.723	20704.47
739.063	20637.35
739.404	20593.74
739.744	20509.22
740.084	20453.85
740.424	20515.32
740.764	20459.96
741.104	20429
741.444	20344.25
741.784	20322.33
742.124	20400.07
742.464	20196.46
742.804	20281.43
743.143	20198.04
743.483	20214.31
743.823	20057.48
744.162	20083.92
744.502	20128.67
744.841	20134.99
745.181	20090.25
745.52	20074.2
745.86	20075.79
746.199	20026.07
746.538	19999.18
746.877	19941.78
747.216	19950.82
747.556	19816.58
747.895	19858.84
748.234	19771.84
748.573	19701.33
748.911	19717.83
749.25	19731.84
749.589	19542.69
749.928	19616.36
750.267	19576.36
750.605	19566.19
750.944	19439.87
751.283	19513.99
751.621	19392.87
751.96	19325.52
752.298	19364.84
752.636	19355.58
752.975	19145.19
753.313	19179.31
753.651	19114.23
753.989	18996.72
754.327	19091.4
754.666	18969.83
755.004	19018.41
755.342	18987
755.679	18920.34
756.017	18824.52
756.355	18730.51
756.693	18717.63
757.031	18674.47
757.368	18670.17
757.706	18644.18
758.044	18610.74
758.381	18626.78
758.719	18457.07
759.056	18488.48
759.394	18337.75
759.731	18231.09
760.068	18287.81
760.405	18202.16
760.743	18159.9
761.08	18260.01
761.417	18069.51
761.754	18062.73
762.091	18060.47
762.428	17927.82
762.765	17808.5
763.102	17848.05
763.438	17783.19
763.775	17674.49
764.112	17793.36
764.449	17629.97
764.785	17598.11
765.122	17521.28
765.458	17487.15
765.795	17438.34
766.131	17476.31
766.467	17297.1
766.804	17248.29
767.14	17115.19
767.476	17132.81
767.812	17026.6
768.148	16978.01
768.485	17020.95
768.821	16893.04
769.157	16826.38
769.492	16775.53
769.828	16724.91
770.164	16572.6
770.5	16641.98
770.836	16569.21
771.171	16440.18
771.507	16491.93
771.842	16367.63
772.178	16326.05
772.513	16199.96
772.849	16221.2
773.184	16149.11
773.519	16103.46
773.855	15974.65
774.19	16040.64
774.525	15907.08
774.86	15910.47
775.195	15797.93
775.53	15830.93
775.865	15642
776.2	15653.76
776.535	15553.87
776.87	15502.57
777.205	15478.62
777.539	15472.97
777.874	15531.27
778.209	15250.6
778.543	15253.99
778.878	15114.33
779.212	15178.97
779.547	15092.87
779.881	15132.86
780.215	15010.83
780.55	14991.17
780.884	14911.18
781.218	14871.85
781.552	14846.77
781.886	14763.83
782.22	14779.88
782.554	14659.66
782.888	14462.83
783.222	14489.72
783.556	14502.37
783.889	14399.32
784.223	14291.98
784.557	14392.32
784.89	14331.08
785.224	14191.65
785.557	14061.03
785.891	14076.4
786.224	14043.4
786.558	14072.78
786.891	13891.99
787.224	13891.32
787.557	13808.61
787.891	13823.52
788.224	13821.94
788.557	13756.4
788.89	13644.32
789.223	13649.51
789.556	13598.67
789.888	13541.49
790.221	13519.8
790.554	13397.77
790.887	13429.41
791.219	13422.4
791.552	13326.58
791.884	13279.58
792.217	13174.5
792.549	13071
792.882	13039.81
793.214	13007.05
793.546	13108.96
793.879	12890.66
794.211	12845.92
794.543	12886.37
794.875	12950.55
795.207	12912.58
795.539	12741.29
795.871	12802.76
796.203	12689.77
796.535	12695.64
796.867	12624
797.198	12668.52
797.53	12541.29
797.862	12526.15
798.193	12487.06
798.525	12500.84
798.856	12533.84
799.188	12301.07
799.519	12285.26
799.85	12182.21
800.182	12224.24
800.513	12203
800.844	12134.07
801.175	12197.8
801.506	12214.75
801.837	12125.71
802.168	11963.46
802.499	11947.64
802.83	11908.99
803.161	11865.61
803.491	11909.9
803.822	11770.69
804.153	11747.87
804.483	11649.11
804.814	11748.32
805.145	11701.77
805.475	11714.42
805.805	11631.71
806.136	11602.11
806.466	11578.83
806.796	11529.34
807.126	11457.48
807.457	11484.6
807.787	11466.52
808.117	11425.17
808.447	11366.41
808.777	11363.02
809.107	11343.81
809.436	11181.56
809.766	11283.47
810.096	11207.77
810.426	11161.22
810.755	11192.4
811.085	11172.29
811.414	11138.62
811.744	11010.94
812.073	11057.27
812.403	11019.53
812.732	10938.85
813.061	10952.64
813.39	10917.16
813.719	10846.88
814.049	10920.32
814.378	10908.34
814.707	10851.62
815.036	10747.9
815.365	10747.67
815.693	10668.12
816.022	10690.04
816.351	10612.31
816.68	10587
817.008	10621.8
817.337	10471.29
817.665	10522.36
817.994	10522.14
818.322	10596.71
818.651	10433.33
818.979	10384.74
819.307	10420.9
819.636	10421.35
819.964	10323.27
820.292	10375.7
820.62	10345.87
820.948	10389.71
821.276	10434.01
821.604	10304.29
821.932	10360.79
822.259	10371.63
822.587	10328.25
822.915	10307.23
823.243	10309.94
823.57	10356.27
823.898	10311.97
824.225	10281.92
824.553	10262.48
824.88	10318.53
825.207	10344.06
825.535	10370.73
825.862	10317.17
826.189	10270.62
826.516	10377.28
826.843	10288.47
827.17	10308.13
827.497	10321.69
827.824	10308.13
828.151	10384.52
828.478	10316.72
828.805	10297.29
829.131	10311.75
829.458	10324.86
829.785	10235.37
830.111	10311.07
830.438	10356.72
830.764	10228.59
831.09	10336.83
831.417	10253.45
831.743	10251.41
832.069	10255.03
832.395	10195.37
832.722	10203.95
833.048	10255.25
833.374	10311.52
833.7	10204.41
834.026	10164.63
834.351	10252.54
834.677	10252.09
835.003	10180.9
835.329	10162.15
835.654	10145.88
835.98	10149.94
836.306	10126.44
836.631	10100.68
836.956	10112.43
837.282	10063.85
837.607	10022.26
837.932	10000.8
838.258	9998.08
838.583	9986.56
838.908	9967.58
839.233	9994.02
839.558	9960.8
839.883	9934.36
840.208	9845.55
840.533	9881.03
840.858	9923.96
841.182	9928.26
841.507	9822.95
841.832	9830.63
842.156	9737.3
842.481	9758.99
842.805	9727.36
843.13	9761.93
843.454	9694.36
843.778	9756.73
844.103	9639.68
844.427	9641.26
844.751	9588.38
845.075	9548.83
845.399	9637.64
845.723	9477.87
846.047	9574.82
846.371	9462.05
846.695	9467.93
847.019	9398.55
847.343	9323.53
847.666	9298.67
847.99	9237.88
848.313	9303.87
848.637	9203.76
848.96	9186.58
849.284	9173.02
849.607	9126.02
849.931	9044.21
850.254	9041.5
850.577	8978.9
850.9	8905.68
851.223	8875.63
851.546	8815.97
851.869	8822.75
852.192	8868.17
852.515	8733.94
852.838	8760.38
853.161	8773.48
853.483	8707.05
853.806	8655.3
854.129	8629.53
854.451	8630.21
854.774	8591.79
855.096	8525.35
855.419	8534.85
855.741	8469.54
856.063	8460.72
856.385	8440.84
856.708	8417.11
857.03	8359.71
857.352	8411.23
857.674	8389.77
857.996	8275.42
858.318	8256.21
858.64	8257.34
858.961	8249.2
859.283	8278.13
859.605	8237
859.926	8219.6
860.248	8197.68
860.57	8161.52
860.891	8166.04
861.212	8156.1
861.534	8118.36
861.855	8087.4
862.176	8086.5
862.498	8086.72
862.819	7960.85
863.14	7988.65
863.461	7981.41
863.782	7985.48
864.103	8060.73
864.424	7967.63
864.745	7928.76
865.065	7899.38
865.386	7882.89
865.707	7932.15
866.027	7926.27
866.348	7899.38
866.668	7906.39
866.989	7874.52
867.309	7857.12
867.63	7817.8
867.95	7813.06
868.27	7779.39
868.59	7810.8
868.91	7810.57
869.23	7731.03
869.55	7701.65
869.87	7800.63
870.19	7717.69
870.51	7670.46
870.83	7705.04
871.15	7647.64
871.469	7685.6
871.789	7600.63
872.109	7716.56
872.428	7638.15
872.748	7621.42
873.067	7602.89
873.386	7637.24
873.706	7547.98
874.025	7526.96
874.344	7522.44
874.663	7587.3
874.982	7614.87
875.301	7453.07
875.62	7471.37
875.939	7443.35
876.258	7502.33
876.577	7497.59
876.896	7468.89
877.214	7493.07
877.533	7427.76
877.852	7432.95
878.17	7442.67
878.489	7443.35
878.807	7405.61
879.125	7401.77
879.444	7367.65
879.762	7348.66
880.08	7329.91
880.398	7324.71
880.716	7318.16
881.034	7305.27
881.352	7299.85
881.67	7282.22
881.988	7268.44
882.306	7248.1
882.624	7230.02
882.941	7223.69
883.259	7215.78
883.577	7174.2
883.894	7122.91
884.212	7145.05
884.529	7145.05
884.846	7131.95
885.164	7154.54
885.481	7058.27
885.798	7088.1
886.115	7037.03
886.432	7034.32
886.75	7044.94
887.067	7018.73
887.383	6976.7
887.7	7025.73
888.017	6990.03
888.334	6928.79
888.651	6949.8
888.967	6962.01
889.284	6868.9
889.6	6835.46
889.917	6775.57
890.233	6813.76
890.55	6778.06
890.866	6780.99
891.182	6755.46
891.498	6753.65
891.815	6727.66
892.131	6736.7
892.447	6687.89
892.763	6683.82
893.079	6680.21
893.395	6653.99
893.71	6617.61
894.026	6593.65
894.342	6579.19
894.657	6540.77
894.973	6594.56
895.289	6555.46
895.604	6555.46
895.92	6477.73
896.235	6508.23
896.55	6440.21
896.865	6465.3
897.181	6438.4
897.496	6421.68
897.811	6363.38
898.126	6366.54
898.441	6304.17
898.756	6320.44
899.071	6311.18
899.386	6307.11
899.7	6231.4
900.015	6225.08
900.33	6141.01
900.644	6127.23
900.959	6181.91
901.273	6156.15
901.588	6108.02
901.902	6040.22
902.216	6104.18
902.531	6048.58
902.845	6045.87
903.159	5932.88
903.473	5960.68
903.787	5932.88
904.101	5953.67
904.415	5919.55
904.729	5899.89
905.042	5836.39
905.356	5805.65
905.67	5882.03
905.984	5826.67
906.297	5824.86
906.611	5745.99
906.924	5782.83
907.237	5743.96
907.551	5701.93
907.864	5680.68
908.177	5704.19
908.491	5653.57
908.804	5621.93
909.117	5625.32
909.43	5586.22
909.743	5594.81
910.056	5517.75
910.368	5535.6
910.681	5507.81
910.994	5496.06
911.307	5479.79
911.619	5411.54
911.932	5394.59
912.244	5364.08
912.557	5425.78
912.869	5391.88
913.181	5354.36
913.494	5283.18
913.806	5313.01
914.118	5256.97
914.43	5251.77
914.742	5264.65
915.054	5208.61
915.366	5247.93
915.678	5207.7
915.99	5118.44
916.302	5076.63
916.613	5102.85
916.925	5075.73
917.236	5059.91
917.548	5052.45
917.859	5051.32
918.171	5008.61
918.482	4981.27
918.794	4960.7
919.105	4979.91
919.416	4946.69
919.727	4933.36
920.038	4910.99
920.349	4889.74
920.66	4874.38
920.971	4895.62
921.282	4844.1
921.593	4802.74
921.903	4746.25
922.214	4761.39
922.525	4762.97
922.835	4742.4
923.146	4710.09
923.456	4652.69
923.767	4651.56
924.077	4655.85
924.387	4596.42
924.697	4631.45
925.008	4553.93
925.318	4599.13
925.628	4525.01
925.938	4498.79
926.248	4511.9
926.558	4496.53
926.867	4445.91
927.177	4494.95
927.487	4443.65
927.796	4439.81
928.106	4393.26
928.416	4408.85
928.725	4393.94
929.034	4320.95
929.344	4342.64
929.653	4328.4
929.962	4312.13
930.271	4258.12
930.581	4220.61
930.89	4197.56
931.199	4257.9
931.508	4225.36
931.817	4208.63
932.125	4195.3
932.434	4147.16
932.743	4181.29
933.051	4094.51
933.36	4111.69
933.669	4078.69
933.977	4075.75
934.286	4080.95
934.594	4045.02
934.902	3994.17
935.21	3948.53
935.519	4003.44
935.827	4008.64
936.135	3931.58
936.443	3932.26
936.751	3933.39
937.059	3910.56
937.367	3895.87
937.674	3884.57
937.982	3894.06
938.29	3835.76
938.597	3842.54
938.905	3810.9
939.213	3802.09
939.52	3758.02
939.827	3760.51
940.135	3732.26
940.442	3742.88
940.749	3720.06
941.056	3685.93
941.363	3684.8
941.67	3706.05
941.977	3641.19
942.284	3657.46
942.591	3636.67
942.898	3598.03
943.205	3633.28
943.511	3597.57
943.818	3614.75
944.125	3546.05
944.431	3520.06
944.738	3533.4
945.044	3477.13
945.35	3507.86
945.657	3525.49
945.963	3444.36
946.269	3426.05
946.575	3424.02
946.881	3421.31
947.187	3416.34
947.493	3380.18
947.799	3361.65
948.105	3352.61
948.41	3331.14
948.716	3369.56
949.022	3283.46
949.327	3290.69
949.633	3287.07
949.938	3287.53
950.244	3279.84
950.549	3255.21
950.854	3247.08
951.16	3207.98
951.465	3174.31
951.77	3257.7
952.075	3208.66
952.38	3183.57
952.685	3176.8
952.99	3167.98
953.294	3158.26
953.599	3119.62
953.904	3093.63
954.209	3076.23
954.513	3129.11
954.818	3077.14
955.122	3032.62
955.426	3043.01
955.731	3031.49
956.035	3033.97
956.339	3026.29
956.643	3045.5
956.948	3012.51
957.252	2970.25
957.556	3019.06
957.86	2961.43
958.163	2934.32
958.467	2926.86
958.771	2902
959.075	2928.67
959.378	2906.29
959.682	2893.19
959.985	2859.29
960.289	2815.22
960.592	2833.3
960.896	2852.28
961.199	2839.85
961.502	2827.43
961.805	2799.86
962.108	2791.72
962.411	2776.58
962.714	2762.12
963.017	2758.95
963.32	2719.18
963.623	2720.76
963.926	2697.49
964.228	2727.09
964.531	2663.59
964.833	2686.86
965.136	2651.39
965.438	2654.77
965.741	2675.57
966.043	2638.96
966.345	2656.58
966.648	2622.69
966.95	2611.39
967.252	2573.87
967.554	2591.95
967.856	2544.04
968.158	2561.44
968.46	2538.85
968.761	2539.07
969.063	2560.77
969.365	2511.05
969.666	2531.84
969.968	2509.02
970.269	2501.56
970.571	2464.72
970.872	2454.55
971.174	2458.17
971.475	2453.2
971.776	2484.84
972.077	2422.92
972.378	2444.38
972.679	2409.36
972.98	2380.21
973.281	2384.27
973.582	2382.92
973.883	2361.22
974.183	2363.48
974.484	2359.87
974.785	2359.19
975.085	2326.65
975.386	2343.14
975.686	2331.62
975.986	2332.98
976.287	2291.17
976.587	2291.85
976.887	2259.53
977.187	2262.92
977.487	2259.31
977.787	2262.24
978.087	2239.42
978.387	2244.62
978.687	2223.83
978.987	2243.03
979.286	2212.53
979.586	2216.82
979.885	2207.1
980.185	2187.44
980.484	2169.59
980.784	2178.63
981.083	2140.66
981.382	2140.44
981.682	2108.35
981.981	2111.74
982.28	2096.82
982.579	2106.77
982.878	2103.15
983.177	2130.27
983.475	2069.93
983.774	2088.91
984.073	2046.2
984.372	2063.38
984.67	2043.49
984.969	2030.16
985.267	2043.04
985.566	2029.93
985.864	2038.07
986.162	2002.59
986.461	2017.5
986.759	2009.82
987.057	1985.87
987.355	1982.93
987.653	1956.94
987.951	1955.58
988.249	1927.11
988.547	1970.73
988.844	1932.08
989.142	1927.11
989.44	1902.48
989.737	1884.4
990.035	1886.43
990.332	1875.13
990.63	1878.07
990.927	1862.93
991.224	1880.11
991.521	1861.12
991.819	1837.85
992.116	1814.8
992.413	1865.19
992.71	1818.19
993.006	1831.29
993.303	1864.29
993.6	1795.81
993.897	1805.08
994.193	1789.49
994.49	1785.42
994.787	1764.85
995.083	1739.54
995.379	1751.97
995.676	1731.64
995.972	1752.43
996.268	1725.53
996.565	1717.17
996.861	1723.27
997.157	1717.17
997.453	1703.16
997.749	1686.89
998.044	1681.69
998.34	1700.68
998.636	1675.82
998.932	1683.27
999.227	1647.34
999.523	1655.03
999.818	1617.74
1000.114	1631.52
1000.409	1616.38
1000.704	1629.27
1001	1601.92
1001.295	1584.29
1001.59	1586.33
1001.885	1592.43
1002.18	1570.06
1002.475	1549.27
1002.77	1553.33
1003.065	1553.56
1003.359	1522.6
1003.654	1529.38
1003.949	1514.24
1004.243	1517.63
1004.538	1500.45
1004.832	1484.18
1005.127	1475.14
1005.421	1493.68
1005.715	1485.77
1006.009	1474.01
1006.304	1465.43
1006.598	1463.62
1006.892	1449.83
1007.186	1437.18
1007.48	1428.14
1007.773	1443.28
1008.067	1422.49
1008.361	1396.28
1008.655	1396.05
1008.948	1396.28
1009.242	1391.98
1009.535	1396.05
1009.829	1385.43
1010.122	1393.57
1010.415	1336.62
1010.708	1347.46
1011.001	1357.86
1011.295	1356.73
1011.588	1303.17
1011.881	1303.17
1012.173	1314.7
1012.466	1299.78
1012.759	1307.47
1013.052	1313.57
1013.344	1288.94
1013.637	1287.13
1013.93	1254.59
1014.222	1259.11
1014.514	1269.95
1014.807	1238.77
1015.099	1228.82
1015.391	1276.96
1015.683	1246.9
1015.976	1224.98
1016.268	1229.95
1016.56	1194.02
1016.851	1198.54
1017.143	1203.29
1017.435	1208.26
1017.727	1177.75
1018.018	1170.29
1018.31	1179.33
1018.602	1179.33
1018.893	1144.76
1019.185	1174.59
1019.476	1145.21
1019.767	1144.98
1020.058	1140.46
1020.35	1109.96
1020.641	1090.3
1020.932	1101.6
1021.223	1108.37
1021.514	1113.35
1021.804	1090.07
1022.095	1097.53
1022.386	1091.43
1022.677	1100.24
1022.967	1062.73
1023.258	1055.27
1023.548	1074.48
1023.839	1072.9
1024.129	1074.93
1024.419	1053.69
1024.709	1042.39
1025	1025.44
1025.29	1032.67
1025.58	1025.44
1025.87	1030.86
1026.16	997.42
1026.449	1007.81
1026.739	999.9
1027.029	1000.81
1027.319	974.14
1027.608	970.3
1027.898	981.37
1028.187	957.64
1028.477	952.45
1028.766	975.72
1029.055	944.09
1029.344	948.83
1029.634	947.93
1029.923	940.24
1030.212	919.23
1030.501	934.59
1030.79	906.35
1031.078	906.57
1031.367	900.24
1031.656	909.74
1031.945	907.48
1032.233	903.18
1032.522	891.88
1032.81	884.65
1033.099	872.67
1033.387	884.88
1033.675	879.91
1033.963	853.69
1034.251	864.77
1034.54	819.79
1034.828	829.29
1035.116	851.88
1035.403	832.22
1035.691	806.01
1035.979	814.82
1036.267	810.3
1036.554	813.92
1036.842	811.66
1037.129	790.19
1037.417	815.95
1037.704	801.04
1037.992	783.19
1038.279	784.32
1038.566	782.28
1038.853	782.28
1039.14	782.28
