Data from breadboard_white_FLMS001491_00090.txt Node
Date: Wed Feb 08 10:48:24 GMT 2017
User: dcchb
Spectrometer: FLMS00149
Trigger mode: 0
Integration Time (sec): 2.000000E-2
Scans to average: 10
Electric dark correction enabled: true
Nonlinearity correction enabled: false
Boxcar width: 0
XAxis mode: Wavelengths
Number of Pixels in Spectrum: 2048
>>>>>Begin Spectral Data<<<<<
341.393	-18.84
341.776	-18.84
342.16	-18.84
342.543	-64.72
342.927	-75.79
343.31	-67.65
343.693	-60.65
344.077	-52.29
344.46	-52.29
344.843	-56.13
345.226	-43.7
345.61	-24.94
345.993	-32.4
346.376	-13.19
346.759	12.8
347.142	8.73
347.525	42.17
347.908	49.18
348.291	74.94
348.674	94.15
349.057	121.27
349.44	116.3
349.823	128.95
350.206	156.75
350.588	209.4
350.971	209.63
351.354	225.22
351.737	254.82
352.119	268.61
352.502	272.22
352.884	267.7
353.267	300.7
353.65	301.6
354.032	301.83
354.414	317.65
354.797	331.21
355.179	329.85
355.562	350.87
355.944	320.36
356.326	326.69
356.709	332.56
357.091	363.52
357.473	356.97
357.855	354.26
358.238	356.74
358.62	354.26
359.002	355.39
359.384	341.15
359.766	342.51
360.148	360.58
360.53	341.6
360.912	349.06
361.294	352
361.676	342.28
362.057	367.14
362.439	368.72
362.821	345.22
363.203	342.96
363.584	351.32
363.966	355.16
364.348	352.22
364.729	353.58
365.111	361.04
365.493	336.18
365.874	344.54
366.256	338.21
366.637	345.89
367.019	335.05
367.4	337.99
367.781	347.02
368.163	352.67
368.544	339.34
368.925	345.44
369.306	363.75
369.688	344.09
370.069	337.08
370.45	335.5
370.831	346.8
371.212	334.82
371.593	346.57
371.974	332.56
372.355	349.51
372.736	366.46
373.117	346.35
373.498	349.06
373.879	354.26
374.26	346.8
374.641	342.05
375.021	348.83
375.402	361.26
375.783	379.11
376.163	387.25
376.544	364.88
376.925	369.4
377.305	366.91
377.686	374.14
378.066	389.06
378.447	361.49
378.827	394.93
379.208	373.92
379.588	379.34
379.968	376.85
380.349	394.93
380.729	375.95
381.109	397.87
381.489	382.73
381.87	382.05
382.25	398.77
382.63	392.45
383.01	409.4
383.39	420.02
383.77	408.27
384.15	429.96
384.53	416.85
384.91	417.31
385.29	434.25
385.67	420.47
386.049	431.54
386.429	454.14
386.809	422.28
387.189	447.14
387.568	449.17
387.948	421.15
388.328	462.05
388.707	465.44
389.087	461.37
389.466	460.47
389.846	465.21
390.225	471.32
390.605	502.27
390.984	503.86
391.363	492.11
391.743	502.73
392.122	532.56
392.501	516.06
392.881	517.64
393.26	519
393.639	545.44
394.018	516.29
394.397	538.21
394.776	545.21
395.155	551.54
395.534	559
395.913	573.69
396.292	566.23
396.671	580.01
397.05	608.03
397.429	599.45
397.808	584.76
398.186	595.61
398.565	626.57
398.944	609.16
399.323	650.29
399.701	630.63
400.08	653.23
400.458	637.64
400.837	647.81
401.215	660.01
401.594	673.57
401.972	679.9
402.351	678.99
402.729	715.83
403.107	715.38
403.486	719.22
403.864	744.53
404.242	726.45
404.62	771.42
404.999	775.94
405.377	781.14
405.755	797.18
406.133	793.57
406.511	827.01
406.889	839.89
407.267	830.4
407.645	867.01
408.023	864.75
408.401	907.91
408.779	905.88
409.156	946.56
409.534	947.46
409.912	968.03
410.29	980
410.667	1005.31
411.045	1024.97
411.422	1028.59
411.8	1064.07
412.178	1069.72
412.555	1081.92
412.933	1112.2
413.31	1139.32
413.687	1128.7
414.065	1183.39
414.442	1198.3
414.819	1213.89
415.197	1211.18
415.574	1249.15
415.951	1300.67
416.328	1298.19
416.705	1275.81
417.082	1287.34
417.46	1289.15
417.837	1357.17
418.214	1391.52
418.591	1384.06
418.967	1390.84
419.344	1406.21
419.721	1411.4
420.098	1441.91
420.475	1498.86
420.852	1498.86
421.228	1507.67
421.605	1524.17
421.982	1523.49
422.358	1536.15
422.735	1592.64
423.111	1593.55
423.488	1615.24
423.864	1609.82
424.241	1655.24
424.617	1687.1
424.994	1710.38
425.37	1703.83
425.746	1736.14
426.123	1742.92
426.499	1762.13
426.875	1779.98
427.251	1827.21
427.627	1871.5
428.003	1852.97
428.379	1910.6
428.756	1933.65
429.132	1923.03
429.507	1967.32
429.883	2000.09
430.259	2036.02
430.635	2071.05
431.011	2115.11
431.387	2143.36
431.763	2166.86
432.138	2164.15
432.514	2202.34
432.89	2253.64
433.265	2308.56
433.641	2297.71
434.016	2336.13
434.392	2397.37
434.767	2407.31
435.143	2416.8
435.518	2431.49
435.894	2498.61
436.269	2529.57
436.644	2544.93
437.02	2530.92
437.395	2610.69
437.77	2624.03
438.145	2662.67
438.52	2671.26
438.895	2749.22
439.271	2694.99
439.646	2786.28
440.021	2829.45
440.395	2809.33
440.77	2812.5
441.145	2848.43
441.52	2915.09
441.895	2874.19
442.27	2916.45
442.645	2937.24
443.019	2995.09
443.394	3000.97
443.769	3044.35
444.143	3004.81
444.518	3056.11
444.892	3057.69
445.267	3118.48
445.641	3136.1
446.016	3168.42
446.39	3224.69
446.764	3231.24
447.139	3209.55
447.513	3253.16
447.887	3275.76
448.262	3282.54
448.636	3292.26
449.01	3374.52
449.384	3379.04
449.758	3409.77
450.132	3463.78
450.506	3473.72
450.88	3546.26
451.254	3509.43
451.628	3582.87
452.002	3573.83
452.376	3649.99
452.75	3660.61
453.123	3679.37
453.497	3779.7
453.871	3755.07
454.244	3870.32
454.618	3903.32
454.992	3936.53
455.365	3946.25
455.739	4007.27
456.112	4106.93
456.486	4081.16
456.859	4193.7
457.232	4244.32
457.606	4261.95
457.979	4316.86
458.352	4371.33
458.725	4435.05
459.099	4535.16
459.472	4580.81
459.845	4616.29
460.218	4603.86
460.591	4705.55
460.964	4734.03
461.337	4808.83
461.71	4896.74
462.083	4997.07
462.456	4994.59
462.829	5017.64
463.201	5131.98
463.574	5122.72
463.947	5258.76
464.32	5341.92
464.692	5357.51
465.065	5417.63
465.438	5489.71
465.81	5570.16
466.183	5562.71
466.555	5768.58
466.928	5798.41
467.3	5818.29
467.672	5895.35
468.045	6071.85
468.417	6084.95
468.789	6100.32
469.161	6230.71
469.534	6293.99
469.906	6444.27
470.278	6523.36
470.65	6570.82
471.022	6691.26
471.394	6871.6
471.766	6911.37
472.138	6961.54
472.51	7150.46
472.882	7233.62
473.253	7292.38
473.625	7419.16
473.997	7553.61
474.369	7612.6
474.74	7707.96
475.112	7830.44
475.484	7992.47
475.855	8106.37
476.227	8230.43
476.598	8455.06
476.97	8471.56
477.341	8744.54
477.713	8842.17
478.084	8890.3
478.455	9082.61
478.827	9271.99
479.198	9519.21
479.569	9512.43
479.94	9832.88
480.311	9891.86
480.682	10086.66
481.053	10337.95
481.424	10526.42
481.795	10583.59
482.166	10775.45
482.537	10948.78
482.908	11134.76
483.279	11249.34
483.65	11481.2
484.021	11716.67
484.391	11780.17
484.762	11908.3
485.133	12088.41
485.503	12245.47
485.874	12563.2
486.244	12653.59
486.615	12881.61
486.985	13057.88
487.356	13253.35
487.726	13294.71
488.097	13660.35
488.467	13727.46
488.837	14032.54
489.207	14226.89
489.578	14363.61
489.948	14505.3
490.318	14698.96
490.688	14677.95
491.058	14992.97
491.428	15247.88
491.798	15364.26
492.168	15646.06
492.538	15804.7
492.908	15889.44
493.278	16182.09
493.648	16137.8
494.017	16418.69
494.387	16512.93
494.757	16698.23
495.126	16932.35
495.496	16928.96
495.866	17056.42
496.235	17261.16
496.605	17436.97
496.974	17593.58
497.344	17762.61
497.713	17831.31
498.082	17992.89
498.452	18231.3
498.821	18350.17
499.19	18275.37
499.559	18601.01
499.928	18648.01
500.298	18731.85
500.667	18921.68
501.036	18956.48
501.405	19158.06
501.774	19203.25
502.143	19462.68
502.512	19558.95
502.88	19805.27
503.249	19866.51
503.618	19909.45
503.987	20064.02
504.356	20105.15
504.724	20224.24
505.093	20478.47
505.462	20424.69
505.83	20784
506.199	20790.78
506.567	21127.27
506.936	21148.06
507.304	21421.95
507.672	21464.44
508.041	21637.54
508.409	21823.75
508.777	21998.88
509.145	22126.34
509.514	22094.93
509.882	22411.76
510.25	22471.41
510.618	22649.49
510.986	22748.47
511.354	23022.59
511.722	23192.98
512.09	23401.33
512.458	23380.32
512.826	23631.38
513.193	23783.92
513.561	23857.59
513.929	24051.26
514.297	24269.79
514.664	24421.42
515.032	24546.61
515.4	24755.87
515.767	24952.71
516.135	25108.63
516.502	24942.31
516.869	25407.16
517.237	25626.36
517.604	25568.73
517.972	25927.37
518.339	26142.96
518.706	26204.65
519.073	26261.15
519.44	26645.09
519.808	26926.66
520.175	26934.35
520.542	27268.8
520.909	27349.93
521.276	27463.15
521.643	27860.2
522.009	27989.01
522.376	28153.07
522.743	28400.07
523.11	28581.99
523.477	28867.86
523.843	29090.22
524.21	29414.74
524.577	29596.88
524.943	29708.96
525.31	29978.79
525.676	30248.39
526.043	30393.47
526.409	30404.77
526.776	30942.6
527.142	31053.56
527.508	31191.64
527.874	31485.64
528.241	31695.81
528.607	31732.19
528.973	32048.34
529.339	31954.56
529.705	32367.88
530.071	32526.29
530.437	32831.59
530.803	33047.18
531.169	33212.83
531.535	33189.55
531.901	33319.04
532.267	33550.22
532.632	33788.63
532.998	33950.43
533.364	34076.53
533.73	34111.56
534.095	34508.39
534.461	34542.74
534.826	34777.53
535.192	34994.25
535.557	35174.36
535.923	35118.99
536.288	35285.09
536.653	35424.75
537.019	35417.06
537.384	35626.55
537.749	35825.41
538.114	35999.87
538.479	36001.23
538.845	36222.01
539.21	36305.18
539.575	36462.46
539.94	36451.84
540.305	36818.83
540.67	36854.09
541.034	36918.49
541.399	37025.83
541.764	37317.35
542.129	37377.01
542.494	37446.16
542.858	37532.94
543.223	37632.6
543.587	37817.68
543.952	37755.76
544.316	38046.37
544.681	38090.89
545.045	38334.27
545.41	38509.64
545.774	38660.59
546.138	38750.99
546.503	38746.24
546.867	38629.41
547.231	39080.47
547.595	39173.57
547.959	39319.56
548.324	39334.93
548.688	39508.03
549.052	39617.86
549.416	39694.46
549.779	39971.52
550.143	39921.58
550.507	40378.29
550.871	40380.1
551.235	40277.73
551.599	40569.02
551.962	40748
552.326	40893.3
552.689	41151.38
553.053	40983.02
553.417	41144.37
553.78	41710.46
554.143	41536.22
554.507	41744.35
554.87	41804.69
555.234	42241.74
555.597	42104.12
555.96	42345.69
556.323	42538.68
556.686	42619.13
557.05	42912.46
557.413	43054.15
557.776	43074.94
558.139	43324.2
558.502	43439
558.865	43636.51
559.228	43873.79
559.59	43946.1
559.953	44081.69
560.316	44528.69
560.679	44391.52
561.041	44800.32
561.404	44917.15
561.767	45153.76
562.129	45042.12
562.492	45520.07
562.854	45509.68
563.217	45632.84
563.579	45745.83
563.941	46042.32
564.304	46110.57
564.666	46375.19
565.028	46548.07
565.39	46649.99
565.753	46912.13
566.115	47048.4
566.477	47212.23
566.839	47294.04
567.201	47645.44
567.563	47503.07
567.925	47780.58
568.287	47889.05
568.648	47904.19
569.01	48274.58
569.372	48406.33
569.734	48195.71
570.095	48633.89
570.457	48723.83
570.819	48772.87
571.18	48886.09
571.542	49099.19
571.903	49090.6
572.265	49224.61
572.626	49369.01
572.987	49465.96
573.349	49544.83
573.71	49735.33
574.071	49690.13
574.432	49881.77
574.794	50079.73
575.155	50122.21
575.516	50099.39
575.877	50327.18
576.238	50212.61
576.599	50301.87
576.96	50441.75
577.32	50418.02
577.681	50599.04
578.042	50655.08
578.403	50587.06
578.763	50596.78
579.124	50717
579.485	50837
579.845	51050.1
580.206	50961.06
580.566	50901.4
580.927	50887.62
581.287	51066.6
581.648	50971.23
582.008	51142.75
582.368	51036.77
582.728	51131.9
583.089	51051.91
583.449	51064.34
583.809	51077.44
584.169	51184.78
584.529	51119.7
584.889	51414.61
585.249	51127.61
585.609	51086.93
585.969	51283.31
586.329	51254.39
586.688	51211
587.048	51234.5
587.408	51182.07
587.768	51181.62
588.127	51191.56
588.487	51140.72
588.846	51395.17
589.206	51198.57
589.565	51243.77
589.925	51393.37
590.284	51260.71
590.643	51330.09
591.003	51448.28
591.362	51497.54
591.721	51388.39
592.08	51446.02
592.44	51552.91
592.799	51505.68
593.158	51462.52
593.517	51518.56
593.876	51606.24
594.235	51382.97
594.593	51416.87
594.952	51551.33
595.311	51477.66
595.67	51529.18
596.029	51737.54
596.387	51649.63
596.746	51747.26
597.104	51666.81
597.463	51614.6
597.822	51712.23
598.18	51613.47
598.538	51591.55
598.897	51785.22
599.255	51595.17
599.613	52029.06
599.972	51768.27
600.33	51971.88
600.688	51731.89
601.046	51884.2
601.404	51990.64
601.762	51967.36
602.12	52059.79
602.478	52098.66
602.836	52058.21
603.194	52002.16
603.552	52069.05
603.91	51954.48
604.268	52021.6
604.625	52079
604.983	52181.59
605.341	52079.45
605.698	52179.33
606.056	52361.7
606.413	52177.3
606.771	52331.19
607.128	52375.94
607.485	52347.69
607.843	52325.77
608.2	52489.83
608.557	52481.25
608.914	52425.2
609.272	52564.41
609.629	52659.55
609.986	52809.83
610.343	52609.38
610.7	52861.58
611.057	52830.16
611.414	52798.08
611.771	52827.45
612.127	52789.71
612.484	52839.88
612.841	52927.79
613.198	52794.69
613.554	52913.1
613.911	53061.57
614.267	52998.3
614.624	52996.71
614.98	53115.35
615.337	53281.45
615.693	53076.71
616.05	53113.77
616.406	53302.47
616.762	53196.48
617.118	53144.05
617.475	53160.1
617.831	53325.74
618.187	53346.76
618.543	53357.83
618.899	53478.06
619.255	53390.6
619.611	53443.48
619.967	53457.94
620.323	53621.1
620.678	53454.55
621.034	53381.34
621.39	53459.98
621.746	53307.21
622.101	53655.91
622.457	53477.61
622.812	53466.31
623.168	53583.14
623.523	53571.61
623.879	53715.57
624.234	53460.2
624.589	53610.48
624.945	53589.69
625.3	53651.16
625.655	53569.35
626.01	53559.18
626.365	53626.53
626.72	53586.98
627.075	53522.8
627.43	53502.24
627.785	53447.1
628.14	53459.53
628.495	53464.72
628.85	53479.64
629.205	53410.49
629.559	53560.77
629.914	53353.99
630.269	53331.62
630.623	53330.72
630.978	53219.08
631.332	53381.79
631.687	53475.57
632.041	53262.47
632.396	53308.57
632.75	53181.34
633.104	53343.15
633.459	53164.85
633.813	53140.21
634.167	53015.02
634.521	53089.82
634.875	53146.09
635.229	53015.24
635.583	52810.28
635.937	52942.93
636.291	52870.16
636.645	52896.83
636.999	52845.08
637.352	52958.52
637.706	52721.01
638.06	52764.63
638.413	52779.32
638.767	52662.03
639.121	52697.51
639.474	52470.85
639.828	52558.76
640.181	52512.66
640.534	52476.95
640.888	52389.5
641.241	52213.46
641.594	52353.11
641.947	52363.06
642.301	52314.7
642.654	52226.11
643.007	52328.48
643.36	52160.8
643.713	52148.6
644.066	52304.75
644.419	52119.67
644.771	51888.72
645.124	51593.13
645.477	51550.88
645.83	51347.94
646.182	51128.51
646.535	51004.68
646.888	51115.41
647.24	50954.06
647.593	51098.23
647.945	51086.26
648.298	50812.14
648.65	50801.74
649.002	50644.69
649.355	50820.5
649.707	50710.45
650.059	50886.94
650.411	51270.66
650.763	51300.71
651.115	51602.17
651.467	51468.84
651.819	51445.34
652.171	51297.32
652.523	51340.26
652.875	51359.47
653.227	51126.25
653.578	51298
653.93	51185.69
654.282	51042.19
654.633	51036.77
654.985	51067.73
655.337	50990.44
655.688	51004.68
656.039	51168.06
656.391	50848.97
656.742	51015.3
657.094	51044.9
657.445	51032.02
657.796	50941.17
658.147	50939.82
658.498	50873.83
658.849	50861.85
659.2	50851.01
659.551	50827.73
659.902	50890.33
660.253	50817.11
660.604	50895.98
660.955	50665.7
661.306	50808.07
661.656	50734.4
662.007	50617.57
662.358	50760.39
662.708	50706.15
663.059	50566.27
663.409	50430.91
663.76	50571.01
664.11	50543.9
664.461	50662.09
664.811	50592.03
665.161	50586.38
665.511	50474.29
665.862	50576.21
666.212	50528.08
666.562	50579.38
666.912	50467.29
667.262	50514.97
667.612	50448.98
667.962	50417.8
668.312	50342.32
668.662	50540.28
669.011	50423.67
669.361	50413.96
669.711	50356.56
670.06	50288.76
670.41	50334.41
670.76	50167.18
671.109	50422.77
671.459	50308.42
671.808	50234.07
672.157	50288.76
672.507	50028.43
672.856	50119.5
673.205	50148.65
673.554	50187.75
673.904	50004.25
674.253	50199.27
674.602	50113.63
674.951	49626.41
675.3	49400.2
675.649	49885.16
675.998	49810.81
676.346	49864.59
676.695	50057.58
677.044	49717.03
677.393	49746.86
677.741	49816.01
678.09	49600.19
678.438	49530.14
678.787	49685.84
679.135	49709.79
679.484	49363.82
679.832	49491.5
680.181	49405.62
680.529	49412.85
680.877	49402.68
681.225	49331.5
681.573	49552.28
681.922	49352.52
682.27	49207.89
682.618	49192.97
682.966	49057.83
683.314	49138.51
683.661	48954.79
684.009	48878.63
684.357	48751.18
684.705	48720.89
685.053	48697.39
685.4	48646.32
685.748	48427.57
686.095	48381.92
686.443	48279.1
686.79	48313.67
687.138	48326.1
687.485	48123.17
687.832	48182.38
688.18	48182.6
688.527	47865.78
688.874	47864.19
689.221	47911.88
689.568	47730.86
689.915	47607.25
690.262	47759.34
690.609	47558.66
690.956	47412
691.303	47428.05
691.65	47137.21
691.997	47253.14
692.344	46886.37
692.69	46821.06
693.037	46881.62
693.383	46677.78
693.73	46800.27
694.077	46469.65
694.423	46452.25
694.769	46314.18
695.116	46274.63
695.462	46170.9
695.808	46074.64
696.155	46081.87
696.501	45734.08
696.847	45779.73
697.193	45502.45
697.539	45576.12
697.885	45373.64
698.231	45226.97
698.577	45139.29
698.923	45267.65
699.269	45046.87
699.614	44785.18
699.96	44701.11
700.306	44658.18
700.651	44445.98
700.997	44389.26
701.342	44403.49
701.688	44202.59
702.033	44088.93
702.379	44138.42
702.724	44031.3
703.069	44131.18
703.415	43524.87
703.76	43699.11
704.105	43540.01
704.45	43447.36
704.795	43307.48
705.14	43214.15
705.485	43070.42
705.83	43030.2
706.175	42935.74
706.52	42868.84
706.865	42749.07
707.209	42651.9
707.554	42585.91
707.899	42586.59
708.243	42441.29
708.588	42432.47
708.932	42151.58
709.277	42065.25
709.621	42111.8
709.966	41935.08
710.31	41885.14
710.654	41568.09
710.998	41572.16
711.342	41519.95
711.687	41524.93
712.031	41171.71
712.375	41123.81
712.719	41237.02
713.063	41132.62
713.407	41170.81
713.75	41025.5
714.094	40967.65
714.438	40732.63
714.782	40854.66
715.125	40560.43
715.469	40504.61
715.812	40422.13
716.156	40315.69
716.499	40328.35
716.843	40349.36
717.186	40011.07
717.53	40249.48
717.873	40104.17
718.216	40081.35
718.559	39827.79
718.902	39677.74
719.246	39691.08
719.589	39472.55
719.932	39544.19
720.275	39410.18
720.617	39508.48
720.96	39336.06
721.303	39220.8
721.646	39374.02
721.989	39004.54
722.331	39062.16
722.674	39024.2
723.016	38952.56
723.359	38856.07
723.701	38846.8
724.044	38629.18
724.386	38472.8
724.729	38655.85
725.071	38544.89
725.413	38447.27
725.755	38454.95
726.097	38383.31
726.439	38124.11
726.782	38079.82
727.124	38268.97
727.465	38083.89
727.807	38020.61
728.149	37882.76
728.491	37786.04
728.833	37876.21
729.175	37666.72
729.516	37669.43
729.858	37662.43
730.199	37545.37
730.541	37524.58
730.882	37488.42
731.224	37488.2
731.565	37262.21
731.906	37224.47
732.248	37342.66
732.589	37133.4
732.93	37014.99
733.271	36963.46
733.612	36925.05
733.953	36938.83
734.294	36917.14
734.635	36828.1
734.976	36866.97
735.317	36751.72
735.658	36642.57
735.999	36658.61
736.339	36525.06
736.68	36436.7
737.021	36370.26
737.361	36184.95
737.702	36468.11
738.042	36368.68
738.383	36270.83
738.723	36210.04
739.063	36079.87
739.404	36180.43
739.744	36005.52
740.084	35860.44
740.424	35832.19
740.764	35921.46
741.104	35835.58
741.444	35721.01
741.784	35459.32
742.124	35557.85
742.464	35531.86
742.804	35485.76
743.143	35440.34
743.483	35342.04
743.823	35180.91
744.162	35177.3
744.502	35211.87
744.841	35024.53
745.181	35230.18
745.52	34940.92
745.86	35026.56
746.199	34902.73
746.538	34811.43
746.877	34966.45
747.216	34897.98
747.556	34785.44
747.895	34693.69
748.234	34591.32
748.573	34519.46
748.911	34491.89
749.25	34459.57
749.589	34195.17
749.928	34282.86
750.267	34251.67
750.605	34129.41
750.944	33967.61
751.283	33862.98
751.621	33990.66
751.96	33788.63
752.298	33769.65
752.636	33637.67
752.975	33557
753.313	33472.93
753.651	33580.05
753.989	33439.49
754.327	33225.03
754.666	33084.7
755.004	33152.94
755.342	33123.56
755.679	33083.34
756.017	32857.36
756.355	32934.19
756.693	32728.55
757.031	32835.21
757.368	32592.96
757.706	32416.92
758.044	32464.15
758.381	32430.25
758.719	32207.66
759.056	32315.22
759.394	32183.25
759.731	31852.64
760.068	31981.67
760.405	31828.68
760.743	31813.32
761.08	31911.39
761.417	31584.85
761.754	31445.87
762.091	31502.59
762.428	31322.26
762.765	31063.05
763.102	31199.32
763.438	31081.36
763.775	30858.99
764.112	30950.74
764.449	31047.46
764.785	30676.85
765.122	30508.04
765.458	30369.06
765.795	30351.89
766.131	30376.74
766.467	30111.21
766.804	30009.07
767.14	29852.69
767.476	29771.56
767.812	29770.43
768.148	29849.75
768.485	29504.22
768.821	29577.89
769.157	29372.93
769.492	29434.62
769.828	29339.48
770.164	28985.14
770.5	28940.85
770.836	28934.97
771.171	28665.38
771.507	28760.51
771.842	28480.3
772.178	28420.64
772.513	28335.44
772.849	28247.99
773.184	28128.22
773.519	28259.06
773.855	27967.09
774.19	27835.57
774.525	27742.01
774.86	27745.63
775.195	27647.78
775.53	27530.49
775.865	27356.48
776.2	27232.87
776.535	27151.97
776.87	27123.04
777.205	26893.22
777.539	27009.15
777.874	26881.47
778.209	26665.2
778.543	26573.68
778.878	26498.43
779.212	26467.24
779.547	26230.64
779.881	26319.22
780.215	26160.81
780.55	26125.1
780.884	25960.59
781.218	25786.36
781.552	25742.52
781.886	25653.25
782.22	25563.76
782.554	25595.63
782.888	25217.11
783.222	25120.38
783.556	24998.35
783.889	25091.68
784.223	24912.71
784.557	24740.06
784.89	24858.7
785.224	24639.72
785.557	24667.74
785.891	24550.68
786.224	24327.41
786.558	24348.43
786.891	24277.02
787.224	24158.83
787.557	24037.93
787.891	23977.59
788.224	24020.98
788.557	23911.6
788.89	23813.53
789.223	23820.08
789.556	23607.88
789.888	23618.05
790.221	23469.81
790.554	23293.09
790.887	23286.99
791.219	23215.58
791.552	23088.57
791.884	22931.74
792.217	22919.99
792.549	22891.29
792.882	22714.12
793.214	22780.79
793.546	22636.83
793.879	22427.35
794.211	22413.79
794.543	22504.41
794.875	22295.6
795.207	22377.18
795.539	22180.8
795.871	22154.81
796.203	22036.62
796.535	21898.1
796.867	21887.02
797.198	21731.32
797.53	21824.65
797.862	21637.76
798.193	21752.56
798.525	21523.42
798.856	21475.06
799.188	21336.08
799.519	21233.03
799.85	21141.96
800.182	21068.29
800.513	21123.65
800.844	20923.43
801.175	21017.67
801.506	20990.32
801.837	20834.4
802.168	20737.9
802.499	20725.92
802.83	20571.35
803.161	20515.53
803.491	20501.98
803.822	20504.23
804.153	20431.47
804.483	20196.9
804.814	20164.81
805.145	20130.01
805.475	20127.97
805.805	19937.92
806.136	20159.16
806.466	20019.28
806.796	20014.3
807.126	19791.26
807.457	19690.7
807.787	19698.61
808.117	19664.03
808.447	19564.37
808.777	19655.67
809.107	19496.58
809.436	19461.78
809.766	19428.78
810.096	19267.43
810.426	19319.41
810.755	19381.1
811.085	19201.67
811.414	19143.59
811.744	19060.88
812.073	18967.33
812.403	18987.66
812.732	18953.54
813.061	18985.4
813.39	18835.58
813.719	18695.02
814.049	18811.85
814.378	18723.26
814.707	18681.23
815.036	18588.81
815.365	18549.94
815.693	18382.71
816.022	18418.19
816.351	18320.79
816.68	18232.88
817.008	18295.25
817.337	18015.03
817.665	18174.58
817.994	18123.28
818.322	18128.25
818.651	17985.66
818.979	17964.19
819.307	18005.77
819.636	17907.92
819.964	17835.38
820.292	17825.66
820.62	17810.52
820.948	17800.8
821.276	17855.94
821.604	17800.58
821.932	17820.46
822.259	17857.98
822.587	17760.35
822.915	17703.86
823.243	17776.17
823.57	17616.85
823.898	17730.97
824.225	17624.54
824.553	17650.52
824.88	17704.53
825.207	17656.85
825.535	17571.43
825.862	17766.45
826.189	17639.9
826.516	17763.74
826.843	17686
827.17	17725.78
827.497	17800.13
827.824	17650.98
828.151	17696.17
828.478	17602.84
828.805	17723.52
829.131	17617.53
829.458	17571.43
829.785	17519.68
830.111	17625.44
830.438	17676.96
830.764	17604.88
831.09	17660.24
831.417	17546.57
831.743	17584.09
832.069	17608.04
832.395	17546.12
832.722	17626.8
833.048	17414.82
833.374	17484.65
833.7	17417.31
834.026	17444.65
834.351	17486.69
834.677	17414.6
835.003	17341.83
835.329	17368.05
835.654	17304.32
835.98	17244.21
836.306	17309.52
836.631	17217.99
836.956	17189.75
837.282	17153.81
837.607	17126.24
837.932	17142.97
838.258	17193.36
838.583	16999.69
838.908	17000.37
839.233	17022.74
839.558	16971.9
839.883	16859.13
840.208	16904.33
840.533	16923.09
840.858	16823.43
841.182	16763.09
841.507	16780.94
841.832	16722.41
842.156	16630.89
842.481	16650.78
842.805	16630.21
843.13	16569.2
843.454	16607.39
843.778	16525.81
844.103	16452.82
844.427	16425.25
844.751	16442.19
845.075	16303.67
845.399	16261.18
845.723	16201.3
846.047	16259.83
846.371	16066.84
846.695	16091.7
847.019	15921.76
847.343	15958.59
847.666	15881.76
847.99	15812.15
848.313	15821.87
848.637	15707.98
848.96	15629.79
849.284	15524.48
849.607	15456.91
849.931	15401.77
850.254	15337.82
850.577	15234.99
850.9	15119.29
851.223	15178.27
851.546	15066.41
851.869	14929.01
852.192	15041.1
852.515	14803.37
852.838	14798.4
853.161	14787.55
853.483	14709.36
853.806	14678.4
854.129	14655.12
854.451	14544.17
854.774	14494.45
855.096	14483.15
855.419	14478.18
855.741	14497.61
856.063	14321.35
856.385	14318.86
856.708	14271.63
857.03	14184.4
857.352	14240.67
857.674	14210.84
857.996	14063.05
858.318	14034.12
858.64	14061.69
858.961	13934.24
859.283	13880.23
859.605	13877.74
859.926	13971.75
860.248	13886.78
860.57	13814.47
860.891	13773.11
861.212	13729.05
861.534	13627.13
861.855	13653.57
862.176	13662.38
862.498	13649.95
862.819	13583.51
863.14	13579.45
863.461	13506.9
863.782	13463.29
864.103	13367.47
864.424	13436.62
864.745	13374.93
865.065	13317.53
865.386	13290.19
865.707	13264.43
866.027	13242.73
866.348	13270.98
866.668	13171.32
866.989	13158.21
867.309	13053.13
867.63	13132
867.95	13102.85
868.27	13000.48
868.59	13059.91
868.91	12985.34
869.23	12978.56
869.55	12913.93
869.87	13100.81
870.19	12847.94
870.51	12966.81
870.83	12893.81
871.15	12811.56
871.469	12817.66
871.789	12846.13
872.109	12815.85
872.428	12708.51
872.748	12748.51
873.067	12755.29
873.386	12644.1
873.706	12725.23
874.025	12597.32
874.344	12602.3
874.663	12667.38
874.982	12503.09
875.301	12600.26
875.62	12533.37
875.939	12515.52
876.258	12494.5
876.577	12495.63
876.896	12448.4
877.214	12409.76
877.533	12467.16
877.852	12432.81
878.17	12433.94
878.489	12448.18
878.807	12348.52
879.125	12346.26
879.444	12265.81
879.762	12227.62
880.08	12264.23
880.398	12196.66
880.716	12262.64
881.034	12255.41
881.352	12231.01
881.67	12222.19
881.988	12175.41
882.306	12099.03
882.624	12041.18
882.941	12012.71
883.259	12059.49
883.577	11920.05
883.894	11967.51
884.212	11906.04
884.529	11887.74
884.846	11894.74
885.164	11812.49
885.481	11812.71
885.798	11811.13
886.115	11795.09
886.432	11707.63
886.75	11640.74
887.067	11741.53
887.383	11661.76
887.7	11669.21
888.017	11587.41
888.334	11595.77
888.651	11599.16
888.967	11508.54
889.284	11467.86
889.6	11472.16
889.917	11343.57
890.233	11447.75
890.55	11310.13
890.866	11366.62
891.182	11261.09
891.498	11228.09
891.815	11223.35
892.131	11160.98
892.447	11117.14
892.763	11113.97
893.079	11009.34
893.395	11020.19
893.71	11038.95
894.026	11018.83
894.342	10918.05
894.657	10865.39
894.973	10866.75
895.289	10873.08
895.604	10897.03
895.92	10752.17
896.235	10763.7
896.55	10681.89
896.865	10695.91
897.181	10652.29
897.496	10638.73
897.811	10583.37
898.126	10505.63
898.441	10443.93
898.756	10456.36
899.071	10412.3
899.386	10342.24
899.7	10321.68
900.015	10227.44
900.33	10227.44
900.644	10205.52
900.959	10217.73
901.273	10262.02
901.588	10154.45
901.902	10076.03
902.216	9983.38
902.531	9992.65
902.845	9913.33
903.159	9934.8
903.473	9859.32
903.787	9883.5
904.101	9861.35
904.415	9776.83
904.729	9768.47
905.042	9712.2
905.356	9671.3
905.67	9697.97
905.984	9666.1
906.297	9669.04
906.611	9524.41
906.924	9451.64
907.237	9497.74
907.551	9421.36
907.864	9396.28
908.177	9375.04
908.491	9364.41
908.804	9307.24
909.117	9259.33
909.43	9206.68
909.743	9212.1
910.056	9152.67
910.368	9090.07
910.681	8999.23
910.994	9020.7
911.307	8989.96
911.619	8891.43
911.932	8869.51
912.244	8898.21
912.557	8809.85
912.869	8774.6
913.181	8695.51
913.494	8689.18
913.806	8689.4
914.118	8620.03
914.43	8555.85
914.742	8592.23
915.054	8506.81
915.366	8504.32
915.678	8403.99
915.99	8406.7
916.302	8368.28
916.613	8306.14
916.925	8331.22
917.236	8353.37
917.548	8278.79
917.859	8318.11
918.171	8216.2
918.482	8109.53
918.794	8097.33
919.105	8067.27
919.416	8023.66
919.727	8056.88
920.038	7973.94
920.349	7924.45
920.66	7957.22
920.971	7931.68
921.282	7844.45
921.593	7747.28
921.903	7802.65
922.214	7724.68
922.525	7703.67
922.835	7644.91
923.146	7618.47
923.456	7635.42
923.767	7600.85
924.077	7500.06
924.387	7472.26
924.697	7454.41
925.008	7460.96
925.318	7374.18
925.628	7453.73
925.938	7335.77
926.248	7335.09
926.558	7283.34
926.867	7233.17
927.177	7211.48
927.487	7169.44
927.796	7085.38
928.106	7101.88
928.416	7101.65
928.725	7027.98
929.034	7031.82
929.344	7025.27
929.653	6966.29
929.962	6868.66
930.271	6878.15
930.581	6839.06
930.89	6823.92
931.199	6758.38
931.508	6747.08
931.817	6775.33
932.125	6724.03
932.434	6697.59
932.743	6670.7
933.051	6665.05
933.36	6596.58
933.669	6534.21
933.977	6545.73
934.286	6481.33
934.594	6514.32
934.902	6447.66
935.21	6424.38
935.519	6399.52
935.827	6375.11
936.135	6362.46
936.443	6294.89
936.751	6297.38
937.059	6277.72
937.367	6261.45
937.674	6162.69
937.982	6232.75
938.29	6185.97
938.597	6169.7
938.905	6079.08
939.213	6068.91
939.52	6000.21
939.827	6063.94
940.135	5988.01
940.442	5947.56
940.749	5962.47
941.056	5968.35
941.363	5897.84
941.67	5916.37
941.977	5849.03
942.284	5802.93
942.591	5814
942.898	5778.07
943.205	5812.64
943.511	5686.32
943.818	5675.7
944.125	5660.11
944.431	5641.57
944.738	5618.75
945.044	5592.31
945.35	5602.48
945.657	5577.85
945.963	5468.02
946.269	5490.17
946.575	5473.67
946.881	5462.6
947.187	5428.47
947.493	5442.94
947.799	5359.32
948.105	5346.89
948.41	5349.61
948.716	5372.2
949.022	5259.21
949.327	5292.88
949.633	5257.86
949.938	5237.74
950.244	5224.18
950.549	5195.26
950.854	5158.65
951.16	5147.58
951.465	5147.12
951.77	5089.72
952.075	5082.27
952.38	5057.86
952.685	5002.95
952.99	4969.28
953.294	4967.47
953.599	4895.83
953.904	4939.9
954.209	4874.59
954.513	4860.35
954.818	4840.47
955.122	4868.04
955.426	4869.39
955.731	4779.22
956.035	4812.9
956.339	4796.4
956.643	4743.75
956.948	4695.16
957.252	4710.3
957.556	4685.67
957.86	4677.31
958.163	4651.09
958.467	4591.43
958.771	4633.01
959.075	4563.41
959.378	4534.26
959.682	4560.47
959.985	4474.15
960.289	4517.08
960.592	4483.19
960.896	4477.54
961.199	4397.99
961.502	4431.66
961.805	4359.57
962.108	4381.49
962.411	4334.26
962.714	4291.1
963.017	4278.22
963.32	4289.52
963.623	4286.36
963.926	4244.32
964.228	4174.27
964.531	4193.7
964.833	4197.54
965.136	4200.03
965.438	4142.41
965.741	4157.32
966.043	4093.82
966.345	4113.71
966.648	4098.34
966.95	4075.06
967.252	4052.92
967.554	4052.24
967.856	4029.19
968.158	3985.12
968.46	3974.73
968.761	3982.18
969.063	3953.26
969.365	3919.36
969.666	3908.97
969.968	3891.56
970.269	3854.73
970.571	3847.27
970.872	3871.23
971.174	3818.8
971.475	3823.54
971.776	3789.87
972.077	3796.88
972.378	3766.82
972.679	3796.2
972.98	3683.43
973.281	3733.6
973.582	3693.38
973.883	3658.12
974.183	3689.08
974.484	3622.42
974.785	3607.28
975.085	3633.27
975.386	3628.97
975.686	3641.4
975.986	3542.42
976.287	3564.34
976.587	3504
976.887	3568.41
977.187	3509.88
977.487	3503.33
977.787	3477.34
978.087	3456.55
978.387	3410.22
978.687	3452.93
978.987	3433.5
979.286	3409.32
979.586	3394.85
979.885	3385.59
980.185	3343.1
980.484	3325.25
980.784	3327.74
981.083	3288.19
981.382	3273.95
981.682	3278.02
981.981	3242.32
982.28	3240.96
982.579	3225.82
982.878	3224.46
983.177	3188.31
983.475	3196.67
983.774	3131.13
984.073	3153.28
984.372	3133.39
984.67	3116.44
984.969	3106.05
985.267	3111.02
985.566	3117.8
985.864	3083.45
986.162	3060.17
986.461	3056.78
986.759	3035.77
987.057	2995.77
987.355	3004.81
987.653	3016.33
987.951	2957.58
988.249	2972.72
988.547	2934.98
988.844	2905.83
989.142	2909.67
989.44	2924.58
989.737	2899.27
990.035	2864.02
990.332	2842.78
990.63	2831.48
990.927	2849.33
991.224	2828.32
991.521	2825.15
991.819	2785.38
992.116	2802.78
992.413	2771.14
992.71	2744.7
993.006	2749.45
993.303	2719.39
993.6	2727.53
993.897	2690.69
994.193	2674.42
994.49	2690.47
994.787	2668.09
995.083	2628.77
995.379	2615.44
995.676	2647.08
995.972	2580.86
996.268	2589.23
996.565	2565.5
996.861	2565.95
997.157	2535.67
997.453	2519.62
997.749	2550.58
998.044	2551.49
998.34	2511.94
998.636	2466.74
998.932	2447.31
999.227	2466.97
999.523	2463.81
999.818	2423.35
1000.114	2438.5
1000.409	2414.54
1000.704	2396.69
1001	2417.25
1001.295	2391.94
1001.59	2364.37
1001.885	2359.4
1002.18	2304.94
1002.475	2311.94
1002.77	2322.34
1003.065	2290.93
1003.359	2284.83
1003.654	2269.69
1003.949	2273.3
1004.243	2266.3
1004.538	2257.71
1004.832	2225.17
1005.127	2200.54
1005.421	2195.56
1005.715	2168.45
1006.009	2184.72
1006.304	2143.36
1006.598	2123.02
1006.892	2123.48
1007.186	2165.51
1007.48	2134.32
1007.773	2078.73
1008.067	2081.67
1008.361	2044.83
1008.655	2048.67
1008.948	2085.96
1009.242	2041.67
1009.535	2015.91
1009.829	1987.43
1010.122	2011.61
1010.415	2003.7
1010.708	1955.8
1011.001	1976.81
1011.295	1955.57
1011.588	1981.78
1011.881	1906.31
1012.173	1937.04
1012.466	1910.15
1012.759	1890.49
1013.052	1908.57
1013.344	1854.78
1013.637	1841
1013.93	1827.89
1014.222	1827.44
1014.514	1837.61
1014.807	1829.7
1015.099	1776.59
1015.391	1793.77
1015.683	1761.9
1015.976	1748.12
1016.268	1793.09
1016.56	1740.89
1016.851	1713.09
1017.143	1725.29
1017.435	1738.85
1017.727	1680.32
1018.018	1674.45
1018.31	1654.79
1018.602	1690.04
1018.893	1665.41
1019.185	1630.83
1019.476	1641.68
1019.767	1631.06
1020.058	1612.53
1020.35	1615.69
1020.641	1571.85
1020.932	1583.15
1021.223	1591.06
1021.514	1567.33
1021.804	1539.54
1022.095	1544.96
1022.386	1510.16
1022.677	1523.94
1022.967	1514.9
1023.258	1508.12
1023.548	1506.09
1023.839	1485.07
1024.129	1463.83
1024.419	1429.48
1024.709	1452.31
1025	1423.61
1025.29	1408.92
1025.58	1414.34
1025.87	1397.17
1026.16	1372.31
1026.449	1375.25
1026.739	1384.74
1027.029	1389.03
1027.319	1370.5
1027.608	1338.64
1027.898	1327.11
1028.187	1326.43
1028.477	1324.4
1028.766	1326.43
1029.055	1343.16
1029.344	1270.84
1029.634	1306.55
1029.923	1264.97
1030.212	1262.93
1030.501	1276.04
1030.79	1250.05
1031.078	1231.97
1031.367	1243.5
1031.656	1253.67
1031.945	1227.68
1032.233	1229.26
1032.522	1184.29
1032.81	1186.32
1033.099	1167.34
1033.387	1154.01
1033.675	1189.04
1033.963	1162.6
1034.251	1178.87
1034.54	1137.06
1034.828	1114.01
1035.116	1121.24
1035.403	1136.38
1035.691	1118.98
1035.979	1110.62
1036.267	1093.45
1036.554	1079.21
1036.842	1102.71
1037.129	1070.85
1037.417	1081.92
1037.704	1056.84
1037.992	1041.92
1038.279	1057.97
1038.566	1060.68
1038.853	1060.68
1039.14	1060.68
