Data from breadboard_white_FLMS001491_00013.txt Node
Date: Wed Feb 08 10:47:20 GMT 2017
User: dcchb
Spectrometer: FLMS00149
Trigger mode: 0
Integration Time (sec): 2.000000E-2
Scans to average: 10
Electric dark correction enabled: true
Nonlinearity correction enabled: false
Boxcar width: 0
XAxis mode: Wavelengths
Number of Pixels in Spectrum: 2048
>>>>>Begin Spectral Data<<<<<
341.393	-22.13
341.776	-22.13
342.16	-22.13
342.543	-59.65
342.927	-78.4
343.31	-88.8
343.693	-56.93
344.077	-55.13
344.46	-53.77
344.843	-47.22
345.226	-42.24
345.61	-51.28
345.993	-12.64
346.376	-13.77
346.759	11.09
347.142	30.52
347.525	32.78
347.908	46.57
348.291	74.59
348.674	98.32
349.057	127.92
349.44	109.62
349.823	147.35
350.206	166.11
350.588	202.49
350.971	228.03
351.354	228.26
351.737	275.26
352.119	250.63
352.502	267.13
352.884	281.59
353.267	283.85
353.65	311.87
354.032	319.1
354.414	330.85
354.797	316.62
355.179	341.93
355.562	360.23
355.944	337.41
356.326	356.16
356.709	358.87
357.091	348.71
357.473	356.84
357.855	368.82
358.238	373.34
358.62	354.81
359.002	356.16
359.384	374.69
359.766	364.3
360.148	369.04
360.53	353.23
360.912	363.62
361.294	335.15
361.676	342.15
362.057	345.99
362.439	360
362.821	356.84
363.203	351.64
363.584	368.82
363.966	355.03
364.348	371.3
364.729	346.22
365.111	355.94
365.493	336.05
365.874	356.16
366.256	374.47
366.637	353
367.019	359.78
367.4	369.5
367.781	356.39
368.163	365.88
368.544	370.17
368.925	348.48
369.306	347.12
369.688	350.06
370.069	355.71
370.45	352.32
370.831	353.23
371.212	362.04
371.593	348.03
371.974	357.52
372.355	354.13
372.736	352.1
373.117	360.46
373.498	363.17
373.879	369.04
374.26	360.91
374.641	357.74
375.021	350.74
375.402	366.78
375.783	386.67
376.163	393.68
376.544	420.34
376.925	394.13
377.305	370.63
377.686	392.32
378.066	401.81
378.447	428.25
378.827	395.94
379.208	401.59
379.588	411.98
379.968	393.22
380.349	389.61
380.729	395.48
381.109	402.04
381.489	415.82
381.87	421.92
382.25	410.85
382.63	423.28
383.01	435.48
383.39	418.53
383.77	438.19
384.15	428.7
384.53	435.03
384.91	445.2
385.29	467.35
385.67	448.59
386.049	459.44
386.429	456.73
386.809	463.28
387.189	445.88
387.568	477.74
387.948	474.35
388.328	491.07
388.707	488.59
389.087	494.46
389.466	488.14
389.846	492.88
390.225	527.91
390.605	528.36
390.984	533.79
391.363	543.5
391.743	511.87
392.122	534.92
392.501	530.85
392.881	554.58
393.26	549.6
393.639	587.12
394.018	559.32
394.397	577.63
394.776	596.61
395.155	611.52
395.534	590.51
395.913	602.48
396.292	583.5
396.671	620.79
397.05	628.47
397.429	642.26
397.808	648.13
398.186	657.62
398.565	652.43
398.944	650.17
399.323	687.91
399.701	693.78
400.08	697.4
400.458	734.01
400.837	713.89
401.215	727.68
401.594	739.88
401.972	757.96
402.351	767.9
402.729	754.12
403.107	790.28
403.486	812.65
403.864	806.77
404.242	853.55
404.62	872.99
404.999	863.04
405.377	860.1
405.755	882.93
406.133	891.74
406.511	917.5
406.889	937.84
407.267	961.34
407.645	971.51
408.023	1004.73
408.401	1011.96
408.779	1022.13
409.156	1069.36
409.534	1059.2
409.912	1100.78
410.29	1110.49
410.667	1132.41
411.045	1150.27
411.422	1194.56
411.8	1188.01
412.178	1222.13
412.555	1212.86
412.933	1255.12
413.31	1301.67
413.687	1310.71
414.065	1305.97
414.442	1325.63
414.819	1380.54
415.197	1370.83
415.574	1445.17
415.951	1443.14
416.328	1479.52
416.705	1487.66
417.082	1471.39
417.46	1552.29
417.837	1551.16
418.214	1561.78
418.591	1593.42
418.967	1595.23
419.344	1605.4
419.721	1607.88
420.098	1682
420.475	1679.74
420.852	1708.9
421.228	1699.4
421.605	1752.51
421.982	1789.35
422.358	1765.39
422.735	1806.29
423.111	1836.35
423.488	1860.76
423.864	1881.55
424.241	1925.84
424.617	1976.91
424.994	1934.65
425.37	1991.37
425.746	1985.72
426.123	2017.59
426.499	2044.93
426.875	2058.94
427.251	2079.96
427.627	2165.83
428.003	2152.95
428.379	2218.03
428.756	2201.99
429.132	2246.73
429.507	2289.22
429.883	2288.99
430.259	2369.44
430.635	2366.28
431.011	2426.84
431.387	2453.06
431.763	2513.17
432.138	2499.38
432.514	2581.87
432.89	2566.5
433.265	2646.72
433.641	2655.09
434.016	2697.34
434.392	2738.47
434.767	2813.05
435.143	2803.78
435.518	2816.89
435.894	2859.6
436.269	2891.01
436.644	2980.73
437.02	2966.49
437.395	2987.05
437.77	3062.98
438.145	3069.31
438.52	3100.05
438.895	3158.8
439.271	3156.77
439.646	3291.45
440.021	3270.66
440.395	3284.9
440.77	3305.01
441.145	3342.53
441.52	3380.04
441.895	3373.71
442.27	3443.09
442.645	3416.2
443.019	3458
443.394	3465.23
443.769	3533.03
444.143	3495.74
444.518	3578.9
444.892	3582.29
445.267	3616.19
445.641	3686.24
446.016	3681.05
446.39	3735.96
446.764	3747.94
447.139	3691.44
447.513	3770.31
447.887	3785.68
448.262	3805.56
448.636	3811.44
449.01	3912
449.384	3902.51
449.758	3946.13
450.132	4057.53
450.506	4014.37
450.88	4080.58
451.254	4054.6
451.628	4205.78
452.002	4234.48
452.376	4252.56
452.75	4285.1
453.123	4355.83
453.497	4388.15
453.871	4399.9
454.244	4549.95
454.618	4525.77
454.992	4611.42
455.365	4597.18
455.739	4736.39
456.112	4805.76
456.486	4842.82
456.859	4853.45
457.232	4970.28
457.606	4961.24
457.979	5009.83
458.352	5166.21
458.725	5185.41
459.099	5243.27
459.472	5340.89
459.845	5410.49
460.218	5402.36
460.591	5491.62
460.964	5596.25
461.337	5653.2
461.71	5742.46
462.083	5876.24
462.456	5856.13
462.829	5859.3
463.201	6018.16
463.574	6021.1
463.947	6140.19
464.32	6251.83
464.692	6285.95
465.065	6343.12
465.438	6437.58
465.81	6534.76
466.183	6619.28
466.555	6759.16
466.928	6800.51
467.3	6817.46
467.672	6903.79
468.045	7111.47
468.417	7086.61
468.789	7179.94
469.161	7310.33
469.534	7434.17
469.906	7661.51
470.278	7682.52
470.65	7736.99
471.022	7904.44
471.394	8043.42
471.766	8155.96
472.138	8255.16
472.51	8366.12
472.882	8512.56
473.253	8603.4
473.625	8696.51
473.997	8905.09
474.369	8947.35
474.74	9115.71
475.112	9250.17
475.484	9455.58
475.855	9557.05
476.227	9749.14
476.598	9980.77
476.97	10027.1
477.341	10218.28
477.713	10435.22
478.084	10522.68
478.455	10758.15
478.827	10935.09
479.198	11218.7
479.569	11272.49
479.94	11566.94
480.311	11648.3
480.682	11980.94
481.053	12227.72
481.424	12379.35
481.795	12502.51
482.166	12768.04
482.537	12891.2
482.908	13168.93
483.279	13252.1
483.65	13593.78
484.021	13759.2
484.391	13986.31
484.762	14092.98
485.133	14215.01
485.503	14399.41
485.874	14736.35
486.244	14899.06
486.615	15145.38
486.985	15400.97
487.356	15683.44
487.726	15777.9
488.097	16140.83
488.467	16225.58
488.837	16569.52
489.207	16731.1
489.578	16946.46
489.948	17074.59
490.318	17401.14
490.688	17452.21
491.058	17739.21
491.428	17975.36
491.798	18173.55
492.168	18541.22
492.538	18582.12
492.908	18821.67
493.278	18980.76
493.648	19136.46
494.017	19413.74
494.387	19497.35
494.757	19720.63
495.126	19941.64
495.496	19924.91
495.866	20073.16
496.235	20440.38
496.605	20621.39
496.974	20760.6
497.344	20937.54
497.713	21079.91
498.082	21150.19
498.452	21412.33
498.821	21528.71
499.19	21600.8
499.559	21888.7
499.928	21969.38
500.298	22141.8
500.667	22443.27
501.036	22430.38
501.405	22597.84
501.774	22628.12
502.143	22902.24
502.512	23040.99
502.88	23275.79
503.249	23308.55
503.618	23465.39
503.987	23557.13
504.356	23766.62
504.724	23845.49
505.093	24028.53
505.462	24147.4
505.83	24305.36
506.199	24541.97
506.567	24805.24
506.936	24795.52
507.304	25091.56
507.672	25242.97
508.041	25334.26
508.409	25524.54
508.777	25849.5
509.145	25923.17
509.514	26148.71
509.882	26199.78
510.25	26392.77
510.618	26553.89
510.986	26634.12
511.354	26933.32
511.722	27134.44
512.09	27371.5
512.458	27430.71
512.826	27747.76
513.193	27899.17
513.561	27965.83
513.929	28272.27
514.297	28498.47
514.664	28611.24
515.032	28701.18
515.4	28895.75
515.767	29249.87
516.135	29363.54
516.502	29164.22
516.869	29723.3
517.237	29937.98
517.604	29962.84
517.972	30301.36
518.339	30540.45
518.706	30565.09
519.073	30872.2
519.44	31139.31
519.808	31248.46
520.175	31378.62
520.542	31818.84
520.909	32008.89
521.276	32007.76
521.643	32339.28
522.009	32731.36
522.376	32939.49
522.743	33108.52
523.11	33440.26
523.477	33708.28
523.843	33800.93
524.21	34109.4
524.577	34482.05
524.943	34658.54
525.31	34809.72
525.676	35207.9
526.043	35316.83
526.409	35564.5
526.776	36085.39
527.142	36105.96
527.508	36199.97
527.874	36542.1
528.241	36758.37
528.607	36952.26
528.973	37217.57
529.339	37176.21
529.705	37712.02
530.071	37946.59
530.437	38101.16
530.803	38259.57
531.169	38511.09
531.535	38483.3
531.901	38597.64
532.267	38958.09
532.632	39066.78
532.998	39258.19
533.364	39598.97
533.73	39634.45
534.095	39868.8
534.461	39892.52
534.826	40231.27
535.192	40370.25
535.557	40744.48
535.923	40600.98
536.288	40829.68
536.653	40989.22
537.019	41047.97
537.384	41175.88
537.749	41482.99
538.114	41480.73
538.479	41734.51
538.845	41803.21
539.21	41862.19
539.575	42028.74
539.94	42142.41
540.305	42426.7
540.67	42293.82
541.034	42538.1
541.399	42780.58
541.764	42776.97
542.129	42994.82
542.494	43120.24
542.858	43190.29
543.223	43110.74
543.587	43624.4
543.952	43511.41
544.316	43878.63
544.681	43851.97
545.045	43945.75
545.41	44252.64
545.774	44268.68
546.138	44420.99
546.503	44382.8
546.867	44553.87
547.231	44862.79
547.595	44905.73
547.959	45057.36
548.324	45128.09
548.688	45159.05
549.052	45424.81
549.416	45429.55
549.779	45555.2
550.143	45691.47
550.507	45902.99
550.871	46014.62
551.235	46065.7
551.599	46405.57
551.962	46390.21
552.326	46521.5
552.689	46814.6
553.053	46672.46
553.417	46898.22
553.78	47345.89
554.143	47058.66
554.507	47360.8
554.87	47616.62
555.234	47922.37
555.597	47698.87
555.96	47843.05
556.323	48192.42
556.686	48167.34
557.05	48480.32
557.413	48560.77
557.776	48530.72
558.139	48845.96
558.502	48997.6
558.865	49037.82
559.228	49298.83
559.59	49515.32
559.953	49412.27
560.316	49891.58
560.679	49872.83
561.041	50072.37
561.404	50155.08
561.767	50311.01
562.129	50399.14
562.492	50601.62
562.854	50725.69
563.217	50883.42
563.579	50869.86
563.941	51179.46
564.304	51364.09
564.666	51486.12
565.028	51452.9
565.39	51625.55
565.753	51808.6
566.115	51955.03
566.477	52069.61
566.839	52114.58
567.201	52350.5
567.563	52379.2
567.925	52671.62
568.287	52554.11
568.648	52677.73
569.01	52882.69
569.372	53012.63
569.734	52925.18
570.095	53157.26
570.457	53273.42
570.819	53402
571.18	53419.17
571.542	53550.7
571.903	53571.26
572.265	53668.66
572.626	53715.21
572.987	53879.5
573.349	53920.4
573.71	54046.05
574.071	54183.67
574.432	54176.67
574.794	54418.24
575.155	54333.73
575.516	54321.52
575.877	54413.05
576.238	54543.66
576.599	54604.23
576.96	54553.83
577.32	54605.13
577.681	54729.87
578.042	54758.35
578.403	54797.9
578.763	54808.74
579.124	54917.44
579.485	55010.09
579.845	54987.04
580.206	54948.85
580.566	54914.95
580.927	54948.4
581.287	55121.95
581.648	55077.21
582.008	55187.94
582.368	55116.98
582.728	55131.67
583.089	55160.37
583.449	55057.1
583.809	55175.51
584.169	55260.48
584.529	55138.9
584.889	55343.19
585.249	55179.81
585.609	55151.78
585.969	55264.55
586.329	55170.99
586.688	55335.06
587.048	55260.71
587.408	55215.29
587.768	55150.65
588.127	55157.43
588.487	55165.57
588.846	55290.76
589.206	55167.15
589.565	55168.51
589.925	55305.45
590.284	55270.65
590.643	55230.65
591.003	55309.07
591.362	55351.78
591.721	55325.34
592.08	55324.21
592.44	55316.3
592.799	55320.37
593.158	55313.36
593.517	55343.64
593.876	55385.45
594.235	55325.57
594.593	55296.19
594.952	55374.83
595.311	55272.46
595.67	55442.4
596.029	55519.01
596.387	55471.32
596.746	55538.67
597.104	55482.4
597.463	55415.96
597.822	55496.41
598.18	55474.94
598.538	55363.98
598.897	55582.06
599.255	55371.67
599.613	55749.06
599.972	55571.43
600.33	55610.3
600.688	55531.89
601.046	55660.25
601.404	55767.14
601.762	55675.16
602.12	55810.3
602.478	55799.45
602.836	55796.97
603.194	55686.23
603.552	55774.37
603.91	55731.2
604.268	55799.9
604.625	55716.29
604.983	55885.32
605.341	55726.91
605.698	55914.02
606.056	55952.44
606.413	55867.25
606.771	56073.57
607.128	56104.75
607.485	55953.12
607.843	56006.68
608.2	56090.52
608.557	56131.87
608.914	55975.94
609.272	56156.96
609.629	56291.19
609.986	56308.36
610.343	56174.36
610.7	56321.25
611.057	56369.61
611.414	56309.95
611.771	56225.88
612.127	56373.22
612.484	56337.97
612.841	56415.93
613.198	56306.78
613.554	56331.19
613.911	56499.32
614.267	56529.6
614.624	56494.12
614.98	56580.45
615.337	56631.97
615.693	56592.65
616.05	56509.71
616.406	56793.55
616.762	56617.06
617.118	56714.23
617.475	56595.14
617.831	56713.55
618.187	56698.18
618.543	56719.88
618.899	56848.69
619.255	56771.18
619.611	56851.17
619.967	56865.19
620.323	56822.25
620.678	56835.58
621.034	56739.09
621.39	56836.26
621.746	56750.16
622.101	57044.16
622.457	56814.79
622.812	56869.03
623.168	56956.26
623.523	56911.29
623.879	56988.8
624.234	56830.16
624.589	56987.67
624.945	57003.26
625.3	57010.72
625.655	56873.09
626.01	56953.09
626.365	56887.78
626.72	56857.05
627.075	56888.91
627.43	56835.58
627.785	56786.32
628.14	56851.17
628.495	56816.6
628.85	56821.8
629.205	56772.98
629.559	56865.19
629.914	56674.46
630.269	56711.29
630.623	56607.57
630.978	56575.25
631.332	56687.34
631.687	56703.83
632.041	56634.23
632.396	56640.11
632.75	56521.69
633.104	56480.79
633.459	56417.06
633.813	56388.36
634.167	56385.2
634.521	56400.34
634.875	56380.68
635.229	56375.93
635.583	56208.25
635.937	56251.19
636.291	56167.35
636.645	56215.49
636.999	56098.65
637.352	56152.66
637.706	56015.94
638.06	56077.18
638.413	55966.68
638.767	55915.83
639.121	55980.24
639.474	55772.33
639.828	55894.59
640.181	55866.57
640.534	55806.23
640.888	55797.87
641.241	55647.82
641.594	55713.58
641.947	55763.07
642.301	55635.84
642.654	55757.87
643.007	55671.32
643.36	55554.03
643.713	55542.51
644.066	55654.14
644.419	55453.7
644.771	55338.67
645.124	55083.31
645.477	54978.46
645.83	54821.62
646.182	54676.09
646.535	54502.99
646.888	54596.54
647.24	54329.66
647.593	54537.56
647.945	54413.05
648.298	54299.83
648.65	54294.86
649.002	54178.7
649.355	54228.87
649.707	54281.75
650.059	54373.27
650.411	54751.79
650.763	54693.94
651.115	55032.47
651.467	54891.23
651.819	54909.53
652.171	54806.03
652.523	54713.83
652.875	54691.23
653.227	54624.11
653.578	54831.34
653.93	54689.42
654.282	54601.29
654.633	54478.36
654.985	54565.81
655.337	54487.17
655.688	54533.5
656.039	54594.96
656.391	54355.87
656.742	54470.45
657.094	54394.29
657.445	54467.96
657.796	54423.44
658.147	54375.76
658.498	54396.1
658.849	54324.91
659.2	54330.34
659.551	54304.35
659.902	54386.15
660.253	54318.13
660.604	54284.01
660.955	54200.17
661.306	54244.24
661.656	54159.72
662.007	54146.39
662.358	54142.09
662.708	54105.26
663.059	54053.28
663.409	53841.99
663.76	54179.38
664.11	54041.08
664.461	54045.6
664.811	53957.69
665.161	54026.84
665.511	53911.59
665.862	53924.25
666.212	53985.26
666.562	54049.44
666.912	53873.4
667.262	53959.95
667.612	53895.55
667.962	53917.92
668.312	53876.34
668.662	54007.63
669.011	53877.92
669.361	53826.62
669.711	53843.34
670.06	53737.58
670.41	53727.87
670.76	53686.51
671.109	53761.54
671.459	53685.61
671.808	53597.02
672.157	53643.35
672.507	53504.6
672.856	53498.72
673.205	53529.45
673.554	53575.78
673.904	53350.25
674.253	53619.17
674.602	53524.48
674.951	53021.22
675.3	52846.53
675.649	53417.37
675.998	53333.53
676.346	53306.41
676.695	53392.51
677.044	53123.82
677.393	53291.72
677.741	53322.45
678.09	53217.6
678.438	53107.54
678.787	53166.75
679.135	53166.07
679.484	53020.31
679.832	53072.97
680.181	52842.47
680.529	52945.06
680.877	52838.17
681.225	52880.43
681.573	52992.97
681.922	52731.73
682.27	52606.99
682.618	52699.87
682.966	52618.74
683.314	52731.06
683.661	52621.68
684.009	52460.56
684.357	52369.94
684.705	52303.95
685.053	52287.45
685.4	52253.78
685.748	52076.38
686.095	52047.91
686.443	51979.21
686.79	51899.44
687.138	51934.24
687.485	51877.07
687.832	51770.63
688.18	51873
688.527	51597.3
688.874	51598.88
689.221	51550.52
689.568	51346.46
689.915	51365.67
690.262	51273.24
690.609	51128.39
690.956	51136.3
691.303	51066.92
691.65	50884.33
691.997	50978.79
692.344	50667.83
692.69	50684.11
693.037	50577.89
693.383	50297.9
693.73	50473.94
694.077	50193.04
694.423	50195.3
694.769	50034.86
695.116	50036.44
695.462	49992.15
695.808	49777.24
696.155	49895.88
696.501	49571.37
696.847	49636.22
697.193	49449.79
697.539	49411.37
697.885	49229
698.231	49102.9
698.577	49038.27
698.923	49024.26
699.269	48727.55
699.614	48617.04
699.96	48568
700.306	48666.98
700.651	48392.19
700.997	48332.75
701.342	48351.96
701.688	48167.79
702.033	47961.46
702.379	47867.23
702.724	47850.06
703.069	47926.89
703.415	47462.49
703.76	47508.14
704.105	47496.39
704.45	47331.88
704.795	46996.52
705.14	46982.06
705.485	46985.22
705.83	46828.61
706.175	46840.36
706.52	46622.29
706.865	46542.07
707.209	46563.08
707.554	46418.68
707.899	46344.78
708.243	46191.34
708.588	46074.28
708.932	45908.19
709.277	45945.92
709.621	45948.64
709.966	45690.11
710.31	45723.78
710.654	45290.12
710.998	45457.35
711.342	45394.98
711.687	45265.72
712.031	44963.58
712.375	44912.51
712.719	44889.46
713.063	45017.36
713.407	44932.17
713.75	44770.81
714.094	44724.49
714.438	44480.43
714.782	44424.61
715.125	44325.63
715.469	44448.56
715.812	44109.14
716.156	43912.76
716.499	44037.5
716.843	44054.22
717.186	43722.93
717.53	44055.35
717.873	43960.89
718.216	43667.34
718.559	43570.62
718.902	43364.75
719.246	43319.33
719.589	43246.79
719.932	43127.02
720.275	43130.18
720.617	43121.82
720.96	42954.82
721.303	42920.02
721.646	43035.94
721.989	42581.49
722.331	42869.17
722.674	42572.45
723.016	42533.13
723.359	42540.14
723.701	42497.43
724.044	42240.71
724.386	42126.36
724.729	42268.06
725.071	42071.68
725.413	42149.41
725.755	41999.14
726.097	41997.55
726.439	41713.04
726.782	41759.59
727.124	41883.66
727.465	41545.81
727.807	41636.89
728.149	41304.24
728.491	41389.89
728.833	41228.08
729.175	41185.6
729.516	41118.71
729.858	41032.61
730.199	41073.74
730.541	40926.62
730.882	40911.25
731.224	41072.61
731.565	40612.51
731.906	40686.4
732.248	40709.45
732.589	40378.84
732.93	40419.06
733.271	40289.8
733.612	40439.4
733.953	40403.47
734.294	40163.25
734.635	40042.13
734.976	40171.39
735.317	39955.12
735.658	39960.77
735.999	39908.34
736.339	39813.66
736.68	39951.51
737.021	39760.55
737.361	39621.57
737.702	39685.3
738.042	39467.68
738.383	39393.78
738.723	39448.47
739.063	39354.69
739.404	39446.21
739.744	39232.43
740.084	39142.71
740.424	39107.23
740.764	39071.98
741.104	39082.6
741.444	38875.83
741.784	38796.06
742.124	38831.76
742.464	38878.99
742.804	38707.7
743.143	38578.21
743.483	38574.14
743.823	38318.78
744.162	38272.45
744.502	38472
744.841	38142.06
745.181	38398.78
745.52	38130.31
745.86	38185.45
746.199	38016.87
746.538	37897.1
746.877	38081.05
747.216	38084.21
747.556	37928.73
747.895	37719.02
748.234	37560.83
748.573	37516.09
748.911	37465.92
749.25	37294.85
749.589	37262.54
749.928	37250.79
750.267	37212.59
750.605	37114.29
750.944	37030.9
751.283	36868.65
751.621	37114.07
751.96	36695.77
752.298	36801.53
752.636	36724.47
752.975	36590.01
753.313	36340.53
753.651	36486.51
753.989	36223.02
754.327	36164.71
754.666	36189.12
755.004	36142.11
755.342	35940.09
755.679	35991.16
756.017	35691.96
756.355	35698.28
756.693	35585.07
757.031	35701.45
757.368	35471.4
757.706	35382.81
758.044	35315.47
758.381	35348.24
758.719	35102.14
759.056	35064.4
759.394	34963.16
759.731	34771.98
760.068	34680.91
760.405	34646.11
760.743	34390.3
761.08	34503.97
761.417	34248.38
761.754	34250.19
762.091	34246.12
762.428	34033.24
762.765	33805
763.102	33914.38
763.438	33749.41
763.775	33503.09
764.112	33575.63
764.449	33483.65
764.785	33299.7
765.122	33002.99
765.458	33004.12
765.795	33029.2
766.131	32962.99
766.467	32796.89
766.804	32599.61
767.14	32507.18
767.476	32494.53
767.812	32231.48
768.148	32306.06
768.485	31982.9
768.821	32005.73
769.157	31828.56
769.492	31740.65
769.828	31762.57
770.164	31445.74
770.5	31433.09
770.836	31320.09
771.171	31132.98
771.507	31135.01
771.842	30813.89
772.178	30888.47
772.513	30783.16
772.849	30737.51
773.184	30595.82
773.519	30584.07
773.855	30365.32
774.19	30381.59
774.525	30229.73
774.86	30296.39
775.195	30048.94
775.53	29836.74
775.865	29798.78
776.2	29528.73
776.535	29279.7
776.87	29342.75
777.205	29220.26
777.539	29082.41
777.874	29115.63
778.209	28880.84
778.543	28675.19
778.878	28620.73
779.212	28612.82
779.547	28478.14
779.881	28550.22
780.215	28261.64
780.55	28364.47
780.884	28204.47
781.218	28049.9
781.552	28067.3
781.886	27841.32
782.22	27801.32
782.554	27673.18
782.888	27412.63
783.222	27180.54
783.556	27318.39
783.889	27178.96
784.223	27015.12
784.557	26881.57
784.89	26918.63
785.224	26627.11
785.557	26737.62
785.891	26492.2
786.224	26488.58
786.558	26520.67
786.891	26308.7
787.224	26286.1
787.557	26004.98
787.891	26042.72
788.224	26023.06
788.557	25876.4
788.89	25793.23
789.223	25701.03
789.556	25499.68
789.888	25378.56
790.221	25297.88
790.554	25147.83
790.887	25267.82
791.219	25039.58
791.552	25034.16
791.884	24876.2
792.217	24849.3
792.549	24816.99
792.882	24518.69
793.214	24405.7
793.546	24501.52
793.879	24332.26
794.211	24184.91
794.543	24174.52
794.875	24203.9
795.207	24162.99
795.539	23980.63
795.871	23960.06
796.203	23771.37
796.535	23670.35
796.867	23607.08
797.198	23529.34
797.53	23493.86
797.862	23466.06
798.193	23320.76
798.525	23016.81
798.856	23305.16
799.188	22952.18
799.519	22896.36
799.85	22797.61
800.182	22881.45
800.513	22801.22
800.844	22481
801.175	22693.65
801.506	22607.33
801.837	22549.93
802.168	22555.58
802.499	22337.05
802.83	22259.54
803.161	22103.39
803.491	22214.57
803.822	21989.94
804.153	21949.95
804.483	21878.31
804.814	21819.55
805.145	21771.87
805.475	21753.11
805.805	21700.23
806.136	21678.31
806.466	21639.22
806.796	21593.57
807.126	21383.18
807.457	21320.13
807.787	21264.99
808.117	21240.59
808.447	21095.96
808.777	21177.08
809.107	21009.18
809.436	21013.7
809.766	20932.57
810.096	20862.74
810.426	20775.06
810.755	20752.69
811.085	20742.52
811.414	20612.35
811.744	20448.97
812.073	20462.07
812.403	20396.99
812.732	20310.21
813.061	20356.32
813.39	20138.47
813.719	20152.93
814.049	20305.24
814.378	20119.49
814.707	20067.51
815.036	20110.9
815.365	19981.41
815.693	19814.41
816.022	19769.44
816.351	19697.8
816.68	19717.24
817.008	19676.56
817.337	19519.27
817.665	19397.7
817.994	19568.54
818.322	19512.5
818.651	19308.66
818.979	19362.44
819.307	19309.79
819.636	19270.02
819.964	19150.02
820.292	19227.31
820.62	19227.76
820.948	19174.88
821.276	19267.98
821.604	19147.31
821.932	19296
822.259	19148.66
822.587	19063.92
822.915	19036.58
823.243	19116.8
823.57	19017.82
823.898	19065.05
824.225	18980.31
824.553	18927.65
824.88	18963.36
825.207	19123.35
825.535	18975.56
825.862	18971.04
826.189	18942.57
826.516	18993.86
826.843	19093.3
827.17	19147.76
827.497	19098.27
827.824	19023.69
828.151	19011.72
828.478	19014.88
828.805	19117.48
829.131	18936.24
829.458	18902.79
829.785	18835.68
830.111	18918.16
830.438	18998.84
830.764	18785.73
831.09	18957.03
831.417	18762.23
831.743	18846.07
832.069	18783.02
832.395	18897.14
832.722	18832.29
833.048	18877.94
833.374	18801.1
833.7	18680.65
834.026	18655.79
834.351	18701.67
834.677	18684.95
835.003	18642.46
835.329	18684.49
835.654	18564.5
835.98	18609.24
836.306	18533.99
836.631	18587.77
836.956	18578.96
837.282	18609.92
837.607	18424.39
837.932	18436.14
838.258	18406.08
838.583	18399.53
838.908	18344.39
839.233	18309.36
839.558	18276.6
839.883	18180.78
840.208	18091.52
840.533	18181.23
840.858	18102.59
841.182	18070.95
841.507	18031.86
841.832	18014.91
842.156	17899.2
842.481	17811.75
842.805	17844.97
843.13	17827.34
843.454	17859.21
843.778	17762.26
844.103	17766.1
844.427	17681.58
844.751	17676.39
845.075	17514.81
845.399	17582.15
845.723	17499.89
846.047	17469.61
846.371	17303.29
846.695	17259
847.019	17094.03
847.343	17067.81
847.666	16940.81
847.99	16901.49
848.313	16917.08
848.637	16747.14
848.96	16755.96
849.284	16716.64
849.607	16520.94
849.931	16472.58
850.254	16405.23
850.577	16372.69
850.9	16272.81
851.223	16118.91
851.546	16115.07
851.869	16029.65
852.192	16083.43
852.515	15899.48
852.838	15831.46
853.161	15827.62
853.483	15707.4
853.806	15734.06
854.129	15605.71
854.451	15613.39
854.774	15581.3
855.096	15489.55
855.419	15396.22
855.741	15451.36
856.063	15309.22
856.385	15208.65
856.708	15231.7
857.03	15178.15
857.352	15179.05
857.674	15175.43
857.996	15116.68
858.318	14998.04
858.64	14994.2
858.961	14921.88
859.283	14970.92
859.605	14865.84
859.926	14917.14
860.248	14882.56
860.57	14826.52
860.891	14710.59
861.212	14619.97
861.534	14687.76
861.855	14536.81
862.176	14634.88
862.498	14550.14
862.819	14510.82
863.14	14468.56
863.461	14399.41
863.782	14324.84
864.103	14429.69
864.424	14386.08
864.745	14387.43
865.065	14275.57
865.386	14164.61
865.707	14229.92
866.027	14211.39
866.348	14169.36
866.668	14177.95
866.989	14103.15
867.309	13918.74
867.63	14050.04
867.95	14066.31
868.27	13906.77
868.59	13947.9
868.91	13905.19
869.23	13950.16
869.55	13796.26
869.87	13877.16
870.19	13769.37
870.51	13878.97
870.83	13755.13
871.15	13694.8
871.469	13648.92
871.789	13702.25
872.109	13719.65
872.428	13583.16
872.748	13663.84
873.067	13590.84
873.386	13617.74
873.706	13527.57
874.025	13506.55
874.344	13477.63
874.663	13418.64
874.982	13382.26
875.301	13382.26
875.62	13334.58
875.939	13298.65
876.258	13260.46
876.577	13313.11
876.896	13354.01
877.214	13115.38
877.533	13229.27
877.852	13237.86
878.17	13241.93
878.489	13162.83
878.807	13229.72
879.125	13170.06
879.444	13124.64
879.762	13109.05
880.08	13032.67
880.398	12998.09
880.716	12994.02
881.034	12902.73
881.352	12980.69
881.67	12944.53
881.988	12890.3
882.306	12980.69
882.624	12908.38
882.941	12821.15
883.259	12780.24
883.577	12708.83
883.894	12820.92
884.212	12716.74
884.529	12668.61
884.846	12705.89
885.164	12642.62
885.481	12589.29
885.798	12657.08
886.115	12491.21
886.432	12509.97
886.75	12427.48
887.067	12472.23
887.383	12368.73
887.7	12401.04
888.017	12254.16
888.334	12327.83
888.651	12276.75
888.967	12237.88
889.284	12137.77
889.6	12156.3
889.917	12102.07
890.233	12146.59
890.55	12003.77
890.866	12064.78
891.182	12004.67
891.498	11974.16
891.815	11982.98
892.131	11847.61
892.447	11946.82
892.763	11808.74
893.079	11732.81
893.395	11693.72
893.71	11682.64
894.026	11742.76
894.342	11619.6
894.657	11498.02
894.973	11578.47
895.289	11524.68
895.604	11494.63
895.92	11498.69
896.235	11429.77
896.55	11407.62
896.865	11355.65
897.181	11288.76
897.496	11320.85
897.811	11189.32
898.126	11188.19
898.441	11128.76
898.756	11119.5
899.071	11042.44
899.386	11102.1
899.7	11018.03
900.015	10876.34
900.33	10856.45
900.644	10849.67
900.959	10845.15
901.273	10759.73
901.588	10734.65
901.902	10679.51
902.216	10669.79
902.531	10572.39
902.845	10575.56
903.159	10483.58
903.473	10511.83
903.787	10480.64
904.101	10414.43
904.415	10334.88
904.729	10426.18
905.042	10252.85
905.356	10307.77
905.67	10208.11
905.984	10234.32
906.297	10143.7
906.611	10081.56
906.924	10085.17
907.237	10015.12
907.551	9986.64
907.864	9956.14
908.177	9875.23
908.491	9867.78
908.804	9811.73
909.117	9820.09
909.43	9753.66
909.743	9666.88
910.056	9709.36
910.368	9670.95
910.681	9557.5
910.994	9514.57
911.307	9426.21
911.619	9378.75
911.932	9425.3
912.244	9311.63
912.557	9411.74
912.869	9288.58
913.181	9226.66
913.494	9227.12
913.806	9140.34
914.118	9177.17
914.43	9074.35
914.742	9081.81
915.054	8990.06
915.366	8955.94
915.678	8959.33
915.99	8915.71
916.302	8788.94
916.613	8781.25
916.925	8819.44
917.236	8744.87
917.548	8732.67
917.859	8705.1
918.171	8623.52
918.482	8554.37
918.794	8527.7
919.105	8455.84
919.416	8460.58
919.727	8495.16
920.038	8397.31
920.349	8357.76
920.66	8380.13
920.971	8324.77
921.282	8304.2
921.593	8192.34
921.903	8157.77
922.214	8172.68
922.525	8094.49
922.835	8059.92
923.146	8036.41
923.456	8004.1
923.767	7983.31
924.077	7978.56
924.387	7880.94
924.697	7886.13
925.008	7853.82
925.318	7823.09
925.628	7811.33
925.938	7732.47
926.248	7701.51
926.558	7690.43
926.867	7684.78
927.177	7629.19
927.487	7554.62
927.796	7515.75
928.106	7471
928.416	7443.89
928.725	7477.33
929.034	7403.89
929.344	7358.01
929.653	7282.53
929.962	7352.14
930.271	7228.52
930.581	7279.82
930.89	7194.18
931.199	7153.27
931.508	7112.37
931.817	7113.73
932.125	7031.92
932.434	7076.44
932.743	7041.64
933.051	6982.66
933.36	6959.83
933.669	6934.52
933.977	6875.54
934.286	6886.16
934.594	6849.78
934.902	6758.48
935.21	6788.31
935.519	6729.1
935.827	6705.83
936.135	6699.72
936.443	6621.53
936.751	6585.15
937.059	6632.16
937.367	6561.42
937.674	6560.29
937.982	6581.54
938.29	6478.49
938.597	6462.44
938.905	6417.47
939.213	6387.19
939.52	6366.4
939.827	6381.09
940.135	6296.12
940.442	6271.26
940.749	6285.27
941.056	6291.15
941.363	6216.8
941.67	6167.76
941.977	6120.08
942.284	6095
942.591	6081.21
942.898	6081.89
943.205	6020.87
943.511	6026.3
943.818	5995.79
944.125	5953.98
944.431	5898.84
944.738	5915.11
945.044	5880.54
945.35	5877.83
945.657	5766.87
945.963	5817.94
946.269	5761.22
946.575	5786.53
946.881	5715.12
947.187	5699.3
947.493	5713.99
947.799	5675.12
948.105	5640.54
948.41	5596.48
948.716	5563.26
949.022	5545.63
949.327	5503.15
949.633	5503.15
949.938	5459.53
950.244	5440.32
950.549	5434.9
950.854	5443.71
951.16	5366.43
951.465	5330.5
951.77	5350.38
952.075	5303.38
952.38	5253.89
952.685	5248.69
952.99	5229.03
953.294	5244.17
953.599	5161.01
953.904	5172.08
954.209	5090.95
954.513	5141.12
954.818	5075.81
955.122	5039.66
955.426	5034.46
955.731	4998.98
956.035	4974.35
956.339	4933.44
956.643	4950.84
956.948	4942.48
957.252	4844.41
957.556	4892.31
957.86	4887.57
958.163	4846.67
958.467	4829.72
958.771	4857.29
959.075	4803.05
959.378	4764.41
959.682	4779.55
959.985	4704.07
960.289	4710.17
960.592	4641.93
960.896	4646.9
961.199	4656.84
961.502	4602.15
961.805	4607.8
962.108	4582.72
962.411	4548.37
962.714	4498.43
963.017	4471.76
963.32	4461.82
963.623	4497.97
963.926	4421.37
964.228	4386.34
964.531	4352.89
964.833	4459.33
965.136	4364.65
965.438	4341.37
965.741	4303.63
966.043	4326.23
966.345	4341.37
966.648	4290.75
966.95	4236.06
967.252	4226.34
967.554	4243.97
967.856	4213.01
968.158	4161.49
968.46	4140.92
968.761	4091.43
969.063	4127.59
969.365	4111.32
969.666	4108.83
969.968	4023.86
970.269	4010.53
970.571	3984.54
970.872	4005.56
971.174	3934.15
971.475	3939.12
971.776	3968.5
972.077	3937.54
972.378	3938.44
972.679	3879.01
972.98	3884.43
973.281	3862.51
973.582	3896.41
973.883	3821.83
974.183	3818.22
974.484	3809.41
974.785	3782.06
975.085	3761.95
975.386	3755.62
975.686	3728.5
975.986	3733.7
976.287	3693.48
976.587	3660.93
976.887	3668.39
977.187	3673.82
977.487	3649.64
977.787	3611.44
978.087	3613.93
978.387	3588.85
978.687	3565.57
978.987	3575.51
979.286	3510.2
979.586	3500.49
979.885	3457.78
980.185	3442.64
980.484	3465.23
980.784	3481.73
981.083	3408.74
981.382	3446.93
981.682	3418.23
981.981	3404.44
982.28	3366.25
982.579	3356.76
982.878	3352.24
983.177	3315.63
983.475	3350.89
983.774	3316.99
984.073	3280.15
984.372	3271.57
984.67	3233.38
984.969	3234.28
985.267	3220.27
985.566	3198.35
985.864	3195.18
986.162	3192.02
986.461	3151.57
986.759	3180.95
987.057	3126.94
987.355	3088.97
987.653	3132.36
987.951	3095.07
988.249	3061.63
988.547	3075.19
988.844	3054.85
989.142	3060.95
989.44	3032.7
989.737	3021.18
990.035	2991.35
990.332	2935.76
990.63	2967.62
990.927	2948.64
991.224	2939.37
991.521	2892.14
991.819	2901.63
992.116	2935.98
992.413	2852.82
992.71	2826.61
993.006	2839.26
993.303	2806.27
993.6	2795.65
993.897	2802.65
994.193	2798.58
994.49	2771.92
994.787	2733.5
995.083	2753.84
995.379	2781.18
995.676	2738.93
995.972	2712.49
996.268	2676.55
996.565	2682.2
996.861	2662.99
997.157	2626.39
997.453	2664.35
997.749	2657.35
998.044	2554.75
998.34	2596.78
998.636	2551.81
998.932	2559.27
999.227	2516.33
999.523	2554.3
999.818	2470.23
1000.114	2515.65
1000.409	2470.68
1000.704	2480.63
1001	2472.27
1001.295	2494.64
1001.59	2450.35
1001.885	2411.25
1002.18	2423.23
1002.475	2411.7
1002.77	2376.9
1003.065	2349.33
1003.359	2404.47
1003.654	2377.58
1003.949	2346.17
1004.243	2301.42
1004.538	2319.5
1004.832	2278.37
1005.127	2270.24
1005.421	2293.51
1005.715	2221.2
1006.009	2251.71
1006.304	2200.41
1006.598	2255.77
1006.892	2235.21
1007.186	2195.89
1007.48	2177.81
1007.773	2187.75
1008.067	2149.79
1008.361	2122.67
1008.655	2121.77
1008.948	2101.2
1009.242	2112.73
1009.535	2119.73
1009.829	2076.12
1010.122	2076.8
1010.415	2067.98
1010.708	2042.22
1011.001	2031.6
1011.295	2005.16
1011.588	1996.57
1011.881	1990.92
1012.173	1963.8
1012.466	1963.13
1012.759	1989.34
1013.052	1981.43
1013.344	1926.74
1013.637	1932.39
1013.93	1922.68
1014.222	1885.84
1014.514	1872.73
1014.807	1868.21
1015.099	1837.48
1015.391	1869.8
1015.683	1820.31
1015.976	1844.03
1016.268	1812.85
1016.56	1807.42
1016.851	1813.3
1017.143	1795
1017.435	1753.41
1017.727	1741.21
1018.018	1735.79
1018.31	1724.04
1018.602	1733.3
1018.893	1715
1019.185	1684.49
1019.476	1685.17
1019.767	1714.32
1020.058	1691.04
1020.35	1683.81
1020.641	1645.17
1020.932	1642.68
1021.223	1642.91
1021.514	1601.1
1021.804	1597.71
1022.095	1585.28
1022.386	1557.94
1022.677	1565.4
1022.967	1556.13
1023.258	1548.67
1023.548	1519.52
1023.839	1507.77
1024.129	1523.14
1024.419	1524.27
1024.709	1507.55
1025	1482.91
1025.29	1481.78
1025.58	1456.7
1025.87	1441.33
1026.16	1440.88
1026.449	1442.24
1026.739	1456.02
1027.029	1405.85
1027.319	1403.59
1027.608	1393.88
1027.898	1393.88
1028.187	1367.66
1028.477	1377.61
1028.766	1371.73
1029.055	1326.53
1029.344	1355.91
1029.634	1312.52
1029.923	1335.12
1030.212	1317.72
1030.501	1312.97
1030.79	1293.99
1031.078	1280.88
1031.367	1267.1
1031.656	1274.33
1031.945	1276.36
1032.233	1235.01
1032.522	1246.99
1032.81	1263.03
1033.099	1219.87
1033.387	1212.19
1033.675	1173.77
1033.963	1223.48
1034.251	1185.52
1034.54	1204.05
1034.828	1188.01
1035.116	1170.38
1035.403	1165.41
1035.691	1165.41
1035.979	1160.89
1036.267	1144.16
1036.554	1158.85
1036.842	1107.1
1037.129	1136.93
1037.417	1131.74
1037.704	1097.84
1037.992	1108.23
1038.279	1099.42
1038.566	1083.6
1038.853	1083.6
1039.14	1083.6
