Data from breadboard_white_FLMS001491_00084.txt Node
Date: Wed Feb 08 10:48:23 GMT 2017
User: dcchb
Spectrometer: FLMS00149
Trigger mode: 0
Integration Time (sec): 2.000000E-2
Scans to average: 10
Electric dark correction enabled: true
Nonlinearity correction enabled: false
Boxcar width: 0
XAxis mode: Wavelengths
Number of Pixels in Spectrum: 2048
>>>>>Begin Spectral Data<<<<<
341.393	-14.79
341.776	-14.79
342.16	-14.79
342.543	-57.5
342.927	-73.77
343.31	-72.41
343.693	-70.61
344.077	-50.27
344.46	-49.82
344.843	-53.88
345.226	-48.46
345.61	-40.32
345.993	-16.6
346.376	-13.66
346.759	13.46
347.142	35.15
347.525	45.78
347.908	65.21
348.291	62.05
348.674	95.04
349.057	99.33
349.44	124.87
349.823	154.02
350.206	165.55
350.588	216.84
350.971	210.74
351.354	247.13
351.737	261.59
352.119	283.74
352.502	293.23
352.884	255.26
353.267	287.8
353.65	300.46
354.032	321.25
354.414	325.54
354.797	325.77
355.179	343.85
355.562	334.13
355.944	348.59
356.326	337.75
356.709	345.88
357.091	363.73
357.473	369.83
357.855	352.89
358.238	359.44
358.62	351.3
359.002	354.02
359.384	351.3
359.766	367.58
360.148	376.39
360.53	359.44
360.912	375.03
361.294	360.57
361.676	364.64
362.057	351.98
362.439	357.86
362.821	350.4
363.203	336.16
363.584	357.41
363.966	359.67
364.348	367.58
364.729	363.51
365.111	339.33
365.493	353.56
365.874	342.04
366.256	355.82
366.637	344.07
367.019	339.33
367.4	343.62
367.781	361.93
368.163	354.69
368.544	355.82
368.925	340.68
369.306	356.28
369.688	350.17
370.069	336.84
370.45	328.03
370.831	348.37
371.212	341.81
371.593	336.16
371.974	343.39
372.355	348.14
372.736	358.54
373.117	341.36
373.498	365.99
373.879	343.39
374.26	375.71
374.641	339.55
375.021	345.2
375.402	355.15
375.783	357.86
376.163	386.11
376.544	379.55
376.925	376.84
377.305	370.06
377.686	374.81
378.066	359.89
378.447	387.01
378.827	390.17
379.208	386.33
379.588	361.02
379.968	412.55
380.349	390.4
380.729	385.43
381.109	396.95
381.489	398.31
381.87	422.26
382.25	411.42
382.63	398.08
383.01	397.86
383.39	422.04
383.77	390.63
384.15	423.17
384.53	434.47
384.91	424.75
385.29	434.24
385.67	433.56
386.049	443.05
386.429	457.06
386.809	449.38
387.189	445.99
387.568	445.31
387.948	438.53
388.328	455.26
388.707	462.26
389.087	446.9
389.466	478.31
389.846	495.03
390.225	502.26
390.605	480.79
390.984	484.18
391.363	488.02
391.743	504.07
392.122	500.45
392.501	511.07
392.881	517.63
393.26	538.87
393.639	544.75
394.018	529.15
394.397	537.97
394.776	547.91
395.155	550.4
395.534	563.73
395.913	537.74
396.292	584.74
396.671	591.3
397.05	585.87
397.429	595.37
397.808	632.2
398.186	611.18
398.565	625.2
398.944	627.91
399.323	620.45
399.701	635.59
400.08	652.31
400.458	654.35
400.837	660.22
401.215	672.43
401.594	698.19
401.972	694.8
402.351	700.22
402.729	703.16
403.107	710.39
403.486	723.05
403.864	731.63
404.242	776.6
404.62	786.77
404.999	776.38
405.377	813.67
405.755	791.97
406.133	801.01
406.511	832.87
406.889	837.39
407.267	877.84
407.645	878.75
408.023	891.63
408.401	919.2
408.779	918.75
409.156	932.53
409.534	950.16
409.912	955.36
410.29	1008.46
410.667	1010.27
411.045	997.39
411.422	1031.51
411.8	1065.86
412.178	1069.25
412.555	1102.47
412.933	1112.64
413.31	1157.84
413.687	1160.1
414.065	1156.71
414.442	1198.74
414.819	1201.45
415.197	1222.24
415.574	1243.71
415.951	1268.79
416.328	1283.94
416.705	1296.82
417.082	1320.32
417.46	1332.97
417.837	1370.03
418.214	1391.05
418.591	1410.94
418.967	1400.54
419.344	1433.54
419.721	1453.42
420.098	1477.38
420.475	1443.03
420.852	1505.4
421.228	1497.49
421.605	1515.79
421.982	1516.47
422.358	1533.19
422.735	1573.87
423.111	1580.65
423.488	1612.51
423.864	1631.27
424.241	1666.3
424.617	1693.64
424.994	1666.07
425.37	1703.81
425.746	1698.16
426.123	1746.75
426.499	1769.57
426.875	1809.8
427.251	1854.09
427.627	1859.74
428.003	1860.19
428.379	1902.22
428.756	1921.21
429.132	1930.25
429.507	1968.44
429.883	2024.71
430.259	2033.52
430.635	2065.38
431.011	2077.81
431.387	2158.49
431.763	2162.78
432.138	2167.98
432.514	2209.79
432.89	2243.23
433.265	2303.12
433.641	2326.17
434.016	2308.99
434.392	2394.19
434.767	2431.7
435.143	2412.95
435.518	2466.5
435.894	2463.79
436.269	2494.07
436.644	2541.53
437.02	2568.42
437.395	2577.46
437.77	2611.13
438.145	2641.19
438.52	2650
438.895	2704.24
439.271	2717.34
439.646	2802.77
440.021	2816.32
440.395	2797.34
440.77	2792.82
441.145	2830.11
441.52	2918.69
441.895	2903.55
442.27	2871.92
442.645	2936.1
443.019	2991.69
443.394	3003.66
443.769	3017.67
444.143	2999.14
444.518	3060.84
444.892	3089.54
445.267	3120.5
445.641	3138.12
446.016	3174.51
446.39	3193.94
446.764	3177.44
447.139	3216.09
447.513	3264.67
447.887	3261.28
448.262	3277.1
448.636	3292.02
449.01	3348.06
449.384	3369.98
449.758	3419.25
450.132	3449.75
450.506	3451.34
450.88	3484.78
451.254	3532.92
451.628	3538.57
452.002	3581.05
452.376	3636.19
452.75	3625.34
453.123	3703.76
453.497	3807.48
453.871	3811.78
454.244	3852.46
454.618	3859.01
454.992	3909.85
455.365	3996.63
455.739	4088.16
456.112	4096.29
456.486	4114.14
456.859	4156.85
457.232	4295.83
457.606	4220.13
457.979	4255.83
458.352	4383.51
458.725	4473
459.099	4481.59
459.472	4557.07
459.845	4605.43
460.218	4683.17
460.591	4706.9
460.964	4755.48
461.337	4851.98
461.71	4932.2
462.083	4967.23
462.456	4993.67
462.829	4997.74
463.201	5105.76
463.574	5102.14
463.947	5256.26
464.32	5309.82
464.692	5360.66
465.065	5393.66
465.438	5524.5
465.81	5607.66
466.183	5598.4
466.555	5712.75
466.928	5786.64
467.3	5823.25
467.672	5915.68
468.045	6050.36
468.417	6093.75
468.789	6136.91
469.161	6206.74
469.534	6308.21
469.906	6407.19
470.278	6474.08
470.65	6556.79
471.022	6704.81
471.394	6824.35
471.766	6920.85
472.138	6964.24
472.51	7150.67
472.882	7264.79
473.253	7271.12
473.625	7427.95
473.997	7554.28
474.369	7666.14
474.74	7758.57
475.112	7854.61
475.484	7989.52
475.855	8105.9
476.227	8209.18
476.598	8477.64
476.97	8550.86
477.341	8749.95
477.713	8868.59
478.084	8895.49
478.455	9227.91
478.827	9267.45
479.198	9553.32
479.569	9514.68
479.94	9833.09
480.311	9865.4
480.682	10135.68
481.053	10234.21
481.424	10527.99
481.795	10605.05
482.166	10772.73
482.537	10946.51
482.908	11129.33
483.279	11296.55
483.65	11389.21
484.021	11629.65
484.391	11849.31
484.762	11926.82
485.133	12078
485.503	12226.25
485.874	12508.5
486.244	12609.51
486.615	12838.66
486.985	13063.74
487.356	13243.17
487.726	13434.8
488.097	13628.7
488.467	13700.56
488.837	13944.85
489.207	14163.37
489.578	14421.22
489.948	14547.54
490.318	14697.14
490.688	14805.84
491.058	15053.97
491.428	15219.39
491.798	15321.31
492.168	15664.57
492.538	15693.95
492.908	15923.32
493.278	16156.31
493.648	16122.87
494.017	16337.55
494.387	16515.17
494.757	16603.76
495.126	16874.26
495.496	16898.89
495.866	17075.61
496.235	17238.77
496.605	17462.94
496.974	17510.18
497.344	17738.64
497.713	17877.62
498.082	18029.03
498.452	18157.62
498.821	18274.67
499.19	18288.01
499.559	18546.08
499.928	18714.21
500.298	18864.94
500.667	19001.44
501.036	18988.33
501.405	19143.8
501.774	19319.17
502.143	19369.11
502.512	19515.32
502.88	19773.84
503.249	19747.4
503.618	19979.94
503.987	19972.26
504.356	20149.2
504.724	20274.62
505.093	20368.86
505.462	20570.21
505.83	20628.74
506.199	20809.75
506.567	21105.33
506.936	21139.01
507.304	21393.24
507.672	21389.85
508.041	21578.77
508.409	21729.73
508.777	21987.35
509.145	22121.13
509.514	22241.12
509.882	22300.78
510.25	22466.88
510.618	22769.92
510.986	22884.27
511.354	22984.16
511.722	23134.21
512.09	23389.57
512.458	23416.23
512.826	23583.91
513.193	23774.87
513.561	23822.78
513.929	24017.57
514.297	24367.4
514.664	24485.58
515.032	24546.6
515.4	24765.35
515.767	24849.19
516.135	25131.44
516.502	24944.1
516.869	25488.95
517.237	25527.82
517.604	25636.97
517.972	25902.27
518.339	26113.56
518.706	26174.13
519.073	26334.58
519.44	26568.92
519.808	26932.07
520.175	26866.99
520.542	27209.58
520.909	27247.09
521.276	27413.19
521.643	27695.22
522.009	28018.37
522.376	28211.14
522.743	28329.78
523.11	28702.2
523.477	28774.06
523.843	29081.4
524.21	29308.51
524.577	29539.24
524.943	29758.44
525.31	29859
525.676	30148.26
526.043	30325.66
526.409	30575.82
526.776	30901.46
527.142	30949.37
527.508	31176.26
527.874	31379.87
528.241	31575.12
528.607	31767.43
528.973	32003.58
529.339	32102.79
529.705	32358.6
530.071	32617.12
530.437	32845.37
530.803	33026.38
531.169	33285.81
531.535	33180.27
531.901	33256.88
532.267	33444.67
532.632	33717.43
532.998	33854.38
533.364	34095.73
533.73	34134.82
534.095	34469.05
534.461	34678.31
534.826	34848.02
535.192	34899.32
535.557	35194.23
535.923	35070.84
536.288	35408.91
536.653	35496.37
537.019	35505.41
537.384	35722.13
537.749	35845.29
538.114	35968.9
538.479	36127.31
538.845	36207.99
539.21	36216.58
539.575	36330.7
539.94	36586.51
540.305	36878.25
540.67	36644.59
541.034	37005.93
541.399	37046.84
541.764	37196.89
542.129	37400.95
542.494	37478.24
542.858	37642.3
543.223	37667.16
543.587	37958.9
543.952	37920.71
544.316	38150.54
544.681	38178.11
545.045	38298.33
545.41	38466.69
545.774	38570.19
546.138	38757.07
546.503	38786
546.867	38822.16
547.231	39103.96
547.595	39207.91
547.959	39353.22
548.324	39413.1
548.688	39505.08
549.052	39604.28
549.416	39669.37
549.779	39867.33
550.143	40030.94
550.507	40304.6
550.871	40300.99
551.235	40302.12
551.599	40633.63
551.962	40712.05
552.326	40911.14
552.689	41128.76
553.053	40976.22
553.417	41063.91
553.78	41701.63
554.143	41519.26
554.507	41686.26
554.87	41786.15
555.234	42418.9
555.597	41879.7
555.96	42257.77
556.323	42507.26
556.686	42520.14
557.05	42831.09
557.413	43037.87
557.776	43099.56
558.139	43289.61
558.502	43356.73
558.865	43588.13
559.228	43822.03
559.59	44031.74
559.953	44062.7
560.316	44460.88
560.679	44434.66
561.041	44662
561.404	44882.79
561.767	45174.08
562.129	44987.42
562.492	45590.11
562.854	45484.81
563.217	45471.02
563.579	45694.07
563.941	45988.07
564.304	46097.45
564.666	46350.32
565.028	46304.45
565.39	46628.28
565.753	47007.03
566.115	46970.19
566.477	47176.74
566.839	47306.68
567.201	47537.63
567.563	47555.49
567.925	47948.47
568.287	47795.93
568.648	47941.01
569.01	48109.37
569.372	48321.57
569.734	48273.89
570.095	48522.02
570.457	48723.14
570.819	48859.86
571.18	48794.55
571.542	49080.64
571.903	49093.53
572.265	49166.97
572.626	49326.51
572.987	49288.1
573.349	49568.99
573.71	49692.61
574.071	49724.7
574.432	49798.14
574.794	50037.91
575.155	49993.39
575.516	49971.47
575.877	50134.63
576.238	50268.18
576.599	50343.89
576.96	50364.23
577.32	50440.16
577.681	50578.23
578.042	50536.43
578.403	50580.04
578.763	50718.79
579.124	50715.86
579.485	50833.37
579.845	50950.88
580.206	50857.77
580.566	50930.54
580.927	50978.22
581.287	51051.89
581.648	50935.51
582.008	51137.54
582.368	51032.68
582.728	51131.21
583.089	51048.28
583.449	51085.34
583.809	51141.16
584.169	51186.35
584.529	51093.7
584.889	51373.47
585.249	51194.71
585.609	51132.34
585.969	51251.43
586.329	51171.21
586.688	51252.34
587.048	51213.02
587.408	51224.54
587.768	51187.03
588.127	51188.16
588.487	51147.93
588.846	51427.02
589.206	51295.5
589.565	51302.06
589.925	51328.04
590.284	51290.98
590.643	51367.14
591.003	51439.23
591.362	51497.08
591.721	51445.33
592.08	51403.52
592.44	51507.93
592.799	51422.28
593.158	51419.79
593.517	51411.66
593.876	51494.59
594.235	51518.09
594.593	51428.38
594.952	51581.82
595.311	51487.81
595.67	51472.22
596.029	51694.81
596.387	51754.25
596.746	51725.09
597.104	51507.47
597.463	51618.88
597.822	51724.19
598.18	51613.01
598.538	51549.28
598.897	51786.11
599.255	51526.23
599.613	51933.9
599.972	51829.95
600.33	51938.87
600.688	51695.72
601.046	51857.07
601.404	51999.44
601.762	51879.67
602.12	52102.26
602.478	52080.34
602.836	51994.92
603.194	51922.6
603.552	52100.23
603.91	51994.47
604.268	52182.26
604.625	52076.95
604.983	52187.68
605.341	52022.71
605.698	52212.77
606.056	52252.76
606.413	52224.06
606.771	52312.2
607.128	52436.94
607.485	52309.94
607.843	52266.1
608.2	52440.56
608.557	52568.01
608.914	52418.86
609.272	52552.64
609.629	52674.67
609.986	52721.45
610.343	52631.29
610.7	52815.69
611.057	52785.63
611.414	52736.59
611.771	52738.85
612.127	52862.92
612.484	52857.49
612.841	52994.89
613.198	52814.33
613.554	52836.7
613.911	53069.24
614.267	53016.13
614.624	52950.83
614.98	53083.03
615.337	53204.83
615.693	53081.44
616.05	53059.75
616.406	53274.43
616.762	53193.53
617.118	53098.62
617.475	53233.3
617.831	53254.77
618.187	53303.81
618.543	53284.38
618.899	53483.69
619.255	53387.88
619.611	53358.05
619.967	53370.7
620.323	53611.82
620.678	53407.08
621.034	53295.45
621.39	53405.5
621.746	53378.16
622.101	53725.27
622.457	53408.89
622.812	53439.63
623.168	53635.78
623.523	53519.85
623.879	53582.9
624.234	53506.74
624.589	53527.08
624.945	53579.96
625.3	53596.68
625.655	53524.6
626.01	53460.19
626.365	53538.83
626.72	53567.08
627.075	53455.67
627.43	53419.06
627.785	53451.6
628.14	53465.39
628.495	53535.89
628.85	53449.12
629.205	53387.65
629.559	53530.7
629.914	53397.82
630.269	53367.31
630.623	53440.76
630.978	53279.4
631.332	53315.34
631.687	53302
632.041	53292.74
632.396	53256.35
632.75	53260.2
633.104	53270.82
633.459	53069.92
633.813	53076.47
634.167	53134.32
634.521	53085.06
634.875	53108.56
635.229	52931.39
635.583	52865.63
635.937	52934.78
636.291	52906.76
636.645	52823.14
636.999	52728.01
637.352	52882.35
637.706	52737.27
638.06	52821.11
638.413	52704.5
638.767	52572.53
639.121	52655.24
639.474	52453.21
639.828	52495.02
640.181	52467.9
640.534	52458.86
640.888	52394.23
641.241	52330.05
641.594	52279.88
641.947	52416.15
642.301	52262.26
642.654	52299.09
643.007	52307.23
643.36	52287.11
643.713	52178.19
644.066	52184.52
644.419	52156.72
644.771	51873.11
645.124	51616.17
645.477	51546.12
645.83	51222.96
646.182	51147.71
646.535	50961.5
646.888	51099.57
647.24	50847.38
647.593	51131.44
647.945	51077.2
648.298	50751.34
648.65	50799.92
649.002	50706.36
649.355	50625.01
649.707	50615.29
650.059	50773.26
650.411	51220.02
650.763	51327.82
651.115	51634.7
651.467	51349.29
651.819	51430.64
652.171	51293.24
652.523	51257.31
652.875	51271.1
653.227	51039.92
653.578	51260.7
653.93	51177.09
654.282	51079.91
654.633	50927.38
654.985	51070.42
655.337	50973.02
655.688	51077.65
656.039	51125.56
656.391	50933.03
656.742	50872.46
657.094	50819.58
657.445	50973.7
657.796	50938.67
658.147	50832.69
658.498	50804.22
658.849	50903.87
659.2	50834.27
659.551	50780.26
659.902	50874.27
660.253	50753.14
660.604	50837.89
660.955	50674.5
661.306	50713.82
661.656	50620.49
662.007	50685.8
662.358	50673.15
662.708	50739.36
663.059	50643.77
663.409	50397.45
663.76	50574.84
664.11	50591.34
664.461	50547.27
664.811	50595.18
665.161	50586.14
665.511	50458.91
665.862	50463.66
666.212	50529.19
666.562	50550.44
666.912	50415.98
667.262	50355.64
667.612	50377.11
667.962	50403.32
668.312	50340.5
668.662	50481.74
669.011	50480.83
669.361	50324.91
669.711	50269.31
670.06	50336.66
670.41	50248.98
670.76	50178.92
671.109	50319.93
671.459	50328.52
671.808	50112.03
672.157	50202.65
672.507	49994.97
672.856	49997.46
673.205	50115.87
673.554	50210.56
673.904	50006.27
674.253	50215.3
674.602	50025.93
674.951	49475.21
675.3	49302.79
675.649	49839.04
675.998	49737.12
676.346	49799.95
676.695	49925.59
677.044	49752.94
677.393	49747.29
677.741	49859.38
678.09	49680.4
678.438	49655.09
678.787	49661.87
679.135	49735.54
679.484	49428.66
679.832	49586.17
680.181	49334.2
680.529	49528.32
680.877	49306.18
681.225	49295.78
681.573	49626.39
681.922	49281.32
682.27	49084.94
682.618	49177.37
682.966	49113.64
683.314	49178.95
683.661	48993.64
684.009	48885.85
684.357	48743.25
684.705	48736.7
685.053	48727.89
685.4	48604.05
685.748	48365.86
686.095	48291.06
686.443	48205.19
686.79	48141.01
687.138	48359.31
687.485	48223.49
687.832	48169.03
688.18	48180.1
688.527	47926.1
688.874	47850.39
689.221	47902.37
689.568	47649.72
689.915	47576.73
690.262	47550.52
690.609	47547.13
690.956	47458.54
691.303	47329.96
691.65	47191.43
691.997	47155.72
692.344	46961.6
692.69	46788.5
693.037	46882.28
693.383	46446.82
693.73	46633.93
694.077	46533.14
694.423	46493.82
694.769	46380.15
695.116	46254.28
695.462	46219.25
695.808	45984
696.155	46113.49
696.501	45789.88
696.847	45772.93
697.193	45500.4
697.539	45581.3
697.885	45148.32
698.231	45204.14
698.577	45217.02
698.923	45233.97
699.269	45008.89
699.614	44733.19
699.96	44587.2
700.306	44612.74
700.651	44480.99
700.997	44345.4
701.342	44263.6
701.688	44256.59
702.033	44208.46
702.379	44082.13
702.724	43966.65
703.069	44061.34
703.415	43538.42
703.76	43632.88
704.105	43554.91
704.45	43441.47
704.795	43161.48
705.14	43130.29
705.485	43090.29
705.83	42861.37
706.175	43041.03
706.52	42878.55
706.865	42726.46
707.209	42549.52
707.554	42444.89
707.899	42585.22
708.243	42189.53
708.588	42293.93
708.932	42039.25
709.277	41940.72
709.621	41964
709.966	41733.72
710.31	41887.39
710.654	41536.66
710.998	41684.23
711.342	41597.23
711.687	41513.16
712.031	41246.05
712.375	41187.07
712.719	41268.65
713.063	41058.71
713.407	41113.4
713.75	40946.4
714.094	40893.52
714.438	40741.2
714.782	40791.37
715.125	40537.82
715.469	40578.04
715.812	40407.2
716.156	40256.92
716.499	40269.58
716.843	40265.28
717.186	39984.39
717.53	40224.38
717.873	40175.57
718.216	40122.01
718.559	39836.82
718.902	39698.74
719.246	39698.74
719.589	39596.83
719.932	39446.77
720.275	39515.7
720.617	39368.58
720.96	39206.55
721.303	39409.03
721.646	39287.68
721.989	38990.74
722.331	39209.27
722.674	39019.44
723.016	38908.71
723.359	38823.29
723.701	38886.79
724.044	38677.98
724.386	38452.22
724.729	38686.79
725.071	38506.01
725.413	38479.12
725.755	38369.74
726.097	38264.88
726.439	38101.05
726.782	38146.92
727.124	38233.47
727.465	37970.2
727.807	37977.21
728.149	37933.82
728.491	37780.38
728.833	37826.25
729.175	37772.02
729.516	37614.51
729.858	37529.76
730.199	37587.84
730.541	37356.88
730.882	37424
731.224	37507.39
731.565	37212.71
731.906	37150.11
732.248	37351.46
732.589	37093.84
732.93	36893.62
733.271	37046.38
733.612	36994.41
733.953	37036.89
734.294	36698.15
734.635	36782.44
734.976	36895.88
735.317	36639.16
735.658	36713.51
735.999	36584.25
736.339	36405.72
736.68	36560.75
737.021	36353.75
737.361	36250.25
737.702	36365.72
738.042	36319.85
738.383	36294.54
738.723	36231.26
739.063	36117.37
739.404	36139.06
739.744	35956.02
740.084	35842.12
740.424	35915.57
740.764	35889.58
741.104	35945.62
741.444	35713.76
741.784	35602.35
742.124	35574.56
742.464	35501.34
742.804	35495.24
743.143	35517.84
743.483	35387.67
743.823	35243.95
744.162	35220.22
744.502	35260.44
744.841	35067.45
745.181	35188.81
745.52	35035.36
745.86	34946.78
746.199	34716.05
746.538	34906.1
746.877	34911.07
747.216	34775.48
747.556	34650.74
747.895	34555.15
748.234	34515.15
748.573	34444.65
748.911	34321.94
749.25	34425.89
749.589	34226.8
749.928	34200.13
750.267	34191.09
750.605	34086.01
750.944	33914.72
751.283	34046.46
751.621	33907.48
751.96	33822.97
752.298	33803.53
752.636	33738.9
752.975	33560.15
753.313	33454.39
753.651	33559.24
753.989	33371.68
754.327	33295.3
754.666	33171.68
755.004	33091.01
755.342	33286.03
755.679	33015.98
756.017	32853.73
756.355	32861.86
756.693	32761.3
757.031	32780.06
757.368	32639.27
757.706	32443.12
758.044	32431.82
758.381	32443.12
758.719	32189.79
759.056	32291.48
759.394	32156.34
759.731	32049.91
760.068	31938.95
760.405	31885.84
760.743	31725.85
761.08	31732.63
761.417	31527.21
761.754	31543.93
762.091	31425.29
762.428	31397.04
762.765	31142.81
763.102	31157.27
763.438	30890.84
763.775	30824.63
764.112	30887.9
764.449	30911.18
764.785	30684.52
765.122	30522.94
765.458	30330.18
765.795	30446.11
766.131	30273.68
766.467	30212.21
766.804	30057.19
767.14	29932
767.476	29867.14
767.812	29632.34
768.148	29682.28
768.485	29551.44
768.821	29321.84
769.157	29385.12
769.492	29323.42
769.828	29203.2
770.164	29000.04
770.5	28946.03
770.836	28907.62
771.171	28673.05
771.507	28702.42
771.842	28361.19
772.178	28406.39
772.513	28344.24
772.849	28267.41
773.184	28233.51
773.519	28249.33
773.855	27961.2
774.19	27742.67
774.525	27710.81
774.86	27786.06
775.195	27591.94
775.53	27534.32
775.865	27426.3
776.2	27096.59
776.535	27075.57
776.87	27068.79
777.205	26978.4
777.539	26760.78
777.874	26872.87
778.209	26574.57
778.543	26569.37
778.878	26382.48
779.212	26474.23
779.547	26300.68
779.881	26233.11
780.215	26082.61
780.55	26191.53
780.884	25900.24
781.218	25869.28
781.552	25808.49
781.886	25633.35
782.22	25529.85
782.554	25415.05
782.888	25331.44
783.222	25225.9
783.556	25187.49
783.889	24983.65
784.223	24869.76
784.557	24890.32
784.89	24830.21
785.224	24682.42
785.557	24543.21
785.891	24457.79
786.224	24359.03
786.558	24383.44
786.891	24121.07
787.224	24147.74
787.557	24130.57
787.891	24012.6
788.224	23850.8
788.557	23907.52
788.89	23819.61
789.223	23759.05
789.556	23652.61
789.888	23564.71
790.221	23480.87
790.554	23301.21
790.887	23324.71
791.219	23152.06
791.552	23186.18
791.884	22969.47
792.217	22878.17
792.549	22824.84
792.882	22649.25
793.214	22567.9
793.546	22603.83
793.879	22452.42
794.211	22413.78
794.543	22433.89
794.875	22464.62
795.207	22478.86
795.539	22311.18
795.871	22196.61
796.203	22031.41
796.535	21884.52
796.867	21851.08
797.198	21811.76
797.53	21820.57
797.862	21617.19
798.193	21673
798.525	21468.94
798.856	21470.75
799.188	21350.3
799.519	21187.59
799.85	21097.88
800.182	21085.67
800.513	21130.42
800.844	21008.61
801.175	20967.71
801.506	20944.44
801.837	20889.3
802.168	20736.53
802.499	20569.3
802.83	20558.23
803.161	20454.5
803.491	20469.87
803.822	20452.24
804.153	20295.19
804.483	20268.29
804.814	20202.08
805.145	20108.98
805.475	20085.7
805.805	19976.33
806.136	19968.19
806.466	19978.13
806.796	19827.85
807.126	19761.64
807.457	19721.19
807.787	19801.19
808.117	19662.43
808.447	19569.1
808.777	19643
809.107	19373.85
809.436	19425.61
809.766	19389.67
810.096	19297.25
810.426	19308.77
810.755	19269
811.085	19150.81
811.414	19223.58
811.744	19052.51
812.073	19017.48
812.403	19020.42
812.732	18821.55
813.061	18877.82
813.39	18731.39
813.719	18661.11
814.049	18782.01
814.378	18691.39
814.707	18637.38
815.036	18647.09
815.365	18553.76
815.693	18342.24
816.022	18445.07
816.351	18373.43
816.68	18212.53
817.008	18311.96
817.337	18117.16
817.665	18034
817.994	18114.23
818.322	18053.66
818.651	18074.68
818.979	17875.59
819.307	18041.46
819.636	17948.58
819.964	17810.05
820.292	17859.77
820.62	17843.73
820.948	17785.2
821.276	17756.27
821.604	17794.01
821.932	17856.38
822.259	17756.5
822.587	17744.29
822.915	17682.15
823.243	17827.68
823.57	17652.77
823.898	17700.23
824.225	17565.77
824.553	17701.13
824.88	17703.84
825.207	17713.56
825.535	17707.23
825.862	17651.87
826.189	17591.75
826.516	17711.98
826.843	17674.46
827.17	17676.72
827.497	17649.61
827.824	17699.77
828.151	17709.27
828.478	17653.22
828.805	17767.57
829.131	17691.41
829.458	17565.77
829.785	17483.28
830.111	17599.66
830.438	17700
830.764	17599.21
831.09	17608.93
831.417	17518.76
831.743	17576.84
832.069	17565.09
832.395	17530.74
832.722	17591.98
833.048	17509.5
833.374	17541.81
833.7	17389.95
834.026	17444.87
834.351	17470.18
834.677	17457.07
835.003	17427.69
835.329	17431.31
835.654	17318.77
835.98	17276.73
836.306	17254.36
836.631	17214.59
836.956	17212.56
837.282	17169.17
837.607	17182.73
837.932	17149.51
838.258	17180.69
838.583	17123.52
838.908	17032.45
839.233	17012.34
839.558	17036.97
839.883	16978.66
840.208	16949.51
840.533	16876.52
840.858	16852.34
841.182	16855.96
841.507	16810.53
841.832	16788.39
842.156	16739.8
842.481	16590.2
842.805	16624.55
843.13	16582.52
843.454	16553.36
843.778	16378.91
844.103	16393.59
844.427	16339.13
844.751	16369.41
845.075	16359.47
845.399	16317.44
845.723	16201.06
846.047	16216.88
846.371	16145.24
846.695	16045.35
847.019	15974.17
847.343	15833.16
847.666	15843.55
847.99	15798.58
848.313	15748.19
848.637	15626.61
848.96	15674.74
849.284	15531.7
849.607	15550
849.931	15496.22
850.254	15309.78
850.577	15277.01
850.9	15082.67
851.223	15105.04
851.546	15084.25
851.869	14935.55
852.192	14920.86
852.515	14869.57
852.838	14820.98
853.161	14801.55
853.483	14764.71
853.806	14684.03
854.129	14656.24
854.451	14625.73
854.774	14518.16
855.096	14504.6
855.419	14507.54
855.741	14415.79
856.063	14351.61
856.385	14298.73
856.708	14350.48
857.03	14294.67
857.352	14296.93
857.674	14219.64
857.996	14128.8
858.318	13894.23
858.64	14040.89
858.961	14027.33
859.283	13870.5
859.605	13858.52
859.926	13917.05
860.248	13880.67
860.57	13768.58
860.891	13772.65
861.212	13755.25
861.534	13682.03
861.855	13632.54
862.176	13711.41
862.498	13649.94
862.819	13599.32
863.14	13503.05
863.461	13493.33
863.782	13462.82
864.103	13509.15
864.424	13394.8
864.745	13401.36
865.065	13284.07
865.386	13347.8
865.707	13275.26
866.027	13341.7
866.348	13225.54
866.668	13171.76
866.989	13184.64
867.309	13100.35
867.63	13068.94
867.95	13092.21
868.27	12981.03
868.59	13034.81
868.91	13044.08
869.23	12948.26
869.55	12823.07
869.87	13008.6
870.19	12986.23
870.51	12931.76
870.83	12883.18
871.15	12791.66
871.469	12798.66
871.789	12842.05
872.109	12815.38
872.428	12710.53
872.748	12749.85
873.067	12767.25
873.386	12790.3
873.706	12710.08
874.025	12621.72
874.344	12626.46
874.663	12703.97
874.982	12623.98
875.301	12579.91
875.62	12528.61
875.939	12439.12
876.258	12512.34
876.577	12437.77
876.896	12475.28
877.214	12380.14
877.533	12384.43
877.852	12413.81
878.17	12403.42
878.489	12400.71
878.807	12367.49
879.125	12238.9
879.444	12310.99
879.762	12298.79
880.08	12275.06
880.398	12165.68
880.716	12275.74
881.034	12189.86
881.352	12244.78
881.67	12142.63
881.988	12166.81
882.306	12174.95
882.624	12046.59
882.941	12005.46
883.259	11988.06
883.577	11973.37
883.894	11922.3
884.212	11941.96
884.529	11847.73
884.846	11863.54
885.164	11823.55
885.481	11789.87
885.798	11815.86
886.115	11714.85
886.432	11814.96
886.75	11686.83
887.067	11696.32
887.383	11658.13
887.7	11649.76
888.017	11571.35
888.334	11636.66
888.651	11524.8
888.967	11558.92
889.284	11520.28
889.6	11450.67
889.917	11336.1
890.233	11329.09
890.55	11302.65
890.866	11380.84
891.182	11293.62
891.498	11231.7
891.815	11199.15
892.131	11142.66
892.447	11076.67
892.763	11082.77
893.079	11031.7
893.395	10994.64
893.71	10987.86
894.026	10972.72
894.342	10941.53
894.657	10842.55
894.973	10839.16
895.289	10892.95
895.604	10883.46
895.92	10741.99
896.235	10745.16
896.55	10705.61
896.865	10639.17
897.181	10629.23
897.496	10667.42
897.811	10571.37
898.126	10579.74
898.441	10481.43
898.756	10402.79
899.071	10389.68
899.386	10357.14
899.7	10243.93
900.015	10283.7
900.33	10229.91
900.644	10160.99
900.959	10229.46
901.273	10085.29
901.588	10128.22
901.902	10064.04
902.216	10005.74
902.531	9989.92
902.845	9944.95
903.159	9897.04
903.473	9905.86
903.787	9856.14
904.101	9807.78
904.415	9784.73
904.729	9784.5
905.042	9683.04
905.356	9655.92
905.67	9684.62
905.984	9693.88
906.297	9595.58
906.611	9585.86
906.924	9500.89
907.237	9407.79
907.551	9385.19
907.864	9430.61
908.177	9408.47
908.491	9343.16
908.804	9340.22
909.117	9222.26
909.43	9220.45
909.743	9149.27
910.056	9127.57
910.368	9075.37
910.681	9043.05
910.994	9023.17
911.307	8974.58
911.619	8870.4
911.932	8946.11
912.244	8857.97
912.557	8833.57
912.869	8775.72
913.181	8779.56
913.494	8734.81
913.806	8657.75
914.118	8667.02
914.43	8616.17
914.742	8582.95
915.054	8554.93
915.366	8542.95
915.678	8446.68
915.99	8495.04
916.302	8359.23
916.613	8264.77
916.925	8327.14
917.236	8267.25
917.548	8213.47
917.859	8299.8
918.171	8191.32
918.482	8156.52
918.794	8064.55
919.105	8067.94
919.416	8031.1
919.727	7996.98
920.038	7948.39
920.349	7935.74
920.66	7906.13
920.971	7821.62
921.282	7919.92
921.593	7831.33
921.903	7748.85
922.214	7755.63
922.525	7710.21
922.835	7672.24
923.146	7613.03
923.456	7583.2
923.767	7583.2
924.077	7555.63
924.387	7572.81
924.697	7425.02
925.008	7476.31
925.318	7462.3
925.628	7431.8
925.938	7382.31
926.248	7277.22
926.558	7288.07
926.867	7187.28
927.177	7179.37
927.487	7144.12
927.796	7102.31
928.106	7101.64
928.416	7021.41
928.725	7077.23
929.034	7026.84
929.344	7041.07
929.653	6977.12
929.962	6948.19
930.271	6914.07
930.581	6863.45
930.89	6801.08
931.199	6711.14
931.508	6738.71
931.817	6691.93
932.125	6702.32
932.434	6734.19
932.743	6658.26
933.051	6617.35
933.36	6605.83
933.669	6580.75
933.977	6538.71
934.286	6479.5
934.594	6459.84
934.902	6413.74
935.21	6419.85
935.519	6404.48
935.827	6433.86
936.135	6353.86
936.443	6286.97
936.751	6285.39
937.059	6265.05
937.367	6290.13
937.674	6233.18
937.982	6200.87
938.29	6142.11
938.597	6170.36
938.905	6126.97
939.213	6057.59
939.52	6077.26
939.827	6067.54
940.135	6009.69
940.442	5933.08
940.749	5994.77
941.056	5935.79
941.363	5878.84
941.67	5927.2
941.977	5843.36
942.284	5835.91
942.591	5763.14
942.898	5809.47
943.205	5790.03
943.511	5717.94
943.818	5722.01
944.125	5658.06
944.431	5686.31
944.738	5636.36
945.044	5585.07
945.35	5576.25
945.657	5566.08
945.963	5497.61
946.269	5512.98
946.575	5503.71
946.881	5500.77
947.187	5413.09
947.493	5401.79
947.799	5420.55
948.105	5333.09
948.41	5348.69
948.716	5346.43
949.022	5309.59
949.327	5305.52
949.633	5210.61
949.938	5215.36
950.244	5216.94
950.549	5152.53
950.854	5145.98
951.16	5163.61
951.465	5133.1
951.77	5081.58
952.075	5072.54
952.38	5046.77
952.685	5017.4
952.99	4923.16
953.294	4972.88
953.599	4947.12
953.904	4953.44
954.209	4912.99
954.513	4923.39
954.818	4875.25
955.122	4827.57
955.426	4812.43
955.731	4767.69
956.035	4762.94
956.339	4764.75
956.643	4734.01
956.948	4711.64
957.252	4730.85
957.556	4731.75
957.86	4705.77
958.163	4637.07
958.467	4627.35
958.771	4614.7
959.075	4529.05
959.378	4489.27
959.682	4551.87
959.985	4467.35
960.289	4494.47
960.592	4483.4
960.896	4398.2
961.199	4435.26
961.502	4410.18
961.805	4364.98
962.108	4348.94
962.411	4386.68
962.714	4308.04
963.017	4309.62
963.32	4334.93
963.623	4256.29
963.926	4270.98
964.228	4270.98
964.531	4208.6
964.833	4238.21
965.136	4139.91
965.438	4132.45
965.741	4208.15
966.043	4143.75
966.345	4087.03
966.648	4122.05
966.95	4075.95
967.252	4047.48
967.554	4039.12
967.856	4010.64
968.158	4017.42
968.46	3988.72
968.761	3964.09
969.063	3953.24
969.365	3930.19
969.666	3922.51
969.968	3881.61
970.269	3883.41
970.571	3867.6
970.872	3881.61
971.174	3814.26
971.475	3831.44
971.776	3806.81
972.077	3789.41
972.378	3757.77
972.679	3750.09
972.98	3733.81
973.281	3691.33
973.582	3668.96
973.883	3652.91
974.183	3617.21
974.484	3645.23
974.785	3639.35
975.085	3613.59
975.386	3657.66
975.686	3601.61
975.986	3578.34
976.287	3548.28
976.587	3535.4
976.887	3530.43
977.187	3495.63
977.487	3503.99
977.787	3500.83
978.087	3512.58
978.387	3410.21
978.687	3450.66
978.987	3407.72
979.286	3371.79
979.586	3363.88
979.885	3355.29
980.185	3367.27
980.484	3288.4
980.784	3334.95
981.083	3321.62
981.382	3281.62
981.682	3256.76
981.981	3275.97
982.28	3230.32
982.579	3221.96
982.878	3245.92
983.177	3174.28
983.475	3205.24
983.774	3129.08
984.073	3109.2
984.372	3142.64
984.67	3131.8
984.969	3135.86
985.267	3107.16
985.566	3108.52
985.864	3051.12
986.162	3035.75
986.461	3042.08
986.759	3054.28
987.057	2979.71
987.355	2968.41
987.653	2989.65
987.951	2953.95
988.249	2932.25
988.547	2941.74
988.844	2957.79
989.142	2936.77
989.44	2885.47
989.737	2889.77
990.035	2859.94
990.332	2857.91
990.63	2841.41
990.927	2887.28
991.224	2825.59
991.521	2823.78
991.819	2781.97
992.116	2773.84
992.413	2781.97
992.71	2755.99
993.006	2773.61
993.303	2753.73
993.6	2784.46
993.897	2738.36
994.193	2684.12
994.49	2671.47
994.787	2651.58
995.083	2623.56
995.379	2644.13
995.676	2656.55
995.972	2628.31
996.268	2574.07
996.565	2572.94
996.861	2608.19
997.157	2553.51
997.453	2513.51
997.749	2535.2
998.044	2515.54
998.34	2522.32
998.636	2516.67
998.932	2499.95
999.227	2478.71
999.523	2425.37
999.818	2471.47
1000.114	2428.31
1000.409	2419.72
1000.704	2385.38
1001	2355.09
1001.295	2379.05
1001.59	2337.92
1001.885	2336.34
1002.18	2323
1002.475	2293.85
1002.77	2302.67
1003.065	2287.3
1003.359	2318.26
1003.654	2290.24
1003.949	2255.44
1004.243	2270.8
1004.538	2262.89
1004.832	2202.1
1005.127	2230.8
1005.421	2185.38
1005.715	2207.53
1006.009	2211.82
1006.304	2130.92
1006.598	2150.58
1006.892	2128.88
1007.186	2141.54
1007.48	2109.22
1007.773	2098.38
1008.067	2087.53
1008.361	2114.42
1008.655	2062.67
1008.948	2075.55
1009.242	2037.59
1009.535	2016.57
1009.829	2021.54
1010.122	2004.59
1010.415	1981.09
1010.708	1963.69
1011.001	1986.06
1011.295	1948.32
1011.588	1935.9
1011.881	1955.78
1012.173	1880.53
1012.466	1896.35
1012.759	1892.05
1013.052	1888.21
1013.344	1857.25
1013.637	1903.35
1013.93	1820.19
1014.222	1844.15
1014.514	1817.93
1014.807	1792.62
1015.099	1797.37
1015.391	1792.62
1015.683	1803.7
1015.976	1777.03
1016.268	1761.44
1016.56	1791.04
1016.851	1740.19
1017.143	1716.47
1017.435	1701.55
1017.727	1685.05
1018.018	1694.09
1018.31	1687.99
1018.602	1707.43
1018.893	1678.28
1019.185	1662.23
1019.476	1645.96
1019.767	1643.02
1020.058	1618.84
1020.35	1618.62
1020.641	1609.35
1020.932	1574.1
1021.223	1541.1
1021.514	1535.45
1021.804	1569.58
1022.095	1548.56
1022.386	1532.52
1022.677	1508.11
1022.967	1546.53
1023.258	1498.39
1023.548	1486.19
1023.839	1491.84
1024.129	1476.02
1024.419	1473.99
1024.709	1433.54
1025	1438.28
1025.29	1411.84
1025.58	1438.96
1025.87	1394.21
1026.16	1382.01
1026.449	1372.97
1026.739	1384.5
1027.029	1401.22
1027.319	1402.35
1027.608	1352.86
1027.898	1358.28
1028.187	1334.56
1028.477	1297.27
1028.766	1319.87
1029.055	1290.26
1029.344	1310.38
1029.634	1294.1
1029.923	1267.44
1030.212	1262.69
1030.501	1270.6
1030.79	1270.38
1031.078	1242.81
1031.367	1259.3
1031.656	1226.76
1031.945	1221.56
1032.233	1273.31
1032.522	1203.49
1032.81	1202.58
1033.099	1174.79
1033.387	1210.94
1033.675	1159.64
1033.963	1169.59
1034.251	1175.92
1034.54	1161.9
1034.828	1138.4
1035.116	1168.68
1035.403	1148.35
1035.691	1112.64
1035.979	1128.91
1036.267	1090.27
1036.554	1099.31
1036.842	1095.01
1037.129	1113.32
1037.417	1058.86
1037.704	1083.26
1037.992	1057.27
1038.279	1062.47
1038.566	1061.57
1038.853	1061.57
1039.14	1061.57
