Data from breadboard_white_FLMS001491_00078.txt Node
Date: Wed Feb 08 10:48:15 GMT 2017
User: dcchb
Spectrometer: FLMS00149
Trigger mode: 0
Integration Time (sec): 2.000000E-2
Scans to average: 10
Electric dark correction enabled: true
Nonlinearity correction enabled: false
Boxcar width: 0
XAxis mode: Wavelengths
Number of Pixels in Spectrum: 2048
>>>>>Begin Spectral Data<<<<<
341.393	-8.16
341.776	-8.16
342.16	-8.16
342.543	-57.43
342.927	-68.05
343.31	-69.63
343.693	-70.08
344.077	-67.6
344.46	-51.78
344.843	-57.2
345.226	-50.2
345.61	-30.08
345.993	3.59
346.376	-3.64
346.759	23.93
347.142	15.34
347.525	42.46
347.908	52.63
348.291	63.47
348.674	78.39
349.057	120.42
349.44	118.39
349.823	140.08
350.206	161.32
350.588	209.68
350.971	225.28
351.354	261.43
351.737	249.46
352.119	263.24
352.502	261.89
352.884	292.85
353.267	316.8
353.65	319.96
354.032	318.38
354.414	331.26
354.797	312.51
355.179	348.44
355.562	321.09
355.944	348.21
356.326	352.05
356.709	366.97
357.091	354.76
357.473	358.61
357.855	336.69
358.238	366.52
358.62	357.93
359.002	345.05
359.384	364.71
359.766	354.76
360.148	351.37
360.53	369
360.912	357.7
361.294	362.67
361.676	356.57
362.057	342.11
362.439	345.27
362.821	349.57
363.203	342.56
363.584	347.53
363.966	346.18
364.348	358.61
364.729	347.76
365.111	329
365.493	347.99
365.874	334.88
366.256	337.82
366.637	340.53
367.019	331.26
367.4	336.69
367.781	339.62
368.163	341.88
368.544	351.83
368.925	329.91
369.306	345.27
369.688	343.24
370.069	342.56
370.45	360.64
370.831	344.82
371.212	344.37
371.593	351.37
371.974	345.5
372.355	344.37
372.736	363.35
373.117	341.66
373.498	350.47
373.879	376.01
374.26	371.94
374.641	356.12
375.021	343.47
375.402	358.61
375.783	354.76
376.163	366.74
376.544	380.07
376.925	376.91
377.305	358.83
377.686	383.69
378.066	378.04
378.447	368.55
378.827	373.97
379.208	372.39
379.588	368.1
379.968	376.91
380.349	392.73
380.729	387.98
381.109	411.71
381.489	395.89
381.87	398.15
382.25	397.93
382.63	408.32
383.01	408.55
383.39	419.62
383.77	437.47
384.15	410.13
384.53	427.08
384.91	400.41
385.29	442.22
385.67	431.6
386.049	433.18
386.429	431.15
386.809	443.8
387.189	457.36
387.568	440.64
387.948	442.67
388.328	452.39
388.707	430.92
389.087	442.22
389.466	468.43
389.846	481.99
390.225	470.02
390.605	480.41
390.984	486.74
391.363	487.42
391.743	472.95
392.122	484.03
392.501	498.49
392.881	501.2
393.26	510.92
393.639	508.21
394.018	498.26
394.397	524.25
394.776	541.43
395.155	545.72
395.534	554.53
395.913	521.77
396.292	529.22
396.671	546.62
397.05	572.61
397.429	586.85
397.808	568.09
398.186	591.37
398.565	574.87
398.944	596.57
399.323	599.73
399.701	620.07
400.08	612.84
400.458	612.16
400.837	634.08
401.215	652.16
401.594	667.98
401.972	672.95
402.351	668.43
402.729	672.5
403.107	692.83
403.486	712.04
403.864	707.52
404.242	711.82
404.62	730.35
404.999	759.73
405.377	778.71
405.755	777.35
406.133	780.97
406.511	820.74
406.889	784.58
407.267	820.06
407.645	849.21
408.023	875.2
408.401	868.42
408.779	882.21
409.156	894.64
409.534	873.85
409.912	935.09
410.29	961.53
410.667	999.04
411.045	993.17
411.422	992.71
411.8	1018.7
412.178	1058.02
412.555	1070
412.933	1061.19
413.31	1111.81
413.687	1106.61
414.065	1134.63
414.442	1127.4
414.819	1151.35
415.197	1183.44
415.574	1208.53
415.951	1224.12
416.328	1239.71
416.705	1239.04
417.082	1253.05
417.46	1299.6
417.837	1306.38
418.214	1335.3
418.591	1324.91
418.967	1330.33
419.344	1353.16
419.721	1390.44
420.098	1392.03
420.475	1396.55
420.852	1455.98
421.228	1451.91
421.605	1461.4
421.982	1499.37
422.358	1468.41
422.735	1491.46
423.111	1511.57
423.488	1548.63
423.864	1569.65
424.241	1585.69
424.617	1629.76
424.994	1611.23
425.37	1643.09
425.746	1621.62
426.123	1660.27
426.499	1698.68
426.875	1726.71
427.251	1736.2
427.627	1777.1
428.003	1785.46
428.379	1830.43
428.756	1836.99
429.132	1884.44
429.507	1889.19
429.883	1961.5
430.259	1961.73
430.635	1938.9
431.011	1991.78
431.387	2027.26
431.763	2073.59
432.138	2082.4
432.514	2138.45
432.89	2101.16
433.265	2170.08
433.641	2222.06
434.016	2197.65
434.392	2294.15
434.767	2309.74
435.143	2301.38
435.518	2329.63
435.894	2389.06
436.269	2449.4
436.644	2453.24
437.02	2471.77
437.395	2485.1
437.77	2513.13
438.145	2587.93
438.52	2526.23
438.895	2582.73
439.271	2620.24
439.646	2700.24
440.021	2687.58
440.395	2745.21
440.77	2721.03
441.145	2739.56
441.52	2779.33
441.895	2824.98
442.27	2813.46
442.645	2846
443.019	2899.1
443.394	2909.73
443.769	2900.23
444.143	2897.97
444.518	2960.8
444.892	2943.62
445.267	3003.06
445.641	3059.1
446.016	3062.49
446.39	3082.6
446.764	3058.65
447.139	3102.94
447.513	3130.28
447.887	3123.73
448.262	3210.51
448.636	3204.86
449.01	3242.15
449.384	3282.37
449.758	3308.81
450.132	3320.34
450.506	3355.36
450.88	3419.99
451.254	3387.68
451.628	3420.67
452.002	3490.28
452.376	3526.66
452.75	3607.79
453.123	3600.56
453.497	3666.32
453.871	3661.8
454.244	3713.09
454.618	3747.9
454.992	3779.53
455.365	3837.16
455.739	3961.9
456.112	3968.45
456.486	4005.97
456.859	4018.62
457.232	4113.54
457.606	4084.16
457.979	4166.42
458.352	4264.49
458.725	4348.33
459.099	4339.97
459.472	4442.11
459.845	4507.42
460.218	4476.69
460.591	4555.78
460.964	4613.41
461.337	4672.62
461.71	4781.54
462.083	4832.39
462.456	4822.22
462.829	4895.66
463.201	5007.3
463.574	5014.98
463.947	5047.97
464.32	5157.58
464.692	5199.84
465.065	5317.8
465.438	5357.8
465.81	5419.72
466.183	5417.91
466.555	5628.07
466.928	5725.47
467.3	5667.39
467.672	5760.5
468.045	5931.79
468.417	5916.2
468.789	6019.7
469.161	6088.4
469.534	6110.09
469.906	6276.87
470.278	6232.12
470.65	6427.15
471.022	6537.2
471.394	6670.76
471.766	6734.71
472.138	6814.03
472.51	6973.8
472.882	7044.53
473.253	7153.46
473.625	7236.17
473.997	7359.78
474.369	7483.62
474.74	7594.57
475.112	7665.76
475.484	7823.27
475.855	7986.88
476.227	8076.14
476.598	8294.89
476.97	8327.89
477.341	8510.03
477.713	8645.85
478.084	8716.8
478.455	8976.68
478.827	9067.3
479.198	9288.99
479.569	9276.11
479.94	9656.22
480.311	9674.29
480.682	9891.24
481.053	10124.45
481.424	10288.29
481.795	10400.6
482.166	10532.12
482.537	10716.07
482.908	10930.53
483.279	11016.41
483.65	11193.8
484.021	11438.99
484.391	11567.35
484.762	11634.02
485.133	11761.47
485.503	11998.98
485.874	12212.98
486.244	12357.61
486.615	12583.14
486.985	12699.3
487.356	13043.47
487.726	13189.68
488.097	13362.56
488.467	13445.49
488.837	13811.81
489.207	13914.41
489.578	14106.27
489.948	14226.72
490.318	14402.53
490.688	14575.41
491.058	14779.7
491.428	14911.22
491.798	15097.2
492.168	15336.29
492.538	15526.57
492.908	15651.31
493.278	15788.03
493.648	15966.78
494.017	16076.61
494.387	16299.43
494.757	16364.74
495.126	16616.71
495.496	16677.95
495.866	16812.41
496.235	17050.37
496.605	17161.1
496.974	17336.92
497.344	17569.45
497.713	17569.45
498.082	17735.78
498.452	17963.12
498.821	17978.93
499.19	18111.13
499.559	18315.87
499.928	18391.35
500.298	18530.11
500.667	18626.37
501.036	18706.6
501.405	18879.48
501.774	19062.3
502.143	19166.7
502.512	19212.12
502.88	19472
503.249	19394.94
503.618	19659.57
503.987	19769.4
504.356	19840.81
504.724	20005.55
505.093	20067.24
505.462	20100.23
505.83	20396.72
506.199	20609.15
506.567	20889.59
506.936	20815.92
507.304	21092.75
507.672	21112.18
508.041	21280.77
508.409	21429.24
508.777	21663.81
509.145	21818.61
509.514	21912.39
509.882	22048.21
510.25	22172.72
510.618	22358.48
510.986	22424.69
511.354	22745.81
511.722	22849.31
512.09	23082.08
512.458	23143.32
512.826	23377.44
513.193	23553.48
513.561	23658.33
513.929	23848.84
514.297	24002.73
514.664	24240.69
515.032	24192.33
515.4	24463.28
515.767	24627.57
516.135	24751.41
516.502	24663.73
516.869	25174.45
517.237	25169.25
517.604	25279.53
517.972	25641.78
518.339	25647.66
518.706	25844.94
519.073	26030.25
519.44	26209.68
519.808	26610.12
520.175	26657.35
520.542	26942.54
520.909	27093.5
521.276	27158.81
521.643	27486.25
522.009	27547.04
522.376	27871.56
522.743	27996.98
523.11	28281.49
523.477	28577.98
523.843	28778.65
524.21	29071.07
524.577	29220.9
524.943	29408.69
525.31	29546.77
525.676	29827.44
526.043	30044.61
526.409	30196.24
526.776	30560.3
527.142	30627.42
527.508	30764.81
527.874	31053.39
528.241	31183.78
528.607	31170.23
528.973	31562.53
529.339	31629.42
529.705	31814.95
530.071	32236.86
530.437	32329.29
530.803	32558.44
531.169	32757.75
531.535	32754.14
531.901	32957.75
532.267	33191.64
532.632	33339.21
532.998	33402.71
533.364	33703.04
533.73	33825.3
534.095	34057.16
534.461	34246.53
534.826	34445.17
535.192	34552.74
535.557	34855.33
535.923	34745.95
536.288	34942.1
536.653	35159.5
537.019	34979.84
537.384	35195.2
537.749	35596.32
538.114	35388.19
538.479	35646.04
538.845	35860.95
539.21	35794.74
539.575	36013.71
539.94	36051.91
540.305	36413.25
540.67	36375.06
541.034	36495.28
541.399	36615.96
541.764	36797.2
542.129	36881.94
542.494	36918.32
542.858	37135.27
543.223	37164.64
543.587	37422.49
543.952	37344.98
544.316	37493.68
544.681	37688.25
545.045	37775.7
545.41	37921.46
545.774	38007.56
546.138	38022.47
546.503	38117.39
546.867	38271.06
547.231	38616.81
547.595	38655.23
547.959	38836.92
548.324	38703.13
548.688	39025.84
549.052	39154.42
549.416	39281.2
549.779	39266.06
550.143	39404.13
550.507	39669.66
550.871	39878.92
551.235	39858.81
551.599	40006.15
551.962	40069.2
552.326	40215.19
552.689	40497.66
553.053	40408.63
553.417	40443.65
553.78	40953.02
554.143	40811.78
554.507	40962.96
554.87	41209.51
555.234	41511.87
555.597	41321.6
555.96	41578.31
556.323	41681.36
556.686	41793
557.05	42042.26
557.413	42274.79
557.776	42364.51
558.139	42700.32
558.502	42667.78
558.865	42798.62
559.228	43129.91
559.59	43184.37
559.953	43254.2
560.316	43650.8
560.679	43779.61
561.041	43921.3
561.404	44044.92
561.767	44388.86
562.129	44159.49
562.492	44737.55
562.854	44595.41
563.217	44804.44
563.579	44907.27
563.941	45127.6
564.304	45335.05
564.666	45611.2
565.028	45610.98
565.39	45796.96
565.753	45944.53
566.115	46178.42
566.477	46381.58
566.839	46455.25
567.201	46674.9
567.563	46648.46
567.925	46990.15
568.287	47017.49
568.648	47036.7
569.01	47296.13
569.372	47490.47
569.734	47542.9
570.095	47550.59
570.457	47818.83
570.819	47922.1
571.18	47973.17
571.542	48146.05
571.903	48207.97
572.265	48407.96
572.626	48410.45
572.987	48532.03
573.349	48707.17
573.71	48773.83
574.071	48872.36
574.432	49007.04
574.794	49221.5
575.155	49194.61
575.516	49137.21
575.877	49399.35
576.238	49326.81
576.599	49524.77
576.96	49499.91
577.32	49552.12
577.681	49662.62
578.042	49705.11
578.403	49740.13
578.763	49820.81
579.124	49927.92
579.485	50023.29
579.845	50067.81
580.206	50070.29
580.566	50068.49
580.927	50122.72
581.287	50350.51
581.648	50080.24
582.008	50247.01
582.368	50278.42
582.728	50347.57
583.089	50231.65
583.449	50209.95
583.809	50333.56
584.169	50325.88
584.529	50267.12
584.889	50447.46
585.249	50376.5
585.609	50247.01
585.969	50418.31
586.329	50298.54
586.688	50366.78
587.048	50318.42
587.408	50314.13
587.768	50324.07
588.127	50378.08
588.487	50242.04
588.846	50495.82
589.206	50229.39
589.565	50342.83
589.925	50402.49
590.284	50358.87
590.643	50389.16
591.003	50465.31
591.362	50589.83
591.721	50491.53
592.08	50445.65
592.44	50578.53
592.799	50567
593.158	50560.68
593.517	50574.01
593.876	50653.56
594.235	50526.1
594.593	50594.12
594.952	50703.95
595.311	50523.84
595.67	50654.91
596.029	50796.6
596.387	50797.28
596.746	50967.9
597.104	50731.07
597.463	50759.09
597.822	50842.93
598.18	50768.35
598.538	50763.83
598.897	50880.67
599.255	50714.8
599.613	51222.58
599.972	50871.85
600.33	50991.85
600.688	50816.49
601.046	50911.63
601.404	51065.07
601.762	51036.82
602.12	51150.27
602.478	51184.16
602.836	51123.6
603.194	51055.13
603.552	51079.31
603.91	50998.63
604.268	51321.79
604.625	51107.78
604.983	51265.74
605.341	51060.78
605.698	51278.62
606.056	51399.75
606.413	51354.1
606.771	51515
607.128	51403.82
607.485	51283.37
607.843	51373.54
608.2	51546.86
608.557	51610.37
608.914	51442.46
609.272	51685.62
609.629	51753.19
609.986	51800.87
610.343	51613.08
610.7	51938.27
611.057	51852.17
611.414	51764.26
611.771	51828.21
612.127	52001.09
612.484	52016.01
612.841	52116.79
613.198	51956.12
613.554	51893.07
613.911	52174.42
614.267	52136.23
614.624	52084.25
614.98	52237.02
615.337	52328.54
615.693	52258.71
616.05	52314.53
616.406	52384.13
616.762	52297.81
617.118	52258.26
617.475	52298.48
617.831	52411.93
618.187	52379.61
618.543	52449.21
618.899	52601.98
619.255	52544.13
619.611	52419.38
619.967	52656.67
620.323	52674.07
620.678	52490.34
621.034	52455.09
621.39	52425.94
621.746	52499.83
622.101	52810.33
622.457	52498.25
622.812	52579.38
623.168	52686.95
623.523	52657.8
623.879	52840.16
624.234	52606.72
624.589	52687.4
624.945	52715.87
625.3	52723.56
625.655	52668.42
626.01	52698.25
626.365	52653.5
626.72	52630.45
627.075	52622.09
627.43	52514.52
627.785	52472.49
628.14	52551.36
628.495	52560.17
628.85	52495.99
629.205	52427.29
629.559	52651.02
629.914	52430.01
630.269	52510.91
630.623	52367.63
630.978	52299.84
631.332	52356.79
631.687	52456.67
632.041	52303.68
632.396	52348.88
632.75	52214.42
633.104	52285.6
633.459	52138.49
633.813	52181.88
634.167	52212.61
634.521	52041.77
634.875	52166.28
635.229	52061.43
635.583	51775.33
635.937	51975.1
636.291	51891.71
636.645	51947.76
636.999	51819.63
637.352	51866.4
637.706	51587.09
638.06	51781.89
638.413	51779.63
638.767	51625.51
639.121	51639.97
639.474	51517.04
639.828	51483.82
640.181	51469.35
640.534	51483.14
640.888	51517.94
641.241	51250.15
641.594	51336.7
641.947	51443.14
642.301	51296.48
642.654	51358.62
643.007	51274.1
643.36	51128.57
643.713	51108.01
644.066	51203.15
644.419	50987.56
644.771	50872.98
645.124	50739.65
645.477	50647.91
645.83	50410.85
646.182	50074.81
646.535	49937.42
646.888	49940.13
647.24	49728.61
647.593	49913.69
647.945	49765.44
648.298	49633.24
648.65	49686.8
649.002	49423.08
649.355	49704.65
649.707	49633.02
650.059	49842.73
650.411	50171.31
650.763	50174.7
651.115	50557.29
651.467	50449.72
651.819	50344.18
652.171	50357.29
652.523	50099.67
652.875	50225.09
653.227	49986
653.578	50152.78
653.93	50180.12
654.282	49895.83
654.633	49837.76
654.985	49904.42
655.337	49943.52
655.688	49928.15
656.039	50118.65
656.391	49711.43
656.742	49802.5
657.094	49830.75
657.445	49883.18
657.796	49778.1
658.147	49780.36
658.498	49680.93
658.849	49779.68
659.2	49742.62
659.551	49547.82
659.902	49712.11
660.253	49681.83
660.604	49669.63
660.955	49420.14
661.306	49598.22
661.656	49476.18
662.007	49519.57
662.358	49384.21
662.708	49493.13
663.059	49329.75
663.409	49141.96
663.76	49439.8
664.11	49283.65
664.461	49352.57
664.811	49307.83
665.161	49343.08
665.511	49232.35
665.862	49313.48
666.212	49401.16
666.562	49429.18
666.912	49419.24
667.262	49241.61
667.612	49196.42
667.962	49281.84
668.312	49105.57
668.662	49364.78
669.011	49226.02
669.361	49184.89
669.711	49142.86
670.06	49186.93
670.41	49036.87
670.76	49088.62
671.109	49146.93
671.459	48997.78
671.808	49075.97
672.157	49116.19
672.507	48787.62
672.856	48786.49
673.205	48839.59
673.554	48927.5
673.904	48732.25
674.253	48989.87
674.602	48789.42
674.951	48279.61
675.3	48023.79
675.649	48595.53
675.998	48580.16
676.346	48565.93
676.695	48738.13
677.044	48490.9
677.393	48477.12
677.741	48505.81
678.09	48472.82
678.438	48439.15
678.787	48420.85
679.135	48357.57
679.484	48097.46
679.832	48290.45
680.181	48065.83
680.529	48174.98
680.877	48072.15
681.225	48111.7
681.573	48238.03
681.922	48035.77
682.27	47720.3
682.618	47868.09
682.966	47766.85
683.314	47840.3
683.661	47660.41
684.009	47544.48
684.357	47378.61
684.705	47351.5
685.053	47385.84
685.4	47338.61
685.748	47137.49
686.095	47030.83
686.443	46794
686.79	46765.52
687.138	46968.91
687.485	46952.41
687.832	46837.61
688.18	46739.53
688.527	46387.68
688.874	46538.41
689.221	46436.26
689.568	46346.32
689.915	46117.4
690.262	46218.42
690.609	46037.41
690.956	46019.55
691.303	45907.01
691.65	45740.92
691.997	45743.4
692.344	45479
692.69	45470.19
693.037	45499.79
693.383	45157.65
693.73	45233.58
694.077	45050.31
694.423	45074.72
694.769	44851
695.116	44791.56
695.462	44835.4
695.808	44632.47
696.155	44808.29
696.501	44319.94
696.847	44352.48
697.193	44121.3
697.539	44119.94
697.885	43759.05
698.231	43825.26
698.577	43750.69
698.923	43546.62
699.269	43408.77
699.614	43186.41
699.96	43185.95
700.306	43197.71
700.651	43038.16
700.997	42889.01
701.342	42826.42
701.688	42817.38
702.033	42525.41
702.379	42586.87
702.724	42498.29
703.069	42615.35
703.415	42139.88
703.76	42138.75
704.105	42104.63
704.45	42104.18
704.795	41745.99
705.14	41681.59
705.485	41768.59
705.83	41445.89
706.175	41623.06
706.52	41297.19
706.865	41171.77
707.209	41205.22
707.554	41003.41
707.899	41108.72
708.243	40865.56
708.588	40757.09
708.932	40681.84
709.277	40606.36
709.621	40395.29
709.966	40273.49
710.31	40341.74
710.654	40006.83
710.998	39979.71
711.342	40210.44
711.687	39884.35
712.031	39778.13
712.375	39748.31
712.719	39867.17
713.063	39643.22
713.407	39666.95
713.75	39452.95
714.094	39363.68
714.438	39278.04
714.782	39267.64
715.125	39136.8
715.469	39161.88
715.812	39076.91
716.156	38631.5
716.499	38812.06
716.843	38755.11
717.186	38517.38
717.53	38584.27
717.873	38533.2
718.216	38496.59
718.559	38368
718.902	38125.97
719.246	38189.93
719.589	38158.74
719.932	37909.03
720.275	37979.31
720.617	37942.93
720.96	37920.56
721.303	37749.49
721.646	37738.64
721.989	37584.07
722.331	37633.11
722.674	37561.7
723.016	37488.93
723.359	37392.66
723.701	37484.86
724.044	37108.37
724.386	36955.61
724.729	37255.94
725.071	37080.35
725.413	36977.76
725.755	36964.65
726.097	36752.9
726.439	36754.94
726.782	36680.59
727.124	36746.8
727.465	36614.83
727.807	36622.51
728.149	36355.63
728.491	36265.23
728.833	36347.04
729.175	36373.03
729.516	36204.22
729.858	36241.28
730.199	36297.32
730.541	36082.64
730.882	36149.3
731.224	36114.05
731.565	35726.72
731.906	35863.21
732.248	35749.99
732.589	35803.55
732.93	35484.46
733.271	35571.01
733.612	35699.37
733.953	35651.24
734.294	35448.08
734.635	35318.37
734.976	35463.67
735.317	35252.83
735.658	35274.98
735.999	35172.83
736.339	35046.28
736.68	35070.69
737.021	34968.32
737.361	34711.15
737.702	35034.53
738.042	34956.57
738.383	34886.74
738.723	34764.71
739.063	34675.22
739.404	34730.13
739.744	34589.34
740.084	34496.92
740.424	34570.14
740.764	34417.82
741.104	34509.8
741.444	34242.46
741.784	34112.75
742.124	34323.36
742.464	34174.67
742.804	34142.58
743.143	34048.12
743.483	34023.48
743.823	33939.19
744.162	33909.36
744.502	33952.53
744.841	33842.25
745.181	33809.03
745.52	33679.31
745.86	33757.28
746.199	33574.46
746.538	33544.4
746.877	33450.39
747.216	33481.8
747.556	33411.52
747.895	33519.77
748.234	33303.05
748.573	33105.54
748.911	33160
749.25	33052.89
749.589	32918.88
749.928	32949.84
750.267	33061.02
750.605	32739.68
750.944	32765.66
751.283	32558.89
751.621	32689.96
751.96	32390.76
752.298	32403.19
752.636	32465.33
752.975	32304.66
753.313	32109.64
753.651	32247.94
753.989	32131.56
754.327	31970.43
754.666	31758.91
755.004	32004.78
755.342	31929.53
755.679	31824.67
756.017	31631
756.355	31677.1
756.693	31397.56
757.031	31569.09
757.368	31282.09
757.706	31255.87
758.044	31191.92
758.381	31235.31
758.719	31055.2
759.056	31141.53
759.394	31052.26
759.731	30767.07
760.068	30597.81
760.405	30576.79
760.743	30444.37
761.08	30484.37
761.417	30199.18
761.754	30377.25
762.091	30167.54
762.428	30069.69
762.765	29841
763.102	30132.06
763.438	29828.57
763.775	29707.21
764.112	29683.49
764.449	29626.54
764.785	29375.24
765.122	29330.73
765.458	29171.18
765.795	29182.93
766.131	29158.3
766.467	28988.59
766.804	28832.89
767.14	28665.43
767.476	28691.42
767.812	28537.3
768.148	28582.95
768.485	28426.12
768.821	28214.82
769.157	28227.48
769.492	28172.11
769.828	28076.52
770.164	27914.27
770.5	27735.29
770.836	27682.41
771.171	27472.92
771.507	27529.64
771.842	27401.51
772.178	27296.88
772.513	27246.26
772.849	27123.78
773.184	27019.83
773.519	27041.07
773.855	26860.96
774.19	26825.93
774.525	26692.15
774.86	26635.2
775.195	26564.92
775.53	26387.98
775.865	26327.64
776.2	26148.44
776.535	25995.67
776.87	25900.53
777.205	25852.63
777.539	25763.14
777.874	25766.53
778.209	25601.78
778.543	25488.12
778.878	25278.18
779.212	25270.27
779.547	25163.6
779.881	25227.11
780.215	25069.6
780.55	25135.81
780.884	24887.23
781.218	24849.04
781.552	24818.53
781.886	24476.84
782.22	24422.38
782.554	24421.02
782.888	24182.61
783.222	24091.54
783.556	24021.94
783.889	24047.93
784.223	23845.45
784.557	23871.43
784.89	23797.31
785.224	23655.39
785.557	23432.35
785.891	23541.95
786.224	23493.14
786.558	23429.41
786.891	23218.12
787.224	23068.07
787.557	23038.24
787.891	23066.48
788.224	22889.09
788.557	22927.96
788.89	22886.38
789.223	22871.91
789.556	22579.49
789.888	22544.01
790.221	22392.38
790.554	22254.98
790.887	22375.65
791.219	22269.89
791.552	22143.12
791.884	22048.88
792.217	21980.86
792.549	21866.52
792.882	21853.41
793.214	21716.24
793.546	21611.38
793.879	21532.96
794.211	21396.02
794.543	21439.86
794.875	21413.65
795.207	21464.27
795.539	21330.71
795.871	21245.29
796.203	21135.69
796.535	20961.91
796.867	21001.68
797.198	20879.42
797.53	20895.47
797.862	20710.16
798.193	20746.09
798.525	20641.91
798.856	20610.05
799.188	20359.44
799.519	20383.16
799.85	20312.43
800.182	20351.98
800.513	20278.31
800.844	20042.38
801.175	20226.11
801.506	20093.91
801.837	20099.33
802.168	20111.31
802.499	20034.47
802.83	19787.02
803.161	19662.73
803.491	19682.84
803.822	19746.12
804.153	19521.49
804.483	19435.62
804.814	19275.17
805.145	19272.91
805.475	19218.68
805.805	19295.96
806.136	19236.98
806.466	19199.01
806.796	19230.2
807.126	19080.15
807.457	18937.78
807.787	18983.65
808.117	18899.36
808.447	18837.44
808.777	18814.62
809.107	18633.83
809.436	18687.16
809.766	18603.32
810.096	18546.6
810.426	18521.97
810.755	18519.48
811.085	18544.12
811.414	18415.31
811.744	18235.2
812.073	18214.41
812.403	18235.65
812.732	18129.89
813.061	18112.26
813.39	18020.74
813.719	17908.65
814.049	18053.73
814.378	17880.86
814.707	17933.74
815.036	17872.95
815.365	17729.9
815.693	17551.83
816.022	17670.24
816.351	17582.79
816.68	17340.53
817.008	17581.88
817.337	17427.08
817.665	17265.51
817.994	17390.25
818.322	17306.64
818.651	17292.85
818.979	17174.44
819.307	17321.1
819.636	17257.82
819.964	17084.95
820.292	17125.17
820.62	17139.86
820.948	16992.52
821.276	17114.1
821.604	17048.56
821.932	17077.49
822.259	17121.1
822.587	17026.19
822.915	16996.81
823.243	17046.76
823.57	16963.14
823.898	17066.64
824.225	16914.78
824.553	17021.9
824.88	17000.88
825.207	17018.51
825.535	16937.83
825.862	16967.66
826.189	16932.41
826.516	16952.52
826.843	17002.46
827.17	17043.82
827.497	17056.7
827.824	16991.39
828.151	16992.52
828.478	16969.02
828.805	17045.63
829.131	16930.37
829.458	16891.28
829.785	16804.95
830.111	16837.95
830.438	16997.04
830.764	16860.55
831.09	16927.89
831.417	16788.91
831.743	16902.35
832.069	16887.21
832.395	16721.34
832.722	16830.94
833.048	16707.33
833.374	16772.86
833.7	16606.54
834.026	16693.54
834.351	16612.87
834.677	16677.95
835.003	16798.17
835.329	16650.83
835.654	16654.68
835.98	16575.13
836.306	16646.31
836.631	16489.71
836.956	16491.74
837.282	16561.34
837.607	16412.87
837.932	16506.88
838.258	16339.2
838.583	16346.66
838.908	16255.82
839.233	16370.39
839.558	16233.67
839.883	16276.38
840.208	16193.22
840.533	16266.89
840.858	16163.16
841.182	16136.04
841.507	16077.52
841.832	15990.29
842.156	15990.06
842.481	15994.35
842.805	15924.98
843.13	15911.42
843.454	15837.97
843.778	15815.38
844.103	15807.47
844.427	15745.77
844.751	15766.11
845.075	15695.38
845.399	15689.95
845.723	15562.05
846.047	15526.8
846.371	15426.68
846.695	15488.15
847.019	15336.52
847.343	15155.51
847.666	15278.67
847.99	15241.15
848.313	15176.52
848.637	15022.63
848.96	14978.56
849.284	14981.95
849.607	14914.16
849.931	14753.93
850.254	14658.34
850.577	14593.71
850.9	14503.09
851.223	14582.87
851.546	14415.64
851.869	14324.34
852.192	14515.07
852.515	14159.15
852.838	14201.63
853.161	14170.22
853.483	14094.06
853.806	14057.46
854.129	13981.75
854.451	14027.85
854.774	13911.02
855.096	13899.49
855.419	13837.8
855.741	13835.54
856.063	13759.84
856.385	13763.68
856.708	13723.68
857.03	13629.22
857.352	13648.2
857.674	13581.76
857.996	13535.66
858.318	13492.27
858.64	13433.06
858.961	13418.38
859.283	13377.93
859.605	13353.29
859.926	13415.66
860.248	13328.66
860.57	13221.55
860.891	13222
861.212	13217.48
861.534	13160.3
861.855	13072.85
862.176	13079.18
862.498	13011.16
862.819	13081.44
863.14	12925.06
863.461	12867.66
863.782	12993.08
864.103	12986.07
864.424	12938.84
864.745	12874.89
865.065	12855.45
865.386	12850.03
865.707	12742.01
866.027	12828.11
866.348	12695.91
866.668	12696.59
866.989	12615.01
867.309	12586.08
867.63	12559.64
867.95	12485.97
868.27	12409.36
868.59	12455.24
868.91	12458.63
869.23	12426.99
869.55	12417.95
869.87	12419.76
870.19	12386.31
870.51	12391.96
870.83	12363.04
871.15	12303.6
871.469	12328.24
871.789	12390.61
872.109	12309.93
872.428	12330.95
872.748	12248.46
873.067	12271.29
873.386	12223.61
873.706	12194.45
874.025	12104.06
874.344	12063.61
874.663	12121.01
874.982	12101.8
875.301	12095.25
875.62	12047.79
875.939	12003.72
876.258	11986.32
876.577	11941.35
876.896	11918.08
877.214	11893.67
877.533	11924.63
877.852	11879.43
878.17	11855.71
878.489	11829.04
878.807	11898.64
879.125	11866.55
879.444	11749.49
879.762	11718.53
880.08	11787.68
880.398	11674.24
880.716	11716.73
881.034	11666.33
881.352	11706.1
881.67	11631.76
881.988	11584.53
882.306	11565.09
882.624	11489.16
882.941	11483.74
883.259	11448.94
883.577	11493
883.894	11399.45
884.212	11461.14
884.529	11414.59
884.846	11421.14
885.164	11499.56
885.481	11294.14
885.798	11393.12
886.115	11293.01
886.432	11361.71
886.75	11253.91
887.067	11231.31
887.383	11187.93
887.7	11240.13
888.017	11083.52
888.334	11187.47
888.651	11127.14
888.967	11059.79
889.284	11123.97
889.6	10958.33
889.917	10947.71
890.233	11006.01
890.55	10923.07
890.866	10938.44
891.182	10886.69
891.498	10826.81
891.815	10805.34
892.131	10802.17
892.447	10688.05
892.763	10700.48
893.079	10622.29
893.395	10617.09
893.71	10492.58
894.026	10502.75
894.342	10499.58
894.657	10441.28
894.973	10438.79
895.289	10393.6
895.604	10455.97
895.92	10292.13
896.235	10274.5
896.55	10341.85
896.865	10223.21
897.181	10194.28
897.496	10215.07
897.811	10155.18
898.126	10130.55
898.441	10068.63
898.756	10015.53
899.071	9953.38
899.386	9984.57
899.7	9922.65
900.015	9857.11
900.33	9790.22
900.644	9839.94
900.959	9712.26
901.273	9762.65
901.588	9799.94
901.902	9621.87
902.216	9615.54
902.531	9602.43
902.845	9648.08
903.159	9505.71
903.473	9470.91
903.787	9464.58
904.101	9421.19
904.415	9404.02
904.729	9389.1
905.042	9357.69
905.356	9282.21
905.67	9231.14
905.984	9254.19
906.297	9219.84
906.611	9136
906.924	9170.58
907.237	9047.64
907.551	9114.99
907.864	8978.27
908.177	8973.52
908.491	8947.08
908.804	8928.78
909.117	8911.38
909.43	8827.54
909.743	8853.75
910.056	8783.7
910.368	8761.55
910.681	8709.12
910.994	8659.41
911.307	8659.41
911.619	8563.59
911.932	8566.07
912.244	8531.72
912.557	8461.22
912.869	8446.08
913.181	8419.86
913.494	8404.27
913.806	8383.71
914.118	8347.55
914.43	8289.92
914.742	8283.6
915.054	8207.89
915.366	8130.83
915.678	8212.64
915.99	8107.33
916.302	8037.27
916.613	7989.14
916.925	8062.13
917.236	8004.06
917.548	7905.98
917.859	7943.49
918.171	7905.07
918.482	7869.37
918.794	7809.48
919.105	7799.99
919.416	7691.07
919.727	7729.94
920.038	7748.02
920.349	7646.55
920.66	7557.06
920.971	7640.22
921.282	7546.67
921.593	7432.09
921.903	7444.97
922.214	7463.96
922.525	7396.16
922.835	7370.63
923.146	7350.06
923.456	7344.86
923.767	7314.36
924.077	7252.21
924.387	7263.28
924.697	7239.1
925.008	7191.87
925.318	7106.9
925.628	7144.64
925.938	7133.34
926.248	7009.96
926.558	6905.33
926.867	6993.46
927.177	6961.6
927.487	6996.4
927.796	6813.8
928.106	6858.32
928.416	6871.66
928.725	6840.7
929.034	6762.96
929.344	6806.57
929.653	6747.82
929.962	6671.66
930.271	6600.93
930.581	6609.52
930.89	6612.23
931.199	6595.5
931.508	6543.98
931.817	6526.81
932.125	6551.44
932.434	6468.73
932.743	6406.58
933.051	6448.62
933.36	6442.29
933.669	6377.66
933.977	6306.92
934.286	6308.51
934.594	6259.69
934.902	6257.43
935.21	6194.84
935.519	6152.58
935.827	6160.49
936.135	6124.78
936.443	6068.51
936.751	6049.3
937.059	6048.85
937.367	5990.55
937.674	6040.49
937.982	5971.57
938.29	5910.55
938.597	5968.85
938.905	5878.69
939.213	5851.12
939.52	5817.45
939.827	5793.72
940.135	5812.7
940.442	5795.75
940.749	5758.01
941.056	5774.96
941.363	5707.17
941.67	5669.43
941.977	5669.88
942.284	5637.11
942.591	5622.87
942.898	5551.69
943.205	5572.93
943.511	5503.33
943.818	5552.14
944.125	5461.07
944.431	5487.29
944.738	5424.24
945.044	5396.67
945.35	5378.81
945.657	5352.6
945.963	5364.8
946.269	5304.47
946.575	5333.39
946.881	5271.47
947.187	5279.61
947.493	5253.39
947.799	5231.47
948.105	5187.41
948.41	5161.64
948.716	5141.53
949.022	5107.86
949.327	5120.06
949.633	5038.03
949.938	5067.64
950.244	5049.78
950.549	5007.52
950.854	4974.3
951.16	5003.68
951.465	4941.99
951.77	4903.35
952.075	4898.15
952.38	4925.94
952.685	4862.22
952.99	4848.21
953.294	4855.44
953.599	4825.61
953.904	4792.84
954.209	4742.67
954.513	4730.69
954.818	4709.68
955.122	4675.78
955.426	4669.91
955.731	4661.77
956.035	4651.83
956.339	4588.1
956.643	4605.27
956.948	4578.38
957.252	4544.49
957.556	4537.25
957.86	4476.92
958.163	4456.58
958.467	4455.22
958.771	4437.82
959.075	4453.19
959.378	4400.99
959.682	4350.59
959.985	4335
960.289	4312.4
960.592	4315.79
960.896	4285.51
961.199	4304.72
961.502	4294.77
961.805	4252.74
962.108	4254.32
962.411	4233.76
962.714	4205.28
963.017	4192.63
963.32	4178.62
963.623	4154.89
963.926	4139.07
964.228	4106.08
964.531	4092.97
964.833	4115.12
965.136	4041
965.438	4041
965.741	4031.96
966.043	3951.28
966.345	4028.57
966.648	3975.01
966.95	3972.97
967.252	3934.11
967.554	3909.47
967.856	3902.92
968.158	3897.27
968.46	3854.33
968.761	3808.23
969.063	3850.94
969.365	3814.33
969.666	3824.96
969.968	3745.18
970.269	3753.55
970.571	3786.09
970.872	3749.93
971.174	3712.19
971.475	3681.46
971.776	3683.72
972.077	3659.76
972.378	3647.11
972.679	3628.8
972.98	3647.79
973.281	3614.57
973.582	3607.79
973.883	3587.45
974.183	3574.34
974.484	3563.49
974.785	3544.74
975.085	3527.79
975.386	3490.5
975.686	3501.35
975.986	3450.28
976.287	3458.64
976.587	3444.63
976.887	3427.68
977.187	3402.59
977.487	3413.67
977.787	3373.89
978.087	3339.54
978.387	3349.94
978.687	3318.53
978.987	3335.25
979.286	3294.35
979.586	3297.06
979.885	3263.39
980.185	3272.65
980.484	3256.38
980.784	3223.16
981.083	3197.85
981.382	3184.97
981.682	3216.38
981.981	3180.91
982.28	3133.22
982.579	3128.48
982.878	3111.3
983.177	3100
983.475	3108.36
983.774	3121.92
984.073	3057.52
984.372	3041.93
984.67	3047.58
984.969	3019.78
985.267	3008.25
985.566	3025.43
985.864	3012.55
986.162	3015.94
986.461	2971.87
986.759	2984.07
987.057	2931.19
987.355	2923.96
987.653	2935.49
987.951	2871.08
988.249	2874.25
988.547	2874.02
988.844	2808.03
989.142	2852.33
989.44	2841.7
989.737	2817.52
990.035	2818.88
990.332	2839.67
990.63	2782.5
990.927	2759
991.224	2733.46
991.521	2726.68
991.819	2735.27
992.116	2712.89
992.413	2726
992.71	2693.46
993.006	2696.85
993.303	2671.31
993.6	2678.77
993.897	2667.25
994.193	2680.58
994.49	2631.09
994.787	2617.53
995.083	2577.31
995.379	2579.79
995.676	2571.2
995.972	2517.87
996.268	2525.78
996.565	2503.18
996.861	2524.2
997.157	2502.96
997.453	2501.15
997.749	2424.54
998.044	2470.42
998.34	2418.44
998.636	2447.37
998.932	2439.23
999.227	2377.76
999.523	2384.99
999.818	2377.54
1000.114	2342.51
1000.409	2352
1000.704	2372.34
1001	2361.94
1001.295	2308.39
1001.59	2347.03
1001.885	2314.04
1002.18	2307.26
1002.475	2280.59
1002.77	2271.55
1003.065	2225.45
1003.359	2222.51
1003.654	2221.83
1003.949	2206.47
1004.243	2170.31
1004.538	2167.37
1004.832	2195.85
1005.127	2166.69
1005.421	2157.88
1005.715	2096.41
1006.009	2095.51
1006.304	2111.55
1006.598	2095.96
1006.892	2091.44
1007.186	2065
1007.48	2094.15
1007.773	2071.78
1008.067	2020.94
1008.361	2036.3
1008.655	2007.6
1008.948	2019.13
1009.242	1993.37
1009.535	2001.5
1009.829	1984.55
1010.122	1959.92
1010.415	1967.15
1010.708	1950.65
1011.001	1915.4
1011.295	1932.12
1011.588	1904.33
1011.881	1893.48
1012.173	1873.59
1012.466	1901.39
1012.759	1880.15
1013.052	1845.12
1013.344	1846.93
1013.637	1823.43
1013.93	1814.84
1014.222	1821.39
1014.514	1795.63
1014.807	1784.11
1015.099	1765.58
1015.391	1762.41
1015.683	1753.37
1015.976	1754.05
1016.268	1735.07
1016.56	1730.77
1016.851	1740.72
1017.143	1693.71
1017.435	1680.38
1017.727	1674.05
1018.018	1666.82
1018.31	1656.43
1018.602	1639.7
1018.893	1639.25
1019.185	1634.73
1019.476	1592.47
1019.767	1582.3
1020.058	1585.47
1020.35	1573.49
1020.641	1598.57
1020.932	1551.57
1021.223	1544.11
1021.514	1550.67
1021.804	1517.67
1022.095	1520.61
1022.386	1517.67
1022.677	1473.83
1022.967	1487.62
1023.258	1496.88
1023.548	1494.62
1023.839	1468.86
1024.129	1456.2
1024.419	1468.41
1024.709	1447.39
1025	1439.26
1025.29	1386.83
1025.58	1421.18
1025.87	1369.88
1026.16	1380.5
1026.449	1407.17
1026.739	1382.76
1027.029	1369.65
1027.319	1360.16
1027.608	1335.76
1027.898	1306.83
1028.187	1323.55
1028.477	1305.93
1028.766	1301.41
1029.055	1319.49
1029.344	1314.06
1029.634	1291.92
1029.923	1270.22
1030.212	1280.39
1030.501	1272.93
1030.79	1247.17
1031.078	1235.19
1031.367	1238.81
1031.656	1223.44
1031.945	1241.75
1032.233	1213.5
1032.522	1171.69
1032.81	1240.39
1033.099	1188.19
1033.387	1180.73
1033.675	1164.91
1033.963	1164.91
1034.251	1164.01
1034.54	1144.57
1034.828	1147.29
1035.116	1130.56
1035.403	1133.73
1035.691	1131.47
1035.979	1100.28
1036.267	1138.25
1036.554	1092.82
1036.842	1102.99
1037.129	1088.08
1037.417	1070
1037.704	1065.25
1037.992	1068.87
1038.279	1072.03
1038.566	1056.89
1038.853	1056.89
1039.14	1056.89
