Data from breadboard_black_back_FLMS001491_00038.txt Node
Date: Wed Feb 08 10:50:18 GMT 2017
User: dcchb
Spectrometer: FLMS00149
Trigger mode: 0
Integration Time (sec): 2.000000E-2
Scans to average: 10
Electric dark correction enabled: true
Nonlinearity correction enabled: false
Boxcar width: 0
XAxis mode: Wavelengths
Number of Pixels in Spectrum: 2048
>>>>>Begin Spectral Data<<<<<
341.393	14.59
341.776	14.59
342.16	14.59
342.543	-69.02
342.927	-54.79
343.31	-68.57
343.693	-72.41
344.077	-53.2
344.46	-61.79
344.843	-48.01
345.226	-39.87
345.61	-31.06
345.993	-27.89
346.376	3.97
346.759	8.26
347.142	8.94
347.525	38.32
347.908	58.66
348.291	84.19
348.674	99.56
349.057	100.92
349.44	118.09
349.823	147.02
350.206	166.68
350.588	189.27
350.971	227.69
351.354	242.61
351.737	234.25
352.119	263.17
352.502	271.76
352.884	286
353.267	300.01
353.65	309.27
354.032	295.03
354.414	332.77
354.797	302.27
355.179	316.28
355.562	312.89
355.944	355.15
356.326	334.13
356.709	348.59
357.091	342.27
357.473	349.04
357.855	344.75
358.238	352.89
358.62	336.84
359.002	350.85
359.384	349.04
359.766	342.49
360.148	354.47
360.53	341.81
360.912	358.99
361.294	346.78
361.676	337.75
362.057	361.02
362.439	346.56
362.821	359.89
363.203	344.07
363.584	366.45
363.966	332.1
364.348	357.41
364.729	343.62
365.111	353.79
365.493	331.87
365.874	355.15
366.256	336.39
366.637	351.3
367.019	327.58
367.4	345.43
367.781	357.18
368.163	347.24
368.544	325.32
368.925	370.06
369.306	340.01
369.688	335.71
370.069	337.52
370.45	340.46
370.831	353.11
371.212	349.72
371.593	337.29
371.974	348.82
372.355	357.63
372.736	344.98
373.117	346.78
373.498	336.62
373.879	352.21
374.26	361.7
374.641	345.43
375.021	363.73
375.402	358.76
375.783	377.74
376.163	399.89
376.544	371.64
376.925	374.81
377.305	387.01
377.686	366.9
378.066	383.62
378.447	382.26
378.827	353.79
379.208	389.27
379.588	382.26
379.968	389.95
380.349	396.95
380.729	390.63
381.109	397.63
381.489	389.72
381.87	411.87
382.25	394.47
382.63	412.55
383.01	419.55
383.39	391.08
383.77	426.78
384.15	415.94
384.53	425.2
384.91	448.48
385.29	432.66
385.67	429.95
386.049	436.73
386.429	450.28
386.809	437.63
387.189	422.94
387.568	448.02
387.948	459.1
388.328	456.39
388.707	471.75
389.087	456.61
389.466	474.92
389.846	468.14
390.225	455.48
390.605	463.17
390.984	476.95
391.363	474.92
391.743	490.96
392.122	500.9
392.501	470.85
392.881	507.68
393.26	519.21
393.639	498.87
394.018	517.63
394.397	504.29
394.776	508.36
395.155	525.54
395.534	536.16
395.913	531.86
396.292	536.61
396.671	544.52
397.05	543.39
397.429	549.27
397.808	543.16
398.186	552.2
398.565	564.63
398.944	558.98
399.323	557.4
399.701	570.28
400.08	550.17
400.458	580.68
400.837	591.07
401.215	587
401.594	593.56
401.972	594.69
402.351	618.64
402.729	614.12
403.107	605.53
403.486	646.44
403.864	646.44
404.242	614.12
404.62	620.68
404.999	630.62
405.377	654.57
405.755	655.25
406.133	637.17
406.511	663.16
406.889	672.88
407.267	679.21
407.645	681.24
408.023	676.72
408.401	696.15
408.779	708.36
409.156	694.12
409.534	711.52
409.912	712.42
410.29	746.1
410.667	742.48
411.045	757.62
411.422	761.01
411.8	761.69
412.178	773.89
412.555	798.07
412.933	794.91
413.31	802.14
413.687	816.83
414.065	830.39
414.442	829.94
414.819	827.45
415.197	832.87
415.574	844.62
415.951	853.66
416.328	850.27
416.705	899.09
417.082	874
417.46	891.4
417.837	903.83
418.214	908.8
418.591	911.97
418.967	916.26
419.344	940.44
419.721	934.11
420.098	916.71
420.475	953.1
420.852	953.55
421.228	972.76
421.605	990.38
421.982	997.16
422.358	979.99
422.735	1000.78
423.111	1022.02
423.488	1023.38
423.864	1026.99
424.241	1057.05
424.617	1073.55
424.994	1083.94
425.37	1065.18
425.746	1080.55
426.123	1110.15
426.499	1130.27
426.875	1120.1
427.251	1136.82
427.627	1143.37
428.003	1144.73
428.379	1175.92
428.756	1182.69
429.132	1213.43
429.507	1244.16
429.883	1258.85
430.259	1251.62
430.635	1272.64
431.011	1259.98
431.387	1289.81
431.763	1301.11
432.138	1336.36
432.514	1332.97
432.89	1364.39
433.265	1387.44
433.641	1401.45
434.016	1381.79
434.392	1415.46
434.767	1438.51
435.143	1440.09
435.518	1467.43
435.894	1499.52
436.269	1494.78
436.644	1551.72
437.02	1550.59
437.395	1533.87
437.77	1585.4
438.145	1602.34
438.52	1596.02
438.895	1622.46
439.271	1602.8
439.646	1657.94
440.021	1653.19
440.395	1676.69
440.77	1673.76
441.145	1677.6
441.52	1718.27
441.895	1737.03
442.27	1695
442.645	1749.01
443.019	1780.19
443.394	1789.68
443.769	1772.06
444.143	1767.09
444.518	1803.7
444.892	1777.71
445.267	1836.24
445.641	1838.72
446.016	1822
446.39	1844.15
446.764	1864.03
447.139	1874.65
447.513	1904.03
447.887	1928.44
448.262	1919.4
448.636	1940.87
449.01	1960.98
449.384	1970.47
449.758	2005.72
450.132	1985.84
450.506	2039.4
450.88	2044.14
451.254	2039.4
451.628	2069.68
452.002	2074.87
452.376	2107.42
452.75	2133.63
453.123	2138.38
453.497	2161.65
453.871	2223.35
454.244	2222.67
454.618	2242.33
454.992	2295.43
455.365	2295.21
455.739	2341.31
456.112	2358.48
456.486	2404.81
456.859	2426.28
457.232	2450.91
457.606	2482.55
457.979	2534.3
458.352	2504.24
458.725	2586.27
459.099	2603.67
459.472	2657.23
459.845	2647.06
460.218	2687.29
460.591	2713.73
460.964	2738.13
461.337	2771.13
461.71	2845.48
462.083	2871.01
462.456	2874.18
462.829	2906.27
463.201	2976.32
463.574	2967.73
463.947	2987.85
464.32	3020.16
464.692	3079.82
465.065	3143.32
465.438	3135.41
465.81	3221.06
466.183	3240.95
466.555	3322.75
466.928	3344.67
467.3	3325.24
467.672	3398.46
468.045	3474.39
468.417	3457.44
468.789	3506.25
469.161	3547.15
469.534	3613.59
469.906	3692.69
470.278	3708.73
470.65	3762.06
471.022	3824.66
471.394	3894.94
471.766	3915.28
472.138	3977.88
472.51	4024.65
472.882	4130.41
473.253	4137.19
473.625	4209.96
473.997	4288.38
474.369	4356.85
474.74	4352.56
475.112	4471.87
475.484	4499.44
475.855	4590.74
476.227	4661.02
476.598	4805.42
476.97	4832.99
477.341	4887.46
477.713	4994.35
478.084	5056.27
478.455	5136.72
478.827	5238.41
479.198	5327.67
479.569	5386.43
479.94	5493.09
480.311	5555.01
480.682	5667.1
481.053	5815.34
481.424	5881.55
481.795	5970.82
482.166	6079.52
482.537	6138.5
482.908	6280.64
483.279	6359.96
483.65	6374.2
484.021	6511.37
484.391	6605.15
484.762	6680.86
485.133	6776.67
485.503	6894.18
485.874	6964.24
486.244	7030.68
486.615	7248.3
486.985	7319.03
487.356	7498.69
487.726	7500.49
488.097	7703.88
488.467	7644.9
488.837	7791.79
489.207	7956.3
489.578	8062.74
489.948	8134.83
490.318	8281.04
490.688	8205.11
491.058	8432.45
491.428	8521.94
491.798	8582.05
492.168	8728.94
492.538	8807.58
492.908	8842.38
493.278	9043.73
493.648	9038.08
494.017	9115.59
494.387	9290.96
494.757	9316.04
495.126	9448.24
495.496	9464.29
495.866	9480.33
496.235	9642.81
496.605	9793.77
496.974	9753.99
497.344	9939.3
497.713	9984.95
498.082	10033.99
498.452	10177.94
498.821	10202.12
499.19	10280.53
499.559	10310.14
499.928	10345.84
500.298	10488.21
500.667	10644.14
501.036	10574.99
501.405	10685.5
501.774	10749.45
502.143	10850.46
502.512	10891.82
502.88	10970.46
503.249	11043.23
503.618	11044.81
503.987	11197.57
504.356	11259.49
504.724	11305.37
505.093	11372.94
505.462	11438.7
505.83	11517.79
506.199	11641.85
506.567	11809.76
506.936	11834.39
507.304	11933.37
507.672	12077.55
508.041	12103.99
508.409	12203.2
508.777	12304.66
509.145	12372.46
509.514	12362.29
509.882	12536.52
510.25	12603.19
510.618	12652.9
510.986	12587.14
511.354	12883.4
511.722	12982.84
512.09	13046.56
512.458	13060.57
512.826	13181.7
513.193	13256.5
513.561	13323.17
513.929	13456.72
514.297	13600.9
514.664	13682.71
515.032	13789.14
515.4	13838.63
515.767	13906.65
516.135	14030.04
516.502	13988.69
516.869	14220.32
517.237	14259.41
517.604	14288.79
517.972	14475
518.339	14610.36
518.706	14621.44
519.073	14719.51
519.44	14806.74
519.808	15085.15
520.175	14993.18
520.542	15191.37
520.909	15317.01
521.276	15282.89
521.643	15547.06
522.009	15635.42
522.376	15724.23
522.743	15860.05
523.11	16050.78
523.477	16121.96
523.843	16230.21
524.21	16435.63
524.577	16596.07
524.943	16681.95
525.31	16726.47
525.676	16973.01
526.043	17014.37
526.409	17140.47
526.776	17319.22
527.142	17359.44
527.508	17483.96
527.874	17652.77
528.241	17734.8
528.607	17778.42
528.973	17993.1
529.339	17903.61
529.705	18238.97
530.071	18349.02
530.437	18378.4
530.803	18571.84
531.169	18794.89
531.535	18674.66
531.901	18652.97
532.267	18761.22
532.632	18980.19
532.998	19016.58
533.364	19232.62
533.73	19174.99
534.095	19419.73
534.461	19499.95
534.826	19505.38
535.192	19663.79
535.557	19759.38
535.923	19775.2
536.288	19878.47
536.653	19985.14
537.019	19866.05
537.384	20093.61
537.749	20186.49
538.114	20327.73
538.479	20265.81
538.845	20427.61
539.21	20361.17
539.575	20519.36
539.94	20577.21
540.305	20735.85
540.67	20619.02
541.034	20842.52
541.399	20863.08
541.764	21049.74
542.129	21047.48
542.494	21143.53
542.858	21274.37
543.223	21162.73
543.587	21363.86
543.952	21327.25
544.316	21497.64
544.681	21481.14
545.045	21564.53
545.41	21767.92
545.774	21849.95
546.138	21722.95
546.503	21921.13
546.867	21924.52
547.231	22106.44
547.595	22155.25
547.959	22263.72
548.324	22245.19
548.688	22324.06
549.052	22435.02
549.416	22489.48
549.779	22449.03
550.143	22586.65
550.507	22741.22
550.871	22868
551.235	22813.31
551.599	23094.21
551.962	23094.89
552.326	23188.9
552.689	23295.79
553.053	23231.38
553.417	23286.52
553.78	23678.37
554.143	23557.47
554.507	23677.02
554.87	23747.07
555.234	24016.67
555.597	23860.06
555.96	23963.79
556.323	24142.54
556.686	24215.99
557.05	24361.29
557.413	24479.03
557.776	24448.75
558.139	24564.45
558.502	24718.35
558.865	24733.26
559.228	24863.2
559.59	25024.78
559.953	25082.18
560.316	25324.43
560.679	25308.61
561.041	25327.14
561.404	25502.06
561.767	25728.72
562.129	25638.32
562.492	25965.77
562.854	25909.73
563.217	26007.35
563.579	26097.75
563.941	26398.53
564.304	26459.09
564.666	26563.95
565.028	26689.59
565.39	26694.11
565.753	26856.14
566.115	27106.31
566.477	27191.28
566.839	27163.71
567.201	27464.94
567.563	27349.24
567.925	27657.03
568.287	27576.8
568.648	27729.34
569.01	27877.13
569.372	27985.61
569.734	27930.69
570.095	28157.58
570.457	28277.58
570.819	28376.33
571.18	28365.03
571.542	28497.23
571.903	28503.78
572.265	28638.47
572.626	28747.39
572.987	28752.14
573.349	28931.12
573.71	29005.92
574.071	29054.5
574.432	29171.56
574.794	29273.93
575.155	29276.65
575.516	29316.42
575.877	29366.13
576.238	29391.44
576.599	29480.71
576.96	29546.69
577.32	29650.87
577.681	29668.05
578.042	29729.51
578.403	29868.95
578.763	29731.1
579.124	29786.69
579.485	29978.32
579.845	30086.34
580.206	29994.14
580.566	30053.12
580.927	30008.38
581.287	30246.56
581.648	30050.18
582.008	30178.54
582.368	30178.54
582.728	30220.58
583.089	30177.86
583.449	30237.07
583.809	30204.3
584.169	30273
584.529	30350.97
584.889	30525.88
585.249	30378.76
585.609	30337.86
585.969	30414.24
586.329	30407.92
586.688	30524.07
587.048	30364.53
587.408	30343.51
587.768	30465.09
588.127	30313.68
588.487	30345.09
588.846	30542.6
589.206	30392.1
589.565	30435.49
589.925	30694.01
590.284	30426.45
590.643	30532.43
591.003	30528.59
591.362	30569.27
591.721	30650.85
592.08	30674.57
592.44	30620.11
592.799	30616.72
593.158	30653.11
593.517	30630.96
593.876	30587.57
594.235	30566.1
594.593	30654.01
594.952	30799.09
595.311	30544.41
595.67	30766.32
596.029	30902.82
596.387	30944.4
596.746	30928.13
597.104	30677.74
597.463	30872.31
597.822	30876.83
598.18	30724.97
598.538	30874.8
598.897	30941.46
599.255	30702.82
599.613	31169.25
599.972	31034.11
600.33	30986.43
600.688	30933.1
601.046	31035.24
601.404	31187.78
601.762	30989.59
602.12	31263.03
602.478	31164.73
602.836	31209.48
603.194	31232.53
603.552	31150.49
603.91	31199.31
604.268	31331.96
604.625	31327.44
604.983	31277.27
605.341	31212.41
605.698	31379.19
606.056	31443.82
606.413	31425.29
606.771	31571.5
607.128	31599.97
607.485	31436.14
607.843	31454.44
608.2	31610.6
608.557	31745.73
608.914	31557.26
609.272	31737.15
609.629	31918.61
609.986	31977.82
610.343	31573.76
610.7	32024.14
611.057	32016.91
611.414	31918.38
611.771	31939.17
612.127	31980.53
612.484	32114.08
612.841	32297.58
613.198	32089.68
613.554	32036.8
613.911	32237.02
614.267	32248.09
614.624	32301.2
614.98	32296.68
615.337	32500.29
615.693	32452.83
616.05	32323.35
616.406	32464.13
616.762	32410.12
617.118	32412.61
617.475	32352.27
617.831	32541.19
618.187	32528.99
618.543	32582.77
618.899	32828.19
619.255	32569.21
619.611	32530.57
619.967	32760.4
620.323	32824.35
620.678	32688.76
621.034	32564.69
621.39	32539.61
621.746	32677.01
622.101	33000.39
622.457	32604.69
622.812	32705.93
623.168	32854.63
623.523	32854.4
623.879	32939.6
624.234	32835.2
624.589	32755.42
624.945	32942.54
625.3	32863.44
625.655	32855.99
626.01	32770.79
626.365	32856.89
626.72	32738.48
627.075	32733.96
627.43	32835.87
627.785	32819.38
628.14	32684.01
628.495	32822.09
628.85	32809.89
629.205	32584.81
629.559	32819.38
629.914	32663.45
630.269	32758.81
630.623	32596.11
630.978	32637.01
631.332	32694.86
631.687	32704.58
632.041	32601.53
632.396	32637.24
632.75	32507.75
633.104	32554.3
633.459	32364.93
633.813	32394.08
634.167	32249.67
634.521	32326.28
634.875	32417.35
635.229	32182.33
635.583	32024.82
635.937	32197.25
636.291	32103.24
636.645	32154.08
636.999	32101.88
637.352	32098.49
637.706	31886.97
638.06	32104.37
638.413	31974.65
638.767	32007.42
639.121	32081.54
639.474	31812.4
639.828	31762.91
640.181	31790.93
640.534	31799.52
640.888	31551.84
641.241	31481.79
641.594	31596.58
641.947	31669.58
642.301	31521.11
642.654	31603.82
643.007	31575.12
643.36	31483.82
643.713	31363.14
644.066	31513.65
644.419	31413.31
644.771	31209.48
645.124	30869.37
645.477	30926.09
645.83	30491.53
646.182	30481.81
646.535	30328.82
646.888	30374.02
647.24	30141.48
647.593	30287.92
647.945	30247.69
648.298	30187.81
648.65	29981.03
649.002	29962.05
649.355	30192.1
649.707	30063.97
650.059	30287.47
650.411	30498.53
650.763	30567.23
651.115	30789.83
651.467	30742.82
651.819	30671.19
652.171	30673.9
652.523	30503.05
652.875	30497.4
653.227	30408.59
653.578	30723.39
653.93	30554.8
654.282	30516.39
654.633	30350.74
654.985	30469.61
655.337	30405.66
655.688	30414.24
656.039	30491.08
656.391	30174.93
656.742	30270.74
657.094	30273.68
657.445	30265.55
657.796	30308.26
658.147	30248.6
658.498	30255.6
658.849	30275.94
659.2	30274.59
659.551	30177.64
659.902	30274.59
660.253	30116.85
660.604	30211.76
660.955	30086.79
661.306	30178.32
661.656	30048.38
662.007	29986.68
662.358	30041.82
662.708	30003.41
663.059	29998.66
663.409	29951.88
663.76	30112.33
664.11	30077.98
664.461	29996.63
664.811	29967.02
665.161	29888.15
665.511	29746.92
665.862	29994.82
666.212	29950.3
666.562	30049.51
666.912	29875.5
667.262	29831.21
667.612	29832.34
667.962	29840.02
668.312	29829.4
668.662	29879.12
669.011	29882.96
669.361	29735.39
669.711	29723.64
670.06	29678.67
670.41	29710.08
670.76	29544.66
671.109	29753.24
671.459	29677.76
671.808	29609.74
672.157	29681.38
672.507	29371.56
672.856	29443.65
673.205	29486.36
673.554	29645
673.904	29394.61
674.253	29677.09
674.602	29473.93
674.951	29073.26
675.3	28924.56
675.649	29265.35
675.998	29337.89
676.346	29303.31
676.695	29493.81
677.044	29189.19
677.393	29198.23
677.741	29302.18
678.09	29236.65
678.438	29046.82
678.787	29129.08
679.135	29248.62
679.484	28967.73
679.832	29083.43
680.181	28827.39
680.529	29061.96
680.877	28920.95
681.225	28903.55
681.573	29095.41
681.922	28834.4
682.27	28840.5
682.618	28743.1
682.966	28646.38
683.314	28716.21
683.661	28616.32
684.009	28508.98
684.357	28484.35
684.705	28484.12
685.053	28506.5
685.4	28475.99
685.748	28255.43
686.095	28206.17
686.443	28070.12
686.79	28051.82
687.138	28204.81
687.485	28123
687.832	28036.68
688.18	28011.14
688.527	27937.02
688.874	27846.17
689.221	27837.36
689.568	27670.81
689.915	27571.38
690.262	27640.53
690.609	27585.62
690.956	27396.24
691.303	27503.13
691.65	27315.34
691.997	27252.52
692.344	27139.3
692.69	27062.01
693.037	27126.19
693.383	26902.24
693.73	27061.11
694.077	26837.61
694.423	26848.69
694.769	26768.91
695.116	26552.88
695.462	26682.82
695.808	26530.5
696.155	26554.46
696.501	26434.69
696.847	26420.68
697.193	26112.66
697.539	26332.77
697.885	26108.82
698.231	26058.65
698.577	25971.42
698.923	26046.22
699.269	25895.72
699.614	25639.9
699.96	25709.96
700.306	25743.63
700.651	25630.64
700.997	25536.18
701.342	25432
701.688	25367.14
702.033	25420.48
702.379	25398.78
702.724	25242.63
703.069	25270.2
703.415	24978
703.76	24967.61
704.105	25007.15
704.45	24866.14
704.795	24826.59
705.14	24697.78
705.485	24602.19
705.83	24517.9
706.175	24582.08
706.52	24599.25
706.865	24431.12
707.209	24361.07
707.554	24346.83
707.899	24328.98
708.243	24126.5
708.588	24168.98
708.932	23978.71
709.277	24151.58
709.621	24048.08
709.966	23847.18
710.31	23957.92
710.654	23790.24
710.998	23773.29
711.342	23871.59
711.687	23711.82
712.031	23609
712.375	23527.87
712.719	23537.59
713.063	23476.8
713.407	23547.76
713.75	23431.6
714.094	23323.81
714.438	23246.75
714.782	23319.06
715.125	23198.16
715.469	23273.41
715.812	23025.28
716.156	22959.98
716.499	23120.65
716.843	22945.96
717.186	22884.95
717.53	22980.54
717.873	22959.07
718.216	22928.34
718.559	22785.97
718.902	22660.55
719.246	22687.89
719.589	22556.37
719.932	22609.7
720.275	22544.17
720.617	22472.76
720.96	22482.47
721.303	22515.69
721.646	22364.28
721.989	22325.19
722.331	22420.1
722.674	22279.99
723.016	22246.55
723.359	22214.01
723.701	22234.34
724.044	22129.94
724.386	21949.38
724.729	21953.67
725.071	21968.14
725.413	22019.21
725.755	21950.96
726.097	21893.34
726.439	21828.25
726.782	21814.47
727.124	21933.34
727.465	21683.17
727.807	21708.26
728.149	21574.48
728.491	21570.63
728.833	21630.52
729.175	21568.6
729.516	21443.86
729.858	21418.77
730.199	21519.11
730.541	21422.61
730.882	21416.29
731.224	21439.79
731.565	21259.46
731.906	21201.83
732.248	21312.34
732.589	21125.67
732.93	21240.7
733.271	21127.48
733.612	21175.16
733.953	21112.79
734.294	21054.26
734.635	20950.54
734.976	21059.69
735.317	20974.72
735.658	20950.31
735.999	20911.89
736.339	20856.75
736.68	20894.27
737.021	20865.12
737.361	20745.34
737.702	20780.6
738.042	20621.73
738.383	20621.96
738.723	20677.1
739.063	20537.21
739.404	20608.85
739.744	20520.94
740.084	20561.17
740.424	20507.84
740.764	20477.1
741.104	20573.6
741.444	20314.85
741.784	20358.24
742.124	20291.34
742.464	20353.49
742.804	20323.43
743.143	20286.6
743.483	20287.28
743.823	20166.6
744.162	20191.01
744.502	20087.28
744.841	20025.82
745.181	20038.92
745.52	20066.04
745.86	20044.57
746.199	20035.53
746.538	20022.43
746.877	19912.15
747.216	19979.26
747.556	19869.66
747.895	19958.02
748.234	19668.99
748.573	19775.88
748.911	19725.03
749.25	19781.98
749.589	19586.96
749.928	19586.05
750.267	19613.85
750.605	19500.63
750.944	19594.19
751.283	19466.51
751.621	19388.09
751.96	19356
752.298	19246.17
752.636	19346.51
752.975	19174.99
753.313	19082.11
753.651	19123.69
753.989	19055.45
754.327	18992.4
754.666	18959.18
755.004	18991.49
755.342	18984.94
755.679	18959.63
756.017	18810.48
756.355	18872.4
756.693	18790.37
757.031	18751.95
757.368	18550.15
757.706	18652.52
758.044	18597.38
758.381	18576.14
758.719	18571.16
759.056	18431.51
759.394	18464.95
759.731	18313.77
760.068	18274.67
760.405	18281.23
760.743	18225.86
761.08	18291.85
761.417	18082.36
761.754	17990.61
762.091	17923.95
762.428	18013.21
762.765	17902.93
763.102	17858.87
763.438	17844.18
763.775	17764.86
764.112	17718.98
764.449	17714.92
764.785	17611.19
765.122	17434.02
765.458	17413.23
765.795	17413
766.131	17317.41
766.467	17342.27
766.804	17238.77
767.14	17174.36
767.476	17106.8
767.812	17079.45
768.148	17057.76
768.485	16955.39
768.821	16966.69
769.157	16856.18
769.492	16771.89
769.828	16753.36
770.164	16643.08
770.5	16589.75
770.836	16651.21
771.171	16445.8
771.507	16509.98
771.842	16313.6
772.178	16338.45
772.513	16139.82
772.849	16164.22
773.184	16157.44
773.519	16150.44
773.855	16075.41
774.19	15944.11
774.525	15934.17
774.86	15948.86
775.195	15962.65
775.53	15780.73
775.865	15684.46
776.2	15649.89
776.535	15552.49
776.87	15461.19
777.205	15489.66
777.539	15437.91
777.874	15324.7
778.209	15218.48
778.543	15258.48
778.878	15201.99
779.212	15199.95
779.547	15056
779.881	15063.46
780.215	14989.56
780.55	15053.29
780.884	14929
781.218	14936.23
781.552	14860.98
781.886	14748.21
782.22	14678.39
782.554	14610.14
782.888	14528.11
783.222	14443.36
783.556	14383.25
783.889	14383.7
784.223	14312.29
784.557	14241.11
784.89	14277.72
785.224	14216.93
785.557	14071.85
785.891	14045.63
786.224	14011.51
786.558	14089.47
786.891	13921.79
787.224	13822.59
787.557	13840.67
787.891	13803.83
788.224	13734.91
788.557	13714.79
788.89	13733.1
789.223	13677.28
789.556	13620.56
789.888	13573.78
790.221	13554.35
790.554	13439.1
790.887	13422.83
791.219	13387.8
791.552	13321.58
791.884	13302.83
792.217	13230.97
792.549	13036.39
792.882	13141.93
793.214	13057.41
793.546	13137.41
793.879	12970.86
794.211	12892.67
794.543	12887.7
794.875	12824.2
795.207	12897.64
795.539	12853.35
795.871	12784.42
796.203	12662.39
796.535	12655.61
796.867	12647.93
797.198	12652.9
797.53	12558.21
797.862	12552.57
798.193	12521.61
798.525	12506.01
798.856	12437.09
799.188	12345.11
799.519	12255.4
799.85	12228.28
800.182	12212.91
800.513	12224.66
800.844	12185.57
801.175	12205.91
801.506	12172.46
801.837	12066.25
802.168	12036.87
802.499	11963.43
802.83	11903.77
803.161	11873.49
803.491	11898.57
803.822	11878.68
804.153	11784.45
804.483	11673.27
804.814	11715.07
805.145	11783.55
805.475	11632.36
805.805	11611.12
806.136	11629.65
806.466	11643.66
806.796	11530.22
807.126	11587.85
807.457	11415.87
807.787	11457.23
808.117	11367.06
808.447	11420.39
808.777	11404.57
809.107	11320.28
809.436	11253.84
809.766	11292.03
810.096	11231.02
810.426	11152.83
810.755	11144.69
811.085	11114.41
811.414	11162.55
811.744	11012.72
812.073	11049.55
812.403	11014.75
812.732	10916.9
813.061	10977.24
813.39	10954.87
813.719	10872.84
814.049	11004.81
814.378	10821.54
814.707	10869.67
815.036	10852.27
815.365	10711.26
815.693	10724.59
816.022	10691.37
816.351	10637.59
816.68	10618.15
817.008	10649.56
817.337	10525.95
817.665	10510.59
817.994	10605.27
818.322	10470.59
818.651	10452.28
818.979	10405.5
819.307	10492.05
819.636	10380.65
819.964	10294.32
820.292	10456.12
820.62	10370.93
820.948	10322.12
821.276	10415.45
821.604	10389.23
821.932	10409.12
822.259	10386.75
822.587	10301.55
822.915	10337.26
823.243	10359.4
823.57	10279.4
823.898	10321.21
824.225	10268.33
824.553	10383.36
824.88	10326.86
825.207	10332.28
825.535	10268.33
825.862	10306.97
826.189	10217.03
826.516	10330.7
826.843	10353.3
827.17	10292.06
827.497	10286.41
827.824	10329.8
828.151	10329.8
828.478	10320.99
828.805	10365.96
829.131	10349.69
829.458	10276.92
829.785	10217.49
830.111	10310.59
830.438	10291.38
830.764	10248.67
831.09	10224.04
831.417	10161.22
831.743	10290.25
832.069	10274.21
832.395	10182.46
832.722	10268.33
833.048	10247.32
833.374	10207.09
833.7	10107.66
834.026	10212.74
834.351	10212.97
834.677	10215.68
835.003	10212.97
835.329	10148.11
835.654	10144.95
835.98	10118.05
836.306	10110.82
836.631	10083.93
836.956	10086.19
837.282	10096.58
837.607	10030.82
837.932	10011.84
838.258	10039.19
838.583	10047.55
838.908	9973.88
839.233	9945.85
839.558	9885.29
839.883	9934.33
840.208	9872.41
840.533	9892.75
840.858	9906.31
841.182	9895.46
841.507	9858.17
841.832	9729.81
842.156	9791.51
842.481	9769.81
842.805	9781.11
843.13	9746.09
843.454	9663.6
843.778	9703.6
844.103	9655.47
844.427	9645.07
844.751	9660.89
845.075	9625.18
845.399	9568.92
845.723	9530.5
846.047	9544.06
846.371	9426.32
846.695	9534.11
847.019	9452.99
847.343	9386.55
847.666	9356.27
847.99	9305.87
848.313	9253.44
848.637	9241.47
848.96	9156.95
849.284	9171.19
849.607	9106.33
849.931	9029.49
850.254	9055.71
850.577	9026.1
850.9	8985.65
851.223	8925.09
851.546	8844.87
851.869	8794.92
852.192	8857.97
852.515	8782.72
852.838	8794.92
853.161	8715.83
853.483	8696.85
853.806	8624.31
854.129	8653.91
854.451	8627.02
854.774	8569.85
855.096	8542.28
855.419	8578.43
855.741	8514.03
856.063	8469.51
856.385	8486.46
856.708	8359.91
857.03	8411.43
857.352	8349.74
857.674	8310.42
857.996	8287.14
858.318	8269.97
858.64	8270.42
858.961	8298.44
859.283	8248.5
859.605	8220.93
859.926	8272.68
860.248	8175.73
860.57	8113.59
860.891	8179.8
861.212	8152.91
861.534	8080.37
861.855	8064.55
862.176	8035.4
862.498	8043.76
862.819	8059.58
863.14	7957.66
863.461	8045.11
863.782	7981.61
864.103	8047.37
864.424	7981.84
864.745	7938.9
865.065	7906.13
865.386	7903.2
865.707	7900.03
866.027	7926.47
866.348	7921.73
866.668	7875.63
866.989	7849.19
867.309	7766.02
867.63	7822.29
867.95	7848.06
868.27	7777.1
868.59	7834.95
868.91	7753.82
869.23	7766.48
869.55	7724.9
869.87	7730.77
870.19	7752.01
870.51	7750.21
870.83	7733.26
871.15	7662.75
871.469	7708.62
871.789	7671.34
872.109	7667.27
872.428	7631.34
872.748	7652.58
873.067	7691.9
873.386	7605.58
873.706	7570.32
874.025	7560.83
874.344	7571.91
874.663	7540.49
874.982	7568.74
875.301	7521.29
875.62	7526.48
875.939	7464.79
876.258	7502.75
876.577	7500.04
876.896	7474.51
877.214	7446.48
877.533	7482.19
877.852	7418.24
878.17	7433.15
878.489	7404.9
878.807	7412.14
879.125	7399.93
879.444	7376.88
879.762	7432.7
880.08	7346.83
880.398	7354.28
880.716	7341.63
881.034	7289.2
881.352	7302.53
881.67	7267.96
881.988	7321.97
882.306	7203.33
882.624	7246.26
882.941	7185.7
883.259	7134.18
883.577	7199.03
883.894	7137.57
884.212	7143.44
884.529	7134.4
884.846	7151.58
885.164	7182.76
885.481	7112.93
885.798	7086.49
886.115	7051.69
886.432	7025.71
886.75	6964.01
887.067	7001.98
887.383	6994.97
887.7	7008.76
888.017	6920.62
888.334	6951.81
888.651	6939.38
888.967	6948.64
889.284	6866.84
889.6	6841.3
889.917	6793.17
890.233	6836.33
890.55	6760.18
890.866	6733.96
891.182	6826.16
891.498	6752.27
891.815	6715.2
892.131	6717.01
892.447	6677.92
892.763	6671.82
893.079	6634.75
893.395	6616.22
893.71	6609.44
894.026	6684.02
894.342	6607.64
894.657	6548.88
894.973	6546.62
895.289	6531.48
895.604	6540.52
895.92	6495.55
896.235	6450.35
896.55	6438.15
896.865	6449.45
897.181	6402.22
897.496	6410.35
897.811	6361.32
898.126	6359.73
898.441	6299.62
898.756	6324.48
899.071	6269.34
899.386	6285.16
899.7	6248.78
900.015	6166.52
900.33	6158.61
900.644	6201.32
900.959	6180.08
901.273	6150.7
901.588	6100.98
901.902	6031.38
902.216	6034.32
902.531	6066.41
902.845	6006.07
903.159	5996.81
903.473	5956.13
903.787	5956.81
904.101	5941.21
904.415	5914.55
904.729	5899.41
905.042	5840.65
905.356	5872.29
905.67	5868.9
905.984	5857.83
906.297	5825.74
906.611	5787.55
906.924	5775.79
907.237	5709.58
907.551	5763.82
907.864	5704.16
908.177	5678.17
908.491	5675.23
908.804	5673.88
909.117	5629.36
909.43	5616.25
909.743	5556.37
910.056	5580.32
910.368	5558.63
910.681	5526.54
910.994	5473.2
911.307	5457.38
911.619	5407.67
911.932	5447.22
912.244	5416.48
912.557	5391.62
912.869	5382.36
913.181	5376.03
913.494	5348.46
913.806	5281.8
914.118	5256.71
914.43	5196.83
914.742	5279.08
915.054	5178.75
915.366	5207.45
915.678	5205.64
915.99	5206.09
916.302	5126.77
916.613	5106.21
916.925	5089.26
917.236	5094.68
917.548	5065.08
917.859	5048.36
918.171	5045.19
918.482	4964.74
918.794	4919.32
919.105	4955.03
919.416	4889.94
919.727	4883.61
920.038	4907.12
920.349	4868.7
920.66	4881.35
920.971	4884.74
921.282	4805.42
921.593	4799.32
921.903	4756.61
922.214	4757.06
922.525	4779.21
922.835	4720.45
923.146	4698.76
923.456	4653.34
923.767	4618.76
924.077	4646.56
924.387	4618.08
924.697	4636.84
925.008	4609.72
925.318	4554.36
925.628	4562.27
925.938	4533.79
926.248	4526.56
926.558	4444.98
926.867	4491.08
927.177	4440.01
927.487	4438.2
927.796	4413.57
928.106	4384.42
928.416	4358.88
928.725	4381.48
929.034	4307.58
929.344	4315.49
929.653	4317.08
929.962	4262.39
930.271	4297.87
930.581	4247.47
930.89	4256.29
931.199	4209.06
931.508	4215.84
931.817	4182.62
932.125	4164.76
932.434	4162.05
932.743	4088.38
933.051	4130.19
933.36	4096.74
933.669	4077.31
933.977	4060.13
934.286	4086.57
934.594	4054.26
934.902	4054.03
935.21	4008.61
935.519	3998.89
935.827	3982.62
936.135	3948.27
936.443	3906.47
936.751	3905.34
937.059	3943.3
937.367	3876.41
937.674	3881.61
937.982	3878.44
938.29	3820.37
938.597	3839.8
938.905	3844.77
939.213	3810.87
939.52	3787.6
939.827	3770.42
940.135	3766.36
940.442	3715.74
940.749	3711.44
941.056	3696.75
941.363	3671.67
941.67	3681.84
941.977	3666.02
942.284	3641.16
942.591	3624.66
942.898	3605
943.205	3622.18
943.511	3583.08
943.818	3575.85
944.125	3549.86
944.431	3512.8
944.738	3514.61
945.044	3487.27
945.35	3489.75
945.657	3478
945.963	3479.58
946.269	3418.79
946.575	3446.82
946.881	3395.74
947.187	3395.07
947.493	3373.15
947.799	3391.45
948.105	3388.06
948.41	3364.56
948.716	3311
949.022	3336.54
949.327	3337.44
949.633	3257.22
949.938	3291.11
950.244	3291.57
950.549	3236.2
950.854	3210.66
951.16	3218.12
951.465	3181.96
951.77	3208.63
952.075	3217.44
952.38	3207.95
952.685	3164.11
952.99	3156.88
953.294	3126.6
953.599	3142.19
953.904	3124.56
954.209	3061.97
954.513	3075.3
954.818	3084.79
955.122	3035.3
955.426	3028.97
955.731	3043.89
956.035	3023.55
956.339	3018.13
956.643	3013.38
956.948	2990.78
957.252	2984.91
957.556	2992.82
957.86	2970.9
958.163	2924.57
958.467	2908.53
958.771	2948.75
959.075	2904.46
959.378	2903.1
959.682	2888.86
959.985	2903.33
960.289	2862.42
960.592	2876.89
960.896	2824.69
961.199	2805.7
961.502	2823.33
961.805	2788.53
962.108	2781.52
962.411	2794.18
962.714	2737.46
963.017	2755.53
963.32	2783.33
963.623	2730.45
963.926	2756.21
964.228	2715.54
964.531	2690.9
964.833	2709.21
965.136	2643.67
965.438	2676.89
965.741	2641.87
966.043	2655.65
966.345	2621.53
966.648	2606.61
966.95	2614.52
967.252	2600.74
967.554	2576.1
967.856	2603.45
968.158	2591.7
968.46	2563
968.761	2545.6
969.063	2506.28
969.365	2542.21
969.666	2511.25
969.968	2490.23
970.269	2498.59
970.571	2498.14
970.872	2454.07
971.174	2481.42
971.475	2475.32
971.776	2423.34
972.077	2452.72
972.378	2445.49
972.679	2411.36
972.98	2405.94
973.281	2381.76
973.582	2376.34
973.883	2374.53
974.183	2391.48
974.484	2339.5
974.785	2362.32
975.085	2333.85
975.386	2370.46
975.686	2334.3
975.986	2310.35
976.287	2285.94
976.587	2313.29
976.887	2273.97
977.187	2267.41
977.487	2257.47
977.787	2252.05
978.087	2216.11
978.387	2264.25
978.687	2204.36
978.987	2207.75
979.286	2198.49
979.586	2194.42
979.885	2179.28
980.185	2138.38
980.484	2145.61
980.784	2187.64
981.083	2160.07
981.382	2154.42
981.682	2182.22
981.981	2130.24
982.28	2092.5
982.579	2066.74
982.878	2062.22
983.177	2093.63
983.475	2063.8
983.774	2055.89
984.073	2045.72
984.372	2008.21
984.67	2036.23
984.969	2042.79
985.267	2021.32
985.566	2014.09
985.864	2024.48
986.162	2019.74
986.461	2024.25
986.759	1979.51
987.057	1986.74
987.355	1960.3
987.653	1935.67
987.951	1968.89
988.249	1948.32
988.547	1923.47
988.844	1921.21
989.142	1920.98
989.44	1919.17
989.737	1898.38
990.035	1885.28
990.332	1879.17
990.63	1891.83
990.927	1876.91
991.224	1856.35
991.521	1865.84
991.819	1844.37
992.116	1845.73
992.413	1815.22
992.71	1820.64
993.006	1817.93
993.303	1812.06
993.6	1766.63
993.897	1786.29
994.193	1787.42
994.49	1783.58
994.787	1798.05
995.083	1767.99
995.379	1754.66
995.676	1724.83
995.972	1756.92
996.268	1758.27
996.565	1701.55
996.861	1737.48
997.157	1709.01
997.453	1682.79
997.749	1700.42
998.044	1674.21
998.34	1678.5
998.636	1656.13
998.932	1645.06
999.227	1642.57
999.523	1629.01
999.818	1635.56
1000.114	1617.71
1000.409	1626.53
1000.704	1616.81
1001	1590.59
1001.295	1608.45
1001.59	1577.26
1001.885	1579.97
1002.18	1563.7
1002.475	1573.87
1002.77	1542.01
1003.065	1556.7
1003.359	1537.94
1003.654	1544.72
1003.949	1527.32
1004.243	1562.35
1004.538	1528
1004.832	1490.26
1005.127	1493.65
1005.421	1476.25
1005.715	1495.23
1006.009	1453.42
1006.304	1472.86
1006.598	1447.09
1006.892	1440.99
1007.186	1450.94
1007.48	1453.87
1007.773	1410.94
1008.067	1413.88
1008.361	1404.38
1008.655	1403.25
1008.948	1406.64
1009.242	1405.97
1009.535	1370.49
1009.829	1351.05
1010.122	1372.52
1010.415	1355.8
1010.708	1336.36
1011.001	1371.16
1011.295	1345.85
1011.588	1324.61
1011.881	1306.76
1012.173	1332.3
1012.466	1306.53
1012.759	1313.54
1013.052	1292.3
1013.344	1290.94
1013.637	1291.39
1013.93	1281.68
1014.222	1281.9
1014.514	1271.73
1014.807	1273.77
1015.099	1263.6
1015.391	1252.75
1015.683	1236.25
1015.976	1255.24
1016.268	1217.95
1016.56	1197.16
1016.851	1205.52
1017.143	1226.31
1017.435	1225.18
1017.727	1188.57
1018.018	1191.73
1018.31	1172.53
1018.602	1173.66
1018.893	1168.23
1019.185	1174.56
1019.476	1158.97
1019.767	1149.02
1020.058	1143.83
1020.35	1124.17
1020.641	1133.88
1020.932	1125.97
1021.223	1125.07
1021.514	1104.73
1021.804	1088.69
1022.095	1080.1
1022.386	1060.44
1022.677	1048.01
1022.967	1087.1
1023.258	1038.97
1023.548	1075.35
1023.839	1069.7
1024.129	1044.17
1024.419	1055.01
1024.709	1032.42
1025	1029.48
1025.29	1003.26
1025.58	1014.79
1025.87	987.67
1026.16	1010.72
1026.449	1007.78
1026.739	996.49
1027.029	1012.53
1027.319	1005.75
1027.608	996.94
1027.898	992.19
1028.187	970.95
1028.477	971.4
1028.766	946.32
1029.055	941.35
1029.344	946.99
1029.634	955.13
1029.923	951.06
1030.212	927.56
1030.501	940.22
1030.79	904.74
1031.078	935.24
1031.367	895.92
1031.656	904.96
1031.945	892.98
1032.233	906.77
1032.522	876.94
1032.81	901.8
1033.099	879.2
1033.387	850.95
1033.675	858.86
1033.963	867.22
1034.251	863.16
1034.54	865.42
1034.828	842.59
1035.116	821.35
1035.403	845.75
1035.691	835.13
1035.979	819.54
1036.267	807.79
1036.554	810.73
1036.842	808.47
1037.129	804.63
1037.417	808.02
1037.704	776.38
1037.992	797.85
1038.279	791.07
1038.566	770.95
1038.853	770.95
1039.14	770.95
