Data from breadboard_black_back_FLMS001491_00027.txt Node
Date: Wed Feb 08 10:50:10 GMT 2017
User: dcchb
Spectrometer: FLMS00149
Trigger mode: 0
Integration Time (sec): 2.000000E-2
Scans to average: 10
Electric dark correction enabled: true
Nonlinearity correction enabled: false
Boxcar width: 0
XAxis mode: Wavelengths
Number of Pixels in Spectrum: 2048
>>>>>Begin Spectral Data<<<<<
341.393	-34.41
341.776	-34.41
342.16	-34.41
342.543	-58.36
342.927	-65.59
343.31	-86.38
343.693	-57.46
344.077	-80.96
344.46	-65.14
344.843	-35.31
345.226	-41.41
345.61	-23.56
345.993	-27.85
346.376	-0.28
346.759	9.21
347.142	43.11
347.525	29.1
347.908	57.34
348.291	71.13
348.674	92.6
349.057	115.87
349.44	112.48
349.823	164.46
350.206	167.85
350.588	188.41
350.971	204.01
351.354	232.48
351.737	258.92
352.119	271.8
352.502	257.79
352.884	278.58
353.267	293.95
353.65	297.34
354.032	296.66
354.414	316.77
354.797	344.12
355.179	318.58
355.562	334.17
355.944	335.98
356.326	350.22
356.709	338.69
357.091	354.28
357.473	333.95
357.855	350.22
358.238	347.73
358.62	366.26
359.002	359.03
359.384	353.83
359.766	343.21
360.148	374.85
360.53	349.09
360.912	369.88
361.294	360.61
361.676	346.83
362.057	359.26
362.439	353.15
362.821	335.3
363.203	327.17
363.584	340.27
363.966	360.16
364.348	330.1
364.729	348.18
365.111	345.02
365.493	336.21
365.874	338.24
366.256	338.01
366.637	328.07
367.019	355.64
367.4	338.92
367.781	352.48
368.163	332.82
368.544	340.05
368.925	340.73
369.306	336.88
369.688	363.32
370.069	342.76
370.45	353.38
370.831	340.27
371.212	347.96
371.593	362.19
371.974	342.99
372.355	339.6
372.736	360.61
373.117	347.5
373.498	344.79
373.879	354.28
374.26	356.32
374.641	366.94
375.021	360.39
375.402	353.38
375.783	357.67
376.163	400.61
376.544	367.39
376.925	377.33
377.305	370.33
377.686	374.4
378.066	385.47
378.447	383.21
378.827	352.93
379.208	383.44
379.588	367.84
379.968	394.51
380.349	392.02
380.729	394.51
381.109	432.02
381.489	399.26
381.87	416.2
382.25	369.88
382.63	396.77
383.01	434.96
383.39	402.64
383.77	399.03
384.15	432.47
384.53	421.85
384.91	435.86
385.29	424.34
385.67	431.34
386.049	436.99
386.429	452.59
386.809	430.67
387.189	460.95
387.568	453.26
387.948	446.26
388.328	476.09
388.707	437.67
389.087	456.2
389.466	467.5
389.846	461.17
390.225	472.02
390.605	492.13
390.984	478.57
391.363	484
391.743	484.9
392.122	505.92
392.501	498.46
392.881	486.71
393.26	501.17
393.639	504.56
394.018	515.41
394.397	516.99
394.776	510.66
395.155	516.09
395.534	528.97
395.913	522.87
396.292	547.73
396.671	548.18
397.05	551.34
397.429	556.99
397.808	558.35
398.186	551.57
398.565	544.34
398.944	558.12
399.323	583.88
399.701	561.28
400.08	568.74
400.458	609.64
400.837	575.97
401.215	598.57
401.594	590.66
401.972	585.24
402.351	600.15
402.729	618.46
403.107	640.38
403.486	618.68
403.864	629.08
404.242	619.81
404.62	640.6
404.999	626.37
405.377	624.79
405.755	662.98
406.133	676.99
406.511	678.34
406.889	673.6
407.267	690.09
407.645	686.93
408.023	702.75
408.401	695.97
408.779	699.36
409.156	729.42
409.534	725.12
409.912	718.34
410.29	756.99
410.667	792.24
411.045	755.63
411.422	754.5
411.8	786.14
412.178	782.3
412.555	791.34
412.933	819.36
413.31	828.17
413.687	804.67
414.065	820.71
414.442	832.24
414.819	852.35
415.197	854.61
415.574	845.35
415.951	867.04
416.328	855.06
416.705	849.86
417.082	895.74
417.46	919.47
417.837	922.41
418.214	897.77
418.591	917.21
418.967	927.38
419.344	933.25
419.721	952.23
420.098	962.63
420.475	966.02
420.852	975.29
421.228	962.63
421.605	984.78
421.982	986.58
422.358	1035.62
422.735	1003.53
423.111	1020.48
423.488	1036.07
423.864	1042.85
424.241	1037.66
424.617	1065.9
424.994	1081.27
425.37	1100.93
425.746	1073.36
426.123	1141.16
426.499	1087.37
426.875	1132.8
427.251	1154.49
427.627	1172.79
428.003	1175.51
428.379	1202.4
428.756	1201.72
429.132	1225.9
429.507	1246.24
429.883	1260.02
430.259	1251.21
430.635	1274.49
431.011	1299.34
431.387	1316.29
431.763	1333.47
432.138	1339.34
432.514	1316.75
432.89	1388.61
433.265	1397.65
433.641	1398.55
434.016	1396.97
434.392	1425.89
434.767	1438.32
435.143	1444.88
435.518	1493.24
435.894	1475.84
436.269	1509.51
436.644	1559.45
437.02	1559.9
437.395	1556.06
437.77	1569.39
438.145	1575.72
438.52	1625.89
438.895	1623.86
439.271	1639
439.646	1676.51
440.021	1667.7
440.395	1664.98
440.77	1673.35
441.145	1695.49
441.52	1703.18
441.895	1722.16
442.27	1752.21
442.645	1735.04
443.019	1794.92
443.394	1756.06
443.769	1796.73
444.143	1795.38
444.518	1798.99
444.892	1796.05
445.267	1808.03
445.641	1882.15
446.016	1883.06
446.39	1878.09
446.764	1882.83
447.139	1869.72
447.513	1946.78
447.887	1952.66
448.262	1953.11
448.636	1948.82
449.01	1958.08
449.384	1997.18
449.758	2031.08
450.132	2050.74
450.506	2038.76
450.88	2056.39
451.254	2060.23
451.628	2093.9
452.002	2121.02
452.376	2118.98
452.75	2153.79
453.123	2179.77
453.497	2200.79
453.871	2211.18
454.244	2268.36
454.618	2270.84
454.992	2291.86
455.365	2324.4
455.739	2368.02
456.112	2394.91
456.486	2422.48
456.859	2414.34
457.232	2486.88
457.606	2460.44
457.979	2491.4
458.352	2585.41
458.725	2598.52
459.099	2597.16
459.472	2667.67
459.845	2673.09
460.218	2746.76
460.591	2761.68
460.964	2723.94
461.337	2829.93
461.71	2852.52
462.083	2886.42
462.456	2871.05
462.829	2942.47
463.201	2988.79
463.574	2984.95
463.947	3017.04
464.32	3097.04
464.692	3109.24
465.065	3163.25
465.438	3162.8
465.81	3239.86
466.183	3272.17
466.555	3334.32
466.928	3335.9
467.3	3365.96
467.672	3452.28
468.045	3455.9
468.417	3499.29
468.789	3534.54
469.161	3584.03
469.534	3628.55
469.906	3716.68
470.278	3770.69
470.65	3779.51
471.022	3867.64
471.394	3899.5
471.766	3918.26
472.138	4001.42
472.51	4082.55
472.882	4146.95
473.253	4181.98
473.625	4254.75
473.997	4372.94
474.369	4333.16
474.74	4442.76
475.112	4509.66
475.484	4580.16
475.855	4639.6
476.227	4711.23
476.598	4791.91
476.97	4857.89
477.341	4959.81
477.713	5035.07
478.084	5078
478.455	5228.96
478.827	5249.3
479.198	5356.86
479.569	5444.55
479.94	5558.89
480.311	5616.74
480.682	5700.81
481.053	5790.3
481.424	5977.19
481.795	5980.58
482.166	6109.84
482.537	6135.83
482.908	6319.55
483.279	6385.76
483.65	6467.12
484.021	6618.07
484.391	6670.28
484.762	6735.13
485.133	6782.36
485.503	6898.52
485.874	7100.55
486.244	7159.3
486.615	7286.08
486.985	7350.03
487.356	7487.43
487.726	7551.16
488.097	7676.35
488.467	7716.58
488.837	7869.79
489.207	7905.95
489.578	8086.51
489.948	8179.84
490.318	8282.89
490.688	8286.51
491.058	8443.79
491.428	8572.83
491.798	8675.2
492.168	8822.31
492.538	8842.65
492.908	9014.17
493.278	9022.08
493.648	9139.82
494.017	9213.71
494.387	9395.63
494.757	9393.14
495.126	9472.46
495.496	9592.23
495.866	9563.53
496.235	9735.96
496.605	9764.43
496.974	9834.49
497.344	9985.44
497.713	10103.63
498.082	10081.71
498.452	10222.73
498.821	10315.6
499.19	10345.21
499.559	10411.42
499.928	10427.47
500.298	10538.88
500.667	10719.44
501.036	10681.02
501.405	10819.77
501.774	10834.01
502.143	10911.75
502.512	10977.28
502.88	11144.06
503.249	11074.45
503.618	11233.32
503.987	11280.32
504.356	11358.97
504.724	11371.62
505.093	11468.12
505.462	11454.33
505.83	11609.13
506.199	11721.44
506.567	11916.24
506.936	11923.02
507.304	12050.93
507.672	12044.37
508.041	12140.19
508.409	12205.27
508.777	12344.03
509.145	12399.84
509.514	12499.95
509.882	12601.19
510.25	12690.68
510.618	12692.49
510.986	12814.75
511.354	12913.28
511.722	13066.27
512.09	13154.4
512.458	13153.5
512.826	13250.89
513.193	13314.85
513.561	13522.53
513.929	13600.04
514.297	13718.9
514.664	13729.98
515.032	13863.99
515.4	13915.74
515.767	14046.58
516.135	14181.27
516.502	14088.61
516.869	14351.43
517.237	14387.36
517.604	14416.97
517.972	14548.49
518.339	14700.12
518.706	14701.25
519.073	14920.23
519.44	14936.95
519.808	15154.12
520.175	15156.61
520.542	15339.65
520.909	15438.63
521.276	15393.21
521.643	15644.73
522.009	15753.2
522.376	15884.95
522.743	15997.04
523.11	16128.56
523.477	16298.72
523.843	16408.1
524.21	16557.02
524.577	16724.48
524.943	16893.96
525.31	16842.21
525.676	17026.39
526.043	17028.87
526.409	17243.56
526.776	17425.25
527.142	17471.12
527.508	17578.01
527.874	17717.67
528.241	17743.43
528.607	17913.37
528.973	18187.04
529.339	18148.17
529.705	18291.21
530.071	18457.09
530.437	18519.91
530.803	18710.86
531.169	18803.06
531.535	18676.06
531.901	18868.15
532.267	19014.36
532.632	19125.09
532.998	19165.77
533.364	19266.56
533.73	19371.86
534.095	19418.19
534.461	19541.35
534.826	19674
535.192	19809.59
535.557	19882.13
535.923	19899.31
536.288	19978.63
536.653	20102.69
537.019	20046.42
537.384	20121
537.749	20350.82
538.114	20289.58
538.479	20447.77
538.845	20545.84
539.21	20514.66
539.575	20664.26
539.94	20618.84
540.305	20833.29
540.67	20869.45
541.034	20981.09
541.399	21063.12
541.764	21059.05
542.129	21215.2
542.494	21294.52
542.858	21448.42
543.223	21412.04
543.587	21522.77
543.952	21428.98
544.316	21584.69
544.681	21613.61
545.045	21675.31
545.41	21901.51
545.774	21877.11
546.138	21994.17
546.503	21970.67
546.867	22000.72
547.231	22240.49
547.595	22253.14
547.959	22333.37
548.324	22380.6
548.688	22445.68
549.052	22603.64
549.416	22618.11
549.779	22730.19
550.143	22716.86
550.507	22797.76
550.871	22952.11
551.235	22960.24
551.599	23201.82
551.962	23157.53
552.326	23202.27
552.689	23551.64
553.053	23383.06
553.417	23473.9
553.78	23777.62
554.143	23706.44
554.507	23641.58
554.87	23919.77
555.234	24141.91
555.597	24015.81
555.96	24168.12
556.323	24281.11
556.686	24210.61
557.05	24496.7
557.413	24597.71
557.776	24647.43
558.139	24717.03
558.502	24714.32
558.865	24895.79
559.228	25110.7
559.59	25181.88
559.953	25199.28
560.316	25499.84
560.679	25489.22
561.041	25640.17
561.404	25826.38
561.767	25859.38
562.129	25818.02
562.492	26143.21
562.854	26024.12
563.217	26049.88
563.579	26276.99
563.941	26459.81
564.304	26582.07
564.666	26765.12
565.028	26694.61
565.39	26898.22
565.753	27022.06
566.115	27190.64
566.477	27255.05
566.839	27398.55
567.201	27468.83
567.563	27478.09
567.925	27671.98
568.287	27723.73
568.648	27835.37
569.01	27982.48
569.372	28064.29
569.734	28030.62
570.095	28344.06
570.457	28306.77
570.819	28475.58
571.18	28533.2
571.542	28557.16
571.903	28607.78
572.265	28778.85
572.626	28830.6
572.987	28962.8
573.349	29050.03
573.71	29107.43
574.071	29207.31
574.432	29369.11
574.794	29495.89
575.155	29487.98
575.516	29329.79
575.877	29646.85
576.238	29701.54
576.599	29731.14
576.96	29770.23
577.32	29725.26
577.681	29923.45
578.042	29950.57
578.403	29972.94
578.763	29885.71
579.124	30057.91
579.485	30249.32
579.845	30319.6
580.206	30091.81
580.566	30193.27
580.927	30227.4
581.287	30295.87
581.648	30188.53
582.008	30342.42
582.368	30267.85
582.728	30465.13
583.089	30328.86
583.449	30347.85
583.809	30453.15
584.169	30540.61
584.529	30342.42
584.889	30621.74
585.249	30400.5
585.609	30416.32
585.969	30659.25
586.329	30431.91
586.688	30395.53
587.048	30494.51
587.408	30420.84
587.768	30478.01
588.127	30574.28
588.487	30415.64
588.846	30653.83
589.206	30466.49
589.565	30616.09
589.925	30634.17
590.284	30640.72
590.643	30727.95
591.003	30759.59
591.362	30856.76
591.721	30722.3
592.08	30718.23
592.44	30751.45
592.799	30938.11
593.158	30740.6
593.517	30857.44
593.876	30887.94
594.235	30771.11
594.593	30936.31
594.952	30885.91
595.311	30825.35
595.67	30792.81
596.029	31002.52
596.387	31099.24
596.746	31086.36
597.104	30928.85
597.463	31006.59
597.822	31059.01
598.18	30970.88
598.538	31012.91
598.897	31119.58
599.255	30930.88
599.613	31410.19
599.972	31144.44
600.33	31351.66
600.688	31172.91
601.046	31217.65
601.404	31306.69
601.762	31277.99
602.12	31538.55
602.478	31352.79
602.836	31386.24
603.194	31279.35
603.552	31276.86
603.91	31376.52
604.268	31451.55
604.625	31381.72
604.983	31574.03
605.341	31306.92
605.698	31528.61
606.056	31773.8
606.413	31684.76
606.771	31696.96
607.128	31640.69
607.485	31566.35
607.843	31709.62
608.2	31880.91
608.557	31928.37
608.914	31857.86
609.272	32096.73
609.629	32086.78
609.986	32132.21
610.343	31965.88
610.7	32163.62
611.057	32001.81
611.414	32175.14
611.771	32270.28
612.127	32215.82
612.484	32237.51
612.841	32477.51
613.198	32226.21
613.554	32314.8
613.911	32493.33
614.267	32464.4
614.624	32451.97
614.98	32557.28
615.337	32706.2
615.693	32541.69
616.05	32537.85
616.406	32744.62
616.762	32693.1
617.118	32618.75
617.475	32663.94
617.831	32777.61
618.187	32857.84
618.543	32730.61
618.899	33029.13
619.255	32929.02
619.611	32801.11
619.967	32950.94
620.323	33059.19
620.678	32884.95
621.034	32821.45
621.39	32750.49
621.746	32797.5
622.101	33119.3
622.457	32814.9
622.812	33038.62
623.168	33156.81
623.523	33068
623.879	33101.22
624.234	32859.42
624.589	32940.77
624.945	33046.98
625.3	32948.68
625.655	32984.61
626.01	33043.37
626.365	32977.16
626.72	32963.6
627.075	32897.61
627.43	32936.25
627.785	32846.76
628.14	32918.17
628.495	32962.24
628.85	32956.37
629.205	32767.67
629.559	32983.03
629.914	32796.6
630.269	32943.71
630.623	32800.44
630.978	32760.44
631.332	32848.12
631.687	32877.27
632.041	32781.68
632.396	32781.91
632.75	32567.9
633.104	32633.66
633.459	32479.32
633.813	32484.74
634.167	32470.73
634.521	32539.2
634.875	32592.98
635.229	32455.14
635.583	32297.85
635.937	32360.67
636.291	32345.31
636.645	32338.53
636.999	32216.72
637.352	32323.39
637.706	32172.66
638.06	32309.15
638.413	32078.42
638.767	32009.72
639.121	32092.66
639.474	31975.83
639.828	32015.6
640.181	31939.44
640.534	32054.24
640.888	31793.91
641.241	31722.05
641.594	31830.29
641.947	31801.59
642.301	31630.3
642.654	31771.31
643.007	31741.93
643.36	31729.5
643.713	31630.52
644.066	31746.68
644.419	31462.39
644.771	31280.02
645.124	31108.73
645.477	31016.3
645.83	30878.23
646.182	30670.1
646.535	30465.13
646.888	30590.55
647.24	30431.46
647.593	30502.42
647.945	30430.1
648.298	30257.68
648.65	30129.77
649.002	30185.59
649.355	30283.89
649.707	30336.55
650.059	30589.65
650.411	30692.92
650.763	30609.99
651.115	31087.49
651.467	30854.27
651.819	30913.93
652.171	30836.42
652.523	30831.68
652.875	30719.14
653.227	30576.54
653.578	30831.9
653.93	30687.95
654.282	30591.68
654.633	30500.84
654.985	30654.28
655.337	30609.31
655.688	30528.63
656.039	30644.56
656.391	30356.66
656.742	30389.43
657.094	30515.07
657.445	30574.51
657.796	30564.79
658.147	30384.46
658.498	30435.98
658.849	30418.13
659.2	30383.1
659.551	30378.35
659.902	30504
660.253	30356.89
660.604	30462.19
660.955	30179.71
661.306	30364.79
661.656	30253.39
662.007	30216.1
662.358	30207.06
662.708	30180.39
663.059	30195.99
663.409	30098.14
663.76	30218.36
664.11	30172.94
664.461	30218.58
664.811	30184.46
665.161	30204.57
665.511	30017.46
665.862	30123.67
666.212	30022.2
666.562	30194.86
666.912	29947.86
667.262	30123.9
667.612	29981.75
667.962	30047.29
668.312	30028.98
668.662	30154.18
669.011	30026.72
669.361	29922.09
669.711	29982.43
670.06	29899.95
670.41	29964.35
670.76	29945.37
671.109	29939.72
671.459	29935.65
671.808	29764.81
672.157	29823.34
672.507	29795.09
672.856	29802.78
673.205	29805.04
673.554	29802.1
673.904	29677.81
674.253	29821.53
674.602	29716.9
674.951	29228.78
675.3	29071.72
675.649	29597.58
675.998	29555.1
676.346	29511.94
676.695	29579.28
677.044	29444.14
677.393	29420.86
677.741	29538.6
678.09	29329.79
678.438	29368.89
678.787	29405.5
679.135	29290.47
679.484	29202.34
679.832	29295.9
680.181	29112.62
680.529	29216.12
680.877	29189.68
681.225	29024.27
681.573	29362.79
681.922	29060.42
682.27	28923.02
682.618	28944.72
682.966	28893.42
683.314	28980.2
683.661	28935.91
684.009	28798.06
684.357	28514.45
684.705	28681.22
685.053	28664.5
685.4	28581.56
685.748	28405.3
686.095	28501.57
686.443	28264.06
686.79	28337.96
687.138	28385.64
687.485	28376.15
687.832	28240.1
688.18	28210.73
688.527	28049.15
688.874	28034.91
689.221	28020.9
689.568	27947.91
689.915	27914.01
690.262	27910.85
690.609	27785.88
690.956	27711.76
691.303	27737.07
691.65	27526.23
691.997	27560.8
692.344	27341.15
692.69	27297.76
693.037	27338.43
693.383	27081.27
693.73	27276.51
694.077	27047.82
694.423	27062.06
694.769	26910.87
695.116	26667.04
695.462	26749.97
695.808	26719.47
696.155	26739.58
696.501	26601.05
696.847	26601.5
697.193	26405.8
697.539	26486.93
697.885	26336.43
698.231	26258.69
698.577	26304.34
698.923	26213.04
699.269	25954.97
699.614	25938.47
699.96	25871.13
700.306	25807.63
700.651	25784.8
700.997	25665.48
701.342	25695.31
701.688	25565.6
702.033	25446.51
702.379	25420.52
702.724	25390.01
703.069	25470.91
703.415	25128.77
703.76	25206.06
704.105	25201.54
704.45	24999.29
704.795	24939.4
705.14	24881.1
705.485	24772.63
705.83	24801.1
706.175	24861.44
706.52	24711.84
706.865	24704.6
707.209	24648.33
707.554	24586.87
707.899	24512.52
708.243	24356.59
708.588	24285.63
708.932	24283.15
709.277	24329.93
709.621	24188.23
709.966	24101.68
710.31	24141.68
710.654	23902.82
710.998	23997.05
711.342	23913.67
711.687	23814.23
712.031	23873.67
712.375	23749.6
712.719	23833.67
713.063	23650.85
713.407	23769.49
713.75	23514.35
714.094	23599.77
714.438	23396.39
714.782	23507.57
715.125	23291.99
715.469	23400.23
715.812	23198.43
716.156	23189.84
716.499	23243.63
716.843	23167.02
717.186	23042.95
717.53	23117.08
717.873	23090.86
718.216	23084.53
718.559	23001.37
718.902	22875.73
719.246	22853.81
719.589	22834.82
719.932	22615.62
720.275	22685.22
720.617	22710.08
720.96	22730.42
721.303	22732.45
721.646	22551.89
721.989	22350.09
722.331	22411.78
722.674	22479.58
723.016	22388.96
723.359	22341.73
723.701	22421.73
724.044	22345.12
724.386	22085.24
724.729	22240.94
725.071	22121.62
725.413	22110.1
725.755	22106.71
726.097	21942.64
726.439	22110.32
726.782	22004.79
727.124	22048.63
727.465	21826.26
727.807	21908.29
728.149	21850.44
728.491	21682.76
728.833	21811.35
729.175	21805.7
729.516	21617
729.858	21649.09
730.199	21699.94
730.541	21713.04
730.882	21694.51
731.224	21661.07
731.565	21440.51
731.906	21387.4
732.248	21427.4
732.589	21388.31
732.93	21433.73
733.271	21327.52
733.612	21341.53
733.953	21356.67
734.294	21209.33
734.635	21156.45
734.976	21216.56
735.317	21115.77
735.658	21074.64
735.999	21135.66
736.339	21019.5
736.68	21079.84
737.021	20992.39
737.361	20913.52
737.702	21074.42
738.042	20855.89
738.383	20834.2
738.723	20793.3
739.063	20780.64
739.404	20852.28
739.744	20795.55
740.084	20607.76
740.424	20742.9
740.764	20619.74
741.104	20688.21
741.444	20544.94
741.784	20474.43
742.124	20550.82
742.464	20546.07
742.804	20445.73
743.143	20401.44
743.483	20513.08
743.823	20374.78
744.162	20270.14
744.502	20287.09
744.841	20205.97
745.181	20359.86
745.52	20165.51
745.86	20171.62
746.199	20147.89
746.538	20112.86
746.877	20234.21
747.216	20085.07
747.556	19953.77
747.895	19963.49
748.234	20025.86
748.573	19812.53
748.911	19823.38
749.25	19861.57
749.589	19689.14
749.928	19768.01
750.267	19816.37
750.605	19680.33
750.944	19619.99
751.283	19632.2
751.621	19709.26
751.96	19553.1
752.298	19515.81
752.636	19457.06
752.975	19337.97
753.313	19300.45
753.651	19458.19
753.989	19241.02
754.327	19195.37
754.666	19111.98
755.004	19224.97
755.342	19160.8
755.679	19173.9
756.017	19072.89
756.355	19106.56
756.693	18917.41
757.031	18926.68
757.368	18883.97
757.706	18730.52
758.044	18751.54
758.381	18610.08
758.719	18609.62
759.056	18708.83
759.394	18654.14
759.731	18497.54
760.068	18498.21
760.405	18421.38
760.743	18309.07
761.08	18483.53
761.417	18256.64
761.754	18229.07
762.091	18275.85
762.428	18213.7
762.765	18003.54
763.102	17971.22
763.438	17982.75
763.775	17855.52
764.112	17869.76
764.449	17933.48
764.785	17726.94
765.122	17666.82
765.458	17526.71
765.795	17589.76
766.131	17536.21
766.467	17510.9
766.804	17409.66
767.14	17414.85
767.476	17236.33
767.812	17194.75
768.148	17099.83
768.485	17087.86
768.821	17058.03
769.157	16999.04
769.492	16907.52
769.828	16958.82
770.164	16785.26
770.5	16706.62
770.836	16661.43
771.171	16674.31
771.507	16554.08
771.842	16503.24
772.178	16463.69
772.513	16416.91
772.849	16403.35
773.184	16197.03
773.519	16269.57
773.855	16171.04
774.19	16153.19
774.525	16037.94
774.86	16127.88
775.195	16050.14
775.53	15945.96
775.865	15874.78
776.2	15799.75
776.535	15663.49
776.87	15658.51
777.205	15650.15
777.539	15504.85
777.874	15576.03
778.209	15426.2
778.543	15365.87
778.878	15293.55
779.212	15330.84
779.547	15269.37
779.881	15236.61
780.215	15217.85
780.55	15158.19
780.884	15032.09
781.218	15013.11
781.552	15045.2
781.886	14822.15
782.22	14851.08
782.554	14755.04
782.888	14624.19
783.222	14576.51
783.556	14548.94
783.889	14572.89
784.223	14401.82
784.557	14391.2
784.89	14400.24
785.224	14324.54
785.557	14254.94
785.891	14272.56
786.224	14174.26
786.558	14106.47
786.891	14071.89
787.224	13984.89
787.557	13996.19
787.891	13932.91
788.224	13867.15
788.557	13924.78
788.89	13838
789.223	13804.33
789.556	13634.39
789.888	13700.6
790.221	13648.17
790.554	13561.17
790.887	13523.88
791.219	13426.94
791.552	13435.97
791.884	13464.22
792.217	13323.21
792.549	13239.14
792.882	13207.28
793.214	13155.3
793.546	13190.56
793.879	13106.49
794.211	13020.39
794.543	13021.75
794.875	12959.83
795.207	13034.63
795.539	12958.7
795.871	12911.47
796.203	12769.55
796.535	12625.83
796.867	12687.52
797.198	12709.89
797.53	12646.84
797.862	12641.65
798.193	12613.62
798.525	12556
798.856	12561.2
799.188	12440.07
799.519	12344.03
799.85	12322.78
800.182	12335.89
800.513	12393.74
800.844	12171.37
801.175	12263.8
801.506	12252.73
801.837	12177.25
802.168	12150.58
802.499	12104.48
802.83	12058.84
803.161	12024.71
803.491	11898.84
803.822	12001.44
804.153	11902.91
804.483	11858.39
804.814	11804.38
805.145	11786.75
805.475	11794.66
805.805	11772.52
806.136	11760.76
806.466	11718.28
806.796	11675.34
807.126	11543.14
807.457	11569.36
807.787	11591.28
808.117	11509.02
808.447	11422.02
808.777	11439.42
809.107	11449.81
809.436	11456.37
809.766	11370.72
810.096	11281.68
810.426	11297.73
810.755	11256.37
811.085	11292.08
811.414	11211.85
811.744	11095.24
812.073	11174.11
812.403	11059.31
812.732	11137.96
813.061	11071.74
813.39	11031.52
813.719	11049.82
814.049	11067.45
814.378	11083.95
814.707	11008.92
815.036	10967.11
815.365	10863.84
815.693	10784.97
816.022	10822.48
816.351	10676.95
816.68	10723.05
817.008	10750.17
817.337	10648.93
817.665	10597.4
817.994	10625.43
818.322	10629.04
818.651	10581.59
818.979	10490.52
819.307	10624.07
819.636	10476.5
819.964	10462.49
820.292	10470.18
820.62	10505.88
820.948	10539.1
821.276	10443.06
821.604	10492.1
821.932	10459.78
822.259	10478.09
822.587	10427.47
822.915	10353.12
823.243	10483.06
823.57	10356.28
823.898	10436.05
824.225	10403.96
824.553	10330.75
824.88	10413.91
825.207	10393.12
825.535	10382.72
825.862	10508.37
826.189	10397.86
826.516	10441.02
826.843	10466.11
827.17	10443.74
827.497	10459.33
827.824	10442.38
828.151	10506.33
828.478	10405.32
828.805	10462.04
829.131	10383.85
829.458	10413.68
829.785	10354.7
830.111	10389.05
830.438	10467.24
830.764	10415.94
831.09	10331.42
831.417	10267.47
831.743	10368.48
832.069	10403.51
832.395	10326.23
832.722	10355.6
833.048	10253.91
833.374	10240.13
833.7	10332.1
834.026	10307.47
834.351	10236.06
834.677	10240.13
835.003	10297.53
835.329	10248.26
835.654	10209.84
835.98	10238.77
836.306	10207.36
836.631	10197.64
836.956	10207.58
837.282	10184.08
837.607	10144.76
837.932	10121.71
838.258	10115.38
838.583	10095.27
838.908	10044.65
839.233	10052.56
839.558	10065.89
839.883	9992.9
840.208	9976.4
840.533	9983.86
840.858	9928.95
841.182	9979.34
841.507	9981.83
841.832	9901.15
842.156	9928.95
842.481	9879.23
842.805	9894.6
843.13	9784.32
843.454	9795.39
843.778	9804.21
844.103	9723.3
844.427	9692.34
844.751	9686.69
845.075	9674.04
845.399	9679.46
845.723	9636.3
846.047	9659.35
846.371	9509.98
846.695	9512.24
847.019	9548.62
847.343	9549.52
847.666	9428.85
847.99	9353.82
848.313	9344.78
848.637	9328.51
848.96	9274.28
849.284	9260.72
849.607	9115.86
849.931	9138.23
850.254	9135.3
850.577	9161.74
850.9	9021.85
851.223	8963.1
851.546	8978.46
851.869	8969.43
852.192	8997.9
852.515	8918.13
852.838	8913.61
853.161	8797.9
853.483	8826.15
853.806	8770.33
854.129	8695.08
854.451	8709.32
854.774	8665.03
855.096	8691.92
855.419	8652.15
855.741	8586.16
856.063	8573.5
856.385	8551.36
856.708	8521.3
857.03	8489.44
857.352	8538.93
857.674	8495.54
857.996	8348.65
858.318	8366.5
858.64	8344.58
858.961	8348.42
859.283	8292.83
859.605	8265.94
859.926	8322.89
860.248	8260.52
860.57	8278.6
860.891	8290.57
861.212	8251.48
861.534	8155.66
861.855	8212.83
862.176	8181.65
862.498	8135.77
862.819	8112.72
863.14	8130.13
863.461	8107.98
863.782	8010.58
864.103	8099.39
864.424	8085.15
864.745	8107.98
865.065	8028.21
865.386	8014.65
865.707	8060.52
866.027	7961.77
866.348	8013.07
866.668	7997.25
866.989	7930.58
867.309	7897.59
867.63	7900.53
867.95	7942.33
868.27	7882
868.59	7919.96
868.91	7895.1
869.23	7892.17
869.55	7873.41
869.87	7875.89
870.19	7832.73
870.51	7838.38
870.83	7794.77
871.15	7712.06
871.469	7818.49
871.789	7786.86
872.109	7778.27
872.428	7725.62
872.748	7709.35
873.067	7648.78
873.386	7733.98
873.706	7688.55
874.025	7640.65
874.344	7635.45
874.663	7663.24
874.982	7611.27
875.301	7589.35
875.62	7535.79
875.939	7576.69
876.258	7579.86
876.577	7603.59
876.896	7566.75
877.214	7567.65
877.533	7560.87
877.852	7474.1
878.17	7517.26
878.489	7479.75
878.807	7511.16
879.125	7434.32
879.444	7397.72
879.762	7444.72
880.08	7432.06
880.398	7456.92
880.716	7404.27
881.034	7411.05
881.352	7394.78
881.67	7296.25
881.988	7419.18
882.306	7322.46
882.624	7335.57
882.941	7289.24
883.259	7221.22
883.577	7302.12
883.894	7225.74
884.212	7226.65
884.529	7208.34
884.846	7195.01
885.164	7197.04
885.481	7117.5
885.798	7185.97
886.115	7124.28
886.432	7124.73
886.75	7112.75
887.067	7089.25
887.383	7084.28
887.7	7076.82
888.017	7005.86
888.334	7017.61
888.651	7008.35
888.967	6959.08
889.284	6922.02
889.6	6950.04
889.917	6896.03
890.233	6937.39
890.55	6837.05
890.866	6912.3
891.182	6837.5
891.498	6840.89
891.815	6793.21
892.131	6764.51
892.447	6779.65
892.763	6795.92
893.079	6754.79
893.395	6702.82
893.71	6739.43
894.026	6656.94
894.342	6673.67
894.657	6635.7
894.973	6600.45
895.289	6623.05
895.604	6662.37
895.92	6545.31
896.235	6524.97
896.55	6525.65
896.865	6487.46
897.181	6478.19
897.496	6504.41
897.811	6478.19
898.126	6475.93
898.441	6364.07
898.756	6453.56
899.071	6384.86
899.386	6390.28
899.7	6303.28
900.015	6271.87
900.33	6250.4
900.644	6287.91
900.959	6216.28
901.273	6233.45
901.588	6203.62
901.902	6138.31
902.216	6155.49
902.531	6123.85
902.845	6099.44
903.159	6091.76
903.473	6086.11
903.787	6032.55
904.101	5966.34
904.415	5992.33
904.729	5922.5
905.042	5926.79
905.356	5942.84
905.67	5922.05
905.984	5901.26
906.297	5885.66
906.611	5819.9
906.924	5841.82
907.237	5819.9
907.551	5802.95
907.864	5780.36
908.177	5733.58
908.491	5729.51
908.804	5706.01
909.117	5698.32
909.43	5626.46
909.743	5654.71
910.056	5623.98
910.368	5611.1
910.681	5567.48
910.994	5541.49
911.307	5520.25
911.619	5494.94
911.932	5508.95
912.244	5465.11
912.557	5501.95
912.869	5409.07
913.181	5379.69
913.494	5435.96
913.806	5361.16
914.118	5377.43
914.43	5353.93
914.742	5378.11
915.054	5293.14
915.366	5280.71
915.678	5299.24
915.99	5205.46
916.302	5221.28
916.613	5156.42
916.925	5162.75
917.236	5165.23
917.548	5100.6
917.859	5109.41
918.171	5088.85
918.482	5077.32
918.794	5049.08
919.105	5048.17
919.416	5023.99
919.727	4971.79
920.038	4948.29
920.349	4894.96
920.66	4919.36
920.971	4891.79
921.282	4882.08
921.593	4819.25
921.903	4859.48
922.214	4798.24
922.525	4817.44
922.835	4801.85
923.146	4749.65
923.456	4717.79
923.767	4717.11
924.077	4685.24
924.387	4689.99
924.697	4596.21
925.008	4678.46
925.318	4606.83
925.628	4696.32
925.938	4606.15
926.248	4553.72
926.558	4508.07
926.867	4511.69
927.177	4478.92
927.487	4494.51
927.796	4495.42
928.106	4483.89
928.416	4398.47
928.725	4442.31
929.034	4426.04
929.344	4404.12
929.653	4379.49
929.962	4312.15
930.271	4330.68
930.581	4321.64
930.89	4299.04
931.199	4231.24
931.508	4285.03
931.817	4288.87
932.125	4264.01
932.434	4183.79
932.743	4195.77
933.051	4204.58
933.36	4157.57
933.669	4161.42
933.977	4126.39
934.286	4119.38
934.594	4091.36
934.902	4103.11
935.21	4049.1
935.519	4051.81
935.827	4071.47
936.135	3987.64
936.443	3934.08
936.751	3943.12
937.059	3996.67
937.367	3943.57
937.674	3910.58
937.982	3885.27
938.29	3873.51
938.597	3850.69
938.905	3829.9
939.213	3821.09
939.52	3798.49
939.827	3841.2
940.135	3796.23
940.442	3792.16
940.749	3792.16
941.056	3793.74
941.363	3729.79
941.67	3721.43
941.977	3704.7
942.284	3665.38
942.591	3670.13
942.898	3650.24
943.205	3638.27
943.511	3582
943.818	3620.87
944.125	3569.34
944.431	3584.71
944.738	3546.06
945.044	3536.8
945.35	3534.31
945.657	3548.32
945.963	3524.6
946.269	3509.91
946.575	3508.78
946.881	3475.78
947.187	3417.48
947.493	3438.05
947.799	3400.08
948.105	3396.69
948.41	3378.39
948.716	3403.47
949.022	3349.91
949.327	3354.88
949.633	3336.35
949.938	3359.18
950.244	3341.1
950.549	3280.54
950.854	3261.78
951.16	3285.05
951.465	3239.18
951.77	3239.86
952.075	3244.15
952.38	3262.91
952.685	3235.34
952.99	3208.22
953.294	3169.58
953.599	3166.19
953.904	3133.87
954.209	3112.18
954.513	3135.23
954.818	3120.54
955.122	3144.49
955.426	3071.95
955.731	3080.09
956.035	3068.56
956.339	3047.1
956.643	3017.72
956.948	3035.34
957.252	3005.97
957.556	3010.94
957.86	3016.59
958.163	2979.3
958.467	2982.46
958.771	2961.22
959.075	2974.78
959.378	2922.13
959.682	2915.57
959.985	2939.53
960.289	2907.66
960.592	2897.95
960.896	2869.25
961.199	2840.09
961.502	2848.23
961.805	2836.03
962.108	2814.56
962.411	2791.73
962.714	2837.16
963.017	2795.58
963.32	2796.03
963.623	2756.93
963.926	2753.54
964.228	2745.86
964.531	2737.5
964.833	2690.27
965.136	2712.87
965.438	2709.93
965.741	2696.6
966.043	2666.99
966.345	2650.5
966.648	2628.35
966.95	2609.37
967.252	2629.7
967.554	2616.37
967.856	2597.39
968.158	2606.2
968.46	2592.42
968.761	2559.42
969.063	2593.1
969.365	2571.63
969.666	2562.81
969.968	2541.35
970.269	2527.33
970.571	2550.16
970.872	2482.82
971.174	2468.35
971.475	2485.08
971.776	2462.03
972.077	2480.56
972.378	2446.66
972.679	2451.86
972.98	2452.76
973.281	2406.89
973.582	2425.19
973.883	2414.57
974.183	2393.1
974.484	2400.33
974.785	2370.73
975.085	2369.82
975.386	2376.15
975.686	2339.54
975.986	2339.09
976.287	2338.41
976.587	2308.58
976.887	2305.19
977.187	2320.56
977.487	2329.37
977.787	2273.33
978.087	2305.65
978.387	2266.78
978.687	2247.79
978.987	2239.66
979.286	2247.57
979.586	2229.04
979.885	2222.94
980.185	2215.25
980.484	2207.8
980.784	2179.32
981.083	2164.63
981.382	2172.77
981.682	2178.87
981.981	2143.16
982.28	2143.39
982.579	2133.45
982.878	2138.64
983.177	2102.94
983.475	2112.2
983.774	2055.03
984.073	2082.37
984.372	2064.07
984.67	2084.63
984.969	2092.54
985.267	2109.72
985.566	2037.18
985.864	2046.9
986.162	2055.48
986.461	2008.7
986.759	2017.97
987.057	2002.38
987.355	1992.21
987.653	1971.19
987.951	1974.58
988.249	1944.98
988.547	1962.83
988.844	1973
989.142	1956.5
989.44	1925.09
989.737	1944.75
990.035	1927.35
990.332	1925.99
990.63	1884.19
990.927	1895.49
991.224	1905.43
991.521	1896.39
991.819	1884.41
992.116	1921.47
992.413	1907.46
992.71	1845.54
993.006	1830.18
993.303	1840.57
993.6	1823.17
993.897	1814.13
994.193	1837.18
994.49	1813.23
994.787	1785.21
995.083	1777.52
995.379	1816.39
995.676	1764.42
995.972	1773.46
996.268	1768.94
996.565	1742.72
996.861	1736.17
997.157	1700.01
997.453	1717.86
997.749	1714.7
998.044	1707.24
998.34	1697.98
998.636	1679.45
998.932	1707.92
999.227	1657.08
999.523	1667.92
999.818	1652.56
1000.114	1670.86
1000.409	1650.52
1000.704	1633.35
1001	1602.84
1001.295	1626.79
1001.59	1621.37
1001.885	1597.42
1002.18	1581.14
1002.475	1592.44
1002.77	1563.97
1003.065	1536.85
1003.359	1537.08
1003.654	1545.67
1003.949	1532.78
1004.243	1545.67
1004.538	1539.11
1004.832	1525.1
1005.127	1518.32
1005.421	1519
1005.715	1505.89
1006.009	1500.47
1006.304	1490.98
1006.598	1487.36
1006.892	1490.53
1007.186	1466.12
1007.48	1432.22
1007.773	1446.69
1008.067	1441.26
1008.361	1408.04
1008.655	1424.31
1008.948	1412.11
1009.242	1402.62
1009.535	1407.14
1009.829	1400.13
1010.122	1394.71
1010.415	1398.55
1010.708	1361.49
1011.001	1359.91
1011.295	1320.81
1011.588	1379.79
1011.881	1354.03
1012.173	1323.3
1012.466	1327.82
1012.759	1296.86
1013.052	1318.1
1013.344	1309.51
1013.637	1321.72
1013.93	1283.3
1014.222	1302.28
1014.514	1278.78
1014.807	1307.03
1015.099	1269.51
1015.391	1271.77
1015.683	1258.89
1015.976	1251.66
1016.268	1239.68
1016.56	1239.23
1016.851	1221.83
1017.143	1228.84
1017.435	1223.19
1017.727	1189.74
1018.018	1195.84
1018.31	1193.81
1018.602	1184.09
1018.893	1179.35
1019.185	1193.13
1019.476	1187.71
1019.767	1136.18
1020.058	1136.86
1020.35	1127.82
1020.641	1132.8
1020.932	1139.57
1021.223	1114.49
1021.514	1112.23
1021.804	1123.98
1022.095	1094.15
1022.386	1091.44
1022.677	1102.06
1022.967	1104.55
1023.258	1075.4
1023.548	1068.16
1023.839	1047.6
1024.129	1053.7
1024.419	1063.19
1024.709	1044.21
1025	1044.44
1025.29	1028.17
1025.58	1040.37
1025.87	1025.23
1026.16	1016.41
1026.449	1017.32
1026.739	1015.06
1027.029	1006.92
1027.319	1017.54
1027.608	986.13
1027.898	987.94
1028.187	980.26
1028.477	984.1
1028.766	980.03
1029.055	958.56
1029.344	926.7
1029.634	944.55
1029.923	942.52
1030.212	930.77
1030.501	926.7
1030.79	940.71
1031.078	928.28
1031.367	929.64
1031.656	931.44
1031.945	877.66
1032.233	890.77
1032.522	899.13
1032.81	903.65
1033.099	881.28
1033.387	889.64
1033.675	885.34
1033.963	849.86
1034.251	880.6
1034.54	873.59
1034.828	847.83
1035.116	844.22
1035.403	843.54
1035.691	826.36
1035.979	832.92
1036.267	822.07
1036.554	824.55
1036.842	791.79
1037.129	810.09
1037.417	813.48
1037.704	798.57
1037.992	823.42
1038.279	817.32
1038.566	801.05
1038.853	801.05
1039.14	801.05
