Data from breadboard_black_back_FLMS001491_00060.txt Node
Date: Wed Feb 08 10:50:36 GMT 2017
User: dcchb
Spectrometer: FLMS00149
Trigger mode: 0
Integration Time (sec): 2.000000E-2
Scans to average: 10
Electric dark correction enabled: true
Nonlinearity correction enabled: false
Boxcar width: 0
XAxis mode: Wavelengths
Number of Pixels in Spectrum: 2048
>>>>>Begin Spectral Data<<<<<
341.393	-7.25
341.776	-7.25
342.16	-7.25
342.543	-61.71
342.927	-57.87
343.31	-64.19
343.693	-76.4
344.077	-62.16
344.46	-51.54
344.843	-56.06
345.226	-44.08
345.61	-27.13
345.993	-8.6
346.376	-9.96
346.759	28.69
347.142	22.36
347.525	54.22
347.908	32.08
348.291	72.75
348.674	84.05
349.057	105.97
349.44	131.06
349.823	160.66
350.206	179.42
350.588	212.86
350.971	218.51
351.354	233.88
351.737	235.91
352.119	265.52
352.502	280.88
352.884	289.24
353.267	307.32
353.65	296.48
354.032	299.64
354.414	311.84
354.797	303.03
355.179	322.46
355.562	313.42
355.944	344.84
356.326	333.31
356.709	346.42
357.091	343.93
357.473	322.92
357.855	352.97
358.238	376.25
358.62	346.42
359.002	351.62
359.384	362.91
359.766	340.99
360.148	320.88
360.53	346.19
360.912	361.56
361.294	337.6
361.676	344.61
362.057	357.72
362.439	358.85
362.821	354.33
363.203	325.18
363.584	339.19
363.966	328.34
364.348	331.95
364.729	347.55
365.111	354.33
365.493	342.58
365.874	343.03
366.256	351.84
366.637	328.79
367.019	350.26
367.4	329.47
367.781	344.16
368.163	343.48
368.544	325.85
368.925	337.6
369.306	331.95
369.688	343.48
370.069	342.8
370.45	332.41
370.831	337.15
371.212	366.3
371.593	349.81
371.974	345.51
372.355	325.18
372.736	345.74
373.117	360.88
373.498	350.49
373.879	364.5
374.26	333.54
374.641	361.78
375.021	354.1
375.402	350.26
375.783	372.18
376.163	383.25
376.544	373.31
376.925	384.16
377.305	380.31
377.686	370.37
378.066	396.81
378.447	387.55
378.827	372.86
379.208	374.21
379.588	391.39
379.968	347.32
380.349	379.41
380.729	383.25
381.109	399.07
381.489	397.72
381.87	385.51
382.25	382.57
382.63	401.11
383.01	407.66
383.39	401.33
383.77	401.33
384.15	398.17
384.53	419.18
384.91	397.72
385.29	418.28
385.67	435.45
386.049	442.23
386.429	428
386.809	439.75
387.189	400.2
387.568	451.95
387.948	434.1
388.328	439.52
388.707	451.73
389.087	450.14
389.466	456.25
389.846	475.68
390.225	465.51
390.605	461.22
390.984	477.49
391.363	478.62
391.743	483.36
392.122	483.36
392.501	489.01
392.881	499.18
393.26	488.11
393.639	493.76
394.018	492.18
394.397	504.61
394.776	489.24
395.155	519.07
395.534	501.67
395.913	518.39
396.292	515.9
396.671	546.41
397.05	506.41
397.429	520.42
397.808	539.18
398.186	548.22
398.565	543.25
398.944	536.47
399.323	550.48
399.701	549.58
400.08	548.22
400.458	584.38
400.837	572.17
401.215	569.46
401.594	566.07
401.972	578.28
402.351	576.02
402.729	600.42
403.107	584.38
403.486	578.28
403.864	599.07
404.242	595.45
404.62	615.11
404.999	615.11
405.377	634.77
405.755	630.48
406.133	621.89
406.511	642
406.889	653.75
407.267	651.27
407.645	677.03
408.023	628.22
408.401	682
408.779	666.64
409.156	678.39
409.534	709.12
409.912	707.99
410.29	711.61
410.667	708.89
411.045	706.41
411.422	716.13
411.8	735.33
412.178	750.25
412.555	749.57
412.933	756.35
413.31	791.6
413.687	784.15
414.065	808.55
414.442	800.87
414.819	796.35
415.197	811.94
415.574	816.69
415.951	817.37
416.328	806.07
416.705	847.42
417.082	848.78
417.46	835.22
417.837	884.48
418.214	858.95
418.591	852.17
418.967	886.52
419.344	870.25
419.721	888.1
420.098	925.39
420.475	924.26
420.852	934.65
421.228	940.3
421.605	947.08
421.982	949.79
422.358	958.38
422.735	971.94
423.111	967.64
423.488	980.07
423.864	982.11
424.241	1008.55
424.617	1009.68
424.994	1025.95
425.37	1011.71
425.746	1010.81
426.123	1032.73
426.499	1029.79
426.875	1065.04
427.251	1091.71
427.627	1127.19
428.003	1102.56
428.379	1136.68
428.756	1141.42
429.132	1156.57
429.507	1142.1
429.883	1169.45
430.259	1203.34
430.635	1215.77
431.011	1202.67
431.387	1238.6
431.763	1267.3
432.138	1263.46
432.514	1295.09
432.89	1296
433.265	1294.87
433.641	1335.54
434.016	1335.32
434.392	1360.4
434.767	1402.89
435.143	1392.49
435.518	1401.3
435.894	1394.53
436.269	1423.23
436.644	1469.1
437.02	1479.95
437.395	1486.27
437.77	1496.44
438.145	1504.13
438.52	1487.18
438.895	1548.42
439.271	1540.96
439.646	1553.84
440.021	1564.69
440.395	1554.07
440.77	1586.38
441.145	1598.81
441.52	1645.82
441.895	1641.3
442.27	1621.19
442.645	1664.12
443.019	1667.74
443.394	1679.72
443.769	1709.55
444.143	1706.83
444.518	1721.97
444.892	1694.4
445.267	1731.01
445.641	1772.82
446.016	1728.08
446.39	1771.46
446.764	1792.48
447.139	1778.92
447.513	1820.73
447.887	1804.01
448.262	1811.92
448.636	1861.18
449.01	1858.02
449.384	1888.98
449.758	1858.92
450.132	1914.29
450.506	1934.17
450.88	1921.07
451.254	1960.84
451.628	1985.7
452.002	1988.41
452.376	2015.98
452.75	2023.21
453.123	2016.43
453.497	2053.49
453.871	2066.15
454.244	2140.72
454.618	2105.47
454.992	2147.95
455.365	2141.62
455.739	2244.9
456.112	2264.11
456.486	2272.92
456.859	2312.02
457.232	2318.34
457.606	2329.64
457.979	2371.45
458.352	2406.48
458.725	2439.7
459.099	2426.81
459.472	2495.74
459.845	2512.46
460.218	2518.79
460.591	2567.6
460.964	2567.6
461.337	2683.31
461.71	2673.36
462.083	2733.93
462.456	2711.78
462.829	2725.79
463.201	2783.64
463.574	2767.37
463.947	2857.09
464.32	2872.68
464.692	2935.28
465.065	2974.6
465.438	2987.48
465.81	3060.02
466.183	3038.78
466.555	3097.31
466.928	3097.08
467.3	3135.5
467.672	3234.48
468.045	3274.93
468.417	3280.13
468.789	3312.44
469.161	3368.94
469.534	3442.61
469.906	3470.18
470.278	3509.05
470.65	3566.45
471.022	3619.78
471.394	3722.83
471.766	3714.69
472.138	3799.89
472.51	3834.01
472.882	3880.79
473.253	3902.71
473.625	3974.57
473.997	4033.78
474.369	4119.65
474.74	4156.71
475.112	4248.91
475.484	4291.85
475.855	4378.4
476.227	4444.39
476.598	4527.78
476.97	4573.2
477.341	4694.1
477.713	4721.9
478.084	4725.29
478.455	4952.17
478.827	4926.86
479.198	5051.6
479.569	5095.9
479.94	5225.16
480.311	5276.46
480.682	5432.16
481.053	5529.56
481.424	5594.64
481.795	5635.54
482.166	5719.84
482.537	5841.19
482.908	5926.16
483.279	5978.59
483.65	6084.35
484.021	6162.31
484.391	6256.77
484.762	6326.15
485.133	6391.68
485.503	6483.21
485.874	6609.76
486.244	6660.38
486.615	6812.91
486.985	6909.86
487.356	7014.94
487.726	7053.81
488.097	7209.29
488.467	7251.55
488.837	7430.75
489.207	7517.3
489.578	7570.86
489.948	7623.29
490.318	7732.21
490.688	7808.37
491.058	7959.1
491.428	8087.68
491.798	8136.27
492.168	8250.84
492.538	8327.68
492.908	8438.63
493.278	8538.29
493.648	8589.14
494.017	8713.66
494.387	8733.09
494.757	8842.47
495.126	8904.16
495.496	8983.93
495.866	9019.86
496.235	9146.64
496.605	9199.52
496.974	9267.54
497.344	9396.57
497.713	9442.68
498.082	9511.15
498.452	9602.22
498.821	9665.95
499.19	9679.73
499.559	9807.86
499.928	9924.47
500.298	10009.89
500.667	10023.68
501.036	10047.18
501.405	10076.56
501.774	10125.6
502.143	10337.57
502.512	10363.56
502.88	10441.97
503.249	10435.64
503.618	10508.18
503.987	10625.92
504.356	10658.46
504.724	10707.05
505.093	10849.42
505.462	10837.22
505.83	10989.98
506.199	11054.61
506.567	11118.79
506.936	11187.04
507.304	11353.36
507.672	11400.82
508.041	11417.54
508.409	11558.78
508.777	11669.96
509.145	11757.64
509.514	11733.24
509.882	11895.04
510.25	11849.84
510.618	11957.19
510.986	12050.74
511.354	12141.14
511.722	12308.36
512.09	12378.87
512.458	12395.59
512.826	12495.93
513.193	12553.55
513.561	12649.82
513.929	12812.3
514.297	12841.68
514.664	12968.23
515.032	13060.43
515.4	13142.24
515.767	13179.3
516.135	13274.21
516.502	13327.32
516.869	13546.07
517.237	13555.56
517.604	13572.51
517.972	13721.21
518.339	13881.2
518.706	13926.17
519.073	13992.61
519.44	14151.25
519.808	14211.59
520.175	14293.4
520.542	14488.19
520.909	14541.52
521.276	14561.64
521.643	14779.94
522.009	14791.91
522.376	14856.32
522.743	15107.16
523.11	15228.06
523.477	15401.16
523.843	15497.88
524.21	15671.89
524.577	15709.63
524.943	15733.13
525.31	15905.33
525.676	16111.43
526.043	16218.09
526.409	16313.91
526.776	16375.83
527.142	16461.25
527.508	16616.27
527.874	16781.69
528.241	16818.3
528.607	16930.84
528.973	17153.43
529.339	17133.77
529.705	17310.04
530.071	17402.01
530.437	17570.6
530.803	17571.05
531.169	17797.48
531.535	17756.58
531.901	17866.41
532.267	17851.27
532.632	18090.58
532.998	18157.47
533.364	18245.61
533.73	18326.28
534.095	18458.26
534.461	18511.14
534.826	18605.15
535.192	18704.13
535.557	18815.31
535.923	18795.88
536.288	18891.24
536.653	18995.19
537.019	19044.68
537.384	19112.25
537.749	19161.97
538.114	19339.59
538.479	19305.01
538.845	19467.72
539.21	19445.35
539.575	19567.61
539.94	19655.74
540.305	19762.63
540.67	19849.41
541.034	19893.25
541.399	19908.84
541.764	19935.05
542.129	20103.64
542.494	20078.33
542.858	20190.19
543.223	20296.4
543.587	20381.37
543.952	20412.1
544.316	20319.45
544.681	20422.5
545.045	20617.52
545.41	20642.61
545.774	20876.27
546.138	20721.02
546.503	20803.28
546.867	20939.77
547.231	21154.23
547.595	21135.7
547.959	21205.76
548.324	21229.26
548.688	21306.77
549.052	21387.22
549.416	21476.26
549.779	21568.01
550.143	21562.58
550.507	21716.93
550.871	21768.23
551.235	21797.6
551.599	22023.14
551.962	22050.93
552.326	22103.81
552.689	22263.81
553.053	22161.44
553.417	22323.92
553.78	22646.62
554.143	22455.89
554.507	22673.06
554.87	22694.3
555.234	22886.84
555.597	22721.87
555.96	22940.17
556.323	23049.78
556.686	23156.67
557.05	23239.37
557.413	23350.56
557.776	23438.92
558.139	23556.88
558.502	23678.69
558.865	23694.28
559.228	23978.11
559.59	23974.72
559.953	24094.04
560.316	24248.61
560.679	24194.38
561.041	24375.16
561.404	24471.66
561.767	24699
562.129	24616.97
562.492	24821.71
562.854	24859.22
563.217	24895.38
563.579	24966.11
563.941	25079.1
564.304	25350.96
564.666	25417.62
565.028	25517.96
565.39	25661.01
565.753	25654.68
566.115	25816.03
566.477	25962.69
566.839	26068.45
567.201	26232.06
567.563	26279.07
567.925	26442.45
568.287	26487.2
568.648	26400.65
569.01	26706.63
569.372	26773.29
569.734	26800.41
570.095	26838.15
570.457	27014.19
570.819	27070.23
571.18	27145.94
571.542	27272.72
571.903	27355.88
572.265	27425.71
572.626	27547.28
572.987	27526.04
573.349	27705.02
573.71	27813.27
574.071	27901.4
574.432	27916.31
574.794	28135.07
575.155	28008.97
575.516	27997.89
575.877	28138.23
576.238	28214.16
576.599	28367.6
576.96	28377.32
577.32	28341.84
577.681	28458.67
578.042	28543.87
578.403	28577.77
578.763	28671.77
579.124	28548.84
579.485	28821.37
579.845	28859.79
580.206	28749.06
580.566	28847.36
580.927	28811.21
581.287	29050.52
581.648	28888.49
582.008	29019.56
582.368	28900.69
582.728	29057.3
583.089	28900.02
583.449	28991.09
583.809	29060.01
584.169	29084.87
584.529	28947.02
584.889	29375.03
585.249	29146.56
585.609	29061.14
585.969	29335.49
586.329	29135.04
586.688	29289.84
587.048	29128.71
587.408	29107.47
587.768	29121.93
588.127	29127.81
588.487	29085.1
588.846	29228.37
589.206	29094.81
589.565	29217.3
589.925	29330.29
590.284	29198.54
590.643	29167.81
591.003	29412.77
591.362	29351.53
591.721	29299.55
592.08	29397.18
592.44	29429.49
592.799	29342.94
593.158	29391.08
593.517	29477.85
593.876	29481.02
594.235	29327.35
594.593	29432.43
594.952	29437.63
595.311	29441.92
595.67	29522.15
596.029	29551.3
596.387	29601.24
596.746	29671.75
597.104	29542.71
597.463	29539.77
597.822	29796.49
598.18	29500.91
598.538	29614.35
598.897	29744.06
599.255	29572.32
599.613	30040.55
599.972	29739.09
600.33	29820.9
600.688	29741.58
601.046	29884.62
601.404	29989.71
601.762	29907.67
602.12	30065.64
602.478	30005.75
602.836	30080.1
603.194	29817.28
603.552	29969.14
603.91	29933.44
604.268	30073.09
604.625	29959.88
604.983	30199.87
605.341	30027.67
605.698	30263.6
606.056	30319.41
606.413	30099.53
606.771	30362.58
607.128	30457.04
607.485	30302.92
607.843	30274.44
608.2	30479.18
608.557	30474.89
608.914	30384.72
609.272	30580.65
609.629	30700.42
609.986	30718.05
610.343	30520.54
610.7	30899.29
611.057	30647.09
611.414	30794.66
611.771	30780.42
612.127	30755.34
612.484	30736.58
612.841	31033.52
613.198	30859.97
613.554	30869.68
613.911	31081.88
614.267	31152.61
614.624	31006.63
614.98	31086.4
615.337	31133.18
615.693	31252.95
616.05	31199.17
616.406	31372.04
616.762	31147.64
617.118	31327.3
617.475	31310.8
617.831	31433.06
618.187	31405.71
618.543	31438.26
618.899	31609.1
619.255	31527.07
619.611	31546.73
619.967	31626.05
620.323	31590.34
620.678	31431.48
621.034	31417.69
621.39	31598.03
621.746	31470.34
622.101	31908.53
622.457	31494.3
622.812	31691.81
623.168	31746.5
623.523	31719.83
623.879	31767.06
624.234	31558.7
624.589	31670.11
624.945	31753.95
625.3	31718.7
625.655	31749.43
626.01	31701.07
626.365	31708.98
626.72	31734.07
627.075	31602.54
627.43	31818.36
627.785	31590.34
628.14	31588.31
628.495	31583.34
628.85	31626.27
629.205	31500.63
629.559	31702.66
629.914	31447.29
630.269	31490.01
630.623	31538.14
630.978	31439.39
631.332	31522.32
631.687	31634.63
632.041	31534.3
632.396	31515.54
632.75	31244.36
633.104	31311.25
633.459	31333.63
633.813	31205.04
634.167	31308.77
634.521	31219.96
634.875	31187.41
635.229	31241.2
635.583	31043.24
635.937	31183.12
636.291	31082.11
636.645	31119.39
636.999	30989
637.352	31102.9
637.706	30731.83
638.06	31061.09
638.413	31002.56
638.767	30885.28
639.121	30833.3
639.474	30864.03
639.828	30725.96
640.181	30741.32
640.534	30694.55
640.888	30664.72
641.241	30497.94
641.594	30446.19
641.947	30690.93
642.301	30551.27
642.654	30542.91
643.007	30440.99
643.36	30495.91
643.713	30365.97
644.066	30398.28
644.419	30323.03
644.771	30310.38
645.124	29855.92
645.477	29881.46
645.83	29615.25
646.182	29507.01
646.535	29367.12
646.888	29442.83
647.24	29206.22
647.593	29359.44
647.945	29251.87
648.298	29192.89
648.65	29112.67
649.002	29078.77
649.355	29273.11
649.707	29164.42
650.059	29225.43
650.411	29588.36
650.763	29616.83
651.115	29970.5
651.467	29789.26
651.819	29770.28
652.171	29721.46
652.523	29777.28
652.875	29657.51
653.227	29503.39
653.578	29711.75
653.93	29596.5
654.282	29514.69
654.633	29322.38
654.985	29436.27
655.337	29520.57
655.688	29477.85
656.039	29494.58
656.391	29311.76
656.742	29349.27
657.094	29364.86
657.445	29579.1
657.796	29419.55
658.147	29308.82
658.498	29345.2
658.849	29239.22
659.2	29280.8
659.551	29222.49
659.902	29328.48
660.253	29329.61
660.604	29217.97
660.955	29118.09
661.306	29232.21
661.656	29197.86
662.007	29194.7
662.358	29056.62
662.708	29128.03
663.059	29179.33
663.409	28947.47
663.76	29135.94
664.11	28999
664.461	29019.56
664.811	29063.63
665.161	28981.14
665.511	28945.44
665.862	29035.15
666.212	29014.59
666.562	29021.14
666.912	28986.79
667.262	28898.44
667.612	29021.37
667.962	29039.67
668.312	28937.08
668.662	29030.41
669.011	29022.73
669.361	28892.56
669.711	28911.09
670.06	28811.66
670.41	28709.97
670.76	28708.84
671.109	28918.32
671.459	28756.07
671.808	28697.54
672.157	28755.61
672.507	28590.42
672.856	28620.93
673.205	28617.54
673.554	28636.52
673.904	28670.42
674.253	28777.31
674.602	28686.69
674.951	28307.04
675.3	28064.11
675.649	28528.05
675.998	28518.33
676.346	28464.77
676.695	28531.44
677.044	28319.47
677.393	28478.33
677.741	28490.54
678.09	28253.71
678.438	28234.5
678.787	28429.07
679.135	28391.1
679.484	28221.62
679.832	28179.13
680.181	28053.26
680.529	28254.84
680.877	28069.08
681.225	28105.91
681.573	28262.07
681.922	27947.5
682.27	28025.46
682.618	27922.42
682.966	27902.53
683.314	27956.76
683.661	27838.12
684.009	27682.2
684.357	27663.67
684.705	27633.61
685.053	27704.12
685.4	27627.51
685.748	27406.95
686.095	27542.99
686.443	27351.58
686.79	27284.69
687.138	27294.86
687.485	27366.5
687.832	27191.36
688.18	27303.45
688.527	27161.98
688.874	26999.28
689.221	26951.14
689.568	26921.76
689.915	26901.88
690.262	26868.21
690.609	26904.36
690.956	26820.07
691.303	26743.92
691.65	26551.38
691.997	26560.42
692.344	26513.41
692.69	26312.29
693.037	26353.19
693.383	26167.21
693.73	26203.36
694.077	26114.33
694.423	26124.27
694.769	26036.36
695.116	25997.04
695.462	25954.33
695.808	25829.82
696.155	25863.03
696.501	25666.66
696.847	25650.16
697.193	25474.8
697.539	25605.87
697.885	25276.38
698.231	25348.7
698.577	25361.58
698.923	25240
699.269	25208.36
699.614	25093.79
699.96	24929.95
700.306	24929.05
700.651	24863.74
700.997	24798.88
701.342	24742.39
701.688	24796.85
702.033	24584.65
702.379	24621.03
702.724	24535.16
703.069	24666.46
703.415	24337.43
703.76	24367.48
704.105	24302.85
704.45	24273.47
704.795	24064.89
705.14	24023.53
705.485	24078.45
705.83	24068.51
706.175	23931.33
706.52	23775.86
706.865	23871.67
707.209	23757.78
707.554	23708.74
707.899	23678.91
708.243	23546.03
708.588	23578.12
708.932	23290.22
709.277	23433.49
709.621	23416.32
709.966	23347.85
710.31	23320.5
710.654	23075.09
710.998	23200.51
711.342	23169.09
711.687	23077.12
712.031	22984.01
712.375	22881.87
712.719	22993.28
713.063	22867.86
713.407	22929.1
713.75	22742.44
714.094	22807.3
714.438	22679.39
714.782	22790.35
715.125	22567.75
715.469	22658.15
715.812	22575.44
716.156	22469
716.499	22342.45
716.843	22519.62
717.186	22283.24
717.53	22443.46
717.873	22383.58
718.216	22373.18
718.559	22139.06
718.902	22050.03
719.246	22175
719.589	22050.93
719.932	22020.88
720.275	22046.64
720.617	21970.93
720.96	21937.26
721.303	21868.34
721.646	21866.08
721.989	21781.33
722.331	21900.88
722.674	21702.92
723.016	21812.75
723.359	21713.09
723.701	21749.24
724.044	21609.59
724.386	21500.21
724.729	21497.73
725.071	21473.55
725.413	21468.35
725.755	21391.51
726.097	21325.3
726.439	21257.28
726.782	21249.37
727.124	21300.22
727.465	21145.42
727.807	21275.36
728.149	21189.03
728.491	21172.31
728.833	21055.93
729.175	21082.37
729.516	21123.05
729.858	21020.45
730.199	21020.9
730.541	20920.79
730.882	20922.6
731.224	20853.45
731.565	20805.09
731.906	20881.7
732.248	20799.66
732.589	20675.6
732.93	20705.2
733.271	20730.74
733.612	20637.64
733.953	20667.92
734.294	20629.27
734.635	20532.55
734.976	20473.8
735.317	20517.64
735.658	20441.48
735.999	20461.14
736.339	20321.49
736.68	20433.8
737.021	20390.41
737.361	20151.09
737.702	20338.89
738.042	20258.66
738.383	20234.71
738.723	20265.44
739.063	20239
739.404	20163.3
739.744	20048.27
740.084	19986.13
740.424	20086.46
740.764	20026.8
741.104	20065.45
741.444	19829.29
741.784	19882.63
742.124	19886.69
742.464	19842.85
742.804	19790.2
743.143	19862.29
743.483	19787.94
743.823	19604.89
744.162	19578.68
744.502	19643.09
744.841	19622.97
745.181	19673.14
745.52	19625.46
745.86	19571.45
746.199	19547.72
746.538	19489.42
746.877	19542.97
747.216	19517.44
747.556	19440.15
747.895	19411
748.234	19364.22
748.573	19305.01
748.911	19292.13
749.25	19240.16
749.589	19030.67
749.928	19180.05
750.267	19149.09
750.605	19067.96
750.944	19097.11
751.283	18922.88
751.621	19071.8
751.96	18857.57
752.298	18853.73
752.636	18863.22
752.975	18711.81
753.313	18686.5
753.651	18791.58
753.989	18653.96
754.327	18694.18
754.666	18491.7
755.004	18563.57
755.342	18513.4
755.679	18606.05
756.017	18393.63
756.355	18527.86
756.693	18414.19
757.031	18376
757.368	18289.67
757.706	18250.13
758.044	18144.37
758.381	18255.55
758.719	18200.41
759.056	18084.71
759.394	18080.41
759.731	17916.8
760.068	18037.7
760.405	17905.73
760.743	17832.29
761.08	17909.8
761.417	17776.24
761.754	17638.39
762.091	17658.5
762.428	17562.91
762.765	17568.79
763.102	17585.51
763.438	17430.94
763.775	17402.01
764.112	17377.83
764.449	17403.37
764.785	17329.25
765.122	17119.08
765.458	17033.89
765.795	17099.42
766.131	16992.08
766.467	16930.16
766.804	16998.63
767.14	16847.23
767.476	16871.41
767.812	16778.08
768.148	16734.91
768.485	16634.12
768.821	16587.35
769.157	16511.64
769.492	16502.6
769.828	16475.94
770.164	16294.7
770.5	16241.14
770.836	16300.12
771.171	16168.6
771.507	16141.26
771.842	16055.61
772.178	15942.62
772.513	15940.58
772.849	15968.61
773.184	15845.22
773.519	15854.94
773.855	15780.59
774.19	15726.58
774.525	15710.99
774.86	15659.69
775.195	15637.99
775.53	15529.3
775.865	15410.2
776.2	15249.3
776.535	15289.08
776.87	15340.6
777.205	15193.03
777.539	14941.06
777.874	15105.8
778.209	15012.92
778.543	14985.35
778.878	14884.57
779.212	14955.07
779.547	14805.47
779.881	14807.28
780.215	14652.03
780.55	14759.15
780.884	14686.38
781.218	14596.66
781.552	14572.48
781.886	14502.88
782.22	14407.06
782.554	14374.3
782.888	14219.72
783.222	14137.47
783.556	14278.93
783.889	14116.45
784.223	14096.79
784.557	13941.99
784.89	14061.09
785.224	13957.36
785.557	13878.72
785.891	13830.13
786.224	13752.17
786.558	13809.79
786.891	13668.78
787.224	13645.73
787.557	13594.88
787.891	13612.96
788.224	13496.35
788.557	13539.29
788.89	13488.44
789.223	13470.82
789.556	13297.94
789.888	13302.01
790.221	13303.82
790.554	13064.28
790.887	13159.87
791.219	13126.65
791.552	13153.09
791.884	12954.45
792.217	12976.14
792.549	12940.44
792.882	12844.85
793.214	12760.33
793.546	12821.8
793.879	12706.77
794.211	12638.3
794.543	12713.1
794.875	12631.74
795.207	12690.5
795.539	12512.43
795.871	12520.79
796.203	12445.99
796.535	12458.19
796.867	12356.27
797.198	12263.39
797.53	12408.02
797.862	12260.91
798.193	12210.96
798.525	12218.42
798.856	12139.55
799.188	12071.76
799.519	12113.57
799.85	12026.11
800.182	12086.67
800.513	11979.56
800.844	11871.99
801.175	11959.67
801.506	11895.27
801.837	11804.2
802.168	11838.77
802.499	11785.66
802.83	11693.24
803.161	11686.68
803.491	11684.2
803.822	11636.74
804.153	11650.3
804.483	11481.72
804.814	11457.31
805.145	11398.1
805.475	11495.73
805.805	11399.23
806.136	11417.31
806.466	11348.39
806.796	11324.89
807.126	11253.02
807.457	11263.87
807.787	11171.44
808.117	11265.23
808.447	11102.97
808.777	11189.52
809.107	11098
809.436	11122.18
809.766	11043.09
810.096	11030.88
810.426	11001.5
810.755	11045.35
811.085	10982.3
811.414	10894.84
811.744	10841.28
812.073	10879.7
812.403	10802.41
812.732	10801.51
813.061	10860.94
813.39	10661.17
813.719	10735.97
814.049	10707.27
814.378	10683.77
814.707	10612.59
815.036	10633.6
815.365	10519.48
815.693	10502.31
816.022	10494.63
816.351	10468.41
816.68	10402.2
817.008	10433.61
817.337	10412.59
817.665	10375.31
817.994	10387.51
818.322	10399.49
818.651	10321.07
818.979	10253.5
819.307	10325.14
819.636	10262.99
819.964	10235.65
820.292	10263.9
820.62	10247.17
820.948	10172.83
821.276	10206.72
821.604	10231.13
821.932	10263.22
822.259	10139.83
822.587	10205.14
822.915	10178.25
823.243	10184.35
823.57	10154.3
823.898	10130.11
824.225	10119.95
824.553	10119.27
824.88	10084.01
825.207	10152.49
825.535	10084.69
825.862	10153.39
826.189	10135.99
826.516	10160.85
826.843	10144.58
827.17	10225.48
827.497	10257.12
827.824	10220.28
828.151	10222.54
828.478	10154.07
828.805	10253.05
829.131	10170.11
829.458	10177.35
829.785	10106.61
830.111	10175.54
830.438	10179.38
830.764	10126.05
831.09	10119.72
831.417	10052.83
831.743	10111.58
832.069	10097.35
832.395	10128.08
832.722	10084.01
833.048	10107.97
833.374	10087.63
833.7	10075.88
834.026	10074.07
834.351	10033.17
834.677	10052.6
835.003	10062.77
835.329	9982.32
835.654	10100.06
835.98	9997.69
836.306	10047.18
836.631	9974.19
836.956	10029.55
837.282	9955.43
837.607	9974.19
837.932	9841.99
838.258	9922.66
838.583	9901.65
838.908	9774.64
839.233	9856.22
839.558	9783.46
839.883	9771.93
840.208	9745.04
840.533	9750.46
840.858	9783.68
841.182	9774.64
841.507	9733.29
841.832	9698.04
842.156	9587.08
842.481	9650.58
842.805	9634.99
843.13	9608.32
843.454	9557.47
843.778	9559.28
844.103	9533.97
844.427	9469.12
844.751	9543.24
845.075	9519.28
845.399	9491.49
845.723	9408.33
846.047	9399.06
846.371	9362
846.695	9305.28
847.019	9290.14
847.343	9227.77
847.666	9225.05
847.99	9183.93
848.313	9172.4
848.637	9108.45
848.96	9052.18
849.284	9015.79
849.607	8984.16
849.931	8947.77
850.254	8925.85
850.577	8860.77
850.9	8839.3
851.223	8766.99
851.546	8740.77
851.869	8715.46
852.192	8790.94
852.515	8672.07
852.838	8669.81
853.161	8638.85
853.483	8609.25
853.806	8542.59
854.129	8515.47
854.451	8471.63
854.774	8465.53
855.096	8444.06
855.419	8454.23
855.741	8417.84
856.063	8301.91
856.385	8355.25
856.708	8291.29
857.03	8261.92
857.352	8315.7
857.674	8216.72
857.996	8246.55
858.318	8201.58
858.64	8154.12
858.961	8134.46
859.283	8142.14
859.605	8116.83
859.926	8168.36
860.248	8100.79
860.57	8088.36
860.891	8037.06
861.212	8021.02
861.534	8020.79
861.855	8009.94
862.176	8011.53
862.498	8026.67
862.819	7956.16
863.14	7984.18
863.461	7951.87
863.782	7880.91
864.103	7877.97
864.424	7898.31
864.745	7910.74
865.065	7880.91
865.386	7829.16
865.707	7807.46
866.027	7832.1
866.348	7858.08
866.668	7815.15
866.989	7790.52
867.309	7794.81
867.63	7647.24
867.95	7736.96
868.27	7723.4
868.59	7702.61
868.91	7639.11
869.23	7614.7
869.55	7629.16
869.87	7616.96
870.19	7628.03
870.51	7678.65
870.83	7598.2
871.15	7513.91
871.469	7596.85
871.789	7563.63
872.109	7589.16
872.428	7561.82
872.748	7574.25
873.067	7513.01
873.386	7530.18
873.706	7485.89
874.025	7455.61
874.344	7448.38
874.663	7466.23
874.982	7465.33
875.301	7471.88
875.62	7379.45
875.939	7426.01
876.258	7421.03
876.577	7426.91
876.896	7378.77
877.214	7402.05
877.533	7389.85
877.852	7336.06
878.17	7352.79
878.489	7343.07
878.807	7364.99
879.125	7324.31
879.444	7286.8
879.762	7272.79
880.08	7266.91
880.398	7244.09
880.716	7233.02
881.034	7226.91
881.352	7226.01
881.67	7195.05
881.988	7236.63
882.306	7176.75
882.624	7166.35
882.941	7139.23
883.259	7154.37
883.577	7046.58
883.894	7083.42
884.212	7087.71
884.529	7073.25
884.846	7038.22
885.164	7050.2
885.481	7071.21
885.798	7028.95
886.115	6977.43
886.432	7035.51
886.75	6986.02
887.067	7017.65
887.383	6936.53
887.7	6918.22
888.017	6925.23
888.334	6945.34
888.651	6845
888.967	6856.08
889.284	6851.78
889.6	6780.15
889.917	6743.99
890.233	6747.15
890.55	6781.73
890.866	6698.34
891.182	6752.58
891.498	6683.65
891.815	6680.94
892.131	6661.51
892.447	6648.62
892.763	6629.64
893.079	6586.48
893.395	6584.67
893.71	6562.07
894.026	6571.56
894.342	6529.08
894.657	6517.33
894.973	6462.41
895.289	6470.55
895.604	6484.79
895.92	6486.14
896.235	6365.02
896.55	6442.53
896.865	6408.4
897.181	6407.73
897.496	6311.46
897.811	6345.58
898.126	6289.54
898.441	6254.74
898.756	6286.15
899.071	6181.29
899.386	6210.67
899.7	6154.17
900.015	6134.97
900.33	6143.78
900.644	6099.94
900.959	6111.01
901.273	6116.89
901.588	6071.69
901.902	6057.91
902.216	5993.73
902.531	5965.03
902.845	5918.25
903.159	5991.47
903.473	5934.07
903.787	5894.07
904.101	5905.14
904.415	5890.9
904.729	5859.27
905.042	5780.4
905.356	5770
905.67	5770
905.984	5767.74
906.297	5773.17
906.611	5786.95
906.924	5728.87
907.237	5688.88
907.551	5669.44
907.864	5653.62
908.177	5689.55
908.491	5623.11
908.804	5613.62
909.117	5572.49
909.43	5534.3
909.743	5564.59
910.056	5502.21
910.368	5525.94
910.681	5443.68
910.994	5436.23
911.307	5373.18
911.619	5384.7
911.932	5412.72
912.244	5314.87
912.557	5402.1
912.869	5356.68
913.181	5316.91
913.494	5346.06
913.806	5236.46
914.118	5269.23
914.43	5246.4
914.742	5235.33
915.054	5170.25
915.366	5195.1
915.678	5196.01
915.99	5170.92
916.302	5071.26
916.613	5096.58
916.925	5036.92
917.236	5037.82
917.548	4998.95
917.859	4987.88
918.171	4991.95
918.482	4961.44
918.794	4970.7
919.105	4935
919.416	4928.9
919.727	4901.55
920.038	4861.55
920.349	4857.26
920.66	4807.54
920.971	4796.92
921.282	4827.2
921.593	4735.91
921.903	4742.91
922.214	4771.61
922.525	4716.7
922.835	4681.22
923.146	4699.07
923.456	4659.75
923.767	4616.59
924.077	4654.78
924.387	4555.35
924.697	4576.81
925.008	4561.45
925.318	4528.23
925.628	4569.81
925.938	4521.45
926.248	4469.92
926.558	4462.69
926.867	4491.85
927.177	4445.29
927.487	4412.07
927.796	4385.86
928.106	4383.83
928.416	4391.51
928.725	4368.01
929.034	4318.52
929.344	4297.95
929.653	4296.6
929.962	4294.79
930.271	4258.4
930.581	4217.73
930.89	4180.21
931.199	4190.16
931.508	4163.94
931.817	4205.75
932.125	4187.9
932.434	4208.01
932.743	4123.95
933.051	4105.64
933.36	4073.1
933.669	4039.43
933.977	4057.05
934.286	4073.1
934.594	4067.9
934.902	4008.47
935.21	3974.8
935.519	4024.51
935.827	3974.34
936.135	3904.97
936.443	3907.68
936.751	3880.34
937.059	3892.09
937.367	3902.03
937.674	3886.66
937.982	3848.02
938.29	3843.5
938.597	3800.79
938.905	3813.67
939.213	3843.73
939.52	3767.12
939.827	3772.54
940.135	3759.66
940.442	3695.71
940.749	3729.38
941.056	3742.26
941.363	3669.04
941.67	3681.02
941.977	3657.52
942.284	3637.4
942.591	3642.6
942.898	3587.46
943.205	3521.48
943.511	3561.47
943.818	3587.91
944.125	3568.93
944.431	3540.68
944.738	3540.46
945.044	3450.97
945.35	3509.05
945.657	3490.97
945.963	3475.83
946.269	3442.38
946.575	3406
946.881	3430.4
947.187	3426.34
947.493	3416.62
947.799	3401.25
948.105	3341.37
948.41	3350.41
948.716	3339.33
949.022	3330.52
949.327	3322.38
949.633	3274.93
949.938	3296.4
950.244	3273.8
950.549	3243.29
950.854	3238.32
951.16	3246
951.465	3202.61
951.77	3236.51
952.075	3153.35
952.38	3136.85
952.685	3150.64
952.99	3150.41
953.294	3124.88
953.599	3146.8
953.904	3121.94
954.209	3075.84
954.513	3096.63
954.818	3063.86
955.122	3054.14
955.426	3049.85
955.731	3043.52
956.035	3020.47
956.339	3027.93
956.643	3033.35
956.948	2962.39
957.252	2968.5
957.556	2957.42
957.86	2934.37
958.163	2932.79
958.467	2929.17
958.771	2912.9
959.075	2904.99
959.378	2893.47
959.682	2835.39
959.985	2853.02
960.289	2871.1
960.592	2866.8
960.896	2839.01
961.199	2822.96
961.502	2793.81
961.805	2802.17
962.108	2783.87
962.411	2782.29
962.714	2768.05
963.017	2740.03
963.32	2725.11
963.623	2731.89
963.926	2728.73
964.228	2704.1
964.531	2690.08
964.833	2660.25
965.136	2669.97
965.438	2673.59
965.741	2656.87
966.043	2662.06
966.345	2609.86
966.648	2595.62
966.95	2623.42
967.252	2580.93
967.554	2595.62
967.856	2579.13
968.158	2567.38
968.46	2546.59
968.761	2559.69
969.063	2549.3
969.365	2514.04
969.666	2519.69
969.968	2501.84
970.269	2500.26
970.571	2493.03
970.872	2505.91
971.174	2477.89
971.475	2473.37
971.776	2419.13
972.077	2444.89
972.378	2437.21
972.679	2397.44
972.98	2438.79
973.281	2386.14
973.582	2361.73
973.883	2405.8
974.183	2389.08
974.484	2379.13
974.785	2333.94
975.085	2335.07
975.386	2340.26
975.686	2344.78
975.986	2306.82
976.287	2289.42
976.587	2296.42
976.887	2273.15
977.187	2269.76
977.487	2246.25
977.787	2230.21
978.087	2260.49
978.387	2210.1
978.687	2215.52
978.987	2221.85
979.286	2215.52
979.586	2206.71
979.885	2199.25
980.185	2167.61
980.484	2187.95
980.784	2153.38
981.083	2149.76
981.382	2134.17
981.682	2109.08
981.981	2146.82
982.28	2112.92
982.579	2124.45
982.878	2090.1
983.177	2091.68
983.475	2056.2
983.774	2072.02
984.073	2058.69
984.372	2054.62
984.67	2025.92
984.969	2028.86
985.267	2034.51
985.566	2037.22
985.864	2015.3
986.162	2053.49
986.461	1988.18
986.759	1980.95
987.057	1958.13
987.355	1990.67
987.653	1967.62
987.951	1960.16
988.249	1952.93
988.547	1975.3
988.844	1947.05
989.142	1928.97
989.44	1925.13
989.737	1908.18
990.035	1892.82
990.332	1890.56
990.63	1863.89
990.927	1881.29
991.224	1874.29
991.521	1864.34
991.819	1842.42
992.116	1846.72
992.413	1839.03
992.71	1813.27
993.006	1802.2
993.303	1792.03
993.6	1792.48
993.897	1780.5
994.193	1733.5
994.49	1787.74
994.787	1785.02
995.083	1759.04
995.379	1741.86
995.676	1740.96
995.972	1735.08
996.268	1728.75
996.565	1715.65
996.861	1707.74
997.157	1705.25
997.453	1686.04
997.749	1676.33
998.044	1679.04
998.34	1684.91
998.636	1660.51
998.932	1679.04
999.227	1678.81
999.523	1628.64
999.818	1652.82
1000.114	1632.94
1000.409	1607.18
1000.704	1602.43
1001	1611.47
1001.295	1602.66
1001.59	1606.05
1001.885	1597.91
1002.18	1546.39
1002.475	1552.04
1002.77	1567.85
1003.065	1534.86
1003.359	1549.1
1003.654	1536.67
1003.949	1523.34
1004.243	1521.53
1004.538	1510.91
1004.832	1498.48
1005.127	1495.54
1005.421	1490.57
1005.715	1470.91
1006.009	1497.12
1006.304	1486.05
1006.598	1479.49
1006.892	1441.53
1007.186	1457.35
1007.48	1429.78
1007.773	1452.6
1008.067	1431.81
1008.361	1417.8
1008.655	1377.35
1008.948	1386.84
1009.242	1385.94
1009.535	1382.77
1009.829	1391.36
1010.122	1371.25
1010.415	1370.12
1010.708	1356.33
1011.001	1335.54
1011.295	1326.05
1011.588	1322.66
1011.881	1336.45
1012.173	1310.69
1012.466	1323.57
1012.759	1281.76
1013.052	1320.18
1013.344	1279.05
1013.637	1288.77
1013.93	1280.4
1014.222	1270.23
1014.514	1281.99
1014.807	1268.43
1015.099	1256.68
1015.391	1244.92
1015.683	1215.1
1015.976	1243.79
1016.268	1248.31
1016.56	1220.07
1016.851	1191.37
1017.143	1190.24
1017.435	1214.42
1017.727	1170.35
1018.018	1181.65
1018.31	1208.54
1018.602	1171.48
1018.893	1151.59
1019.185	1158.37
1019.476	1176
1019.767	1140.52
1020.058	1171.25
1020.35	1133.52
1020.641	1130.58
1020.932	1134.42
1021.223	1108.88
1021.514	1092.84
1021.804	1080.64
1022.095	1085.16
1022.386	1096.23
1022.677	1068.21
1022.967	1074.76
1023.258	1063.01
1023.548	1092.61
1023.839	1073.63
1024.129	1054.2
1024.419	1049.9
1024.709	1044.03
1025	1027.08
1025.29	1018.94
1025.58	1004.25
1025.87	988.89
1026.16	1009.45
1026.449	1005.84
1026.739	975.78
1027.029	971.71
1027.319	1001.77
1027.608	972.39
1027.898	983.69
1028.187	959.06
1028.477	962.45
1028.766	969.23
1029.055	967.87
1029.344	960.41
1029.634	959.28
1029.923	946.85
1030.212	934.42
1030.501	919.96
1030.79	907.31
1031.078	914.99
1031.367	911.15
1031.656	895.56
1031.945	907.53
1032.233	927.65
1032.522	882.67
1032.81	869.79
1033.099	855.1
1033.387	875.67
1033.675	899.4
1033.963	860.3
1034.251	849.46
1034.54	825.95
1034.828	830.25
1035.116	838.38
1035.403	852.17
1035.691	835.44
1035.979	831.6
1036.267	807.87
1036.554	816.91
1036.842	824.82
1037.129	801.09
1037.417	805.39
1037.704	802
1037.992	804.48
1038.279	799.29
1038.566	769.91
1038.853	769.91
1039.14	769.91
