Data from breadboard_white_FLMS001491_00054.txt Node
Date: Wed Feb 08 10:47:56 GMT 2017
User: dcchb
Spectrometer: FLMS00149
Trigger mode: 0
Integration Time (sec): 2.000000E-2
Scans to average: 10
Electric dark correction enabled: true
Nonlinearity correction enabled: false
Boxcar width: 0
XAxis mode: Wavelengths
Number of Pixels in Spectrum: 2048
>>>>>Begin Spectral Data<<<<<
341.393	-4.43
341.776	-4.43
342.16	-4.43
342.543	-62.06
342.927	-68.84
343.31	-63.42
343.693	-61.83
344.077	-79.01
344.46	-84.43
344.843	-43.98
345.226	-44.89
345.61	-29.52
345.993	-30.2
346.376	1.21
346.759	23.59
347.142	20.88
347.525	63.36
347.908	58.84
348.291	69.91
348.674	86.18
349.057	113.3
349.44	124.15
349.823	122.34
350.206	149.23
350.588	217.25
350.971	225.62
351.354	243.69
351.737	262.22
352.119	275.78
352.502	295.67
352.884	302
353.267	294.31
353.65	319.62
354.032	317.36
354.414	317.82
354.797	327.08
355.179	323.24
355.562	328.44
355.944	341.32
356.326	342.45
356.709	336.8
357.091	339.96
357.473	363.01
357.855	359.17
358.238	377.7
358.62	364.37
359.002	345.61
359.384	360.75
359.766	377.7
360.148	381.54
360.53	368.21
360.912	350.58
361.294	367.76
361.676	356.91
362.057	384.03
362.439	391.71
362.821	351.94
363.203	366.18
363.584	357.82
363.966	355.33
364.348	355.78
364.729	359.85
365.111	369.34
365.493	341.09
365.874	347.65
366.256	344.93
366.637	351.26
367.019	334.77
367.4	362.34
367.781	363.47
368.163	344.93
368.544	354.88
368.925	353.52
369.306	360.98
369.688	369.34
370.069	349.68
370.45	355.1
370.831	346.06
371.212	359.17
371.593	373.41
371.974	360.53
372.355	346.74
372.736	361.43
373.117	371.6
373.498	383.58
373.879	371.15
374.26	386.74
374.641	355.1
375.021	356.23
375.402	365.27
375.783	392.84
376.163	401.66
376.544	386.06
376.925	380.64
377.305	392.16
377.686	381.54
378.066	363.69
378.447	412.28
378.827	405.27
379.208	383.8
379.588	412.05
379.968	406.4
380.349	397.59
380.729	410.92
381.109	408.66
381.489	409.11
381.87	420.86
382.25	419.96
382.63	428.55
383.01	408.89
383.39	443.69
383.77	443.91
384.15	432.16
384.53	431.71
384.91	447.3
385.29	443.24
385.67	450.02
386.049	450.47
386.429	458.83
386.809	481.43
387.189	459.28
387.568	470.58
387.948	477.36
388.328	489.11
388.707	471.48
389.087	497.7
389.466	501.54
389.846	495.89
390.225	528.66
390.605	506.51
390.984	515.55
391.363	538.38
391.743	535.66
392.122	529.11
392.501	530.24
392.881	544.7
393.26	548.77
393.639	570.47
394.018	544.25
394.397	568.88
394.776	569.56
395.155	580.41
395.534	583.57
395.913	591.48
396.292	620.41
396.671	631.71
397.05	637.13
397.429	635.32
397.808	630.12
398.186	645.72
398.565	654.53
398.944	661.99
399.323	657.24
399.701	678.94
400.08	683.91
400.458	719.84
400.837	714.42
401.215	731.14
401.594	723.23
401.972	732.04
402.351	734.3
402.729	775.21
403.107	772.27
403.486	786.73
403.864	813.17
404.242	804.13
404.62	825.37
404.999	843.45
405.377	864.92
405.755	868.08
406.133	876.9
406.511	916.44
406.889	917.57
407.267	928.87
407.645	944.69
408.023	977.91
408.401	979.49
408.779	1020.62
409.156	1014.3
409.534	1042.77
409.912	1033.73
410.29	1088.64
410.667	1113.05
411.045	1138.36
411.422	1183.56
411.8	1164.57
412.178	1197.57
412.555	1234.85
412.933	1240.28
413.31	1233.72
413.687	1281.86
414.065	1313.04
414.442	1312.82
414.819	1337.68
415.197	1362.31
415.574	1387.84
415.951	1412.03
416.328	1437.79
416.705	1430.78
417.082	1454.28
417.46	1493.38
417.837	1532.47
418.214	1516.66
418.591	1539.93
418.967	1525.92
419.344	1576.09
419.721	1606.6
420.098	1638.23
420.475	1668.97
420.852	1647.5
421.228	1674.62
421.605	1718.68
421.982	1721.4
422.358	1751.23
422.735	1797.78
423.111	1784.9
423.488	1818.12
423.864	1837.55
424.241	1874.39
424.617	1902.18
424.994	1908.06
425.37	1915.06
425.746	1942.41
426.123	1946.02
426.499	1961.84
426.875	2032.8
427.251	2047.49
427.627	2094.49
428.003	2139.24
428.379	2147.37
428.756	2179.01
429.132	2224.21
429.507	2264.43
429.883	2272.79
430.259	2347.59
430.635	2333.58
431.011	2370.42
431.387	2419
431.763	2469.4
432.138	2440.02
432.514	2516.85
432.89	2539.9
433.265	2587.81
433.641	2634.37
434.016	2628.49
434.392	2685.44
434.767	2753.91
435.143	2740.13
435.518	2812.21
435.894	2807.69
436.269	2867.81
436.644	2931.76
437.02	2923.62
437.395	2956.62
437.77	2998.2
438.145	3032.32
438.52	3063.28
438.895	3100.79
439.271	3093.56
439.646	3176.72
440.021	3207.23
440.395	3215.14
440.77	3230.28
441.145	3263.05
441.52	3352.09
441.895	3312.77
442.27	3404.06
442.645	3390.5
443.019	3446.32
443.394	3423.5
443.769	3491.97
444.143	3455.14
444.518	3523.16
444.892	3528.13
445.267	3534.46
445.641	3555.25
446.016	3627.79
446.39	3646.99
446.764	3649.93
447.139	3702.81
447.513	3723.38
447.887	3761.57
448.262	3775.8
448.636	3785.07
449.01	3842.7
449.384	3897.84
449.758	3941.9
450.132	3984.61
450.506	3975.35
450.88	3969.92
451.254	4000.43
451.628	4087.43
452.002	4126.98
452.376	4202.46
452.75	4225.96
453.123	4246.07
453.497	4343.47
453.871	4363.59
454.244	4455.11
454.618	4531.72
454.992	4531.94
455.365	4550.7
455.739	4693.97
456.112	4756.8
456.486	4763.8
456.859	4838.38
457.232	4914.76
457.606	4856.68
457.979	4960.18
458.352	5091.7
458.725	5119.05
459.099	5185.26
459.472	5327.18
459.845	5331.24
460.218	5385.71
460.591	5423.44
460.964	5456.21
461.337	5636.55
461.71	5687.84
462.083	5800.61
462.456	5811.91
462.829	5807.39
463.201	5914.05
463.574	5946.14
463.947	6139.36
464.32	6225.46
464.692	6219.58
465.065	6254.38
465.438	6358.34
465.81	6430.65
466.183	6545.45
466.555	6689.17
466.928	6733.02
467.3	6723.75
467.672	6861.15
468.045	7022.27
468.417	7026.79
468.789	7142.72
469.161	7228.37
469.534	7310.4
469.906	7558.53
470.278	7533.67
470.65	7625.87
471.022	7783.38
471.394	8012.76
471.766	8040.78
472.138	8161.68
472.51	8312.86
472.882	8418.62
473.253	8491.16
473.625	8677.6
473.997	8812.28
474.369	8922.11
474.74	9034.65
475.112	9179.73
475.484	9315.55
475.855	9509.89
476.227	9671.92
476.598	9921.18
476.97	9968.86
477.341	10133.38
477.713	10366.37
478.084	10445.23
478.455	10593.7
478.827	10879.12
479.198	11099.45
479.569	11108.72
479.94	11431.87
480.311	11564.75
480.682	11883.84
481.053	12088.13
481.424	12254.9
481.795	12434.33
482.166	12595.23
482.537	12802.46
482.908	13115.9
483.279	13227.99
483.65	13511.14
484.021	13718.59
484.391	13844.92
484.762	14005.82
485.133	14077
485.503	14327.17
485.874	14587.5
486.244	14843.76
486.615	15109.29
486.985	15247.14
487.356	15550.86
487.726	15700.46
488.097	16073.11
488.467	16082.83
488.837	16379.99
489.207	16580.21
489.578	16781.34
489.948	17033.08
490.318	17332.28
490.688	17276.92
491.058	17593.52
491.428	17881.42
491.798	18047.75
492.168	18378.81
492.538	18522.31
492.908	18688.86
493.278	18973.82
493.648	19065.57
494.017	19267.15
494.387	19487.48
494.757	19622.62
495.126	19943.97
495.496	19908.26
495.866	20143.51
496.235	20439.32
496.605	20523.16
496.974	20587.57
497.344	20813.77
497.713	20955.01
498.082	21083.6
498.452	21363.36
498.821	21456.7
499.19	21512.06
499.559	21776.46
499.928	22020.3
500.298	22108.43
500.667	22375.32
501.036	22413.05
501.405	22517.46
501.774	22518.14
502.143	22893.95
502.512	22999.25
502.88	23130.32
503.249	23198.57
503.618	23527.83
503.987	23531.67
504.356	23794.94
504.724	23831.77
505.093	24064.54
505.462	24041.03
505.83	24306.79
506.199	24588.36
506.567	24851.63
506.936	24887.79
507.304	25133.21
507.672	25393.54
508.041	25431.96
508.409	25698.84
508.777	25888.44
509.145	26060.64
509.514	25957.59
509.882	26366.62
510.25	26416.34
510.618	26668.54
510.986	26801.19
511.354	27040.96
511.722	27234.62
512.09	27450.44
512.458	27495.86
512.826	27770.65
513.193	27905.11
513.561	28069.4
513.929	28372.45
514.297	28580.35
514.664	28841.36
515.032	28939.44
515.4	29173.55
515.767	29348.24
516.135	29440.44
516.502	29223.27
516.869	29913.65
517.237	30096.69
517.604	29988.45
517.972	30414.88
518.339	30628.66
518.706	30702.33
519.073	30947.52
519.44	31235.2
519.808	31606.49
520.175	31643.55
520.542	31984.78
520.909	32244.43
521.276	32208.73
521.643	32591.54
522.009	32949.27
522.376	33032.66
522.743	33258.65
523.11	33596.94
523.477	33930.49
523.843	34050.71
524.21	34593.98
524.577	34705.84
524.943	34930.01
525.31	35055.21
525.676	35456.1
526.043	35658.13
526.409	35874.17
526.776	36156.87
527.142	36285.23
527.508	36606.81
527.874	36821.72
528.241	37069.17
528.607	37171.99
528.973	37496.5
529.339	37609.94
529.705	37900.56
530.071	38275.24
530.437	38501.45
530.803	38654.66
531.169	38885.62
531.535	38845.17
531.901	39077.48
532.267	39329.45
532.632	39523.57
532.998	39550.23
533.364	39940.73
533.73	39997
534.095	40261.85
534.461	40528.06
534.826	40772.8
535.192	40681.5
535.557	41052.79
535.923	40997.2
536.288	41204.88
536.653	41352.22
537.019	41456.4
537.384	41716.05
537.749	41812.54
538.114	42096.83
538.479	42143.16
538.845	42315.81
539.21	42238.07
539.575	42540.44
539.94	42601
540.305	42858.39
540.67	42886.87
541.034	43054.55
541.399	43280.3
541.764	43272.62
542.129	43664.02
542.494	43729.1
542.858	43779.72
543.223	43941.98
543.587	44287.96
543.952	43973.17
544.316	44279.37
544.681	44293.16
545.045	44635.52
545.41	44672.58
545.774	44868.51
546.138	44932.91
546.503	44911.22
546.867	45073.7
547.231	45350.3
547.595	45409.29
547.959	45539.9
548.324	45598.43
548.688	45766.11
549.052	46020.12
549.416	46108.25
549.779	46205.88
550.143	46275.03
550.507	46588.92
550.871	46733.55
551.235	46719.99
551.599	47040.66
551.962	46971.73
552.326	47223.7
552.689	47331.72
553.053	47367.43
553.417	47468.89
553.78	47955.21
554.143	47830.92
554.507	48036.56
554.87	48280.62
555.234	48570.11
555.597	48390
555.96	48537.57
556.323	48740.27
556.686	48745.47
557.05	49036.54
557.413	49195.4
557.776	49177.32
558.139	49562.4
558.502	49494.83
558.865	49727.14
559.228	49942.73
559.59	50058.43
559.953	50166.22
560.316	50527.57
560.679	50549.49
561.041	50664.06
561.404	50888.24
561.767	51104.28
562.129	51032.87
562.492	51358.51
562.854	51345.85
563.217	51390.82
563.579	51459.3
563.941	51747.88
564.304	51854.99
564.666	52102.22
565.028	52136.34
565.39	52240.75
565.753	52458.82
566.115	52537.91
566.477	52658.14
566.839	52824.91
567.201	52970.44
567.563	53073.27
567.925	53123.21
568.287	53194.84
568.648	53269.19
569.01	53514.16
569.372	53701.95
569.734	53613.14
570.095	53860.59
570.457	53926.35
570.819	53976.97
571.18	54011.55
571.542	54190.98
571.903	54271.2
572.265	54341.93
572.626	54441.59
572.987	54396.39
573.349	54599.78
573.71	54676.84
574.071	54755.26
574.432	54800.45
574.794	55001.8
575.155	54968.36
575.516	55020.56
575.877	55134.68
576.238	55176.04
576.599	55251.06
576.96	55265.75
577.32	55277.5
577.681	55328.57
578.042	55453.09
578.403	55430.49
578.763	55405.86
579.124	55503.48
579.485	55610.37
579.845	55658.51
580.206	55636.81
580.566	55625.74
580.927	55640.43
581.287	55771.73
581.648	55606.76
582.008	55797.71
582.368	55715
582.728	55791.39
583.089	55806.53
583.449	55686.53
583.809	55809.92
584.169	55904.6
584.529	55825.74
584.889	56044.94
585.249	55793.42
585.609	55679.52
585.969	55888.33
586.329	55829.13
586.688	55877.71
587.048	55901.44
587.408	55832.06
587.768	55896.24
588.127	55979.4
588.487	55824.38
588.846	56065.73
589.206	55890.14
589.565	55890.37
589.925	55987.99
590.284	55926.75
590.643	55933.98
591.003	56045.62
591.362	56060.31
591.721	56057.14
592.08	56097.37
592.44	56112.73
592.799	56075.22
593.158	56039.52
593.517	56075.9
593.876	56112.96
594.235	56033.19
594.593	56157.7
594.952	56131.72
595.311	56045.16
595.67	56051.27
596.029	56267.53
596.387	56280.86
596.746	56290.36
597.104	56145.5
597.463	56169.23
597.822	56255.1
598.18	56161.09
598.538	56185.73
598.897	56323.12
599.255	56173.52
599.613	56535.55
599.972	56350.69
600.33	56423.69
600.688	56264.59
601.046	56383.46
601.404	56577.13
601.762	56401.31
602.12	56539.39
602.478	56565.6
602.836	56582.55
603.194	56483.12
603.552	56505.72
603.91	56418.04
604.268	56558.6
604.625	56419.17
604.983	56672.27
605.341	56490.12
605.698	56608.54
606.056	56648.54
606.413	56662.55
606.771	56824.35
607.128	56764.24
607.485	56576
607.843	56732.83
608.2	56857.35
608.557	56925.59
608.914	56878.14
609.272	56937.8
609.629	57013.73
609.986	57089.43
610.343	56930.57
610.7	57146.38
611.057	57113.16
611.414	57124.46
611.771	57176.66
612.127	57208.75
612.484	57221.63
612.841	57282.65
613.198	57196.77
613.554	57225.47
613.911	57366.71
614.267	57297.11
614.624	57357.67
614.98	57348.86
615.337	57422.3
615.693	57459.82
616.05	57434.73
616.406	57539.81
616.762	57450.33
617.118	57422.98
617.475	57547.27
617.831	57565.58
618.187	57615.07
618.543	57610.32
618.899	57716.53
619.255	57636.31
619.611	57650.32
619.967	57721.05
620.323	57755.63
620.678	57693.93
621.034	57630.66
621.39	57593.15
621.746	57596.08
622.101	57826.13
622.457	57623.43
622.812	57706.14
623.168	57727.61
623.523	57719.47
623.879	57804.89
624.234	57663.88
624.589	57737.55
624.945	57720.37
625.3	57737.78
625.655	57718.57
626.01	57753.82
626.365	57704.78
626.72	57713.6
627.075	57712.24
627.43	57736.87
627.785	57680.15
628.14	57672.01
628.495	57748.17
628.85	57722.18
629.205	57620.72
629.559	57765.8
629.914	57600.83
630.269	57622.75
630.623	57530.32
630.978	57492.58
631.332	57552.92
631.687	57662.75
632.041	57519.7
632.396	57536.88
632.75	57420.72
633.104	57484.67
633.459	57386.82
633.813	57378.69
634.167	57319.48
634.521	57250.33
634.875	57340.72
635.229	57243.55
635.583	57195.64
635.937	57206.04
636.291	57147.28
636.645	57166.27
636.999	57119.94
637.352	57168.53
637.706	56992.03
638.06	57161.07
638.413	57085.36
638.767	56953.16
639.121	57000.62
639.474	56823.22
639.828	56839.04
640.181	56858.7
640.534	56796.33
640.888	56743.45
641.241	56654.19
641.594	56752.26
641.947	56774.19
642.301	56682.21
642.654	56645.15
643.007	56646.05
643.36	56638.37
643.713	56541.2
644.066	56641.08
644.419	56480.18
644.771	56319.51
645.124	56153.86
645.477	56043.81
645.83	55865.51
646.182	55752.07
646.535	55628.23
646.888	55656.7
647.24	55469.13
647.593	55566.99
647.945	55553.2
648.298	55416.93
648.65	55425.07
649.002	55326.09
649.355	55397.05
649.707	55373.77
650.059	55502.13
650.411	55904.83
650.763	55858.5
651.115	56079.29
651.467	55972.17
651.819	55955.9
652.171	55882.68
652.523	55856.7
652.875	55803.59
653.227	55673.2
653.578	55863.02
653.93	55793.65
654.282	55671.84
654.633	55683.82
654.985	55695.12
655.337	55757.26
655.688	55684.27
656.039	55737.38
656.391	55475.01
656.742	55550.71
657.094	55506.65
657.445	55684.95
657.796	55553.43
658.147	55492.86
658.498	55569.25
658.849	55624.61
659.2	55499.87
659.551	55485.63
659.902	55501.22
660.253	55425.52
660.604	55486.76
660.955	55345.97
661.306	55389.59
661.656	55352.98
662.007	55376.03
662.358	55335.58
662.708	55315.92
663.059	55271.17
663.409	55179.42
663.76	55341
664.11	55364.05
664.461	55354.11
664.811	55252.42
665.161	55275.47
665.511	55222.36
665.862	55206.77
666.212	55263.94
666.562	55211.74
666.912	55170.16
667.262	55205.64
667.612	55197.05
667.962	55180.1
668.312	55144.85
668.662	55243.38
669.011	55134
669.361	55111.63
669.711	55095.59
670.06	55086.09
670.41	54995.93
670.76	54941.69
671.109	55071.63
671.459	54979.43
671.808	54840.68
672.157	54993.89
672.507	54863.95
672.856	54819.21
673.205	54857.85
673.554	54922.71
673.904	54762.49
674.253	54832.09
674.602	54791.19
674.951	54430.07
675.3	54207.47
675.649	54772.66
675.998	54676.61
676.346	54738.08
676.695	54760.45
677.044	54478.2
677.393	54629.38
677.741	54605.88
678.09	54587.35
678.438	54464.64
678.787	54515.04
679.135	54482.72
679.484	54353.91
679.832	54415.6
680.181	54277.98
680.529	54391.87
680.877	54258.77
681.225	54241.6
681.573	54362.05
681.922	54138.55
682.27	54013.81
682.618	54103.97
682.966	54003.41
683.314	54045.9
683.661	53898.33
684.009	53827.14
684.357	53728.62
684.705	53757.09
685.053	53727.49
685.4	53585.34
685.748	53566.13
686.095	53538.11
686.443	53454.27
686.79	53328.85
687.138	53456.53
687.485	53445.23
687.832	53343.09
688.18	53285.69
688.527	53054.28
688.874	53163.43
689.221	53004.57
689.568	52922.76
689.915	52881.18
690.262	52836.44
690.609	52779.04
690.956	52661.52
691.303	52636.67
691.65	52586.05
691.997	52384.47
692.344	52225.6
692.69	52204.81
693.037	52302.66
693.383	51991.94
693.73	52031.03
694.077	51905.39
694.423	51895.9
694.769	51794.88
695.116	51678.05
695.462	51676.01
695.808	51525.28
696.155	51518.96
696.501	51383.14
696.847	51240.09
697.193	51039.87
697.539	51159.42
697.885	50917.84
698.231	50770.05
698.577	50796.26
698.923	50796.26
699.269	50640.34
699.614	50398.08
699.96	50389.72
700.306	50341.81
700.651	50208.26
700.997	50098.88
701.342	50088.71
701.688	50001.26
702.033	49846.01
702.379	49775.5
702.724	49674.94
703.069	49739.79
703.415	49433.36
703.76	49434.94
704.105	49407.37
704.45	49265
704.795	49013.71
705.14	48873.6
705.485	48934.62
705.83	48740.72
706.175	48734.62
706.52	48645.81
706.865	48454.18
707.209	48491.24
707.554	48208.99
707.899	48402.43
708.243	48131.47
708.588	48079.72
708.932	47918.6
709.277	47914.98
709.621	47774.2
709.966	47481.1
710.31	47690.36
710.654	47337.82
710.998	47439.06
711.342	47453.98
711.687	47243.59
712.031	47132.86
712.375	46869.13
712.719	46981.22
713.063	47000.66
713.407	46961.34
713.75	46694
714.094	46696.03
714.438	46623.27
714.782	46572.42
715.125	46457.17
715.469	46480.22
715.812	46266.21
716.156	46114.35
716.499	46029.16
716.843	46197.97
717.186	45689.96
717.53	45968.82
717.873	45885.66
718.216	45863.29
718.559	45721.59
718.902	45250.19
719.246	45484.09
719.589	45302.4
719.932	45249.29
720.275	45206.58
720.617	45027.6
720.96	45065.79
721.303	45102.18
721.646	45081.61
721.989	44834.84
722.331	44972.69
722.674	44804.78
723.016	44745.57
723.359	44489.76
723.701	44646.14
724.044	44292.03
724.386	44221.52
724.729	44395.98
725.071	44179.71
725.413	44273.95
725.755	44068.98
726.097	43889.78
726.439	43785.83
726.782	43803
727.124	43886.39
727.465	43764.58
727.807	43731.14
728.149	43466.74
728.491	43455.89
728.833	43415.67
729.175	43297.03
729.516	43321.66
729.858	43285.73
730.199	43234.65
730.541	43202.11
730.882	43063.81
731.224	43144.04
731.565	42903.82
731.906	42944.04
732.248	42936.36
732.589	42699.98
732.93	42537.95
733.271	42668.79
733.612	42629.92
733.953	42481
734.294	42259.31
734.635	42326.66
734.976	42214.79
735.317	42168.69
735.658	42114.68
735.999	42049.83
736.339	41998.75
736.68	42149.03
737.021	41938.64
737.361	41742.72
737.702	41863.16
738.042	41706.11
738.383	41613.68
738.723	41716.05
739.063	41495.26
739.404	41655.71
739.744	41500.91
740.084	41309.96
740.424	41304.31
740.764	41229.06
741.104	41243.07
741.444	40937.09
741.784	40987.26
742.124	41115.61
742.464	40998.55
742.804	40720.37
743.143	40800.14
743.483	40641.5
743.823	40511.34
744.162	40563.31
744.502	40506.82
744.841	40405.35
745.181	40582.07
745.52	40328.52
745.86	40356.54
746.199	40331.68
746.538	40230.44
746.877	40257.78
747.216	39996.55
747.556	39927.4
747.895	39835.42
748.234	39811.02
748.573	39636.78
748.911	39596.78
749.25	39658.48
749.589	39432.49
749.928	39542.77
750.267	39525.83
750.605	39347.52
750.944	39209.68
751.283	39018.72
751.621	38971.04
751.96	38892.85
752.298	39024.14
752.636	38891.72
752.975	38611.05
753.313	38494.67
753.651	38652.4
753.989	38396.14
754.327	38291.06
754.666	38291.51
755.004	38203.83
755.342	38206.09
755.679	38049.25
756.017	37969.93
756.355	37960.89
756.693	37728.81
757.031	37766.1
757.368	37597.29
757.706	37453.11
758.044	37308.26
758.381	37373.79
758.719	37238.2
759.056	37225.55
759.394	37099.45
759.731	36754.15
760.068	36669.4
760.405	36645.45
760.743	36674.37
761.08	36645.9
761.417	36561.84
761.754	36416.3
762.091	36279.81
762.428	36183.54
762.765	35892.7
763.102	36057.22
763.438	35822.87
763.775	35618.58
764.112	35589.43
764.449	35540.62
764.785	35530.45
765.122	35244.13
765.458	34964.82
765.795	35049.56
766.131	35028.32
766.467	34920.52
766.804	34580.19
767.14	34375.9
767.476	34536.58
767.812	34244.61
768.148	34279.86
768.485	34029.7
768.821	33951.06
769.157	34022.47
769.492	33754.45
769.828	33901.34
770.164	33432.43
770.5	33324.41
770.836	33411.41
771.171	33126.9
771.507	33006.45
771.842	32886
772.178	32832.89
772.513	32857.75
772.849	32701.82
773.184	32500.25
773.519	32436.75
773.855	32352.45
774.19	32223.87
774.525	32067.04
774.86	31975.74
775.195	31976.65
775.53	31884.9
775.865	31502.08
776.2	31371.92
776.535	31220.51
776.87	31248.3
777.205	31147.06
777.539	30935.32
777.874	31065.03
778.209	30728.09
778.543	30824.81
778.878	30569.68
779.212	30490.13
779.547	30373.07
779.881	30474.09
780.215	30221.66
780.55	30212.4
780.884	30015.11
781.218	29870.26
781.552	30045.4
781.886	29651.51
782.22	29534.22
782.554	29334.23
782.888	29323.83
783.222	29117.29
783.556	29021.02
783.889	28899.89
784.223	28761.81
784.557	28752.32
784.89	28741.25
785.224	28637.98
785.557	28364.31
785.891	28395.72
786.224	28221.94
786.558	28150.31
786.891	27934.72
787.224	27957.77
787.557	27843.19
787.891	27785.12
788.224	27625.12
788.557	27623.31
788.89	27537.44
789.223	27469.64
789.556	27270.33
789.888	27188.97
790.221	27058.13
790.554	26899.26
790.887	26897.23
791.219	26793.28
791.552	26690.46
791.884	26491.14
792.217	26560.52
792.549	26375.21
792.882	26173.86
793.214	26089.34
793.546	26172.96
793.879	26100.64
794.211	25850.48
794.543	25854.77
794.875	25722.35
795.207	25822.91
795.539	25645.74
795.871	25531.16
796.203	25408
796.535	25242.58
796.867	25272.87
797.198	25093.89
797.53	25079.65
797.862	24991.29
798.193	24976.6
798.525	24758.98
798.856	24805.08
799.188	24524.64
799.519	24488.25
799.85	24414.36
800.182	24470.63
800.513	24396.28
800.844	24180.69
801.175	24217.53
801.506	24179.34
801.837	24023.18
802.168	23988.83
802.499	23922.85
802.83	23790.19
803.161	23671.1
803.491	23636.3
803.822	23615.51
804.153	23670.87
804.483	23363.31
804.814	23255.52
805.145	23328.51
805.475	23200.38
805.805	23118.57
806.136	23110.66
806.466	23101.17
806.796	23056.43
807.126	22796.32
807.457	22768.3
807.787	22815.3
808.117	22623.44
808.447	22613.05
808.777	22704.35
809.107	22513.39
809.436	22471.58
809.766	22473.17
810.096	22408.08
810.426	22235.66
810.755	22282.21
811.085	22121.09
811.414	22070.46
811.744	21995.21
812.073	21997.25
812.403	21923.58
812.732	21746.86
813.061	21731.26
813.39	21685.16
813.719	21623.92
814.049	21765.39
814.378	21572.85
814.707	21462.57
815.036	21438.62
815.365	21301.67
815.693	21110.49
816.022	21173.31
816.351	21048.12
816.68	21026.2
817.008	21069.36
817.337	20868.01
817.665	20827.33
817.994	20917.95
818.322	20816.49
818.651	20779.2
818.979	20768.13
819.307	20761.8
819.636	20609.94
819.964	20461.92
820.292	20567.23
820.62	20529.26
820.948	20445.87
821.276	20527
821.604	20512.99
821.932	20501.47
822.259	20594.57
822.587	20487
822.915	20443.16
823.243	20515.93
823.57	20424.18
823.898	20480.45
824.225	20484.29
824.553	20314.58
824.88	20344.63
825.207	20419.21
825.535	20335.6
825.862	20315.03
826.189	20344.41
826.516	20425.54
826.843	20367.46
827.17	20348.48
827.497	20361.13
827.824	20343.5
828.151	20409.04
828.478	20383.05
828.805	20525.42
829.131	20237.07
829.458	20245.88
829.785	20166.79
830.111	20266.44
830.438	20385.31
830.764	20276.39
831.09	20237.29
831.417	20223.06
831.743	20432.54
832.069	20244.98
832.395	20294.47
832.722	20238.65
833.048	20150.97
833.374	20098.99
833.7	20064.42
834.026	20209.95
834.351	20116.84
834.677	20128.37
835.003	20112.78
835.329	20055.38
835.654	19908.26
835.98	19869.84
836.306	19939.9
836.631	19787.59
836.956	19853.57
837.282	19871.88
837.607	19776.74
837.932	19740.13
838.258	19750.98
838.583	19761.6
838.908	19636.18
839.233	19655.39
839.558	19580.81
839.883	19516.18
840.208	19546.46
840.533	19541.27
840.858	19533.58
841.182	19470.31
841.507	19510.53
841.832	19261.5
842.156	19265.79
842.481	19175.4
842.805	19165
843.13	19054.5
843.454	19061.28
843.778	19016.76
844.103	19031.22
844.427	18952.81
844.751	18962.07
845.075	18822.41
845.399	18829.42
845.723	18788.74
846.047	18732.93
846.371	18574.96
846.695	18496.55
847.019	18387.4
847.343	18379.49
847.666	18222.43
847.99	18258.14
848.313	18094.07
848.637	18008.88
848.96	18021.98
849.284	17926.39
849.607	17794.87
849.931	17822.44
850.254	17615.89
850.577	17625.38
850.9	17476.91
851.223	17412.51
851.546	17435.78
851.869	17309.23
852.192	17357.14
852.515	17172.74
852.838	17073.99
853.161	17086.87
853.483	16951.28
853.806	16902.24
854.129	16909.02
854.451	16794.22
854.774	16772.98
855.096	16706.76
855.419	16702.02
855.741	16603.49
856.063	16549.71
856.385	16450.05
856.708	16441.23
857.03	16330.95
857.352	16372.76
857.674	16267.45
857.996	16283.5
858.318	16155.37
858.64	16129.83
858.961	16160.34
859.283	16078.76
859.605	16002.6
859.926	15978.87
860.248	15962.83
860.57	15840.8
860.891	15830.85
861.212	15797.64
861.534	15799.44
861.855	15686.23
862.176	15648.03
862.498	15712.89
862.819	15609.84
863.14	15575.72
863.461	15573.01
863.782	15518.55
864.103	15463.41
864.424	15482.84
864.745	15434.26
865.065	15340.47
865.386	15323.3
865.707	15359.68
866.027	15389.96
866.348	15294.6
866.668	15227.71
866.989	15111.55
867.309	15100.7
867.63	15144.32
867.95	15071.33
868.27	14917.66
868.59	14963.31
868.91	15015.96
869.23	14977.09
869.55	14907.26
869.87	14946.36
870.19	14916.98
870.51	14918.56
870.83	14831.11
871.15	14814.16
871.469	14909.07
871.789	14785.23
872.109	14772.8
872.428	14663.43
872.748	14748.85
873.067	14622.53
873.386	14738.68
873.706	14577.1
874.025	14585.69
874.344	14507.05
874.663	14664.11
874.982	14451.46
875.301	14493.94
875.62	14387.05
875.939	14378.46
876.258	14356.77
876.577	14261.63
876.896	14309.09
877.214	14214.17
877.533	14279.71
877.852	14281.52
878.17	14357.22
878.489	14233.61
878.807	14257.34
879.125	14199.03
879.444	14111.8
879.762	14120.39
880.08	14180.95
880.398	14024.57
880.716	14032.94
881.034	14053.95
881.352	14104.12
881.67	13973.5
881.988	13978.25
882.306	13988.19
882.624	13920.85
882.941	13883.11
883.259	13809.89
883.577	13752.04
883.894	13773.73
884.212	13757.92
884.529	13702.1
884.846	13661.87
885.164	13719.95
885.481	13542.1
885.798	13626.85
886.115	13545.27
886.432	13572.16
886.75	13465.27
887.067	13476.11
887.383	13440.86
887.7	13480.86
888.017	13346.85
888.334	13385.27
888.651	13363.8
888.967	13269.79
889.284	13300.07
889.6	13193.41
889.917	13109.34
890.233	13200.64
890.55	13074.54
890.866	13097.82
891.182	13006.97
891.498	13043.81
891.815	13048.78
892.131	12880.42
892.447	12847.88
892.763	12746.87
893.079	12725.17
893.395	12665.06
893.71	12724.27
894.026	12646.76
894.342	12589.13
894.657	12465.75
894.973	12415.8
895.289	12531.51
895.604	12465.52
895.92	12394.34
896.235	12340.55
896.55	12329.48
896.865	12276.15
897.181	12212.42
897.496	12253.1
897.811	12075.25
898.126	12105.53
898.441	12050.16
898.756	12036.83
899.071	11950.73
899.386	11917.51
899.7	11811.98
900.015	11743.96
900.33	11688.36
900.644	11721.13
900.959	11761.58
901.273	11609.05
901.588	11628.03
901.902	11561.59
902.216	11507.13
902.531	11520.69
902.845	11454.25
903.159	11372.44
903.473	11365.89
903.787	11305.1
904.101	11265.33
904.415	11166.12
904.729	11248.6
905.042	11196.17
905.356	11076.63
905.67	11163.41
905.984	11118.44
906.297	10977.88
906.611	10938.1
906.924	10894.26
907.237	10816.75
907.551	10783.3
907.864	10738.56
908.177	10719.35
908.491	10762.51
908.804	10534.95
909.117	10583.76
909.43	10532.24
909.743	10491.56
910.056	10441.17
910.368	10374.05
910.681	10350.77
910.994	10301.96
911.307	10278.46
911.619	10182.19
911.932	10264
912.244	10177.22
912.557	10101.97
912.869	10036.21
913.181	10043.21
913.494	9994.85
913.806	9903.78
914.118	9873.27
914.43	9886.38
914.742	9823.56
915.054	9777
915.366	9727.51
915.678	9722.31
915.99	9670.11
916.302	9535.65
916.613	9540.85
916.925	9514.41
917.236	9516.9
917.548	9421.76
917.859	9445.03
918.171	9342.21
918.482	9254.76
918.794	9290.46
919.105	9215.44
919.416	9217.47
919.727	9186.06
920.038	9118.94
920.349	9052.28
920.66	9031.94
920.971	9013.86
921.282	9031.49
921.593	8952.17
921.903	8897.7
922.214	8833.75
922.525	8880.53
922.835	8781.32
923.146	8711.27
923.456	8768.22
923.767	8639.86
924.077	8695
924.387	8586.98
924.697	8548.11
925.008	8564.83
925.318	8477.6
925.628	8521.22
925.938	8462.24
926.248	8328.45
926.558	8388.79
926.867	8338.85
927.177	8268.34
927.487	8264.5
927.796	8182.92
928.106	8151.06
928.416	8105.63
928.725	8128.91
929.034	8078.52
929.344	8073.09
929.653	8007.11
929.962	7951.74
930.271	7888.24
930.581	7838.3
930.89	7814.79
931.199	7817.05
931.508	7803.5
931.817	7788.13
932.125	7772.31
932.434	7666.32
932.743	7661.58
933.051	7623.61
933.36	7563.95
933.669	7545.88
933.977	7542.71
934.286	7507.91
934.594	7468.59
934.902	7401.92
935.21	7350.85
935.519	7327.35
935.827	7350.85
936.135	7253.91
936.443	7263.17
936.751	7173.68
937.059	7208.26
937.367	7166
937.674	7176.17
937.982	7053.46
938.29	7036.51
938.597	7074.48
938.905	6994.93
939.213	6924.2
939.52	6918.55
939.827	6928.49
940.135	6874.48
940.442	6855.27
940.749	6803.3
941.056	6827.7
941.363	6729.17
941.67	6773.24
941.977	6711.32
942.284	6617.31
942.591	6638.33
942.898	6561.27
943.205	6596.3
943.511	6533.92
943.818	6532.57
944.125	6483.76
944.431	6472.23
944.738	6461.38
945.044	6441.95
945.35	6415.51
945.657	6375.96
945.963	6375.51
946.269	6298.45
946.575	6316.98
946.881	6203.54
947.187	6266.81
947.493	6150.66
947.799	6155.4
948.105	6135.29
948.41	6069.53
948.716	6109.75
949.022	6044.22
949.327	6030.66
949.633	5981.17
949.938	6023.43
950.244	5949.08
950.549	5909.99
950.854	5856.43
951.16	5867.5
951.465	5840.38
951.77	5808.29
952.075	5797.45
952.38	5792.25
952.685	5753.83
952.99	5701.86
953.294	5664.12
953.599	5637.9
953.904	5657.11
954.209	5626.83
954.513	5601.29
954.818	5563.55
955.122	5509.09
955.426	5545.02
955.731	5441.3
956.035	5431.58
956.339	5391.13
956.643	5380.06
956.948	5385.71
957.252	5379.83
957.556	5335.09
957.86	5285.37
958.163	5303.67
958.467	5247.4
958.771	5221.42
959.075	5258.25
959.378	5212.6
959.682	5192.72
959.985	5173.28
960.289	5131.25
960.592	5100.29
960.896	5057.58
961.199	5107.52
961.502	5042.44
961.805	5080.63
962.108	5029.56
962.411	4971.25
962.714	4887.19
963.017	4928.77
963.32	4957.24
963.623	4887.19
963.926	4852.16
964.228	4832.05
964.531	4809.68
964.833	4819.39
965.136	4781.2
965.438	4729.9
965.741	4690.58
966.043	4698.49
966.345	4664.82
966.648	4670.02
966.95	4672.73
967.252	4616.01
967.554	4603.58
967.856	4592.05
968.158	4551.6
968.46	4519.51
968.761	4493.98
969.063	4511.15
969.365	4495.56
969.666	4477.03
969.968	4408.33
970.269	4429.57
970.571	4410.82
970.872	4374.88
971.174	4318.16
971.475	4334.43
971.776	4313.64
972.077	4312.74
972.378	4303.47
972.679	4284.94
972.98	4259.18
973.281	4232.29
973.582	4237.49
973.883	4195.45
974.183	4122.24
974.484	4170.37
974.785	4103.48
975.085	4092.86
975.386	4091.5
975.686	4082.24
975.986	4059.87
976.287	4078.17
976.587	3998.17
976.887	3978.06
977.187	4011.73
977.487	3977.61
977.787	3921.34
978.087	3975.8
978.387	3931.73
978.687	3949.59
978.987	3886.08
979.286	3847.67
979.586	3849.48
979.885	3806.09
980.185	3800.89
980.484	3799.08
980.784	3772.19
981.083	3756.37
981.382	3776.26
981.682	3705.52
981.981	3684.96
982.28	3695.58
982.579	3669.37
982.878	3657.39
983.177	3602.93
983.475	3639.54
983.774	3601.12
984.073	3625.75
984.372	3544.85
984.67	3543.04
984.969	3523.16
985.267	3497.39
985.566	3488.35
985.864	3475.47
986.162	3462.59
986.461	3461.46
986.759	3448.13
987.057	3417.85
987.355	3377.4
987.653	3389.83
987.951	3369.94
988.249	3351.86
988.547	3355.25
988.844	3295.82
989.142	3321.81
989.44	3298.3
989.737	3254.91
990.035	3245.42
990.332	3250.17
990.63	3251.52
990.927	3226.21
991.224	3199.1
991.521	3172.2
991.819	3190.28
992.116	3176.72
992.413	3171.07
992.71	3122.49
993.006	3127.69
993.303	3113.22
993.6	3098.53
993.897	3116.16
994.193	3060.12
994.49	3040.68
994.787	2966.79
995.083	3002.94
995.379	3001.36
995.676	3000.68
995.972	2935.37
996.268	2999.78
996.565	2907.8
996.861	2947.8
997.157	2923.85
997.453	2925.66
997.749	2892.44
998.044	2852.89
998.34	2832.1
998.636	2848.37
998.932	2829.39
999.227	2784.42
999.523	2786.45
999.818	2781.25
1000.114	2748.26
1000.409	2765.21
1000.704	2716.85
1001	2717.53
1001.295	2677.53
1001.59	2666.68
1001.885	2660.13
1002.18	2614.48
1002.475	2612.45
1002.77	2599.79
1003.065	2619.68
1003.359	2582.62
1003.654	2550.3
1003.949	2556.85
1004.243	2533.35
1004.538	2468.95
1004.832	2484.31
1005.127	2500.36
1005.421	2520.02
1005.715	2461.49
1006.009	2502.84
1006.304	2407.25
1006.598	2416.97
1006.892	2413.35
1007.186	2368.38
1007.48	2373.58
1007.773	2366.8
1008.067	2341.94
1008.361	2347.82
1008.655	2336.75
1008.948	2312.57
1009.242	2302.4
1009.535	2281.61
1009.829	2269.18
1010.122	2248.61
1010.415	2229.4
1010.708	2204.55
1011.001	2177.43
1011.295	2207.48
1011.588	2201.38
1011.881	2143.98
1012.173	2133.36
1012.466	2144.21
1012.759	2102.18
1013.052	2154.6
1013.344	2112.35
1013.637	2134.49
1013.93	2073.02
1014.222	2074.38
1014.514	2037.55
1014.807	2016.98
1015.099	2019.01
1015.391	2006.13
1015.683	2004.1
1015.976	1987.15
1016.268	1962.75
1016.56	1964.55
1016.851	1953.93
1017.143	1980.82
1017.435	1951.67
1017.727	1934.5
1018.018	1924.33
1018.31	1879.58
1018.602	1868.28
1018.893	1872.58
1019.185	1866.7
1019.476	1850.21
1019.767	1834.61
1020.058	1862.63
1020.35	1812.01
1020.641	1777.44
1020.932	1759.59
1021.223	1754.39
1021.514	1762.3
1021.804	1729.76
1022.095	1716.65
1022.386	1727.95
1022.677	1723.66
1022.967	1712.13
1023.258	1686.82
1023.548	1639.14
1023.839	1637.56
1024.129	1654.5
1024.419	1638.69
1024.709	1623.09
1025	1595.07
1025.29	1602.3
1025.58	1601.85
1025.87	1558.24
1026.16	1574.96
1026.449	1576.77
1026.739	1543.1
1027.029	1556.2
1027.319	1527.95
1027.608	1528.63
1027.898	1515.07
1028.187	1518.91
1028.477	1492.93
1028.766	1505.36
1029.055	1478.01
1029.344	1457.9
1029.634	1458.35
1029.923	1419.93
1030.212	1433.04
1030.501	1402.99
1030.79	1417.22
1031.078	1362.99
1031.367	1380.84
1031.656	1374.51
1031.945	1359.82
1032.233	1367.28
1032.522	1339.71
1032.81	1336.55
1033.099	1318.02
1033.387	1336.55
1033.675	1318.69
1033.963	1341.29
1034.251	1300.16
1034.54	1285.7
1034.828	1268.53
1035.116	1288.64
1035.403	1264.68
1035.691	1252.93
1035.979	1249.09
1036.267	1227.17
1036.554	1214.74
1036.842	1238.47
1037.129	1217.91
1037.417	1191.24
1037.704	1200.28
1037.992	1189.66
1038.279	1174.07
1038.566	1163.22
1038.853	1163.22
1039.14	1163.22
