Data from breadboard_black_back_FLMS001491_00043.txt Node
Date: Wed Feb 08 10:50:26 GMT 2017
User: dcchb
Spectrometer: FLMS00149
Trigger mode: 0
Integration Time (sec): 2.000000E-2
Scans to average: 10
Electric dark correction enabled: true
Nonlinearity correction enabled: false
Boxcar width: 0
XAxis mode: Wavelengths
Number of Pixels in Spectrum: 2048
>>>>>Begin Spectral Data<<<<<
341.393	-1.12
341.776	-1.12
342.16	-1.12
342.543	-57.61
342.927	-66.42
343.31	-65.29
343.693	-58.29
344.077	-70.27
344.46	-63.04
344.843	-63.94
345.226	-43.6
345.61	-34.34
345.993	-7.67
346.376	-23.71
346.759	13.35
347.142	27.36
347.525	59
347.908	73.91
348.291	72.55
348.674	76.4
349.057	107.58
349.44	92.89
349.823	125.43
350.206	170.18
350.588	204.08
350.971	204.53
351.354	230.29
351.737	221.7
352.119	263.51
352.502	258.54
352.884	273.23
353.267	308.25
353.65	301.25
354.032	278.42
354.414	312.77
354.797	314.36
355.179	317.75
355.562	301.02
355.944	335.15
356.326	360.46
356.709	346.45
357.091	360.23
357.473	343.06
357.855	362.72
358.238	360.68
358.62	360.23
359.002	348.71
359.384	341.47
359.766	361.81
360.148	356.39
360.53	342.15
360.912	334.47
361.294	354.13
361.676	348.71
362.057	354.36
362.439	343.06
362.821	336.5
363.203	345.54
363.584	336.95
363.966	351.42
364.348	341.93
364.729	330.85
365.111	353.45
365.493	353.45
365.874	334.92
366.256	320.23
366.637	320.23
367.019	352.32
367.4	330.17
367.781	343.51
368.163	352.55
368.544	338.76
368.925	348.93
369.306	345.32
369.688	360
370.069	348.48
370.45	334.24
370.831	343.51
371.212	359.55
371.593	348.03
371.974	371.98
372.355	354.13
372.736	352.32
373.117	362.04
373.498	347.58
373.879	345.32
374.26	353.23
374.641	345.32
375.021	352.1
375.402	362.49
375.783	396.61
376.163	385.09
376.544	377.41
376.925	380.8
377.305	378.99
377.686	384.86
378.066	366.33
378.447	375.82
378.827	363.39
379.208	376.05
379.588	383.28
379.968	380.57
380.349	396.16
380.729	393.45
381.109	367.91
381.489	392.09
381.87	409.95
382.25	392.32
382.63	400
383.01	396.61
383.39	397.52
383.77	425.31
384.15	425.77
384.53	417.86
384.91	401.59
385.29	412.88
385.67	419.89
386.049	440.23
386.429	407.01
386.809	451.3
387.189	439.32
387.568	436.61
387.948	449.72
388.328	451.3
388.707	435.26
389.087	444.3
389.466	461.24
389.846	469.83
390.225	456.05
390.605	470.74
390.984	465.99
391.363	469.61
391.743	485.43
392.122	485.2
392.501	464.63
392.881	513.67
393.26	470.51
393.639	501.7
394.018	502.6
394.397	522.03
394.776	526.78
395.155	508.48
395.534	496.95
395.913	536.05
396.292	527.01
396.671	526.55
397.05	539.89
397.429	538.98
397.808	520
398.186	546.89
398.565	563.84
398.944	555.25
399.323	542.82
399.701	556.16
400.08	552.32
400.458	573.56
400.837	580.11
401.215	575.37
401.594	576.72
401.972	585.54
402.351	609.26
402.729	596.83
403.107	599.77
403.486	614.46
403.864	607
404.242	610.62
404.62	620.79
404.999	632.77
405.377	623.73
405.755	659.43
406.133	635.93
406.511	660.79
406.889	679.09
407.267	650.62
407.645	673.22
408.023	697.17
408.401	694.69
408.779	700.33
409.156	705.76
409.534	709.83
409.912	728.36
410.29	710.28
410.667	743.72
411.045	744.4
411.422	758.86
411.8	759.77
412.178	771.07
412.555	778.98
412.933	776.26
413.31	775.81
413.687	816.94
414.065	809.48
414.442	805.64
414.819	826.89
415.197	856.49
415.574	844.74
415.951	855.58
416.328	841.35
416.705	845.64
417.082	881.12
417.46	910.05
417.837	887.22
418.214	887.9
418.591	912.31
418.967	903.72
419.344	914.79
419.721	938.75
420.098	922.93
420.475	929.48
420.852	930.16
421.228	974.9
421.605	965.41
421.982	1000.89
422.358	998.86
422.735	992.76
423.111	992.76
423.488	1020.78
423.864	1022.81
424.241	1063.94
424.617	1057.16
424.994	1055.58
425.37	1063.49
425.746	1039.31
426.123	1072.3
426.499	1085.86
426.875	1086.31
427.251	1134.9
427.627	1148.91
428.003	1140.78
428.379	1142.58
428.756	1188.68
429.132	1192.53
429.507	1220.1
429.883	1218.97
430.259	1238.4
430.635	1256.7
431.011	1235.24
431.387	1281.56
431.763	1300.32
432.138	1289.47
432.514	1328.79
432.89	1327.89
433.265	1353.65
433.641	1374.22
434.016	1398.85
434.392	1417.15
434.767	1448.56
435.143	1412.63
435.518	1463.93
435.894	1465.74
436.269	1482.91
436.644	1465.06
437.02	1511.16
437.395	1515.45
437.77	1552.06
438.145	1587.99
438.52	1572.85
438.895	1604.27
439.271	1619.63
439.646	1626.19
440.021	1632.97
440.395	1653.98
440.77	1632.06
441.145	1649.46
441.52	1696.01
441.895	1661.89
442.27	1723.13
442.645	1717.48
443.019	1722
443.394	1733.3
443.769	1768.56
444.143	1762.45
444.518	1798.38
444.892	1811.94
445.267	1797.03
445.641	1786.41
446.016	1830.02
446.39	1827.08
446.764	1856.91
447.139	1854.88
447.513	1869.57
447.887	1869.12
448.262	1891.04
448.636	1898.5
449.01	1953.64
449.384	1945.27
449.758	1955.44
450.132	1972.62
450.506	1986.63
450.88	1993.18
451.254	2011.49
451.628	2064.59
452.002	2105.04
452.376	2075.44
452.75	2113.63
453.123	2171.93
453.497	2163.57
453.871	2174.87
454.244	2212.61
454.618	2217.36
454.992	2252.84
455.365	2265.49
455.739	2299.39
456.112	2323.34
456.486	2359.95
456.859	2364.92
457.232	2435.88
457.606	2447.63
457.979	2435.43
458.352	2503.23
458.725	2554.98
459.099	2582.09
459.472	2644.69
459.845	2627.74
460.218	2650.34
460.591	2665.25
460.964	2707.29
461.337	2745.48
461.71	2815.99
462.083	2862.76
462.456	2825.93
462.829	2850.33
463.201	2912.03
463.574	2926.26
463.947	2969.88
464.32	3047.39
464.692	3083.1
465.065	3069.09
465.438	3144.11
465.81	3167.16
466.183	3221.4
466.555	3262.53
466.928	3284.9
467.3	3276.76
467.672	3369.19
468.045	3445.57
468.417	3436.08
468.789	3445.8
469.161	3528.73
469.534	3564.21
469.906	3654.61
470.278	3683.31
470.65	3715.4
471.022	3782.29
471.394	3849.18
471.766	3873.13
472.138	3952.45
472.51	4027.93
472.882	4086.91
473.253	4146.8
473.625	4192.67
473.997	4245.55
474.369	4258.21
474.74	4284.87
475.112	4413.46
475.484	4502.49
475.855	4563.74
476.227	4586.56
476.598	4728.93
476.97	4763.28
477.341	4864.74
477.713	4937.29
478.084	4954.23
478.455	5103.38
478.827	5135.7
479.198	5308.35
479.569	5313.55
479.94	5478.51
480.311	5527.1
480.682	5650.04
481.053	5730.26
481.424	5819.75
481.795	5903.14
482.166	5974.32
482.537	6044.15
482.908	6187.2
483.279	6264.71
483.65	6359.62
484.021	6500.86
484.391	6532.95
484.762	6650.01
485.133	6666.05
485.503	6805.71
485.874	6907.18
486.244	6980.17
486.615	7085.25
486.985	7236.21
487.356	7334.96
487.726	7433.72
488.097	7598.46
488.467	7539.02
488.837	7769.3
489.207	7856.76
489.578	7968.17
489.948	8057.88
490.318	8159.12
490.688	8173.81
491.058	8329.74
491.428	8419.68
491.798	8523.41
492.168	8655.38
492.538	8698.54
492.908	8837.75
493.278	8943.51
493.648	8992.77
494.017	9058.98
494.387	9129.94
494.757	9213.78
495.126	9320.22
495.496	9384.4
495.866	9421.91
496.235	9575.36
496.605	9616.48
496.974	9721.34
497.344	9819.87
497.713	9843.37
498.082	9916.59
498.452	10085.4
498.821	10116.58
499.19	10160.2
499.559	10262.34
499.928	10284.94
500.298	10411.94
500.667	10532.84
501.036	10477.93
501.405	10634.31
501.774	10672.05
502.143	10817.81
502.512	10764.93
502.88	10924.7
503.249	10940.52
503.618	11005.6
503.987	11078.59
504.356	11205.6
504.724	11233.62
505.093	11322.65
505.462	11312.03
505.83	11435.87
506.199	11561.07
506.567	11679.71
506.936	11680.61
507.304	11815.07
507.672	11896.2
508.041	11995.18
508.409	12054.16
508.777	12177.32
509.145	12263.87
509.514	12287.37
509.882	12307.26
510.25	12417.09
510.618	12596.97
510.986	12605.56
511.354	12754.48
511.722	12810.98
512.09	12893.69
512.458	12904.08
512.826	13120.57
513.193	13142.49
513.561	13254.81
513.929	13365.09
514.297	13444.18
514.664	13577.06
515.032	13649.37
515.4	13797.39
515.767	13909.93
516.135	13882.36
516.502	13883.26
516.869	14110.6
517.237	14216.14
517.604	14185.18
517.972	14379.3
518.339	14476.24
518.706	14519.18
519.073	14602.79
519.44	14787.42
519.808	14903.58
520.175	14862.9
520.542	15155.1
520.909	15298.82
521.276	15273.28
521.643	15452.04
522.009	15446.16
522.376	15583.79
522.743	15748.98
523.11	15947.39
523.477	16104.9
523.843	16206.59
524.21	16315.07
524.577	16425.57
524.943	16499.24
525.31	16651.33
525.676	16798.89
526.043	16932.45
526.409	17075.27
526.776	17217.41
527.142	17275.49
527.508	17368.6
527.874	17521.36
528.241	17509.16
528.607	17693.56
528.973	17773.56
529.339	17913.89
529.705	18160.67
530.071	18292.19
530.437	18302.58
530.803	18403.82
531.169	18531.28
531.535	18605.85
531.901	18690.14
532.267	18774.21
532.632	18855.11
532.998	18919.74
533.364	19036.58
533.73	19164.03
534.095	19198.15
534.461	19287.87
534.826	19449.22
535.192	19500.74
535.557	19665.71
535.923	19628.88
536.288	19730.79
536.653	19918.81
537.019	19823.9
537.384	19992.26
537.749	20023.89
538.114	20183.89
538.479	20199.93
538.845	20346.37
539.21	20303.89
539.575	20458.91
539.94	20343.43
540.305	20632.69
540.67	20663.88
541.034	20701.16
541.399	20898.45
541.764	20922.4
542.129	20960.59
542.494	21129.18
542.858	21085.34
543.223	21115.39
543.587	21191.1
543.952	21327.36
544.316	21391.32
544.681	21427.02
545.045	21504.53
545.41	21580.01
545.774	21676.28
546.138	21768.48
546.503	21795.15
546.867	21731.42
547.231	22069.49
547.595	22000.57
547.959	22119.21
548.324	22079.89
548.688	22257.51
549.052	22378.18
549.416	22363.95
549.779	22390.16
550.143	22537.05
550.507	22678.74
550.871	22720.77
551.235	22755.12
551.599	22970.94
551.962	22972.07
552.326	23067.43
552.689	23304.03
553.053	23062.68
553.417	23176.35
553.78	23437.14
554.143	23519.62
554.507	23582.9
554.87	23627.19
555.234	23925.49
555.597	23763.46
555.96	23853.17
556.323	24003.22
556.686	24012.49
557.05	24302.88
557.413	24266.49
557.776	24468.07
558.139	24562.08
558.502	24503.32
558.865	24704
559.228	24925.01
559.59	24920.04
559.953	24960.04
560.316	25194.61
560.679	25223.53
561.041	25424.88
561.404	25544.43
561.767	25690.64
562.129	25513.24
562.492	25954.13
562.854	25930.18
563.217	25865.77
563.579	26108.71
563.941	26236.39
564.304	26403.16
564.666	26470.96
565.028	26497.62
565.39	26703.04
565.753	26781.46
566.115	26848.12
566.477	27096.93
566.839	27258.73
567.201	27405.17
567.563	27317.94
567.925	27430.71
568.287	27459.63
568.648	27640.42
569.01	27706.4
569.372	27903.69
569.734	27843.8
570.095	28104.59
570.457	28196.79
570.819	28243.11
571.18	28278.37
571.542	28383.22
571.903	28544.35
572.265	28529.66
572.626	28600.84
572.987	28732.14
573.349	28766.26
573.71	29029.53
574.071	28969.65
574.432	29089.87
574.794	29226.14
575.155	29148.17
575.516	29195.86
575.877	29317.66
576.238	29389.52
576.599	29465.91
576.96	29434.95
577.32	29452.8
577.681	29610.31
578.042	29784.32
578.403	29672.91
578.763	29748.38
579.124	29774.15
579.485	29905.67
579.845	30011.88
580.206	29891.88
580.566	29985.21
580.927	29943.63
581.287	30273.57
581.648	30037.19
582.008	30136.62
582.368	30156.74
582.728	30086.68
583.089	30204.19
583.449	30252.33
583.809	30213.46
584.169	30228.6
584.529	30241.93
584.889	30386.11
585.249	30222.27
585.609	30203.51
585.969	30342.95
586.329	30222.72
586.688	30330.06
587.048	30366.22
587.408	30298.65
587.768	30406.67
588.127	30354.92
588.487	30306.79
588.846	30566.67
589.206	30271.31
589.565	30332.55
589.925	30424.75
590.284	30345.88
590.643	30505.43
591.003	30577.29
591.362	30641.92
591.721	30617.06
592.08	30502.04
592.44	30635.82
592.799	30622.26
593.158	30637.63
593.517	30560.79
593.876	30604.41
594.235	30595.14
594.593	30560.34
594.952	30784.29
595.311	30707.68
595.67	30635.14
596.029	30760.11
596.387	30836.94
596.746	30944.96
597.104	30780.9
597.463	30802.14
597.822	30931.4
598.18	30752.43
598.538	30751.75
598.897	31031.97
599.255	30752.88
599.613	31226.54
599.972	31022.48
600.33	31082.13
600.688	30860.22
601.046	31092.76
601.404	31157.39
601.762	31074.9
602.12	31306.08
602.478	31271.73
602.836	31313.77
603.194	31184.05
603.552	31205.52
603.91	31137.27
604.268	31372.52
604.625	31132.3
604.983	31355.35
605.341	31199.42
605.698	31444.84
606.056	31358.51
606.413	31359.64
606.771	31516.93
607.128	31637.37
607.485	31560.77
607.843	31448
608.2	31723.02
608.557	31749.24
608.914	31623.59
609.272	31794.88
609.629	31951.49
609.986	31978.16
610.343	31843.92
610.7	32089.57
611.057	31831.27
611.414	32007.31
611.771	31950.36
612.127	31990.36
612.484	32019.74
612.841	32266.28
613.198	32127.3
613.554	32140.19
613.911	32187.87
614.267	32278.04
614.624	32260.41
614.98	32372.72
615.337	32423.34
615.693	32449.78
616.05	32494.53
616.406	32655.2
616.762	32407.3
617.118	32455.43
617.475	32471.48
617.831	32521.19
618.187	32552.38
618.543	32529.78
618.899	32875.31
619.255	32696.56
619.611	32705.82
619.967	32737.01
620.323	32822.65
620.678	32794.41
621.034	32673.28
621.39	32696.1
621.746	32714.18
622.101	32981.75
622.457	32740.62
622.812	32780.85
623.168	32845.25
623.523	32855.87
623.879	33021.97
624.234	32649.78
624.589	32886.61
624.945	32944.23
625.3	32918.02
625.655	32876.21
626.01	32891.8
626.365	32857.68
626.72	32828.08
627.075	32887.51
627.43	32841.18
627.785	32831.02
628.14	32902.43
628.495	32896.55
628.85	32900.17
629.205	32679.61
629.559	32810.45
629.914	32723.67
630.269	32741.3
630.623	32686.61
630.978	32690.45
631.332	32781.3
631.687	32871.47
632.041	32584.02
632.396	32717.57
632.75	32445.94
633.104	32477.8
633.459	32459.95
633.813	32395.77
634.167	32327.3
634.521	32336.34
634.875	32389.67
635.229	32321.42
635.583	32165.04
635.937	32163.01
636.291	32214.76
636.645	32159.39
636.999	32148.55
637.352	32229.22
637.706	31976.57
638.06	32207.08
638.413	32036.91
638.767	32024.48
639.121	32011.83
639.474	31883.7
639.828	31864.94
640.181	31857.48
640.534	31829.23
640.888	31734.55
641.241	31630.59
641.594	31634.21
641.947	31752.63
642.301	31805.73
642.654	31756.47
643.007	31614.78
643.36	31580.88
643.713	31560.31
644.066	31683.47
644.419	31408
644.771	31331.85
645.124	30972.08
645.477	30883.72
645.83	30645.54
646.182	30503.62
646.535	30525.09
646.888	30463.17
647.24	30089.84
647.593	30541.81
647.945	30316.96
648.298	30333.23
648.65	30150.18
649.002	29991.32
649.355	30235.15
649.707	30233.57
650.059	30462.04
650.411	30855.25
650.763	30756.49
651.115	31072.19
651.467	30816.15
651.819	30884.4
652.171	30824.06
652.523	30686.21
652.875	30619.1
653.227	30488.48
653.578	30700.22
653.93	30674.46
654.282	30578.65
654.633	30520.79
654.985	30518.99
655.337	30544.97
655.688	30607.57
656.039	30532.09
656.391	30353.57
656.742	30407.8
657.094	30381.81
657.445	30514.92
657.796	30486.9
658.147	30352.89
658.498	30296.84
658.849	30330.74
659.2	30286.68
659.551	30394.92
659.902	30317.64
660.253	30383.4
660.604	30322.15
660.955	30142.5
661.306	30300.46
661.656	30217.07
662.007	30227.92
662.358	30165.32
662.708	30209.16
663.059	30187.69
663.409	29970.98
663.76	30185.66
664.11	30078.32
664.461	30204.64
664.811	30105.44
665.161	30123.29
665.511	30019.34
665.862	30007.13
666.212	30138.43
666.562	30157.41
666.912	29998.77
667.262	29994.03
667.612	30121.03
667.962	30050.07
668.312	29990.41
668.662	29964.88
669.011	29910.64
669.361	29940.92
669.711	29926.23
670.06	29842.62
670.41	29848.72
670.76	29749.06
671.109	29882.84
671.459	29740.02
671.808	29804.65
672.157	29909.06
672.507	29700.93
672.856	29627.71
673.205	29692.57
673.554	29825.67
673.904	29629.07
674.253	29781.38
674.602	29779.57
674.951	29234.05
675.3	29077.67
675.649	29659.35
675.998	29392.46
676.346	29587.48
676.695	29599.69
677.044	29448.28
677.393	29338.45
677.741	29469.97
678.09	29422.29
678.438	29318.79
678.787	29427.71
679.135	29315.4
679.484	29199.02
679.832	29298
680.181	29072.7
680.529	29118.8
680.877	29148.4
681.225	29130.32
681.573	29237.89
681.922	28934.39
682.27	28859.14
682.618	29094.62
682.966	28845.13
683.314	28885.36
683.661	28841.74
684.009	28592.48
684.357	28630.45
684.705	28640.17
685.053	28582.99
685.4	28547.29
685.748	28355.88
686.095	28462.09
686.443	28326.95
686.79	28271.81
687.138	28343.45
687.485	28219.61
687.832	28171.7
688.18	28130.35
688.527	28172.61
688.874	28097.35
689.221	27943.23
689.568	27913.86
689.915	27829.11
690.262	27691.72
690.609	27705.95
690.956	27677.7
691.303	27658.04
691.65	27358.62
691.997	27538.95
692.344	27312.06
692.69	27435.45
693.037	27360.42
693.383	27045.86
693.73	27199.75
694.077	27079.53
694.423	26976.71
694.769	26848.57
695.116	26823.26
695.462	26811.96
695.808	26692.65
696.155	26757.95
696.501	26584.63
696.847	26525.64
697.193	26297.18
697.539	26407
697.885	26226.67
698.231	26197.07
698.577	26277.52
698.923	26068.03
699.269	26051.31
699.614	25982.83
699.96	25880.01
700.306	25868.94
700.651	25789.39
700.997	25731.99
701.342	25612
701.688	25699.68
702.033	25605.44
702.379	25505.11
702.724	25429.18
703.069	25461.04
703.415	25169.75
703.76	25189.86
704.105	25162.52
704.45	25096.3
704.795	25068.28
705.14	24963.65
705.485	24859.47
705.83	24782.19
706.175	24764.11
706.52	24671.68
706.865	24639.37
707.209	24515.3
707.554	24616.54
707.899	24633.94
708.243	24359.37
708.588	24431.91
708.932	24303.56
709.277	24215.87
709.621	24211.13
709.966	24069.44
710.31	24122.32
710.654	23968.2
710.998	23948.54
711.342	23879.61
711.687	23826.28
712.031	23799.61
712.375	23646.17
712.719	23744.7
713.063	23791.7
713.407	23722.55
713.75	23539.28
714.094	23539.28
714.438	23345.16
714.782	23601.2
715.125	23425.61
715.469	23483.01
715.812	23267.42
716.156	23174.55
716.499	23289.57
716.843	23186.75
717.186	23125.73
717.53	23106.07
717.873	23064.94
718.216	23138.39
718.559	22987.88
718.902	22810.94
719.246	22960.09
719.589	22742.92
719.932	22742.02
720.275	22732.07
720.617	22646.65
720.96	22692.07
721.303	22661.57
721.646	22664.73
721.989	22531.17
722.331	22598.06
722.674	22488.91
723.016	22444.85
723.359	22421.57
723.701	22475.36
724.044	22241.01
724.386	22131.86
724.729	22244.18
725.071	22241.92
725.413	22189.26
725.755	22076.5
726.097	22057.29
726.439	21888.48
726.782	21959.66
727.124	22015.03
727.465	21975.93
727.807	21916.27
728.149	21854.58
728.491	21842.6
728.833	21852.77
729.175	21709.05
729.516	21770.06
729.858	21724.19
730.199	21691.87
730.541	21604.19
730.882	21671.31
731.224	21630.86
731.565	21472.67
731.906	21493.46
732.248	21533.01
732.589	21356.06
732.93	21302.28
733.271	21330.3
733.612	21293.47
733.953	21421.82
734.294	21308.83
734.635	21244.65
734.976	21209.85
735.317	21210.98
735.658	21117.88
735.999	21154.94
736.339	21034.94
736.68	21133.7
737.021	20987.48
737.361	20937.77
737.702	21057.31
738.042	20943.87
738.383	20947.03
738.723	20908.62
739.063	20765.8
739.404	20832.01
739.744	20800.82
740.084	20725.57
740.424	20661.39
740.764	20671.56
741.104	20780.94
741.444	20566.7
741.784	20522.41
742.124	20551.11
742.464	20565.58
742.804	20497.1
743.143	20505.24
743.483	20470.89
743.823	20329.88
744.162	20348.18
744.502	20356.99
744.841	20253.72
745.181	20293.04
745.52	20263.44
745.86	20280.16
746.199	20170.11
746.538	20146.15
746.877	20230.44
747.216	20250.78
747.556	20054.85
747.895	20001.75
748.234	19995.19
748.573	19999.04
748.911	19852.6
749.25	19869.55
749.589	19733.73
749.928	19806.5
750.267	19788.65
750.605	19811.92
750.944	19612.61
751.283	19572.61
751.621	19663.23
751.96	19507.52
752.298	19524.02
752.636	19536.9
752.975	19420.75
753.313	19328.32
753.651	19432.05
753.989	19242.9
754.327	19261.65
754.666	19220.75
755.004	19188.44
755.342	19150.02
755.679	19191.83
756.017	19110.92
756.355	19132.84
756.693	18903.7
757.031	18941.66
757.368	18873.42
757.706	18863.92
758.044	18805.62
758.381	18670.48
758.719	18745.96
759.056	18884.26
759.394	18609.24
759.731	18532.86
760.068	18530.15
760.405	18453.99
760.743	18341.45
761.08	18465.29
761.417	18341.23
761.754	18269.82
762.091	18190.27
762.428	18130.61
762.765	18035.02
763.102	18104.62
763.438	18041.12
763.775	17943.72
764.112	17946.21
764.449	17941.69
764.785	17775.59
765.122	17732.2
765.458	17551.42
765.795	17602.94
766.131	17542.83
766.467	17550.06
766.804	17416.96
767.14	17457.63
767.476	17340.12
767.812	17373.57
768.148	17283.63
768.485	17178.32
768.821	17085.67
769.157	17003.41
769.492	16958.21
769.828	17050.19
770.164	16798.22
770.5	16710.99
770.836	16797.54
771.171	16691.78
771.507	16631.89
771.842	16501.05
772.178	16555.29
772.513	16495.4
772.849	16437.1
773.184	16382.63
773.519	16243.88
773.855	16274.16
774.19	16220.6
774.525	16202.07
774.86	16124.34
775.195	16030.55
775.53	15978.58
775.865	15872.82
776.2	15736.32
776.535	15739.94
776.87	15782.88
777.205	15583.33
777.539	15535.2
777.874	15611.58
778.209	15487.74
778.543	15490.68
778.878	15375.2
779.212	15430.79
779.547	15331.81
779.881	15358.93
780.215	15254.3
780.55	15217.47
780.884	15116
781.218	15029.22
781.552	15132.27
781.886	14953.75
782.22	14840.75
782.554	14771.15
782.888	14735.9
783.222	14622.45
783.556	14602.79
783.889	14646.63
784.223	14417.04
784.557	14518.5
784.89	14592.4
785.224	14343.37
785.557	14289.81
785.891	14161.45
786.224	14190.15
786.558	14280.54
786.891	14034
787.224	14091.62
787.557	13991.06
787.891	14003.94
788.224	13995.58
788.557	13918.52
788.89	13834.23
789.223	13913.55
789.556	13752.19
789.888	13719.65
790.221	13739.09
790.554	13559.21
790.887	13619.09
791.219	13559.43
791.552	13510.62
791.884	13441.47
792.217	13400.11
792.549	13336.84
792.882	13242.38
793.214	13183.4
793.546	13223.4
793.879	13219.55
794.211	13042.16
794.543	13145.66
794.875	13053.23
795.207	13066.79
795.539	12960.58
795.871	12933.91
796.203	12861.14
796.535	12806.01
796.867	12816.17
797.198	12721.49
797.53	12739.79
797.862	12692.34
798.193	12715.16
798.525	12540.7
798.856	12685.33
799.188	12467.26
799.519	12402.85
799.85	12434.04
800.182	12367.15
800.513	12467.93
800.844	12286.02
801.175	12310.2
801.506	12250.54
801.837	12174.38
802.168	12142.29
802.499	12109.53
802.83	12110.88
803.161	12077.21
803.491	12049.19
803.822	12036.53
804.153	11918.8
804.483	11897.78
804.814	11863.21
805.145	11856.2
805.475	11830.89
805.805	11774.17
806.136	11695.07
806.466	11790.44
806.796	11706.15
807.126	11635.19
807.457	11633.15
807.787	11627.96
808.117	11514.74
808.447	11537.11
808.777	11560.61
809.107	11513.16
809.436	11461.41
809.766	11395.65
810.096	11404.46
810.426	11301.19
810.755	11371.01
811.085	11336.67
811.414	11309.55
811.744	11187.29
812.073	11176.22
812.403	11187.52
812.732	11168.76
813.061	11056.22
813.39	11053.28
813.719	10991.82
814.049	11093.96
814.378	10997.69
814.707	11048.99
815.036	10947.3
815.365	10878.82
815.693	10826.85
816.022	10880.41
816.351	10761.31
816.68	10765.83
817.008	10787.75
817.337	10674.54
817.665	10680.86
817.994	10650.13
818.322	10608.32
818.651	10619.85
818.979	10584.14
819.307	10625.95
819.636	10569.45
819.964	10478.16
820.292	10529
820.62	10475.44
820.948	10457.59
821.276	10533.07
821.604	10505.27
821.932	10516.35
822.259	10527.65
822.587	10501.21
822.915	10445.84
823.243	10521.55
823.57	10490.36
823.898	10472.28
824.225	10461.89
824.553	10452.85
824.88	10455.11
825.207	10536.69
825.535	10492.85
825.862	10485.39
826.189	10440.64
826.516	10492.17
826.843	10509.12
827.17	10573.3
827.497	10469.34
827.824	10520.64
828.151	10571.49
828.478	10475.44
828.805	10543.69
829.131	10520.64
829.458	10420.31
829.785	10471.38
830.111	10436.12
830.438	10445.39
830.764	10492.17
831.09	10417.82
831.417	10350.7
831.743	10420.76
832.069	10405.84
832.395	10386.63
832.722	10439.97
833.048	10338.95
833.374	10437.71
833.7	10400.64
834.026	10334.66
834.351	10366.75
834.677	10336.01
835.003	10366.75
835.329	10363.81
835.654	10302.57
835.98	10285.62
836.306	10294.43
836.631	10183.02
836.956	10271.61
837.282	10321.78
837.607	10232.51
837.932	10190.71
838.258	10142.57
838.583	10125.4
838.908	10164.49
839.233	10200.88
839.558	10103.25
839.883	10125.4
840.208	10064.61
840.533	10031.61
840.858	10019.41
841.182	10025.97
841.507	10005.4
841.832	9968.34
842.156	9982.35
842.481	9960.88
842.805	9896.48
843.13	9923.37
843.454	9836.14
843.778	9751.17
844.103	9802.02
844.427	9799.53
844.751	9778.74
845.075	9753.66
845.399	9716.82
845.723	9695.35
846.047	9732.41
846.371	9638.86
846.695	9540.78
847.019	9539.65
847.343	9543.72
847.666	9476.38
847.99	9418.52
848.313	9408.58
848.637	9361.8
848.96	9335.14
849.284	9300.56
849.607	9262.14
849.931	9290.39
850.254	9191.18
850.577	9089.72
850.9	9061.47
851.223	9065.09
851.546	9025.54
851.869	8978.99
852.192	9009.72
852.515	8898.99
852.838	8929.95
853.161	8941.47
853.483	8863.06
853.806	8818.54
854.129	8865.77
854.451	8745.55
854.774	8740.58
855.096	8660.8
855.419	8721.37
855.741	8625.78
856.063	8619.45
856.385	8579
856.708	8523.63
857.03	8519.34
857.352	8562.73
857.674	8474.37
857.996	8404.31
858.318	8378.78
858.64	8433.01
858.961	8407.93
859.283	8379.91
859.605	8349.85
859.926	8371.77
860.248	8360.25
860.57	8304.88
860.891	8320.25
861.212	8262.85
861.534	8301.49
861.855	8248.38
862.176	8227.59
862.498	8200.02
862.819	8188.05
863.14	8202.28
863.461	8148.73
863.782	8078.67
864.103	8174.71
864.424	8159.57
864.745	8112.57
865.065	8158.9
865.386	8030.31
865.707	8047.71
866.027	8107.15
866.348	8085.68
866.668	8080.03
866.989	7974.72
867.309	7924.33
867.63	7993.48
867.95	7972.91
868.27	7948.28
868.59	7935.17
868.91	7920.03
869.23	7886.13
869.55	7861.95
869.87	7893.14
870.19	7925
870.51	7896.3
870.83	7878.45
871.15	7773.6
871.469	7802.52
871.789	7868.96
872.109	7776.76
872.428	7786.25
872.748	7786.02
873.067	7769.75
873.386	7736.76
873.706	7746.7
874.025	7735.63
874.344	7697.66
874.663	7691.56
874.982	7664.22
875.301	7692.24
875.62	7632.13
875.939	7581.06
876.258	7604.33
876.577	7599.59
876.896	7601.17
877.214	7539.93
877.533	7553.94
877.852	7596.65
878.17	7581.96
878.489	7575.86
878.807	7512.81
879.125	7448.63
879.444	7520.95
879.762	7491.34
880.08	7546.93
880.398	7433.04
880.716	7456.77
881.034	7379.71
881.352	7551.91
881.67	7385.81
881.988	7431.91
882.306	7382.64
882.624	7412.25
882.941	7290.9
883.259	7314.17
883.577	7379.93
883.894	7274.4
884.212	7277.11
884.529	7228.52
884.846	7216.77
885.164	7146.72
885.481	7207.96
885.798	7206.15
886.115	7126.38
886.432	7183.1
886.75	7101.3
887.067	7190.79
887.383	7128.87
887.7	7157.34
888.017	7076.66
888.334	7099.71
888.651	7053.16
888.967	7063.78
889.284	7048.42
889.6	7002.77
889.917	6952.37
890.233	6930.45
890.55	6899.72
890.866	6939.49
891.182	6858.36
891.498	6882.77
891.815	6883.45
892.131	6834.64
892.447	6850.91
892.763	6829.21
893.079	6780.63
893.395	6812.26
893.71	6773.4
894.026	6760.97
894.342	6743.57
894.657	6683.45
894.973	6665.15
895.289	6680.52
895.604	6671.48
895.92	6590.12
896.235	6607.3
896.55	6571.14
896.865	6607.3
897.181	6544.7
897.496	6501.76
897.811	6524.14
898.126	6507.87
898.441	6428.32
898.756	6385.61
899.071	6384.93
899.386	6359.17
899.7	6363.46
900.015	6341.54
900.33	6323.92
900.644	6309
900.959	6289.11
901.273	6242.34
901.588	6248.66
901.902	6215.22
902.216	6202.79
902.531	6185.61
902.845	6126.63
903.159	6119.85
903.473	6138.38
903.787	6058.39
904.101	6026.07
904.415	6036.47
904.729	6061.1
905.042	5971.38
905.356	5998.5
905.67	5998.05
905.984	5944.94
906.297	5926.41
906.611	5912.85
906.924	5846.41
907.237	5879.86
907.551	5871.95
907.864	5812.06
908.177	5808.67
908.491	5794.21
908.804	5782.01
909.117	5788.79
909.43	5723.25
909.743	5728.9
910.056	5639.64
910.368	5612.97
910.681	5591.05
910.994	5563.71
911.307	5583.6
911.619	5521.9
911.932	5513.32
912.244	5534.11
912.557	5500.89
912.869	5476.48
913.181	5481.45
913.494	5411.85
913.806	5385.41
914.118	5390.38
914.43	5331.4
914.742	5400.78
915.054	5356.71
915.366	5314.45
915.678	5285.75
915.99	5273.32
916.302	5204.17
916.613	5193.55
916.925	5168.92
917.236	5213.66
917.548	5130.05
917.859	5117.39
918.171	5132.76
918.482	5098.41
918.794	5072.42
919.105	5034.91
919.416	5024.51
919.727	4997.4
920.038	5020.45
920.349	5006.21
920.66	4958.53
920.971	4929.6
921.282	4941.13
921.593	4860.23
921.903	4931.86
922.214	4826.55
922.525	4843.73
922.835	4852.32
923.146	4831.75
923.456	4751.75
923.767	4738.65
924.077	4759.89
924.387	4735.71
924.697	4705.65
925.008	4720.12
925.318	4652.32
925.628	4655.26
925.938	4645.32
926.248	4564.87
926.558	4571.87
926.867	4557.86
927.177	4568.48
927.487	4531.65
927.796	4459.33
928.106	4486
928.416	4489.39
928.725	4465.66
929.034	4457.3
929.344	4466.79
929.653	4411.42
929.962	4351.54
930.271	4385.44
930.581	4356.06
930.89	4329.62
931.199	4319.45
931.508	4299.79
931.817	4270.86
932.125	4292.78
932.434	4296.4
932.743	4207.81
933.051	4246.23
933.36	4159
933.669	4165.33
933.977	4161.94
934.286	4160.13
934.594	4151.54
934.902	4076.74
935.21	4066.35
935.519	4062.51
935.827	4105.67
936.135	4056.18
936.443	4036.29
936.751	4046.69
937.059	3961.27
937.367	3936.63
937.674	3963.3
937.982	3958.1
938.29	3880.59
938.597	3954.94
938.905	3929.63
939.213	3895.96
939.52	3833.13
939.827	3925.56
940.135	3860.93
940.442	3811.67
940.749	3812.34
941.056	3831.33
941.363	3774.83
941.67	3788.39
941.977	3724.21
942.284	3747.03
942.591	3685.57
942.898	3653.25
943.205	3718.56
943.511	3681.27
943.818	3670.2
944.125	3634.27
944.431	3617.09
944.738	3625.91
945.044	3604.21
945.35	3602.63
945.657	3575.29
945.963	3613.25
946.269	3525.35
946.575	3540.94
946.881	3491
947.187	3476.08
947.493	3448.06
947.799	3459.36
948.105	3437.21
948.41	3385.91
948.716	3408.06
949.022	3437.66
949.327	3362.64
949.633	3368.29
949.938	3384.56
950.244	3329.64
950.549	3313.83
950.854	3352.69
951.16	3302.75
951.465	3297.33
951.77	3268.63
952.075	3256.2
952.38	3230.44
952.685	3235.41
952.99	3211
953.294	3200.61
953.599	3192.25
953.904	3201.96
954.209	3133.49
954.513	3140.04
954.818	3145.47
955.122	3124
955.426	3140.27
955.731	3122.87
956.035	3078.35
956.339	3055.08
956.643	3067.5
956.948	3061.4
957.252	3033.61
957.556	3052.14
957.86	3017.79
958.163	3048.97
958.467	2988.64
958.771	3006.26
959.075	3004.45
959.378	2944.12
959.682	2952.03
959.985	2934.85
960.289	2920.62
960.592	2900.5
960.896	2884.46
961.199	2888.07
961.502	2852.14
961.805	2862.09
962.108	2832.48
962.411	2822.31
962.714	2790.68
963.017	2853.27
963.32	2804.91
963.623	2793.16
963.926	2823.44
964.228	2770.34
964.531	2789.09
964.833	2741.86
965.136	2709.55
965.438	2736.21
965.741	2744.8
966.043	2709.55
966.345	2697.12
966.648	2685.37
966.95	2680.4
967.252	2637.46
967.554	2648.53
967.856	2614.86
968.158	2640.62
968.46	2592.04
968.761	2592.71
969.063	2575.09
969.365	2583.68
969.666	2582.32
969.968	2511.59
970.269	2518.82
970.571	2523.11
970.872	2530.12
971.174	2553.39
971.475	2520.63
971.776	2548.65
972.077	2488.31
972.378	2488.99
972.679	2467.52
972.98	2441.53
973.281	2443.79
973.582	2452.83
973.883	2418.71
974.183	2431.59
974.484	2439.95
974.785	2406.5
975.085	2401.08
975.386	2419.61
975.686	2366.28
975.986	2357.47
976.287	2389.78
976.587	2326.28
976.887	2327.18
977.187	2354.53
977.487	2295.32
977.787	2309.11
978.087	2243.12
978.387	2288.99
978.687	2275.89
978.987	2284.02
979.286	2272.95
979.586	2267.53
979.885	2241.54
980.185	2227.75
980.484	2235.44
980.784	2215.32
981.083	2178.49
981.382	2193.63
981.682	2198.83
981.981	2204.48
982.28	2191.82
982.579	2140.97
982.878	2135.78
983.177	2123.8
983.475	2103.24
983.774	2116.34
984.073	2063.24
984.372	2099.62
984.67	2081.77
984.969	2072.05
985.267	2074.08
985.566	2091.71
985.864	2074.08
986.162	2063.69
986.461	2037.25
986.759	2017.36
987.057	2027.31
987.355	2017.81
987.653	2044.48
987.951	2002.67
988.249	1965.16
988.547	1977.82
988.844	1969.91
989.142	1979.85
989.44	1964.48
989.737	1938.04
990.035	1942.56
990.332	1942.34
990.63	1889.91
990.927	1903.92
991.224	1926.74
991.521	1906.86
991.819	1873.86
992.116	1906.18
992.413	1865.28
992.71	1870.02
993.006	1874.77
993.303	1851.72
993.6	1843.13
993.897	1832.96
994.193	1844.26
994.49	1819.18
994.787	1842.23
995.083	1803.36
995.379	1790.25
995.676	1785.73
995.972	1784.37
996.268	1792.51
996.565	1769.91
996.861	1771.94
997.157	1744.15
997.453	1719.29
997.749	1708.9
998.044	1709.8
998.34	1714.77
998.636	1691.27
998.932	1686.07
999.227	1685.39
999.523	1687.65
999.818	1631.38
1000.114	1637.03
1000.409	1652.85
1000.704	1621.67
1001	1635
1001.295	1636.13
1001.59	1632.97
1001.885	1644.49
1002.18	1616.02
1002.475	1611.05
1002.77	1583.48
1003.065	1588.9
1003.359	1581.89
1003.654	1584.38
1003.949	1557.26
1004.243	1571.5
1004.538	1520.65
1004.832	1536.47
1005.127	1510.71
1005.421	1520.88
1005.715	1507.09
1006.009	1519.3
1006.304	1485.4
1006.598	1499.86
1006.892	1501.22
1007.186	1473.42
1007.48	1495.12
1007.773	1461.9
1008.067	1475.46
1008.361	1423.03
1008.655	1449.47
1008.948	1403.37
1009.242	1437.49
1009.535	1403.59
1009.829	1407.43
1010.122	1390.94
1010.415	1399.98
1010.708	1386.87
1011.001	1363.37
1011.295	1338.51
1011.588	1352.75
1011.881	1343.26
1012.173	1371.05
1012.466	1337.61
1012.759	1355.46
1013.052	1295.12
1013.344	1313.65
1013.637	1314.78
1013.93	1306.65
1014.222	1275.23
1014.514	1279.98
1014.807	1270.49
1015.099	1285.86
1015.391	1268.23
1015.683	1276.59
1015.976	1267.78
1016.268	1236.82
1016.56	1225.52
1016.851	1201.11
1017.143	1234.33
1017.435	1219.64
1017.727	1213.77
1018.018	1240.66
1018.31	1202.24
1018.602	1179.87
1018.893	1199.08
1019.185	1190.27
1019.476	1166.76
1019.767	1134.67
1020.058	1147.78
1020.35	1157.5
1020.641	1130.15
1020.932	1145.52
1021.223	1150.04
1021.514	1129.93
1021.804	1104.39
1022.095	1120.44
1022.386	1110.27
1022.677	1105.52
1022.967	1108.91
1023.258	1095.13
1023.548	1096.48
1023.839	1085.86
1024.129	1028.01
1024.419	1058.29
1024.709	1063.49
1025	1026.65
1025.29	1043.38
1025.58	1033.21
1025.87	1018.07
1026.16	1011.06
1026.449	1013.55
1026.739	1004.73
1027.029	984.62
1027.319	985.52
1027.608	995.24
1027.898	1009.71
1028.187	987.33
1028.477	977.16
1028.766	952.76
1029.055	950.05
1029.344	936.49
1029.634	941.91
1029.923	966.54
1030.212	928.13
1030.501	951.4
1030.79	944.17
1031.078	918.41
1031.367	919.09
1031.656	902.82
1031.945	910.5
1032.233	899.2
1032.522	898.07
1032.81	920.67
1033.099	901.23
1033.387	901.23
1033.675	894.23
1033.963	895.13
1034.251	860.1
1034.54	867.56
1034.828	847.68
1035.116	863.95
1035.403	839.31
1035.691	837.28
1035.979	844.51
1036.267	836.6
1036.554	814.46
1036.842	824.17
1037.129	812.2
1037.417	800.45
1037.704	845.64
1037.992	816.72
1038.279	809.03
1038.566	823.72
1038.853	823.72
1039.14	823.72
