Data from breadboard_white_FLMS001491_00006.txt Node
Date: Wed Feb 08 10:47:09 GMT 2017
User: dcchb
Spectrometer: FLMS00149
Trigger mode: 0
Integration Time (sec): 2.000000E-2
Scans to average: 10
Electric dark correction enabled: true
Nonlinearity correction enabled: false
Boxcar width: 0
XAxis mode: Wavelengths
Number of Pixels in Spectrum: 2048
>>>>>Begin Spectral Data<<<<<
341.393	-9.41
341.776	-9.41
342.16	-9.41
342.543	-77.65
342.927	-79.24
343.31	-56.64
343.693	-74.49
344.077	-67.71
344.46	-65.22
344.843	-47.37
345.226	-55.51
345.61	-42.85
345.993	-43.08
346.376	13.42
346.759	13.19
347.142	36.92
347.525	43.02
347.908	65.85
348.291	85.51
348.674	85.28
349.057	109.69
349.44	124.83
349.823	147.65
350.206	172.51
350.588	219.06
350.971	228.1
351.354	259.29
351.737	274.88
352.119	285.95
352.502	269.91
352.884	296.35
353.267	316.23
353.65	313.07
354.032	296.57
354.414	310.13
354.797	342.22
355.179	346.06
355.562	362.34
355.944	359.4
356.326	338.61
356.709	375.22
357.091	358.49
357.473	349.68
357.855	354.2
358.238	356.46
358.62	357.36
359.002	365.72
359.384	360.98
359.766	364.59
360.148	378.38
360.53	359.62
360.912	346.74
361.294	351.71
361.676	360.98
362.057	363.01
362.439	365.27
362.821	371.15
363.203	359.85
363.584	326.86
363.966	367.98
364.348	349.68
364.729	361.21
365.111	343.13
365.493	369.11
365.874	345.39
366.256	345.39
366.637	352.62
367.019	363.24
367.4	306.07
367.781	339.74
368.163	349.68
368.544	339.74
368.925	358.27
369.306	343.13
369.688	367.31
370.069	357.36
370.45	355.56
370.831	344.26
371.212	364.82
371.593	332.96
371.974	351.94
372.355	338.38
372.736	351.26
373.117	358.72
373.498	367.31
373.879	364.14
374.26	337.48
374.641	341.09
375.021	388.32
375.402	367.53
375.783	369.11
376.163	378.83
376.544	384.48
376.925	388.32
377.305	379.96
377.686	357.59
378.066	381.77
378.447	380.87
378.827	364.37
379.208	380.41
379.588	387.42
379.968	398.94
380.349	372.73
380.729	389.68
381.109	399.62
381.489	381.32
381.87	414.31
382.25	416.34
382.63	418.38
383.01	418.83
383.39	421.77
383.77	406.4
384.15	400.75
384.53	425.16
384.91	422.67
385.29	424.48
385.67	439.4
386.049	452.95
386.429	440.75
386.809	433.29
387.189	436.01
387.568	445.5
387.948	450.69
388.328	454.76
388.707	453.63
389.087	459.96
389.466	477.36
389.846	477.59
390.225	475.55
390.605	479.39
390.984	489.34
391.363	486.63
391.743	483.91
392.122	506.74
392.501	514.2
392.881	507.64
393.26	533.63
393.639	528.88
394.018	538.83
394.397	536.79
394.776	550.35
395.155	537.02
395.534	570.92
395.913	578.15
396.292	565.49
396.671	579.96
397.05	600.52
397.429	600.29
397.808	597.81
398.186	589.67
398.565	626.06
398.944	630.12
399.323	628.99
399.701	644.59
400.08	637.13
400.458	668.54
400.837	667.86
401.215	687.52
401.594	678.03
401.972	698.37
402.351	728.43
402.729	749.22
403.107	774.3
403.486	745.6
403.864	758.03
404.242	764.36
404.62	791.25
404.999	818.37
405.377	817.24
405.755	819.72
406.133	828.99
406.511	831.93
406.889	895.65
407.267	897.24
407.645	929.1
408.023	924.58
408.401	948.31
408.779	965.48
409.156	988.99
409.534	1009.78
409.912	1008.19
410.29	1064.46
410.667	1077.12
411.045	1111.92
411.422	1086.38
411.8	1125.25
412.178	1159.83
412.555	1167.29
412.933	1223.78
413.31	1241.63
413.687	1232.82
414.065	1256.32
414.442	1280.96
414.819	1325.25
415.197	1324.12
415.574	1365.7
415.951	1374.29
416.328	1404.12
416.705	1405.02
417.082	1394.85
417.46	1441.4
417.837	1445.24
418.214	1487.5
418.591	1475.98
418.967	1520.27
419.344	1564.34
419.721	1560.72
420.098	1575.18
420.475	1603.88
420.852	1591.23
421.228	1677.1
421.605	1668.52
421.982	1698.35
422.358	1713.26
422.735	1747.16
423.111	1731.11
423.488	1769.3
423.864	1788.96
424.241	1805.24
424.617	1835.29
424.994	1863.76
425.37	1887.49
425.746	1881.17
426.123	1891.33
426.499	1926.59
426.875	1977.89
427.251	2006.13
427.627	2043.19
428.003	2086.36
428.379	2075.51
428.756	2096.75
429.132	2156.86
429.507	2151.44
429.883	2199.12
430.259	2234.83
430.635	2272.79
431.011	2278.22
431.387	2362.06
431.763	2374.94
432.138	2401.83
432.514	2435.5
432.89	2440.92
433.265	2515.27
433.641	2557.53
434.016	2563.18
434.392	2634.37
434.767	2665.33
435.143	2633.91
435.518	2687.25
435.894	2710.75
436.269	2760.46
436.644	2821.71
437.02	2837.98
437.395	2817.86
437.77	2891.53
438.145	2919.78
438.52	2945.09
438.895	3008.82
439.271	2998.65
439.646	3081.13
440.021	3123.39
440.395	3122.26
440.77	3093.34
441.145	3123.84
441.52	3187.12
441.895	3150.06
442.27	3206.78
442.645	3241.13
443.019	3279.09
443.394	3296.72
443.769	3343.95
444.143	3306.66
444.518	3383.27
444.892	3343.27
445.267	3397.51
445.641	3428.02
446.016	3439.54
446.39	3461.46
446.764	3503.27
447.139	3483.83
447.513	3572.42
447.887	3573.55
448.262	3596.83
448.636	3591.85
449.01	3649.93
449.384	3709.14
449.758	3704.39
450.132	3806.09
450.506	3766.77
450.88	3838.18
451.254	3809.7
451.628	3903.03
452.002	3957.95
452.376	3967.66
452.75	4028.45
453.123	4029.81
453.497	4086.53
453.871	4137.15
454.244	4224.38
454.618	4259.41
454.992	4300.08
455.365	4304.83
455.739	4419.86
456.112	4443.81
456.486	4497.82
456.859	4562
457.232	4646.06
457.606	4597.48
457.979	4695.33
458.352	4785.04
458.725	4858.71
459.099	4886.51
459.472	4967.41
459.845	5030.91
460.218	5062.78
460.591	5104.58
460.964	5184.13
461.337	5281.53
461.71	5324.01
462.083	5462.99
462.456	5482.43
462.829	5467.06
463.201	5552.48
463.574	5579.37
463.947	5657.11
464.32	5832.93
464.692	5875.41
465.065	5898.69
465.438	5947.05
465.81	6035.63
466.183	6105.01
466.555	6209.64
466.928	6289.86
467.3	6327.38
467.672	6332.57
468.045	6542.06
468.417	6631.1
468.789	6652.11
469.161	6755.84
469.534	6896.85
469.906	7010.97
470.278	7019.79
470.65	7114.93
471.022	7305.66
471.394	7422.94
471.766	7480.57
472.138	7549.26
472.51	7727.79
472.882	7884.4
473.253	7938.41
473.625	8076.26
473.997	8179.3
474.369	8257.49
474.74	8322.35
475.112	8521.89
475.484	8717.82
475.855	8852.96
476.227	8875.11
476.598	9219.05
476.97	9258.37
477.341	9454.53
477.713	9578.82
478.084	9653.39
478.455	9983.33
478.827	10009.77
479.198	10259.02
479.569	10303.77
479.94	10518.45
480.311	10681.61
480.682	10969.74
481.053	11149.62
481.424	11309.39
481.795	11518.2
482.166	11660.8
482.537	11814.24
482.908	12093.33
483.279	12164.96
483.65	12418.74
484.021	12597.49
484.391	12754.55
484.762	12922.91
485.133	13047.65
485.503	13238.38
485.874	13467.98
486.244	13663.23
486.615	13865.71
486.985	14140.73
487.356	14268.41
487.726	14372.36
488.097	14773.03
488.467	14707.72
488.837	15081.27
489.207	15291.43
489.578	15459.79
489.948	15581.6
490.318	15777.07
490.688	15904.98
491.058	16102.26
491.428	16316.49
491.798	16492.31
492.168	16937.94
492.538	16963.71
492.908	17190.14
493.278	17371.15
493.648	17378.16
494.017	17601.66
494.387	17790.58
494.757	17867.86
495.126	18106.73
495.496	18226.72
495.866	18336.55
496.235	18576.09
496.605	18732.02
496.974	18845.69
497.344	19065.57
497.713	19159.13
498.082	19252.23
498.452	19474.37
498.821	19544.2
499.19	19711.43
499.559	19899.67
499.928	19975.6
500.298	20157.52
500.667	20344.63
501.036	20249.27
501.405	20527
501.774	20590.96
502.143	20740.33
502.512	20768.58
502.88	21080.66
503.249	21041.34
503.618	21312.29
503.987	21467.77
504.356	21524.49
504.724	21761.55
505.093	21735.56
505.462	21918.83
505.83	22126.28
506.199	22178.94
506.567	22493.5
506.936	22575.08
507.304	22752.71
507.672	22995.86
508.041	22888.07
508.409	23228.63
508.777	23331.9
509.145	23540.26
509.514	23539.35
509.882	23829.29
510.25	23792
510.618	24060.92
510.986	24117.42
511.354	24362.61
511.722	24601.7
512.09	24796.27
512.458	24753.11
512.826	24931.63
513.193	25251.85
513.561	25326.42
513.929	25425.63
514.297	25736.13
514.664	25870.14
515.032	26012.73
515.4	26258.38
515.767	26350.13
516.135	26487.52
516.502	26434.87
516.869	26903.33
517.237	26989.43
517.604	27056.1
517.972	27350.78
518.339	27568.85
518.706	27554.39
519.073	27767.04
519.44	27984.89
519.808	28313.92
520.175	28305.56
520.542	28682.95
520.909	28890.85
521.276	28960.91
521.643	29100.79
522.009	29410.16
522.376	29683.37
522.743	29784.84
523.11	30117.48
523.477	30409.68
523.843	30569.45
524.21	30872.04
524.577	31016.67
524.943	31336.44
525.31	31360.62
525.676	31711.34
526.043	31877.44
526.409	31972.35
526.776	32363.98
527.142	32458.21
527.508	32737.76
527.874	32957.86
528.241	32964.19
528.607	33172.55
528.973	33452.31
529.339	33508.13
529.705	33759.65
530.071	34209.13
530.437	34233.76
530.803	34400.08
531.169	34650.7
531.535	34772.73
531.901	34800.75
532.267	34988.54
532.632	35186.73
532.998	35346.27
533.364	35570.45
533.73	35638.24
534.095	36017.44
534.461	35952.13
534.826	36152.58
535.192	36272.8
535.557	36542.85
535.923	36654.71
536.288	36771.55
536.653	36841.83
537.019	36849.06
537.384	37083.86
537.749	37301.48
538.114	37301.25
538.479	37463.96
538.845	37602.03
539.21	37533.34
539.575	37781.69
539.94	37796.15
540.305	38311.85
540.67	38072.53
541.034	38284.5
541.399	38325.86
541.764	38619.86
542.129	38667.32
542.494	38659.86
542.858	38895.56
543.223	38983.24
543.587	39215.1
543.952	39190.24
544.316	39330.12
544.681	39382.55
545.045	39674.75
545.41	39713.62
545.774	39891.69
546.138	39861.64
546.503	39975.76
546.867	39991.12
547.231	40446.03
547.595	40348.63
547.959	40562.63
548.324	40648.06
548.688	40723.08
549.052	40931.89
549.416	40844.43
549.779	41048.27
550.143	41206.46
550.507	41516.06
550.871	41591.99
551.235	41587.47
551.599	41831.75
551.962	41954.91
552.326	41891.86
552.689	42179.77
553.053	42089.15
553.417	42283.27
553.78	42801.67
554.143	42692.75
554.507	42808.68
554.87	42976.81
555.234	43543.12
555.597	43221.77
555.96	43312.84
556.323	43611.82
556.686	43754.41
557.05	43983.34
557.413	44069.89
557.776	44117.34
558.139	44360.05
558.502	44582.19
558.865	44609.76
559.228	44855.63
559.59	45042.97
559.953	44962.29
560.316	45481.83
560.679	45450.42
561.041	45782.16
561.404	45880.23
561.767	46163.62
562.129	46041.36
562.492	46469.37
562.854	46349.15
563.217	46402.93
563.579	46627.79
563.941	47004.5
564.304	47099.19
564.666	47399.97
565.028	47385.96
565.39	47558.16
565.753	47825.49
566.115	47840.18
566.477	47999.73
566.839	48128.99
567.201	48419.6
567.563	48411.92
567.925	48719.03
568.287	48708.41
568.648	48769.88
569.01	48941.4
569.372	49034.28
569.734	49121.28
570.095	49414.83
570.457	49537.31
570.819	49554.04
571.18	49528.95
571.542	49914.25
571.903	49807.81
572.265	50013.23
572.626	50115.38
572.987	50154.47
573.349	50271.31
573.71	50304.75
574.071	50472.2
574.432	50498.42
574.794	50782.48
575.155	50638.08
575.516	50658.87
575.877	50818.18
576.238	50869.03
576.599	50920.1
576.96	51007.78
577.32	51034
577.681	51227.21
578.042	51280.54
578.403	51194.44
578.763	51275.57
579.124	51312.18
579.485	51532.97
579.845	51507.88
580.206	51336.14
580.566	51529.35
580.927	51481.44
581.287	51599.86
581.648	51495
582.008	51682.57
582.368	51627.2
582.728	51697.48
583.089	51593.98
583.449	51571.84
583.809	51583.14
584.169	51677.6
584.529	51650.93
584.889	51951.71
585.249	51802.79
585.609	51568.45
585.969	51833.3
586.329	51678.05
586.688	51788.78
587.048	51751.27
587.408	51577.71
587.768	51670.82
588.127	51653.64
588.487	51562.8
588.846	51819.74
589.206	51716.69
589.565	51736.8
589.925	51853.86
590.284	51770.93
590.643	51759.4
591.003	51727.76
591.362	51906.97
591.721	51819.06
592.08	51825.84
592.44	51912.62
592.799	51837.82
593.158	51793.3
593.517	51844.15
593.876	51927.08
594.235	51904.93
594.593	51786.75
594.952	51909.23
595.311	51770.7
595.67	51889.12
596.029	52001.2
596.387	52047.3
596.746	52061.54
597.104	51878.04
597.463	51872.39
597.822	51939.06
598.18	52008.43
598.538	51903.58
598.897	52062.22
599.255	51860.64
599.613	52366.39
599.972	52101.54
600.33	52078.26
600.688	52084.59
601.046	52094.31
601.404	52240.07
601.762	52195.77
602.12	52373.62
602.478	52251.14
602.836	52384.7
603.194	52305.83
603.552	52233.74
603.91	52184.02
604.268	52307.18
604.625	52282.55
604.983	52405.49
605.341	52224.02
605.698	52479.83
606.056	52428.08
606.413	52397.13
606.771	52537.91
607.128	52636.67
607.485	52450.46
607.843	52441.42
608.2	52596.22
608.557	52743.1
608.914	52595.09
609.272	52766.83
609.629	52839.15
609.986	52815.65
610.343	52751.24
610.7	52962.99
611.057	52812.03
611.414	52876.43
611.771	52914.17
612.127	53003.21
612.484	53024
612.841	53028.97
613.198	52955.75
613.554	53047.28
613.911	53145.13
614.267	53075.53
614.624	53064.9
614.98	53189.19
615.337	53354.39
615.693	53266.03
616.05	53200.49
616.406	53368.17
616.762	53249.98
617.118	53223.09
617.475	53214.96
617.831	53387.83
618.187	53357.78
618.543	53344.44
618.899	53478.68
619.255	53458.79
619.611	53406.36
619.967	53522.07
620.323	53542.18
620.678	53414.95
621.034	53405.01
621.39	53394.39
621.746	53291.56
622.101	53738.56
622.457	53406.82
622.812	53487.49
623.168	53569.98
623.523	53536.98
623.879	53560.48
624.234	53445.46
624.589	53470.32
624.945	53570.43
625.3	53566.36
625.655	53543.76
626.01	53518.45
626.365	53441.84
626.72	53475.06
627.075	53444.1
627.43	53522.97
627.785	53362.52
628.14	53482.52
628.495	53439.36
628.85	53384.22
629.205	53227.39
629.559	53470.54
629.914	53325.01
630.269	53326.59
630.623	53110.1
630.978	53162.3
631.332	53240.49
631.687	53269.19
632.041	53028.75
632.396	53150.33
632.75	53104.9
633.104	53094.28
633.459	52984.91
633.813	52919.6
634.167	52950.1
634.521	52958.92
634.875	52846.15
635.229	52873.72
635.583	52699.04
635.937	52695.42
636.291	52634.41
636.645	52642.54
636.999	52570
637.352	52620.4
637.706	52410.68
638.06	52577.69
638.413	52471.47
638.767	52319.84
639.121	52480.96
639.474	52274.64
639.828	52285.26
640.181	52280.74
640.534	52214.31
640.888	52184.7
641.241	52078.04
641.594	52078.94
641.947	52146.74
642.301	52035.33
642.654	52010.92
643.007	51994.42
643.36	51982.67
643.713	51832.39
644.066	52006.85
644.419	51789.23
644.771	51594.66
645.124	51159.64
645.477	51113.09
645.83	50967.11
646.182	50781.12
646.535	50648.92
646.888	50823.38
647.24	50628.36
647.593	50692.99
647.945	50714.91
648.298	50325.99
648.65	50448.48
649.002	50281.25
649.355	50531.19
649.707	50414.35
650.059	50518.98
650.411	50787
650.763	50871.74
651.115	51245.29
651.467	51110.83
651.819	51069.48
652.171	50937.73
652.523	50911.06
652.875	50910.38
653.227	50790.84
653.578	50908.12
653.93	50841.23
654.282	50685.08
654.633	50533.67
654.985	50551.75
655.337	50619.77
655.688	50695.93
656.039	50778.64
656.391	50525.99
656.742	50519.89
657.094	50567.57
657.445	50622.48
657.796	50576.61
658.147	50398.08
658.498	50333
658.849	50370.51
659.2	50421.36
659.551	50328.7
659.902	50425.88
660.253	50341.59
660.604	50416.16
660.955	50163.96
661.306	50270.4
661.656	50145.88
662.007	50256.16
662.358	50194.02
662.708	50187.24
663.059	50118.54
663.409	49900.92
663.76	50107.47
664.11	50096.85
664.461	50109.05
664.811	50194.25
665.161	49991.54
665.511	49905.67
665.862	49949.73
666.212	50046.23
666.562	50061.82
666.912	49888.49
667.262	49828.38
667.612	49811.66
667.962	49829.73
668.312	49827.48
668.662	49987.47
669.011	49789.06
669.361	49725.1
669.711	49785.67
670.06	49742.73
670.41	49719.46
670.76	49603.75
671.109	49745.22
671.459	49634.94
671.808	49515.39
672.157	49594.26
672.507	49321.95
672.856	49403.76
673.205	49425.45
673.554	49595.39
673.904	49381.61
674.253	49450.99
674.602	49425.68
674.951	48809.87
675.3	48572.37
675.649	49313.36
675.998	49224.78
676.346	49294.83
676.695	49210.77
677.044	48935.3
677.393	49191.56
677.741	49107.04
678.09	49010.32
678.438	48901.85
678.787	49007.16
679.135	49020.04
679.484	48596.32
679.832	48906.6
680.181	48533.5
680.529	48749.31
680.877	48445.82
681.225	48555.87
681.573	48647.17
681.922	48376.21
682.27	48265.03
682.618	48340.28
682.966	48222.77
683.314	48352.71
683.661	48121.98
684.009	47977.58
684.357	47862.1
684.705	47826.17
685.053	47854.19
685.4	47818.04
685.748	47598.61
686.095	47547.08
686.443	47376.24
686.79	47322.23
687.138	47511.83
687.485	47498.5
687.832	47280.2
688.18	47237.71
688.527	47070.49
688.874	46936.7
689.221	46924.27
689.568	46809.02
689.915	46752.75
690.262	46663.49
690.609	46489.71
690.956	46479.99
691.303	46354.35
691.65	46208.59
691.997	46201.81
692.344	45825.32
692.69	45836.39
693.037	45862.83
693.383	45520.7
693.73	45697.41
694.077	45285.67
694.423	45401.83
694.769	45183.3
695.116	45113.47
695.462	45079.35
695.808	44934.5
696.155	44940.15
696.501	44678.91
696.847	44654.73
697.193	44252.93
697.539	44542.87
697.885	44279.82
698.231	44192.37
698.577	44161.64
698.923	43983.79
699.269	43793.06
699.614	43635.1
699.96	43572.27
700.306	43591.25
700.651	43343.8
700.997	43317.14
701.342	43146.97
701.688	43141.78
702.033	43023.81
702.379	42927.77
702.724	42749.92
703.069	42835.12
703.415	42323.04
703.76	42474.9
704.105	42403.72
704.45	42225.19
704.795	42076.27
705.14	42009.6
705.485	41770.74
705.83	41720.8
706.175	41812.77
706.52	41536.85
706.865	41394.7
707.209	41453.68
707.554	41275.38
707.899	41409.17
708.243	41152
708.588	41034.03
708.932	40872.91
709.277	40832.68
709.621	40849.41
709.966	40469.3
710.31	40509.98
710.654	40175.75
710.998	40372.58
711.342	40271.12
711.687	40122.42
712.031	39982.31
712.375	39698.7
712.719	40002.42
713.063	39831.35
713.407	39806.95
713.75	39643.79
714.094	39576.45
714.438	39370.35
714.782	39401.53
715.125	39263.69
715.469	39330.8
715.812	38977.59
716.156	38967.87
716.499	38941.43
716.843	38896.24
717.186	38663.93
717.53	38906.41
717.873	38831.83
718.216	38626.41
718.559	38455.34
718.902	38318.63
719.246	38416.93
719.589	38316.37
719.932	38125.18
720.275	38091.74
720.617	38196.37
720.96	37997.28
721.303	37966.09
721.646	38013.77
721.989	37700.56
722.331	37795.48
722.674	37607.01
723.016	37740.56
723.359	37430.74
723.701	37423.73
724.044	37280.01
724.386	37059.68
724.729	37327.46
725.071	37194.59
725.413	37129.5
725.755	36962.05
726.097	36949.85
726.439	36666.24
726.782	36710.98
727.124	36875.05
727.465	36619.46
727.807	36545.56
728.149	36434.83
728.491	36412.91
728.833	36446.36
729.175	36236.19
729.516	36299.24
729.858	36141.51
730.199	36150.77
730.541	36103.54
730.882	36076.65
731.224	36132.47
731.565	35979.48
731.906	35845.7
732.248	35859.71
732.589	35668.07
732.93	35562.99
733.271	35599.15
733.612	35619.94
733.953	35540.17
734.294	35375.88
734.635	35227.63
734.976	35435.99
735.317	35192.15
735.658	35157.8
735.999	35045.72
736.339	35083
736.68	35199.61
737.021	35041.42
737.361	34807.76
737.702	35093.63
738.042	34765.5
738.383	34699.74
738.723	34867.42
739.063	34651.83
739.404	34707.65
739.744	34495
740.084	34459.52
740.424	34485.96
740.764	34307.43
741.104	34463.81
741.444	34163.25
741.784	34104.72
742.124	34033.31
742.464	33959.42
742.804	33895.69
743.143	33834.68
743.483	33785.41
743.823	33734.34
744.162	33647.11
744.502	33737.5
744.841	33622.48
745.181	33612.76
745.52	33356.5
745.86	33371.18
746.199	33397.62
746.538	33366.89
746.877	33385.42
747.216	33262.71
747.556	33034.24
747.895	33247.57
748.234	33006.45
748.573	32993.57
748.911	32869.5
749.25	32879.67
749.589	32683.52
749.928	32707.7
750.267	32770.3
750.605	32636.51
750.944	32556.29
751.283	32366.92
751.621	32514.71
751.96	32267.48
752.298	32238.33
752.636	32131.9
752.975	31966.48
753.313	31924.9
753.651	31960.6
753.989	31837.21
754.327	31615.52
754.666	31606.49
755.004	31517.67
755.342	31621.63
755.679	31594.96
756.017	31404.68
756.355	31371.01
756.693	31132.83
757.031	31388.41
757.368	31052.6
757.706	31014.18
758.044	30920.18
758.381	30950.01
758.719	30672.72
759.056	30784.81
759.394	30608.77
759.731	30408.32
760.068	30353.41
760.405	30261.66
760.743	30277.25
761.08	30209.69
761.417	30066.86
761.754	29913.87
762.091	29992.52
762.428	29726.53
762.765	29587.56
763.102	29514.79
763.438	29458.52
763.775	29283.38
764.112	29391.4
764.449	29425.07
764.785	29109.83
765.122	29014.92
765.458	28832.1
765.795	28757.07
766.131	28727.46
766.467	28594.14
766.804	28499.9
767.14	28390.52
767.476	28485.21
767.812	28270.75
768.148	28255.39
768.485	27921.38
768.821	27939.92
769.157	27844.1
769.492	27848.84
769.828	27793.48
770.164	27482.53
770.5	27396.65
770.836	27346.94
771.171	27301.29
771.507	27283.66
771.842	26962.77
772.178	26961.41
772.513	26918.47
772.849	26732.26
773.184	26662.43
773.519	26572.72
773.855	26487.98
774.19	26406.4
774.525	26252.5
774.86	26334.08
775.195	26113.52
775.53	26073.75
775.865	25867.43
776.2	25804.83
776.535	25545.85
776.87	25559.64
777.205	25438.74
777.539	25296.82
777.874	25409.59
778.209	25282.81
778.543	25108.8
778.878	24941.12
779.212	25032.87
779.547	24832.65
779.881	24883.27
780.215	24619.32
780.55	24741.58
780.884	24523.06
781.218	24479.89
781.552	24523.28
781.886	24264.76
782.22	24135.5
782.554	23987.02
782.888	23881.94
783.222	23782.96
783.556	23629.97
783.889	23636.75
784.223	23425.23
784.557	23347.04
784.89	23557.21
785.224	23209.64
785.557	23054.17
785.891	23118.35
786.224	23038.12
786.558	22955.19
786.891	22766.27
787.224	22647.85
787.557	22661.41
787.891	22611.47
788.224	22502.77
788.557	22509.32
788.89	22355.88
789.223	22339.38
789.556	22128.09
789.888	22168.99
790.221	22046.28
790.554	21929.23
790.887	21915.21
791.219	21809.68
791.552	21775.78
791.884	21685.62
792.217	21559.97
792.549	21479.52
792.882	21324.5
793.214	21339.41
793.546	21216.7
793.879	21109.81
794.211	20966.54
794.543	21021.9
794.875	20966.09
795.207	21001.57
795.539	20816.94
795.871	20865.98
796.203	20657.17
796.535	20575.81
796.867	20476.38
797.198	20382.37
797.53	20420.34
797.862	20224.86
798.193	20261.25
798.525	20146
798.856	20136.05
799.188	19957.75
799.519	19850.41
799.85	19775.38
800.182	19842.5
800.513	19797.3
800.844	19635.73
801.175	19811.32
801.506	19554.6
801.837	19504.88
802.168	19481.83
802.499	19378.56
802.83	19305.34
803.161	19221.27
803.491	19276.19
803.822	19114.16
804.153	19065.57
804.483	18921.85
804.814	18861.28
805.145	18806.37
805.475	18867.16
805.805	18759.59
806.136	18830.32
806.466	18715.07
806.796	18644.79
807.126	18504.23
807.457	18477.11
807.787	18504.91
808.117	18389.43
808.447	18268.76
808.777	18432.82
809.107	18297.46
809.436	18189.66
809.766	18214.75
810.096	18100.85
810.426	18012.27
810.755	18106.73
811.085	18000.29
811.414	17965.71
811.744	17791.93
812.073	17756.45
812.403	17811.14
812.732	17673.52
813.061	17686.63
813.39	17495.44
813.719	17541.32
814.049	17531.6
814.378	17502
814.707	17349.23
815.036	17413.41
815.365	17366.18
815.693	17200.31
816.022	17207.32
816.351	17008.45
816.68	16994.21
817.008	16978.62
817.337	16877.16
817.665	16962.8
817.994	16921
818.322	16936.14
818.651	16743.83
818.979	16655.47
819.307	16709.7
819.636	16661.12
819.964	16540.44
820.292	16626.09
820.62	16590.83
820.948	16563.72
821.276	16571.63
821.604	16531.18
821.932	16579.76
822.259	16559.2
822.587	16532.98
822.915	16414.12
823.243	16412.53
823.57	16417.73
823.898	16381.35
824.225	16361.91
824.553	16391.52
824.88	16365.76
825.207	16411.86
825.535	16366.21
825.862	16417.28
826.189	16364.4
826.516	16495.7
826.843	16436.04
827.17	16375.25
827.497	16406.21
827.824	16458.41
828.151	16448.01
828.478	16412.31
828.805	16446.43
829.131	16348.13
829.458	16255.93
829.785	16262.93
830.111	16272.2
830.438	16370.28
830.764	16354.68
831.09	16388.35
831.417	16244.86
831.743	16304.06
832.069	16254.57
832.395	16282.59
832.722	16298.19
833.048	16180.68
833.374	16158.53
833.7	16109.94
834.026	16137.06
834.351	16092.09
834.677	16084.41
835.003	16124.41
835.329	16043.73
835.654	16048.93
835.98	16003.28
836.306	16080.34
836.631	15966.44
836.956	15980.91
837.282	16051.87
837.607	15872.89
837.932	15769.39
838.258	15866.11
838.583	15824.75
838.908	15761.25
839.233	15707.47
839.558	15757.41
839.883	15701.59
840.208	15704.08
840.533	15651.2
840.858	15661.59
841.182	15596.51
841.507	15516.74
841.832	15460.02
842.156	15433.13
842.481	15436.29
842.805	15409.4
843.13	15333.24
843.454	15364.43
843.778	15262.51
844.103	15102.51
844.427	15245.56
844.751	15169.63
845.075	15121.27
845.399	15066.58
845.723	14984.1
846.047	14909.3
846.371	14865.91
846.695	14869.98
847.019	14776.87
847.343	14713.82
847.666	14587.95
847.99	14546.59
848.313	14485.35
848.637	14434.51
848.96	14399.93
849.284	14307.05
849.607	14241.74
849.931	14235.87
850.254	14142.31
850.577	13994.07
850.9	14018.02
851.223	13968.08
851.546	13863.9
851.869	13722.21
852.192	13865.03
852.515	13688.09
852.838	13682.44
853.161	13619.84
853.483	13586.85
853.806	13513.4
854.129	13469.34
854.451	13422.1
854.774	13316.57
855.096	13325.38
855.419	13342.56
855.741	13284.71
856.063	13217.82
856.385	13136.01
856.708	13102.11
857.03	13058.5
857.352	13038.84
857.674	12967.2
857.996	12984.83
858.318	12858.05
858.64	12961.33
858.961	12867.54
859.283	12800.43
859.605	12805.85
859.926	12752.97
860.248	12681.79
860.57	12596.59
860.891	12703.25
861.212	12617.38
861.534	12546.65
861.855	12456.25
862.176	12517.72
862.498	12471.85
862.819	12477.04
863.14	12390.49
863.461	12319.08
863.782	12310.5
864.103	12341.46
864.424	12294.22
864.745	12323.83
865.065	12223.27
865.386	12197.5
865.707	12122.48
866.027	12174.68
866.348	12075.7
866.668	12067.34
866.989	12058.52
867.309	11955.02
867.63	11968.36
867.95	12026.21
868.27	11874.57
868.59	11912.54
868.91	11908.02
869.23	11865.54
869.55	11829.38
869.87	11888.36
870.19	11771.07
870.51	11793.45
870.83	11767.91
871.15	11721.81
871.469	11695.37
871.789	11790.06
872.109	11700.12
872.428	11610.85
872.748	11707.8
873.067	11644.52
873.386	11596.62
873.706	11530.86
874.025	11496.05
874.344	11463.96
874.663	11439.11
874.982	11450.63
875.301	11421.93
875.62	11470.52
875.939	11365.66
876.258	11391.65
876.577	11288.6
876.896	11350.75
877.214	11272.78
877.533	11285.66
877.852	11260.81
878.17	11279.11
878.489	11209.51
878.807	11261.48
879.125	11165.67
879.444	11159.34
879.762	11174.25
880.08	11143.97
880.398	11150.98
880.716	11131.54
881.034	11108.95
881.352	11163.63
881.67	11059
881.988	11040.7
882.306	11047.7
882.624	11031.21
882.941	10915.73
883.259	10884.54
883.577	10843.19
883.894	10904.43
884.212	10802.74
884.529	10826.01
884.846	10842.06
885.164	10859.69
885.481	10680.03
885.798	10772.68
886.115	10684.32
886.432	10704.66
886.75	10666.24
887.067	10703.31
887.383	10560.26
887.7	10563.42
888.017	10561.16
888.334	10444.78
888.651	10458.57
888.967	10480.49
889.284	10398.46
889.6	10353.26
889.917	10318.91
890.233	10399.13
890.55	10268.52
890.866	10291.57
891.182	10317.78
891.498	10171.79
891.815	10141.51
892.131	10106.26
892.447	10138.8
892.763	10076.2
893.079	10095.41
893.395	9959.6
893.71	9964.57
894.026	9889.32
894.342	9922.54
894.657	9817.23
894.973	9812.26
895.289	9819.49
895.604	9792.14
895.92	9659.04
896.235	9682.54
896.55	9777.23
896.865	9655.42
897.181	9642.32
897.496	9617.91
897.811	9544.69
898.126	9506.95
898.441	9439.61
898.756	9386.28
899.071	9352.38
899.386	9435.99
899.7	9376.56
900.015	9307.64
900.33	9215.21
900.644	9194.65
900.959	9249.33
901.273	9145.38
901.588	9168.43
901.902	9078.72
902.216	9116.46
902.531	8961.66
902.845	9014.31
903.159	8943.8
903.473	8888.21
903.787	8855.67
904.101	8889.57
904.415	8796.69
904.729	8794.66
905.042	8817.48
905.356	8731.61
905.67	8657.03
905.984	8695.22
906.297	8666.75
906.611	8585.62
906.924	8542.46
907.237	8524.61
907.551	8525.96
907.864	8430.82
908.177	8433.31
908.491	8355.8
908.804	8328.91
909.117	8306.53
909.43	8247.55
909.743	8220.43
910.056	8220.66
910.368	8132.3
910.681	8156.03
910.994	8130.27
911.307	8144.05
911.619	8030.83
911.932	8009.82
912.244	7968.46
912.557	7961.01
912.869	7876.04
913.181	7899.09
913.494	7786.77
913.806	7784.51
914.118	7739.54
914.43	7754.68
914.742	7706.77
915.054	7597.85
915.366	7665.42
915.678	7579.55
915.99	7556.95
916.302	7556.95
916.613	7467.23
916.925	7455.93
917.236	7422.49
917.548	7322.38
917.859	7352.43
918.171	7295.94
918.482	7334.36
918.794	7224.75
919.105	7179.11
919.416	7170.97
919.727	7157.64
920.038	7155.6
920.349	7092.78
920.66	7084.19
920.971	7079.45
921.282	6979.11
921.593	6916.29
921.903	6915.61
922.214	6907.93
922.525	6850.53
922.835	6865.89
923.146	6847.14
923.456	6797.19
923.767	6685.56
924.077	6736.63
924.387	6696.41
924.697	6629.74
925.008	6599.01
925.318	6662.06
925.628	6569.86
925.938	6557.65
926.248	6525.56
926.558	6481.72
926.867	6430.42
927.177	6428.62
927.487	6394.94
927.796	6347.04
928.106	6378.67
928.416	6334.83
928.725	6288.73
929.034	6281.5
929.344	6230.88
929.653	6192.24
929.962	6134.16
930.271	6097.78
930.581	6116.31
930.89	6062.3
931.199	6074.73
931.508	5990.89
931.817	6039.25
932.125	6025.92
932.434	5975.07
932.743	5873.38
933.051	5892.13
933.36	5865.92
933.669	5870.66
933.977	5840.38
934.286	5815.75
934.594	5773.04
934.902	5749.99
935.21	5728.52
935.519	5690.1
935.827	5673.38
936.135	5598.81
936.443	5610.78
936.751	5601.97
937.059	5582.31
937.367	5524.69
937.674	5555.87
937.982	5518.81
938.29	5501.41
938.597	5527.4
938.905	5437.91
939.213	5424.35
939.52	5388.64
939.827	5449.21
940.135	5340.06
940.442	5340.74
940.749	5300.28
941.056	5329.44
941.363	5207.86
941.67	5243.11
941.977	5182.55
942.284	5160.63
942.591	5145.26
942.898	5149.1
943.205	5141.19
943.511	5085.83
943.818	5092.83
944.125	5050.35
944.431	4999.05
944.738	4983.46
945.044	4994.76
945.35	4955.21
945.657	4928.99
945.963	4982.55
946.269	4878.37
946.575	4881.09
946.881	4887.19
947.187	4822.33
947.493	4797.7
947.799	4826.17
948.105	4728.32
948.41	4749.34
948.716	4742.78
949.022	4688.78
949.327	4718.15
949.633	4654.2
949.938	4628.89
950.244	4627.31
950.549	4530.14
950.854	4576.01
951.16	4583.24
951.465	4541.66
951.77	4511.83
952.075	4486.52
952.38	4465.96
952.685	4455.79
952.99	4369.01
953.294	4404.26
953.599	4350.48
953.904	4382.12
954.209	4377.37
954.513	4336.92
954.818	4315.23
955.122	4331.5
955.426	4282.46
955.731	4229.58
956.035	4266.87
956.339	4219.41
956.643	4201.1
956.948	4164.27
957.252	4186.64
957.556	4144.38
957.86	4081.79
958.163	4084.5
958.467	4091.95
958.771	4072.97
959.075	4059.19
959.378	4011.5
959.682	4044.5
959.985	3999.08
960.289	3976.7
960.592	3959.08
960.896	3929.02
961.199	3906.2
961.502	3930.6
961.805	3917.72
962.108	3837.27
962.411	3886.54
962.714	3828.91
963.017	3791.17
963.32	3847.44
963.623	3748.01
963.926	3773.54
964.228	3759.53
964.531	3720.21
964.833	3720.89
965.136	3692.42
965.438	3664.62
965.741	3670.72
966.043	3630.95
966.345	3638.63
966.648	3630.5
966.95	3635.02
967.252	3618.29
967.554	3597.96
967.856	3542.36
968.158	3522.93
968.46	3563.61
968.761	3512.76
969.063	3485.64
969.365	3484.74
969.666	3453.33
969.968	3430.95
970.269	3402.26
970.571	3393.22
970.872	3420.11
971.174	3404.29
971.475	3357.74
971.776	3364.52
972.077	3317.29
972.378	3323.61
972.679	3314.57
972.98	3356.38
973.281	3288.36
973.582	3287.46
973.883	3226.44
974.183	3248.13
974.484	3226.89
974.785	3212.43
975.085	3183.5
975.386	3196.38
975.686	3195.93
975.986	3126.33
976.287	3132.66
976.587	3107.57
976.887	3117.29
977.187	3102.6
977.487	3113
977.787	3079.78
978.087	3075.26
978.387	3029.84
978.687	3053.56
978.987	2974.47
979.286	3005.66
979.586	2979.89
979.885	3005.43
980.185	2968.37
980.484	2921.14
980.784	2957.52
981.083	2893.34
981.382	2892.89
981.682	2920.91
981.981	2908.48
982.28	2835.26
982.579	2862.83
982.878	2880.69
983.177	2807.24
983.475	2858.54
983.774	2814.02
984.073	2778.54
984.372	2790.75
984.67	2756.17
984.969	2760.92
985.267	2750.07
985.566	2720.69
985.864	2696.96
986.162	2669.17
986.461	2691.09
986.759	2645.44
987.057	2652.9
987.355	2611.32
987.653	2602.73
987.951	2569.96
988.249	2611.77
988.547	2567.25
988.844	2573.12
989.142	2561.37
989.44	2559.57
989.737	2541.71
990.035	2546.01
990.332	2531.54
990.63	2499
990.927	2479.79
991.224	2511.43
991.521	2475.27
991.819	2445.44
992.116	2448.83
992.413	2428.04
992.71	2412.9
993.006	2393.24
993.303	2399.34
993.6	2400.7
993.897	2387.37
994.193	2369.74
994.49	2362.06
994.787	2336.07
995.083	2311.44
995.379	2314.37
995.676	2330.42
995.972	2303.98
996.268	2301.49
996.565	2252.45
996.861	2263.75
997.157	2259.91
997.453	2232.79
997.749	2239.12
998.044	2220.14
998.34	2210.87
998.636	2196.19
998.932	2186.69
999.227	2178.33
999.523	2181.04
999.818	2166.81
1000.114	2149.86
1000.409	2142.63
1000.704	2066.92
1001	2122.06
1001.295	2083.65
1001.59	2106.02
1001.885	2051.1
1002.18	2060.14
1002.475	2068.28
1002.77	2010.43
1003.065	2014.5
1003.359	2005.68
1003.654	2017.88
1003.949	1981.95
1004.243	1972.46
1004.538	1975.4
1004.832	1953.93
1005.127	1933.82
1005.421	1927.49
1005.715	1908.96
1006.009	1891.11
1006.304	1923.42
1006.598	1887.27
1006.892	1897.66
1007.186	1876.87
1007.48	1875.29
1007.773	1815.63
1008.067	1824.22
1008.361	1811.34
1008.655	1791.9
1008.948	1815.63
1009.242	1805.46
1009.535	1795.97
1009.829	1755.97
1010.122	1746.93
1010.415	1757.1
1010.708	1764.56
1011.001	1756.65
1011.295	1726.82
1011.588	1720.27
1011.881	1699.7
1012.173	1667.39
1012.466	1690.44
1012.759	1660.83
1013.052	1667.61
1013.344	1674.17
1013.637	1655.86
1013.93	1655.63
1014.222	1620.38
1014.514	1583.77
1014.807	1598.69
1015.099	1579.7
1015.391	1598.91
1015.683	1585.81
1015.976	1556.88
1016.268	1541.97
1016.56	1531.8
1016.851	1512.14
1017.143	1538.8
1017.435	1481.18
1017.727	1499.48
1018.018	1517.11
1018.31	1513.04
1018.602	1465.36
1018.893	1472.81
1019.185	1458.35
1019.476	1438.69
1019.767	1446.15
1020.058	1445.7
1020.35	1424.68
1020.641	1425.36
1020.932	1401.18
1021.223	1359.37
1021.514	1391.01
1021.804	1340.16
1022.095	1362.76
1022.386	1360.95
1022.677	1349.43
1022.967	1326.15
1023.258	1307.4
1023.548	1320.95
1023.839	1299.71
1024.129	1313.27
1024.419	1270.33
1024.709	1305.36
1025	1280.05
1025.29	1289.32
1025.58	1254.06
1025.87	1273.05
1026.16	1236.89
1026.449	1267.62
1026.739	1212.93
1027.029	1221.07
1027.319	1215.42
1027.608	1221.3
1027.898	1203.44
1028.187	1164.57
1028.477	1179.26
1028.766	1188.75
1029.055	1190.11
1029.344	1132.94
1029.634	1133.16
1029.923	1128.87
1030.212	1133.61
1030.501	1130.22
1030.79	1119.38
1031.078	1120.96
1031.367	1126.38
1031.656	1078.25
1031.945	1114.63
1032.233	1099.72
1032.522	1084.12
1032.81	1069.21
1033.099	1071.02
1033.387	1057.91
1033.675	1066.27
1033.963	1059.94
1034.251	1040.28
1034.54	1029.21
1034.828	1021.3
1035.116	997.57
1035.403	1009.32
1035.691	995.76
1035.979	995.09
1036.267	996.22
1036.554	974.52
1036.842	975.43
1037.129	963.9
1037.417	970.68
1037.704	948.76
1037.992	959.83
1038.279	933.17
1038.566	939.95
1038.853	939.95
1039.14	939.95
