Data from breadboard_black_back_FLMS001491_00014.txt Node
Date: Wed Feb 08 10:50:01 GMT 2017
User: dcchb
Spectrometer: FLMS00149
Trigger mode: 0
Integration Time (sec): 2.000000E-2
Scans to average: 10
Electric dark correction enabled: true
Nonlinearity correction enabled: false
Boxcar width: 0
XAxis mode: Wavelengths
Number of Pixels in Spectrum: 2048
>>>>>Begin Spectral Data<<<<<
341.393	-3.42
341.776	-3.42
342.16	-3.42
342.543	-66.47
342.927	-89.97
343.31	-67.15
343.693	-66.47
344.077	-68.05
344.46	-73.02
344.843	-46.35
345.226	-40.71
345.61	-31.44
345.993	-25.11
346.376	-27.15
346.759	13.3
347.142	36.81
347.525	49.46
347.908	59.18
348.291	78.61
348.674	79.74
349.057	128.33
349.44	116.13
349.823	132.62
350.206	177.37
350.588	192.96
350.971	210.14
351.354	227.99
351.737	247.65
352.119	264.6
352.502	282.9
352.884	260.53
353.267	290.13
353.65	284.26
354.032	313.41
354.414	314.31
354.797	325.61
355.179	311.15
355.562	331.49
355.944	332.17
356.326	337.14
356.709	338.49
357.091	353.63
357.473	333.75
357.855	357.25
358.238	350.92
358.62	370.58
359.002	364.48
359.384	339.85
359.766	338.72
360.148	355.44
360.53	360.19
360.912	343.01
361.294	361.54
361.676	336.69
362.057	316.12
362.439	347.76
362.821	353.86
363.203	343.92
363.584	349.57
363.966	350.92
364.348	326.29
364.729	340.75
365.111	322.22
365.493	314.54
365.874	339.4
366.256	328.55
366.637	340.53
367.019	335.78
367.4	335.56
367.781	336.23
368.163	348.89
368.544	322.45
368.925	343.24
369.306	349.34
369.688	333.52
370.069	356.8
370.45	343.01
370.831	340.3
371.212	353.18
371.593	357.02
371.974	350.02
372.355	354.76
372.736	350.47
373.117	340.3
373.498	333.97
373.879	329.68
374.26	358.61
374.641	352.28
375.021	364.71
375.402	363.58
375.783	366.97
376.163	387.31
376.544	372.17
376.925	364.03
377.305	376.46
377.686	332.84
378.066	381.43
378.447	371.26
378.827	377.59
379.208	382.11
379.588	373.07
379.968	418.72
380.349	390.47
380.729	397.25
381.109	402.22
381.489	403.58
381.87	394.76
382.25	407.87
382.63	413.07
383.01	422.56
383.39	418.94
383.77	425.05
384.15	404.48
384.53	415.1
384.91	433.18
385.29	428.44
385.67	442.67
386.049	439.51
386.429	436.12
386.809	451.49
387.189	457.13
387.568	440.19
387.948	451.71
388.328	463.91
388.707	465.5
389.087	438.83
389.466	465.95
389.846	463.91
390.225	483.57
390.605	479.51
390.984	477.93
391.363	506.17
391.743	496.23
392.122	497.59
392.501	507.76
392.881	512.05
393.26	524.03
393.639	539.39
394.018	494.2
394.397	509.56
394.776	509.11
395.155	511.6
395.534	517.7
395.913	533.52
396.292	524.25
396.671	555.21
397.05	562.89
397.429	547.75
397.808	568.54
398.186	549.56
398.565	558.83
398.944	566.96
399.323	570.13
399.701	577.81
400.08	580.52
400.458	578.04
400.837	573.97
401.215	598.15
401.594	598.83
401.972	625.27
402.351	591.59
402.729	604.48
403.107	619.39
403.486	635.44
403.864	619.84
404.242	641.54
404.62	622.55
404.999	667.75
405.377	662.33
405.755	657.36
406.133	667.52
406.511	667.98
406.889	677.47
407.267	694.64
407.645	697.81
408.023	704.81
408.401	699.39
408.779	717.24
409.156	713.17
409.534	717.47
409.912	751.36
410.29	758.82
410.667	761.99
411.045	762.44
411.422	784.81
411.8	783.91
412.178	803.79
412.555	817.35
412.933	816.22
413.31	814.64
413.687	820.97
414.065	833.17
414.442	846.96
414.819	879.95
415.197	856.45
415.574	864.36
415.951	870.23
416.328	880.85
416.705	887.18
417.082	887.41
417.46	924.69
417.837	934.86
418.214	928.76
418.591	937.12
418.967	954.07
419.344	973.96
419.721	978.48
420.098	995.2
420.475	968.99
420.852	1005.82
421.228	1006.95
421.605	1022.09
421.982	1025.71
422.358	1017.8
422.735	1042.2
423.111	1032.71
423.488	1034.07
423.864	1046.72
424.241	1087.4
424.617	1102.99
424.994	1110
425.37	1081.3
425.746	1119.72
426.123	1122.65
426.499	1142.09
426.875	1167.85
427.251	1157.91
427.627	1215.53
428.003	1191.35
428.379	1233.61
428.756	1212.82
429.132	1229.32
429.507	1264.35
429.883	1258.7
430.259	1302.31
430.635	1317.68
431.011	1317
431.387	1362.65
431.763	1359.26
432.138	1383.21
432.514	1362.87
432.89	1388.41
433.265	1399.48
433.641	1410.1
434.016	1438.8
434.392	1480.38
434.767	1509.08
435.143	1485.13
435.518	1522.42
435.894	1538.46
436.269	1547.28
436.644	1577.78
437.02	1600.16
437.395	1590.66
437.77	1631.34
438.145	1657.33
438.52	1650.55
438.895	1655.75
439.271	1666.14
439.646	1681.28
440.021	1702.3
440.395	1736.42
440.77	1721.06
441.145	1750.43
441.52	1750.66
441.895	1759.02
442.27	1786.59
442.645	1773.71
443.019	1827.95
443.394	1816.42
443.769	1835.18
444.143	1867.72
444.518	1888.28
444.892	1834.5
445.267	1894.16
445.641	1897.1
446.016	1879.7
446.39	1942.07
446.764	1920.83
447.139	1961.28
447.513	1982.29
447.887	1954.04
448.262	1959.92
448.636	1982.74
449.01	2023.2
449.384	2032.01
449.758	2047.38
450.132	2076.53
450.506	2076.08
450.88	2120.37
451.254	2103.87
451.628	2153.81
452.002	2176.86
452.376	2182.29
452.75	2222.51
453.123	2227.71
453.497	2280.59
453.871	2281.95
454.244	2332.79
454.618	2330.53
454.992	2397.65
455.365	2383.19
455.739	2442.17
456.112	2467.7
456.486	2479.23
456.859	2520.36
457.232	2524.43
457.606	2574.82
457.979	2590.41
458.352	2638.32
458.725	2626.8
459.099	2708.6
459.472	2728.04
459.845	2740.01
460.218	2780.69
460.591	2799.9
460.964	2807.36
461.337	2884.87
461.71	2902.04
462.083	2962.15
462.456	2985.66
462.829	2976.16
463.201	3073.11
463.574	3057.97
463.947	3146.33
464.32	3189.27
464.692	3190.85
465.065	3216.38
465.438	3268.13
465.81	3290.28
466.183	3357.85
466.555	3437.85
466.928	3441.01
467.3	3442.59
467.672	3529.82
468.045	3601.68
468.417	3610.27
468.789	3647.11
469.161	3675.13
469.534	3704.28
469.906	3814.33
470.278	3809.14
470.65	3880.77
471.022	3953.54
471.394	4043.71
471.766	4054.33
472.138	4144.04
472.51	4195.79
472.882	4258.62
473.253	4310.59
473.625	4375.45
473.997	4484.15
474.369	4504.49
474.74	4579.74
475.112	4636.69
475.484	4749.23
475.855	4790.81
476.227	4880.75
476.598	4980.41
476.97	4970.69
477.341	5146.5
477.713	5200.51
478.084	5208.65
478.455	5330
478.827	5387.85
479.198	5536.32
479.569	5615.42
479.94	5770.44
480.311	5776.54
480.682	5937.44
481.053	6010.89
481.424	6113.71
481.795	6180.6
482.166	6295.63
482.537	6394.15
482.908	6461.5
483.279	6520.03
483.65	6684.99
484.021	6834.82
484.391	6888.6
484.762	6949.85
485.133	7048.6
485.503	7136.73
485.874	7288.59
486.244	7367.91
486.615	7529.04
486.985	7560.45
487.356	7788.47
487.726	7824.85
488.097	7931.97
488.467	7964.96
488.837	8151.17
489.207	8184.39
489.578	8345.29
489.948	8439.75
490.318	8571.27
490.688	8580.99
491.058	8738.73
491.428	8872.96
491.798	8927.65
492.168	9049
492.538	9192.05
492.908	9308.43
493.278	9323.79
493.648	9342.32
494.017	9520.17
494.387	9642.2
494.757	9689.43
495.126	9841.52
495.496	9836.1
495.866	9921.97
496.235	10041.52
496.605	10112.7
496.974	10226.82
497.344	10199.03
497.713	10347.72
498.082	10405.12
498.452	10586.59
498.821	10574.16
499.19	10629.3
499.559	10832.68
499.928	10799.01
500.298	10849.4
500.667	11042.17
501.036	11025.67
501.405	11203.07
501.774	11175.27
502.143	11253.46
502.512	11353.8
502.88	11465.21
503.249	11472.44
503.618	11552.44
503.987	11654.81
504.356	11746.56
504.724	11749.49
505.093	11819.32
505.462	11895.25
505.83	12048.24
506.199	12174.57
506.567	12169.6
506.936	12252.53
507.304	12405.3
507.672	12487.78
508.041	12536.59
508.409	12649.81
508.777	12745.85
509.145	12856.13
509.514	12916.69
509.882	12987.2
510.25	13070.14
510.618	13166.63
510.986	13244.37
511.354	13362.78
511.722	13535.89
512.09	13614.08
512.458	13510.58
512.826	13714.64
513.193	13778.82
513.561	13857.46
513.929	14040.51
514.297	14167.51
514.664	14225.81
515.032	14413.38
515.4	14517.1
515.767	14478.91
516.135	14565.01
516.502	14558.01
516.869	14766.82
517.237	14807.94
517.604	14884.1
517.972	15154.6
518.339	15200.93
518.706	15214.71
519.073	15269.85
519.44	15446.35
519.808	15602.95
520.175	15696.51
520.542	15885.43
520.909	15962.49
521.276	16072.77
521.643	16202.48
522.009	16226.21
522.376	16372.2
522.743	16551.63
523.11	16710.72
523.477	16797.72
523.843	16896.48
524.21	17217.6
524.577	17195
524.943	17355.22
525.31	17453.07
525.676	17527.19
526.043	17789.11
526.409	17831.82
526.776	18123.79
527.142	18096.45
527.508	18205.82
527.874	18251.47
528.241	18507.73
528.607	18485.36
528.973	18634.51
529.339	18686.49
529.705	18956.76
530.071	18976.65
530.437	19122.18
530.803	19186.36
531.169	19408.95
531.535	19406.47
531.901	19446.92
532.267	19537.09
532.632	19713.58
532.998	19759.68
533.364	19877.64
533.73	20043.06
534.095	20179.1
534.461	20235.6
534.826	20280.34
535.192	20421.81
535.557	20576.15
535.923	20546.32
536.288	20652.31
536.653	20833.32
537.019	20753.78
537.384	20868.12
537.749	21016.14
538.114	21128.68
538.479	21099.76
538.845	21210.49
539.21	21196.25
539.575	21409.35
539.94	21433.08
540.305	21575
540.67	21579.97
541.034	21766.41
541.399	21807.31
541.764	21911.49
542.129	21846.85
542.494	22011.37
542.858	22064.25
543.223	22103.12
543.587	22292.72
543.952	22120.07
544.316	22327.75
544.681	22253.62
545.045	22405.03
545.41	22620.85
545.774	22761.86
546.138	22628.08
546.503	22743.33
546.867	22803.67
547.231	22966.6
547.595	23000.27
547.959	23084.56
548.324	23160.72
548.688	23348.06
549.052	23350.32
549.416	23355.97
549.779	23420.82
550.143	23556.19
550.507	23700.59
550.871	23666.47
551.235	23720.25
551.599	23994.37
551.962	24050.41
552.326	24072.79
552.689	24271.88
553.053	24123.63
553.417	24262.84
553.78	24580.57
554.143	24477.52
554.507	24597.07
554.87	24703.95
555.234	25006.09
555.597	24793.9
555.96	24917.28
556.323	25076.37
556.686	25168.12
557.05	25396.59
557.413	25394.78
557.776	25408.8
558.139	25532.41
558.502	25739.41
558.865	25762.91
559.228	25943.92
559.59	26141.43
559.953	26126.74
560.316	26307.3
560.679	26441.99
561.041	26442.44
561.404	26533.96
561.767	26827.97
562.129	26832.49
562.492	27093.04
562.854	27014.18
563.217	27128.75
563.579	27353.83
563.941	27446.26
564.304	27424.79
564.666	27726.93
565.028	27690.09
565.39	27848.73
565.753	27935.96
566.115	28142.51
566.477	28354.48
566.839	28300.24
567.201	28439.9
567.563	28481.03
567.925	28780.91
568.287	28748.82
568.648	28772.77
569.01	28885.54
569.372	29061.81
569.734	29009.15
570.095	29269.94
570.457	29342.7
570.819	29514.9
571.18	29513.32
571.542	29599.87
571.903	29688.91
572.265	29834.89
572.626	29835.12
572.987	29960.77
573.349	30116.92
573.71	30179.97
574.071	30194.66
574.432	30254.77
574.794	30605.49
575.155	30508.32
575.516	30413.41
575.877	30695.21
576.238	30636
576.599	30851.59
576.96	30807.3
577.32	30852.04
577.681	30887.97
578.042	31075.76
578.403	30916.67
578.763	31028.99
579.124	31129.1
579.485	31272.14
579.845	31448.86
580.206	31208.19
580.566	31237.57
580.927	31337
581.287	31482.76
581.648	31439.37
582.008	31553.49
582.368	31437.56
582.728	31488.41
583.089	31426.72
583.449	31489.54
583.809	31540.84
584.169	31578.35
584.529	31574.28
584.889	31793.71
585.249	31595.75
585.609	31466.71
585.969	31690.66
586.329	31472.36
586.688	31537
587.048	31672.13
587.408	31573.83
587.768	31603.43
588.127	31603.43
588.487	31567.05
588.846	31705.8
589.206	31597.78
589.565	31613.6
589.925	31748.06
590.284	31637.33
590.643	31719.36
591.003	31816.54
591.362	31918.91
591.721	31742.19
592.08	31843.2
592.44	31883.43
592.799	31825.12
593.158	31805.24
593.517	31907.16
593.876	31882.3
594.235	31739.48
594.593	31964.33
594.952	31931.56
595.311	31738.8
595.67	31892.69
596.029	32210.88
596.387	32103.31
596.746	32122.52
597.104	32004.1
597.463	32010.2
597.822	32148.73
598.18	32052.01
598.538	32118.68
598.897	32244.55
599.255	32040.49
599.613	32591.21
599.972	32187.37
600.33	32409.06
600.688	32183.53
601.046	32322.51
601.404	32294.72
601.762	32328.61
602.12	32492.22
602.478	32569.96
602.836	32497.42
603.194	32439.8
603.552	32497.2
603.91	32405.22
604.268	32516.63
604.625	32561.83
604.983	32585.78
605.341	32407.93
605.698	32637.08
606.056	32793.01
606.413	32713.01
606.771	32727.47
607.128	32770.64
607.485	32802.27
607.843	32720.47
608.2	32952.78
608.557	33018.09
608.914	32863.97
609.272	33079.1
609.629	33174.01
609.986	33252.88
610.343	33045.2
610.7	33393.44
611.057	33323.16
611.414	33229.61
611.771	33201.13
612.127	33241.81
612.484	33453.78
612.841	33479.32
613.198	33384.86
613.554	33398.42
613.911	33571.97
614.267	33579.88
614.624	33464.63
614.98	33583.27
615.337	33844.96
615.693	33656.04
616.05	33731.29
616.406	33843.6
616.762	33740.55
617.118	33774
617.475	33737.16
617.831	33774
618.187	33784.62
618.543	33972.86
618.899	33993.2
619.255	34061.22
619.611	34056.48
619.967	33972.19
620.323	34139.41
620.678	34004.05
621.034	33971.06
621.39	33991.85
621.746	34035.91
622.101	34296.92
622.457	33971.06
622.812	34024.16
623.168	34242.24
623.523	34145.06
623.879	34309.13
624.234	33951.85
624.589	34152.07
624.945	34223.7
625.3	34101.67
625.655	34092.86
626.01	34081.79
626.365	34156.81
626.72	34124.95
627.075	34175.12
627.43	34162.46
627.785	34106.19
628.14	34070.71
628.495	34037.27
628.85	34100.77
629.205	33963.37
629.559	34168.56
629.914	33960.89
630.269	34028.23
630.623	34035.91
630.978	33844.73
631.332	34145.29
631.687	33981
632.041	33852.64
632.396	33813.32
632.75	33731.29
633.104	33779.42
633.459	33628.24
633.813	33720.89
634.167	33621.46
634.521	33613.33
634.875	33698.52
635.229	33624.4
635.583	33389.83
635.937	33416.27
636.291	33435.7
636.645	33386.44
636.999	33323.84
637.352	33392.99
637.706	33293.56
638.06	33344.18
638.413	33275.48
638.767	33174.92
639.121	33294.24
639.474	33170.17
639.828	33083.85
640.181	33153.45
640.534	32996.17
640.888	32871.65
641.241	32879.56
641.594	32974.25
641.947	32891.76
642.301	32890.18
642.654	32926.11
643.007	32804.08
643.36	32799.11
643.713	32521.15
644.066	32847.02
644.419	32584.43
644.771	32416.75
645.124	32115.74
645.477	32165.91
645.83	31962.3
646.182	31696.54
646.535	31480.73
646.888	31557.56
647.24	31422.2
647.593	31506.04
647.945	31502.87
648.298	31235.53
648.65	31277.79
649.002	31218.81
649.355	31371.8
649.707	31293.16
650.059	31445.92
650.411	31908.29
650.763	31848.85
651.115	32197.54
651.467	31957.32
651.819	31958.68
652.171	31889.98
652.523	31895.86
652.875	31823.54
653.227	31632.36
653.578	31877.1
653.93	31788.06
654.282	31655.86
654.633	31718.46
654.985	31625.13
655.337	31704.22
655.688	31626.48
656.039	31563.66
656.391	31438.02
656.742	31596.88
657.094	31536.77
657.445	31684.34
657.796	31487.51
658.147	31501.74
658.498	31277.79
658.849	31563.66
659.2	31404.34
659.551	31465.59
659.902	31524.57
660.253	31355.31
660.604	31388.75
660.955	31327.74
661.306	31382.2
661.656	31169.32
662.007	31411.35
662.358	31294.74
662.708	31252.94
663.059	31261.3
663.409	31117.8
663.76	31220.17
664.11	31209.77
664.461	31238.02
664.811	31336.1
665.161	31220.17
665.511	31138.81
665.862	31104.24
666.212	31233.05
666.562	31216.78
666.912	31149.89
667.262	31045.94
667.612	30977.24
667.962	31051.36
668.312	30944.92
668.662	31121.41
669.011	31053.62
669.361	30885.04
669.711	30954.41
670.06	30948.76
670.41	30877.13
670.76	30742.44
671.109	30870.57
671.459	30822.21
671.808	30808.88
672.157	30922.77
672.507	30614.31
672.856	30609.11
673.205	30683.46
673.554	30846.39
673.904	30637.81
674.253	30895.43
674.602	30713.51
674.951	30381.32
675.3	30181.1
675.649	30567.53
675.998	30489.57
676.346	30613.18
676.695	30685.94
677.044	30388.33
677.393	30542.9
677.741	30498.83
678.09	30369.34
678.438	30330.25
678.787	30349.23
679.135	30412.73
679.484	30166.64
679.832	30362.56
680.181	30172.51
680.529	30215.9
680.877	30169.57
681.225	30113.53
681.573	30263.13
681.922	30053.64
682.27	29877.83
682.618	30005.51
682.966	29953.08
683.314	29946.53
683.661	29820.66
684.009	29644.62
684.357	29607.1
684.705	29637.38
685.053	29568.01
685.4	29572.75
685.748	29477.84
686.095	29405.75
686.443	29240.11
686.79	29104.07
687.138	29177.28
687.485	29316.72
687.832	29076.72
688.18	29192.65
688.527	29062.03
688.874	28950.17
689.221	28943.39
689.568	28884.64
689.915	28788.37
690.262	28878.99
690.609	28866.11
690.956	28674.7
691.303	28663.85
691.65	28482.39
691.997	28524.65
692.344	28285.78
692.69	28364.42
693.037	28259.34
693.383	28074.04
693.73	28166.24
694.077	27894.15
694.423	28088.5
694.769	27865.45
695.116	27777.77
695.462	27735.29
695.808	27609.87
696.155	27850.54
696.501	27491
696.847	27505.69
697.193	27244
697.539	27406.93
697.885	27103.44
698.231	27181.86
698.577	27139.6
698.923	27132.14
699.269	26893.5
699.614	26808.53
699.96	26701.64
700.306	26763.34
700.651	26608.76
700.997	26475.21
701.342	26613.51
701.688	26547.75
702.033	26386.4
702.379	26473.4
702.724	26280.86
703.069	26294.87
703.415	26110.02
703.76	26005.39
704.105	26014.2
704.45	25969.46
704.795	25822.34
705.14	25896.01
705.485	25701.67
705.83	25642.69
706.175	25660.31
706.52	25553.2
706.865	25552.52
707.209	25433.88
707.554	25284.73
707.899	25434.11
708.243	25294.45
708.588	25184.62
708.932	25088.58
709.277	25135.36
709.621	25127.9
709.966	24936.49
710.31	24975.13
710.654	24778.98
710.998	24824.86
711.342	24803.84
711.687	24725.42
712.031	24723.62
712.375	24501.25
712.719	24516.84
713.063	24430.97
713.407	24483.85
713.75	24479.78
714.094	24396.62
714.438	24147.13
714.782	24369.27
715.125	24164.53
715.469	24219.22
715.812	24069.4
716.156	23953.24
716.499	23948.72
716.843	24093.58
717.186	23795.96
717.53	23961.83
717.873	23880.47
718.216	23986.46
718.559	23791.21
718.902	23646.13
719.246	23568.62
719.589	23578.79
719.932	23520.71
720.275	23444.33
720.617	23473.25
720.96	23479.13
721.303	23438.68
721.646	23522.29
721.989	23299.02
722.331	23353.03
722.674	23233.71
723.016	23301.05
723.359	23132.47
723.701	23212.47
724.044	23136.09
724.386	22946.26
724.729	22946.49
725.071	22950.55
725.413	22900.61
725.755	22964.34
726.097	22900.16
726.439	22698.58
726.782	22639.83
727.124	22753.95
727.465	22669.66
727.807	22659.94
728.149	22555.76
728.491	22569.55
728.833	22626.72
729.175	22473.96
729.516	22401.64
729.858	22423.34
730.199	22469.89
730.541	22349.67
730.882	22335.43
731.224	22489.1
731.565	22128.43
731.906	22237.35
732.248	22273.28
732.589	21986.74
732.93	22118.49
733.271	22120.07
733.612	22021.09
733.953	22046.62
734.294	22080.07
734.635	21891.37
734.976	22003.69
735.317	21763.02
735.658	21950.13
735.999	21816.35
736.339	21759.85
736.68	21814.31
737.021	21700.64
737.361	21645.73
737.702	21702.23
738.042	21685.5
738.383	21568.67
738.723	21694.32
739.063	21610.25
739.404	21612.28
739.744	21617.93
740.084	21427.66
740.424	21389.92
740.764	21277.38
741.104	21478.96
741.444	21391.27
741.784	21198.96
742.124	21221.79
742.464	21191.05
742.804	21196.7
743.143	21209.13
743.483	21182.69
743.823	21020.66
744.162	21021.34
744.502	21126.87
744.841	20958.97
745.181	20923.49
745.52	20930.95
745.86	20932.3
746.199	20946.31
746.538	20883.94
746.877	20857.73
747.216	20806.88
747.556	20636.49
747.895	20684.4
748.234	20620.45
748.573	20630.84
748.911	20583.61
749.25	20501.58
749.589	20538.41
749.928	20448.93
750.267	20435.82
750.605	20367.12
750.944	20384.52
751.283	20248.48
751.621	20163.06
751.96	20139.56
752.298	20221.36
752.636	20154.02
752.975	20069.05
753.313	19860.47
753.651	19968.26
753.989	19916.06
754.327	19837.42
754.666	19745.44
755.004	19773.92
755.342	19813.69
755.679	19683.52
756.017	19650.53
756.355	19758.77
756.693	19499.35
757.031	19661.83
757.368	19560.81
757.706	19476.97
758.044	19360.59
758.381	19477.43
758.719	19406.02
759.056	19368.05
759.394	19302.74
759.731	19174.83
760.068	19093.03
760.405	19003.09
760.743	19018.23
761.08	19090.77
761.417	18895.29
761.754	18846.71
762.091	18839.93
762.428	18775.07
762.765	18604.68
763.102	18769.87
763.438	18594.96
763.775	18532.37
764.112	18585.7
764.449	18474.29
764.785	18460.28
765.122	18313.61
765.458	18224.13
765.795	18155.88
766.131	18256.44
766.467	18054.64
766.804	18009.44
767.14	17951.14
767.476	17909.56
767.812	17822.55
768.148	17894.19
768.485	17728.09
768.821	17681.31
769.157	17595.89
769.492	17569.91
769.828	17566.29
770.164	17390.7
770.5	17356.58
770.836	17290.82
771.171	17225.51
771.507	17291.27
771.842	17091.27
772.178	17073.87
772.513	17028
772.849	16939.19
773.184	16901.22
773.519	16885.86
773.855	16781.68
774.19	16824.61
774.525	16682.92
774.86	16722.47
775.195	16635.47
775.53	16524.96
775.865	16483.61
776.2	16292.88
776.535	16205.42
776.87	16155.25
777.205	16171.3
777.539	16064.86
777.874	16077.97
778.209	15907.8
778.543	15901.47
778.878	15863.51
779.212	15830.06
779.547	15726.56
779.881	15804.3
780.215	15691.76
780.55	15804.08
780.884	15587.36
781.218	15531.77
781.552	15543.07
781.886	15404.54
782.22	15372.9
782.554	15273.69
782.888	15135.39
783.222	15112.79
783.556	15085.9
783.889	15046.58
784.223	14925.23
784.557	14993.7
784.89	14929.97
785.224	14831.9
785.557	14799.81
785.891	14750.77
786.224	14687.5
786.558	14643.43
786.891	14519.14
787.224	14511.91
787.557	14481.62
787.891	14389.2
788.224	14374.51
788.557	14411.12
788.89	14348.07
789.223	14296.09
789.556	14217.45
789.888	14138.13
790.221	14105.82
790.554	14015.87
790.887	14031.69
791.219	13956.67
791.552	13947.85
791.884	13868.31
792.217	13762.1
792.549	13751.47
792.882	13680.74
793.214	13660.18
793.546	13733.85
793.879	13546.96
794.211	13573.85
794.543	13588.77
794.875	13474.65
795.207	13535.44
795.539	13346.29
795.871	13301.99
796.203	13266.29
796.535	13186.52
796.867	13141.77
797.198	13191.04
797.53	13106.29
797.862	13077.37
798.193	13102.45
798.525	12978.39
798.856	13056.8
799.188	12859.29
799.519	12903.59
799.85	12796.47
800.182	12805.74
800.513	12806.87
800.844	12659.75
801.175	12722.12
801.506	12714.44
801.837	12574.33
802.168	12535.46
802.499	12496.14
802.83	12435.35
803.161	12413.88
803.491	12438.51
803.822	12442.58
804.153	12384.73
804.483	12245.53
804.814	12179.09
805.145	12253.66
805.475	12187
805.805	12079.43
806.136	12112.65
806.466	12177.5
806.796	12052.08
807.126	11970.96
807.457	12008.7
807.787	11986.78
808.117	11868.59
808.447	11907.23
808.777	11979.32
809.107	11824.07
809.436	11760.34
809.766	11762.6
810.096	11786.78
810.426	11634.24
810.755	11761.02
811.085	11631.08
811.414	11651.19
811.744	11547.46
812.073	11539.33
812.403	11525.77
812.732	11427.02
813.061	11528.71
813.39	11410.97
813.719	11366.23
814.049	11471.76
814.378	11429.28
814.707	11315.83
815.036	11377.3
815.365	11301.82
815.693	11151.32
816.022	11163.07
816.351	11159.9
816.68	11102.73
817.008	11115.61
817.337	11053.24
817.665	11001.49
817.994	11030.64
818.322	11027.48
818.651	10928.95
818.979	10939.8
819.307	10998.33
819.636	10962.4
819.964	10796.52
820.292	10847.6
820.62	10821.61
820.948	10781.16
821.276	10861.38
821.604	10863.41
821.932	10888.72
822.259	10858.22
822.587	10802.63
822.915	10797.65
823.243	10864.54
823.57	10805.34
823.898	10815.51
824.225	10781.38
824.553	10837.43
824.88	10808.5
825.207	10789.97
825.535	10870.87
825.862	10755.4
826.189	10743.42
826.516	10739.12
826.843	10827.48
827.17	10860.93
827.497	10826.35
827.824	10707.03
828.151	10832.91
828.478	10836.75
828.805	10812.79
829.131	10750.2
829.458	10811.66
829.785	10702.97
830.111	10769.41
830.438	10772.34
830.764	10756.07
831.09	10843.08
831.417	10736.64
831.743	10648.96
832.069	10741.38
832.395	10705.9
832.722	10732.57
833.048	10644.21
833.374	10710.88
833.7	10682.63
834.026	10710.2
834.351	10690.54
834.677	10552.24
835.003	10672.23
835.329	10620.48
835.654	10563.54
835.98	10550.43
836.306	10575.74
836.631	10536.19
836.956	10610.09
837.282	10554.27
837.607	10503.88
837.932	10468.4
838.258	10534.16
838.583	10407.61
838.908	10467.72
839.233	10356.08
839.558	10379.13
839.883	10382.75
840.208	10327.61
840.533	10339.81
840.858	10417.32
841.182	10361.51
841.507	10364.67
841.832	10307.05
842.156	10236.31
842.481	10248.97
842.805	10200.16
843.13	10192.25
843.454	10198.35
843.778	10152.93
844.103	10124.68
844.427	10064.79
844.751	10072.48
845.075	10015.08
845.399	10008.75
845.723	10020.73
846.047	10019.6
846.371	9868.41
846.695	9928.98
847.019	9857.57
847.343	9836.78
847.666	9779.38
847.99	9783.67
848.313	9647.85
848.637	9637.46
848.96	9632.49
849.284	9589.55
849.607	9517.24
849.931	9501.19
850.254	9467.29
850.577	9387.07
850.9	9374.19
851.223	9308.2
851.546	9275.21
851.869	9273.63
852.192	9283.34
852.515	9237.47
852.838	9142.33
853.161	9147.53
853.483	9086.74
853.806	9048.1
854.129	9045.16
854.451	9005.61
854.774	9034.99
855.096	8978.72
855.419	8883.58
855.741	8964.03
856.063	8913.18
856.385	8846.52
856.708	8794.99
857.03	8788.44
857.352	8787.54
857.674	8766.07
857.996	8670.25
858.318	8674.32
858.64	8684.94
858.961	8638.84
859.283	8629.58
859.605	8638.84
859.926	8609.01
860.248	8614.43
860.57	8500.99
860.891	8616.69
861.212	8521.33
861.534	8495.57
861.855	8498.96
862.176	8465.06
862.498	8471.84
862.819	8446.98
863.14	8378.73
863.461	8407.21
863.782	8404.95
864.103	8381.45
864.424	8314.33
864.745	8417.6
865.065	8373.99
865.386	8284.5
865.707	8281.34
866.027	8329.24
866.348	8291.05
866.668	8252.18
866.989	8241.34
867.309	8173.77
867.63	8209.7
867.95	8166.76
868.27	8156.37
868.59	8149.59
868.91	8075.69
869.23	8156.59
869.55	8088.8
869.87	8120.66
870.19	8131.51
870.51	8091.28
870.83	8071.85
871.15	8080.89
871.469	8033.66
871.789	8014.45
872.109	8019.65
872.428	8004.51
872.748	8007.9
873.067	8002.7
873.386	7980.78
873.706	7970.84
874.025	7936.94
874.344	7870.5
874.663	7943.94
874.982	7967.45
875.301	7909.37
875.62	7832.31
875.939	7861.46
876.258	7894.45
876.577	7818.98
876.896	7831.18
877.214	7817.17
877.533	7822.14
877.852	7775.81
878.17	7825.53
878.489	7727.68
878.807	7779.88
879.125	7774.23
879.444	7765.19
879.762	7719.99
880.08	7706.44
880.398	7663.05
880.716	7668.24
881.034	7658.08
881.352	7627.57
881.67	7613.33
881.988	7585.76
882.306	7569.26
882.624	7655.14
882.941	7610.17
883.259	7498.76
883.577	7563.16
883.894	7465.76
884.212	7447.23
884.529	7517.29
884.846	7399.55
885.164	7446.56
885.481	7402.04
885.798	7441.36
886.115	7362.49
886.432	7411.08
886.75	7346.67
887.067	7341.02
887.383	7276.84
887.7	7368.82
888.017	7308.03
888.334	7278.42
888.651	7283.4
888.967	7229.39
889.284	7212.66
889.6	7221.93
889.917	7109.16
890.233	7127.69
890.55	7129.28
890.866	7155.94
891.182	7105.55
891.498	7028.94
891.815	7061.93
892.131	7011.76
892.447	7031.88
892.763	6996.85
893.079	6958.21
893.395	6897.19
893.71	6900.58
894.026	6929.51
894.342	6855.16
894.657	6880.02
894.973	6850.64
895.289	6823.75
895.604	6813.13
895.92	6849.28
896.235	6788.49
896.55	6720.92
896.865	6671.66
897.181	6705.56
897.496	6665.33
897.811	6698.55
898.126	6635.96
898.441	6683.86
898.756	6650.42
899.071	6591.89
899.386	6579.23
899.7	6517.09
900.015	6522.29
900.33	6455.62
900.644	6442.97
900.959	6443.64
901.273	6404.1
901.588	6422.4
901.902	6389.86
902.216	6346.47
902.531	6345.34
902.845	6310.09
903.159	6315.51
903.473	6256.3
903.787	6223.31
904.101	6224.44
904.415	6216.53
904.729	6106.48
905.042	6108.06
905.356	6165.46
905.67	6147.61
905.984	6147.61
906.297	6094.73
906.611	6026.25
906.924	6065.12
907.237	6045.01
907.551	5992.36
907.864	5983.77
908.177	5901.96
908.491	5946.48
908.804	5910.55
909.117	5867.84
909.43	5863.77
909.743	5815.86
910.056	5822.64
910.368	5806.15
910.681	5773.15
910.994	5724.12
911.307	5703.55
911.619	5672.59
911.932	5672.59
912.244	5601.86
912.557	5683.21
912.869	5569.09
913.181	5613.84
913.494	5645.92
913.806	5546.49
914.118	5550.79
914.43	5517.34
914.742	5485.7
915.054	5481.86
915.366	5431.69
915.678	5425.14
915.99	5419.94
916.302	5398.02
916.613	5326.39
916.925	5277.35
917.236	5333.16
917.548	5294.75
917.859	5285.93
918.171	5257.91
918.482	5205.26
918.794	5255.65
919.105	5183.79
919.416	5172.72
919.727	5175.2
920.038	5161.42
920.349	5092.27
920.66	5069.89
920.971	5094.08
921.282	5066.51
921.593	5025.38
921.903	5010.01
922.214	4899.28
922.525	4958.71
922.835	4937.02
923.146	4935.44
923.456	4931.82
923.767	4903.35
924.077	4889.33
924.387	4843.91
924.697	4852.5
925.008	4785.83
925.318	4802.78
925.628	4805.5
925.938	4745.84
926.248	4716.01
926.558	4683.01
926.867	4668.32
927.177	4620.19
927.487	4652.73
927.796	4599.4
928.106	4631.49
928.416	4540.87
928.725	4542
929.034	4485.05
929.344	4559.85
929.653	4529.57
929.962	4494.09
930.271	4494.77
930.581	4449.57
930.89	4486.86
931.199	4414.32
931.508	4405.73
931.817	4386.52
932.125	4352.17
932.434	4360.76
932.743	4345.62
933.051	4304.72
933.36	4316.02
933.669	4250.26
933.977	4238.73
934.286	4275.79
934.594	4259.29
934.902	4265.85
935.21	4210.93
935.519	4179.97
935.827	4184.95
936.135	4145.63
936.443	4118.28
936.751	4094.55
937.059	4123.93
937.367	4088.23
937.674	4086.87
937.982	4048.9
938.29	3997.38
938.597	4000.09
938.905	3995.8
939.213	3951.05
939.52	3998.06
939.827	3948.12
940.135	3925.52
940.442	3928.68
940.749	3884.39
941.056	3921
941.363	3831.51
941.67	3840.1
941.977	3834.45
942.284	3809.14
942.591	3800.78
942.898	3775.24
943.205	3773.88
943.511	3741.57
943.818	3783.15
944.125	3721.46
944.431	3728.01
944.738	3678.75
945.044	3676.03
945.35	3657.05
945.657	3673.55
945.963	3618.86
946.269	3611.18
946.575	3608.46
946.881	3556.94
947.187	3561.46
947.493	3559.88
947.799	3530.5
948.105	3496.15
948.41	3490.73
948.716	3494.12
949.022	3452.99
949.327	3457.73
949.633	3422.48
949.938	3461.8
950.244	3426.1
950.549	3401.46
950.854	3385.87
951.16	3389.04
951.465	3347.45
951.77	3362.6
952.075	3317.17
952.38	3352.2
952.685	3319.21
952.99	3343.16
953.294	3282.82
953.599	3252.54
953.904	3240.79
954.209	3275.37
954.513	3249.6
954.818	3203.5
955.122	3230.4
955.426	3174.13
955.731	3172.77
956.035	3167.12
956.339	3165.09
956.643	3165.54
956.948	3146.33
957.252	3115.37
957.556	3145.43
957.86	3104.75
958.163	3106.78
958.467	3061.59
958.771	3036.95
959.075	3037.18
959.378	3048.71
959.682	3033.56
959.985	2974.81
960.289	2987.92
960.592	3009.61
960.896	2940.46
961.199	2933.68
961.502	2942.72
961.805	2948.14
962.108	2917.18
962.411	2891.87
962.714	2901.82
963.017	2878.31
963.32	2883.74
963.623	2852.55
963.926	2840.8
964.228	2836.96
964.531	2798.32
964.833	2800.12
965.136	2775.94
965.438	2754.02
965.741	2739.56
966.043	2731.65
966.345	2755.15
966.648	2712.44
966.95	2749.28
967.252	2696.17
967.554	2692.1
967.856	2704.31
968.158	2666.34
968.46	2708.38
968.761	2653.91
969.063	2618.66
969.365	2618.21
969.666	2642.84
969.968	2580.47
970.269	2581.37
970.571	2589.06
970.872	2617.3
971.174	2585.44
971.475	2549.74
971.776	2572.33
972.077	2566.91
972.378	2535.72
972.679	2505.44
972.98	2525.1
973.281	2494.14
973.582	2476.06
973.883	2484.88
974.183	2483.3
974.484	2469.96
974.785	2478.78
975.085	2456.18
975.386	2436.97
975.686	2404.88
975.986	2433.35
976.287	2418.89
976.587	2389.51
976.887	2384.54
977.187	2374.82
977.487	2376.86
977.787	2366.24
978.087	2361.72
978.387	2323.07
978.687	2338.22
978.987	2321.49
979.286	2293.02
979.586	2293.7
979.885	2270.87
980.185	2264.09
980.484	2281.27
980.784	2228.84
981.083	2253.47
981.382	2262.96
981.682	2226.13
981.981	2189.97
982.28	2215.05
982.579	2173.02
982.878	2182.29
983.177	2136.19
983.475	2137.99
983.774	2172.57
984.073	2157.88
984.372	2156.75
984.67	2150.65
984.969	2128.5
985.267	2138.45
985.566	2074.27
985.864	2115.62
986.162	2085.79
986.461	2086.47
986.759	2076.53
987.057	2052.35
987.355	2030.43
987.653	2055.06
987.951	2013.93
988.249	2021.84
988.547	2022.52
988.844	2004.21
989.142	2019.35
989.44	1979.81
989.737	1981.39
990.035	1982.74
990.332	1960.15
990.63	1951.33
990.927	1954.72
991.224	1934.38
991.521	1936.87
991.819	1891.9
992.116	1910.66
992.413	1908.17
992.71	1903.2
993.006	1878.11
993.303	1894.61
993.6	1881.73
993.897	1883.54
994.193	1872.92
994.49	1841.51
994.787	1874.95
995.083	1833.82
995.379	1833.14
995.676	1818.23
995.972	1841.73
996.268	1792.92
996.565	1779.59
996.861	1815.52
997.157	1788.4
997.453	1772.35
997.749	1750.66
998.044	1749.76
998.34	1752.47
998.636	1699.81
998.932	1726.93
999.227	1693.71
999.523	1732.58
999.818	1695.07
1000.114	1710.66
1000.409	1658.91
1000.704	1686.48
1001	1679.7
1001.295	1656.2
1001.59	1632.47
1001.885	1656.88
1002.18	1627.05
1002.475	1635.18
1002.77	1613.26
1003.065	1618.91
1003.359	1590.66
1003.654	1602.42
1003.949	1570.33
1004.243	1571.46
1004.538	1574.62
1004.832	1558.57
1005.127	1544.79
1005.421	1552.93
1005.715	1545.47
1006.009	1568.29
1006.304	1537.56
1006.598	1539.37
1006.892	1497.56
1007.186	1487.16
1007.48	1509.08
1007.773	1496.2
1008.067	1488.29
1008.361	1442.65
1008.655	1473.83
1008.948	1449.2
1009.242	1425.47
1009.535	1423.89
1009.829	1427.28
1010.122	1416.66
1010.415	1422.76
1010.708	1374.4
1011.001	1396.09
1011.295	1399.48
1011.588	1389.09
1011.881	1373.72
1012.173	1371.91
1012.466	1362.42
1012.759	1381.4
1013.052	1354.96
1013.344	1369.43
1013.637	1314.29
1013.93	1313.61
1014.222	1353.38
1014.514	1343.67
1014.807	1273.84
1015.099	1298.47
1015.391	1260.96
1015.683	1303.21
1015.976	1279.03
1016.268	1246.94
1016.56	1256.89
1016.851	1252.82
1017.143	1246.72
1017.435	1232.93
1017.727	1268.64
1018.018	1245.59
1018.31	1214.86
1018.602	1201.97
1018.893	1191.13
1019.185	1185.25
1019.476	1196.32
1019.767	1198.13
1020.058	1195.42
1020.35	1166.04
1020.641	1180.96
1020.932	1168.98
1021.223	1141.41
1021.514	1148.87
1021.804	1132.37
1022.095	1131.02
1022.386	1124.69
1022.677	1097.12
1022.967	1129.43
1023.258	1090.34
1023.548	1088.3
1023.839	1113.84
1024.129	1079.94
1024.419	1072.94
1024.709	1052.83
1025	1065.25
1025.29	1022.32
1025.58	1059.83
1025.87	1052.6
1026.16	1034.07
1026.449	1042.66
1026.739	1029.32
1027.029	1025.71
1027.319	1015.09
1027.608	997.01
1027.898	1016.22
1028.187	999.49
1028.477	978.25
1028.766	996.56
1029.055	988.19
1029.344	964.92
1029.634	970.12
1029.923	949.1
1030.212	954.07
1030.501	944.81
1030.79	962.43
1031.078	935.31
1031.367	929.21
1031.656	929.89
1031.945	934.64
1032.233	913.17
1032.522	891.93
1032.81	891.02
1033.099	919.72
1033.387	918.82
1033.675	905.94
1033.963	889.44
1034.251	860.74
1034.54	882.66
1034.828	863.23
1035.116	872.27
1035.403	858.93
1035.691	838.37
1035.979	839.27
1036.267	851.93
1036.554	819.61
1036.842	836.33
1037.129	823
1037.417	826.62
1037.704	805.83
1037.992	820.97
1038.279	822.1
1038.566	816.67
1038.853	816.67
1039.14	816.67
