Data from breadboard_black_back_FLMS001491_00041.txt Node
Date: Wed Feb 08 10:50:25 GMT 2017
User: dcchb
Spectrometer: FLMS00149
Trigger mode: 0
Integration Time (sec): 2.000000E-2
Scans to average: 10
Electric dark correction enabled: true
Nonlinearity correction enabled: false
Boxcar width: 0
XAxis mode: Wavelengths
Number of Pixels in Spectrum: 2048
>>>>>Begin Spectral Data<<<<<
341.393	-12.87
341.776	-12.87
342.16	-12.87
342.543	-69.59
342.927	-51.74
343.31	-62.81
343.693	-62.58
344.077	-63.71
344.46	-80.66
344.843	-59.42
345.226	-44.05
345.61	-22.81
345.993	-14.45
346.376	4.53
346.759	11.54
347.142	22.84
347.525	32.1
347.908	52.67
348.291	79.11
348.674	93.35
349.057	114.36
349.44	126.79
349.823	143.06
350.206	173.79
350.588	204.98
350.971	198.43
351.354	225.32
351.737	232.55
352.119	251.31
352.502	283.85
352.884	276.17
353.267	281.81
353.65	296.96
354.032	288.59
354.414	305.99
354.797	305.99
355.179	329.72
355.562	326.33
355.944	345.54
356.326	361.81
356.709	329.5
357.091	341.25
357.473	353.45
357.855	345.32
358.238	331.98
358.62	358.87
359.002	351.87
359.384	348.48
359.766	354.58
360.148	334.24
360.53	325.2
360.912	345.77
361.294	353.45
361.676	340.34
362.057	352.77
362.439	332.21
362.821	329.5
363.203	349.16
363.584	337.41
363.966	340.57
364.348	334.02
364.729	352.32
365.111	344.64
365.493	328.14
365.874	344.86
366.256	334.24
366.637	336.73
367.019	341.47
367.4	314.13
367.781	302.38
368.163	342.15
368.544	317.97
368.925	340.34
369.306	342.6
369.688	349.38
370.069	344.41
370.45	328.14
370.831	326.11
371.212	342.83
371.593	336.05
371.974	362.04
372.355	346.67
372.736	342.15
373.117	344.19
373.498	356.39
373.879	334.69
374.26	363.39
374.641	365.88
375.021	355.03
375.402	364.3
375.783	370.17
376.163	378.08
376.544	385.09
376.925	368.37
377.305	346.45
377.686	375.37
378.066	382.38
378.447	374.47
378.827	386.22
379.208	392.32
379.588	393.68
379.968	384.64
380.349	394.58
380.729	409.04
381.109	381.02
381.489	398.65
381.87	397.29
382.25	406.78
382.63	391.42
383.01	393.9
383.39	412.43
383.77	397.97
384.15	405.43
384.53	407.46
384.91	418.76
385.29	409.72
385.67	418.76
386.049	415.82
386.429	419.21
386.809	437.29
387.189	447.23
387.568	436.39
387.948	433
388.328	451.98
388.707	470.74
389.087	458.53
389.466	469.83
389.846	466.22
390.225	451.75
390.605	463.05
390.984	465.31
391.363	461.02
391.743	486.33
392.122	475.48
392.501	494.46
392.881	506.89
393.26	478.42
393.639	489.49
394.018	483.39
394.397	486.33
394.776	502.83
395.155	510.96
395.534	510.28
395.913	515.93
396.292	496.72
396.671	512.99
397.05	519.55
397.429	515.71
397.808	529.72
398.186	551.64
398.565	543.05
398.944	557.51
399.323	557.97
399.701	546.89
400.08	537.85
400.458	561.36
400.837	569.26
401.215	577.63
401.594	571.3
401.972	572.88
402.351	558.87
402.729	578.08
403.107	596.16
403.486	584.63
403.864	596.38
404.242	623.5
404.62	616.5
404.999	626.66
405.377	629.38
405.755	646.55
406.133	651.52
406.511	631.64
406.889	642.26
407.267	670.28
407.645	680
408.023	682.03
408.401	685.19
408.779	677.51
409.156	715.02
409.534	701.24
409.912	722.48
410.29	750.05
410.667	734.01
411.045	739.66
411.422	735.81
411.8	758.19
412.178	765.19
412.555	776.04
412.933	781.46
413.31	782.14
413.687	804.74
414.065	827.56
414.442	801.57
414.819	840.44
415.197	831.63
415.574	827.56
415.951	863.49
416.328	887.45
416.705	854.91
417.082	848.35
417.46	871.63
417.837	889.93
418.214	889.48
418.591	898.07
418.967	931.52
419.344	923.15
419.721	921.57
420.098	925.64
420.475	966.32
420.852	936.71
421.228	966.77
421.605	954.11
421.982	975.36
422.358	984.62
422.735	987.33
423.111	999.99
423.488	1035.69
423.864	1032.76
424.241	1018.97
424.617	1032.76
424.994	1045.41
425.37	1066.65
425.746	1076.37
426.123	1110.04
426.499	1085.41
426.875	1091.96
427.251	1126.99
427.627	1133.09
428.003	1159.08
428.379	1165.41
428.756	1189.14
429.132	1180.1
429.507	1201.56
429.883	1215.58
430.259	1228.46
430.635	1231.62
431.011	1232.98
431.387	1271.39
431.763	1287.89
432.138	1291.28
432.514	1319.98
432.89	1314.78
433.265	1360.66
433.641	1386.19
434.016	1367.66
434.392	1395.91
434.767	1427.77
435.143	1411.05
435.518	1430.48
435.894	1449.02
436.269	1478.85
436.644	1487.21
437.02	1495.34
437.395	1518.62
437.77	1530.6
438.145	1552.52
438.52	1531.95
438.895	1581.44
439.271	1589.58
439.646	1619.63
440.021	1623.93
440.395	1644.04
440.77	1644.72
441.145	1663.25
441.52	1709.35
441.895	1685.39
442.27	1678.84
442.645	1710.03
443.019	1724.94
443.394	1738.5
443.769	1747.31
444.143	1740.76
444.518	1782.79
444.892	1781.66
445.267	1775.33
445.641	1821.66
446.016	1818.05
446.39	1824.6
446.764	1852.62
447.139	1834.09
447.513	1861.43
447.887	1864.15
448.262	1875.9
448.636	1889.23
449.01	1918.61
449.384	1932.84
449.758	1955.67
450.132	1993.41
450.506	1986.4
450.88	1990.47
451.254	2033.41
451.628	2013.75
452.002	2063.69
452.376	2111.82
452.75	2124.48
453.123	2127.19
453.497	2182.56
453.871	2184.14
454.244	2221.42
454.618	2208.54
454.992	2275.66
455.365	2249.9
455.739	2305.04
456.112	2336.22
456.486	2358.37
456.859	2361.53
457.232	2429.33
457.606	2388.88
457.979	2462.1
458.352	2521.98
458.725	2545.03
459.099	2559.27
459.472	2613.73
459.845	2612.83
460.218	2684.46
460.591	2680.62
460.964	2680.85
461.337	2735.31
461.71	2783.22
462.083	2839.49
462.456	2788.64
462.829	2839.26
463.201	2895.31
463.574	2911.35
463.947	2940.5
464.32	3023.89
464.692	3011.69
465.065	3069.09
465.438	3116.09
465.81	3160.16
466.183	3171.46
466.555	3255.75
466.928	3292.13
467.3	3288.29
467.672	3330.32
468.045	3427.49
468.417	3441.96
468.789	3493.03
469.161	3524.89
469.534	3523.54
469.906	3692.8
470.278	3700.48
470.65	3725.79
471.022	3784.55
471.394	3830.87
471.766	3878.33
472.138	3926.01
472.51	4027.93
472.882	4069.29
473.253	4105.67
473.625	4154.71
473.997	4279.68
474.369	4279.68
474.74	4324.65
475.112	4421.82
475.484	4460.91
475.855	4537.97
476.227	4641.25
476.598	4725.99
476.97	4765.31
477.341	4875.82
477.713	4934.12
478.084	4989.49
478.455	5042.14
478.827	5171.4
479.198	5254.34
479.569	5314.22
479.94	5408.23
480.311	5470.83
480.682	5638.06
481.053	5813.19
481.424	5869.24
481.795	5907.2
482.166	6003.02
482.537	6037.6
482.908	6145.62
483.279	6257.48
483.65	6365.27
484.021	6517.58
484.391	6539.96
484.762	6648.88
485.133	6675.32
485.503	6768.88
485.874	6936.33
486.244	7019.26
486.615	7137.23
486.985	7177.9
487.356	7280.5
487.726	7454.06
488.097	7609.08
488.467	7578.8
488.837	7734.5
489.207	7828.28
489.578	7959.13
489.948	8023.31
490.318	8156.86
490.688	8230.31
491.058	8316.18
491.428	8419.91
491.798	8528.38
492.168	8637.75
492.538	8729.5
492.908	8810.63
493.278	8913.45
493.648	8985.99
494.017	9083.84
494.387	9152.54
494.757	9230.28
495.126	9361.58
495.496	9367.68
495.866	9502.36
496.235	9541.23
496.605	9640.66
496.974	9732.19
497.344	9834.11
497.713	9892.18
498.082	9938.51
498.452	10047.89
498.821	10092.18
499.19	10155
499.559	10226.86
499.928	10325.62
500.298	10363.58
500.667	10489.46
501.036	10546.18
501.405	10611.49
501.774	10607.19
502.143	10732.39
502.512	10747.53
502.88	10971.48
503.249	10979.16
503.618	11023.23
503.987	11040.4
504.356	11119.27
504.724	11177.8
505.093	11239.94
505.462	11341.41
505.83	11415.76
506.199	11586.15
506.567	11741.85
506.936	11701.85
507.304	11868.85
507.672	11940.27
508.041	11967.16
508.409	12083.31
508.777	12257.54
509.145	12277.43
509.514	12325.57
509.882	12381.16
510.25	12419.35
510.618	12486.24
510.986	12548.16
511.354	12726.69
511.722	12820.69
512.09	12970.07
512.458	13001.48
512.826	13050.74
513.193	13102.04
513.561	13198.76
513.929	13333
514.297	13470.62
514.664	13537.51
515.032	13620.22
515.4	13690.05
515.767	13831.74
516.135	13866.09
516.502	13852.31
516.869	14085.29
517.237	14168.68
517.604	14139.98
517.972	14406.41
518.339	14524.15
518.706	14542
519.073	14650.02
519.44	14750.13
519.808	14911.03
520.175	14898.61
520.542	15114.87
520.909	15251.36
521.276	15240.52
521.643	15457.69
522.009	15526.84
522.376	15637.57
522.743	15802.54
523.11	15916.88
523.477	16037.11
523.843	16174.73
524.21	16282.75
524.577	16454.5
524.943	16556.64
525.31	16600.71
525.676	16858.33
526.043	16864.66
526.409	17024.65
526.776	17220.35
527.142	17201.14
527.508	17361.59
527.874	17507.8
528.241	17630.06
528.607	17612.88
528.973	17884.97
529.339	17853.1
529.705	17992.31
530.071	18222.81
530.437	18265.75
530.803	18360.44
531.169	18501
531.535	18510.04
531.901	18614.67
532.267	18766.07
532.632	18876.35
532.998	18841.78
533.364	18976.24
533.73	19104.6
534.095	19239.28
534.461	19268.43
534.826	19328.09
535.192	19510.91
535.557	19699.84
535.923	19655.32
536.288	19737.57
536.653	19834.75
537.019	19894.18
537.384	19961.98
537.749	20102.08
538.114	19984.57
538.479	20113.16
538.845	20333.04
539.21	20295.98
539.575	20414.39
539.94	20387.27
540.305	20620.94
540.67	20572.13
541.034	20720.83
541.399	20756.3
541.764	20847.6
542.129	20909.29
542.494	20935.96
542.858	21163.75
543.223	21133.7
543.587	21293.01
543.952	21258.89
544.316	21372.11
544.681	21377.98
545.045	21445.78
545.41	21547.47
545.774	21689.39
546.138	21711.76
546.503	21825.43
546.867	21821.14
547.231	22104.07
547.595	22087.12
547.959	22071.52
548.324	22220.22
548.688	22222.93
549.052	22405.53
549.416	22342.48
549.779	22520.1
550.143	22429.03
550.507	22682.81
550.871	22702.24
551.235	22677.84
551.599	22867.89
551.962	22987.43
552.326	23073.76
552.689	23124.15
553.053	23191.27
553.417	23167.09
553.78	23492.96
554.143	23451.15
554.507	23604.14
554.87	23606.17
555.234	23883
555.597	23721.65
555.96	23830.12
556.323	24016.33
556.686	24144.46
557.05	24226.95
557.413	24327.51
557.776	24422.42
558.139	24631
558.502	24514.85
558.865	24703.77
559.228	24857.67
559.59	24850.89
559.953	25018.79
560.316	25280.48
560.679	25243.42
561.041	25444.99
561.404	25665.78
561.767	25652
562.129	25591.43
562.492	25969.27
562.854	25880.92
563.217	25864.19
563.579	26130.17
563.941	26286.33
564.304	26279.32
564.666	26484.29
565.028	26626.43
565.39	26687.22
565.753	26748.46
566.115	26936.03
566.477	27022.58
566.839	27064.61
567.201	27219.64
567.563	27177.6
567.925	27483.36
568.287	27548.22
568.648	27579.4
569.01	27669.12
569.372	27967.19
569.734	27963.35
570.095	28055.1
570.457	28177.8
570.819	28182.32
571.18	28197.24
571.542	28451.92
571.903	28500.73
572.265	28679.49
572.626	28725.13
572.987	28688.98
573.349	28898.24
573.71	28966.94
574.071	28882.19
574.432	29045.8
574.794	29321.73
575.155	29320.83
575.516	29179.59
575.877	29339.36
576.238	29411.9
576.599	29519.01
576.96	29505.45
577.32	29505
577.681	29582.06
578.042	29697.99
578.403	29813.69
578.763	29768.72
579.124	29817.54
579.485	29951.32
579.845	29929.17
580.206	29895.95
580.566	29881.26
580.927	30049.39
581.287	30061.82
581.648	29958.32
582.008	30143.4
582.368	30015.95
582.728	30257.52
583.089	30128.94
583.449	30126
583.809	30244.42
584.169	30226.11
584.529	30191.08
584.889	30381.59
585.249	30174.36
585.609	30160.58
585.969	30384.98
586.329	30192.44
586.688	30362.38
587.048	30340.46
587.408	30326.45
587.768	30258.43
588.127	30380.23
588.487	30191.54
588.846	30456.39
589.206	30367.35
589.565	30377.97
589.925	30394.92
590.284	30359.44
590.643	30410.74
591.003	30502.49
591.362	30560.57
591.721	30541.36
592.08	30491.64
592.44	30636.72
592.799	30652.32
593.158	30541.58
593.517	30455.26
593.876	30663.16
594.235	30580.68
594.593	30631.07
594.952	30568.25
595.311	30410.51
595.67	30695.48
596.029	30915.59
596.387	30757.62
596.746	30986.54
597.104	30650.06
597.463	30753.56
597.822	30932.31
598.18	30845.3
598.538	30843.5
598.897	30988.8
599.255	30744.74
599.613	31239.19
599.972	31010.95
600.33	31090.27
600.688	30872.42
601.046	30915.81
601.404	31080.78
601.762	31047.56
602.12	31277.38
602.478	31192.19
602.836	31273.09
603.194	31215.46
603.552	31233.54
603.91	31124.17
604.268	31241.45
604.625	31138.4
604.983	31304.05
605.341	31219.76
605.698	31422.24
606.056	31349.02
606.413	31379.3
606.771	31505.85
607.128	31610.93
607.485	31474.44
607.843	31564.61
608.2	31638.05
608.557	31718.5
608.914	31618.62
609.272	31654.55
609.629	31840.53
609.986	32012.05
610.343	31794.88
610.7	32009.34
611.057	31983.58
611.414	31879.4
611.771	32023.13
612.127	32077.81
612.484	31996.46
612.841	32223.12
613.198	32075.78
613.554	32213.18
613.911	32245.95
614.267	32173.41
614.624	32271.48
614.98	32377.92
615.337	32423.57
615.693	32514.19
616.05	32311.71
616.406	32592.83
616.762	32505.83
617.118	32429.44
617.475	32442.32
617.831	32626.5
618.187	32574.98
618.543	32602.55
618.899	32825.59
619.255	32617.24
619.611	32618.82
619.967	32794.63
620.323	32804.8
620.678	32640.96
621.034	32638.7
621.39	32623.79
621.746	32635.09
622.101	33013.61
622.457	32766.38
622.812	32868.08
623.168	32903.56
623.523	32880.28
623.879	32941.07
624.234	32779.72
624.589	32821.3
624.945	32895.87
625.3	32922.31
625.655	32918.24
626.01	32919.6
626.365	32791.92
626.72	32825.37
627.075	32940.16
627.43	32875.76
627.785	32802.32
628.14	32784.01
628.495	32889.77
628.85	32826.5
629.205	32679.38
629.559	32844.12
629.914	32681.64
630.269	32720.06
630.623	32729.55
630.978	32638.25
631.332	32769.55
631.687	32698.82
632.041	32668.31
632.396	32611.59
632.75	32603.22
633.104	32614.75
633.459	32451.59
633.813	32468.31
634.167	32473.28
634.521	32441.2
634.875	32548.76
635.229	32456.56
635.583	32243.91
635.937	32195.78
636.291	32275.55
636.645	32174.99
636.999	32043.92
637.352	32119.62
637.706	32073.75
638.06	32114.2
638.413	32118.94
638.767	31987.65
639.121	32047.08
639.474	31922.56
639.828	31803.47
640.181	31886.18
640.534	31745.17
640.888	31706.75
641.241	31560.99
641.594	31701.78
641.947	31847.99
642.301	31673.98
642.654	31667.66
643.007	31683.93
643.36	31566.19
643.713	31488.23
644.066	31676.47
644.419	31444.16
644.771	31256.82
645.124	30995.13
645.477	30963.49
645.83	30845.3
646.182	30705.2
646.535	30416.84
646.888	30562.83
647.24	30233.34
647.593	30476.05
647.945	30286.45
648.298	30049.39
648.65	30203.74
649.002	30096.85
649.355	30197.86
649.707	30209.39
650.059	30359.67
650.411	30641.92
650.763	30803.95
651.115	31052.3
651.467	30939.99
651.819	30814.12
652.171	30771.86
652.523	30736.16
652.875	30667.23
653.227	30613.45
653.578	30796.94
653.93	30694.8
654.282	30517.63
654.633	30521.92
654.985	30535.93
655.337	30642.15
655.688	30552.43
656.039	30653.45
656.391	30424.07
656.742	30282.16
657.094	30320.12
657.445	30565.54
657.796	30420.91
658.147	30339.56
658.498	30368.93
658.849	30364.87
659.2	30303.85
659.551	30264.98
659.902	30389.72
660.253	30257.98
660.604	30323.51
660.955	30173.68
661.306	30251.87
661.656	30249.39
662.007	30239.45
662.358	30124.87
662.708	30156.96
663.059	30125.78
663.409	30076.96
663.76	30227.24
664.11	30181.82
664.461	30128.26
664.811	30037.64
665.161	30120.13
665.511	30093.46
665.862	29947.48
666.212	30137.3
666.562	30154.48
666.912	30088.04
667.262	29956.97
667.612	30080.35
667.962	29944.99
668.312	29937.31
668.662	30098.88
669.011	30015.04
669.361	29951.54
669.711	29870.87
670.06	29948.38
670.41	29867.25
670.76	29760.59
671.109	29991.77
671.459	29890.75
671.808	29829.06
672.157	29787.25
672.507	29643.08
672.856	29705
673.205	29695.28
673.554	29724.43
673.904	29630.2
674.253	29787.48
674.602	29652.34
674.951	29214.39
675.3	29161.96
675.649	29604.21
675.998	29537.77
676.346	29589.07
676.695	29554.27
677.044	29479.01
677.393	29375.51
677.741	29591.55
678.09	29298.23
678.438	29302.52
678.787	29286.25
679.135	29300.26
679.484	29231.34
679.832	29272.01
680.181	29019.14
680.529	29211
680.877	29017.1
681.225	29148.4
681.573	29226.36
681.922	28998.35
682.27	29011.23
682.618	28961.74
682.966	28837
683.314	28962.42
683.661	28847.17
684.009	28732.59
684.357	28637
684.705	28598.36
685.053	28606.27
685.4	28528.53
685.748	28352.94
686.095	28605.36
686.443	28278.14
686.79	28182.78
687.138	28285.37
687.485	28229.78
687.832	28035.66
688.18	28217.8
688.527	27913.63
688.874	27988.66
689.221	27938.04
689.568	27880.41
689.915	27864.14
690.262	27705.95
690.609	27780.3
690.956	27641.1
691.303	27574.43
691.65	27479.29
691.997	27499.63
692.344	27349.8
692.69	27226.87
693.037	27378.05
693.383	27022.81
693.73	27218.96
694.077	26997.95
694.423	26931.28
694.769	26830.72
695.116	26825.75
695.462	26814.22
695.808	26739.2
696.155	26834.56
696.501	26453.33
696.847	26645.42
697.193	26314.8
697.539	26443.61
697.885	26160.23
698.231	26228.48
698.577	26223.96
698.923	26221.92
699.269	26078.65
699.614	25894.25
699.96	25853.57
700.306	25688.38
700.651	25821.93
700.997	25645.89
701.342	25630.07
701.688	25605.89
702.033	25485.45
702.379	25465.33
702.724	25415.17
703.069	25465.79
703.415	25080.94
703.76	25227.83
704.105	25156.41
704.45	25174.49
704.795	24880.04
705.14	24762.75
705.485	24800.72
705.83	24696.09
706.175	24773.37
706.52	24802.53
706.865	24611.8
707.209	24674.17
707.554	24419.49
707.899	24567.96
708.243	24282.54
708.588	24321.63
708.932	24348.53
709.277	24212.03
709.621	24307.4
709.966	24029.21
710.31	24171.81
710.654	23885.04
710.998	23952.83
711.342	23942.89
711.687	23853.85
712.031	23808.88
712.375	23679.39
712.719	23755.1
713.063	23611.37
713.407	23676.91
713.75	23533.41
714.094	23459.51
714.438	23478.72
714.782	23606.17
715.125	23323.24
715.469	23439.62
715.812	23195.34
716.156	23226.52
716.499	23158.73
716.843	23259.74
717.186	23029.01
717.53	23170.93
717.873	23108.33
718.216	22951.73
718.559	22898.17
718.902	22831.05
719.246	22843.48
719.589	22773.2
719.932	22692.52
720.275	22663.37
720.617	22748.12
720.96	22595.13
721.303	22606.88
721.646	22660.44
721.989	22516.03
722.331	22592.19
722.674	22391.74
723.016	22448.24
723.359	22444.4
723.701	22429.93
724.044	22211.41
724.386	22109.26
724.729	22218.41
725.071	22136.61
725.413	22225.64
725.755	22064.29
726.097	22132.77
726.439	22036.5
726.782	22017.97
727.124	22120.56
727.465	22007.12
727.807	21838.54
728.149	21852.09
728.491	21791.08
728.833	21925.54
729.175	21697.75
729.516	21596.96
729.858	21661.82
730.199	21647.35
730.541	21689.16
730.882	21552.67
731.224	21594.93
731.565	21461.37
731.906	21500.47
732.248	21581.59
732.589	21403.29
732.93	21266.35
733.271	21288.27
733.612	21391.99
733.953	21329.62
734.294	21172.34
734.635	21112.91
734.976	21151.77
735.317	21141.38
735.658	21143.19
735.999	21056.41
736.339	20994.72
736.68	21147.03
737.021	21026.35
737.361	20909.29
737.702	21064.77
738.042	20870.2
738.383	20862.74
738.723	20947.49
739.063	20820.48
739.404	20897.09
739.744	20861.39
740.084	20650.32
740.424	20743.65
740.764	20625.69
741.104	20760.82
741.444	20524.9
741.784	20518.34
742.124	20575.29
742.464	20550.89
742.804	20434.73
743.143	20417.33
743.483	20437.22
743.823	20294.17
744.162	20338.01
744.502	20358.8
744.841	20207.62
745.181	20395.64
745.52	20257.11
745.86	20232.48
746.199	20261.18
746.538	20231.12
746.877	20349.54
747.216	20198.81
747.556	19986.38
747.895	20061.86
748.234	19968.75
748.573	19923.11
748.911	19842.43
749.25	19942.99
749.589	19737.35
749.928	19699.84
750.267	19853.28
750.605	19631.59
750.944	19657.35
751.283	19688.31
751.621	19660.97
751.96	19502.78
752.298	19516.34
752.636	19509.56
752.975	19353.4
753.313	19408.54
753.651	19429.56
753.989	19233.41
754.327	19159.51
754.666	19084.03
755.004	19143.01
755.342	19169.68
755.679	19166.74
756.017	18990.48
756.355	19085.16
756.693	18940.31
757.031	18960.65
757.368	18810.82
757.706	18888.11
758.044	18729.24
758.381	18735.11
758.719	18645.63
759.056	18750.48
759.394	18645.63
759.731	18515.23
760.068	18518.62
760.405	18464.61
760.743	18417.16
761.08	18458.96
761.417	18283.83
761.754	18227.11
762.091	18275.24
762.428	18087
762.765	18133.32
763.102	18081.57
763.438	18032.99
763.775	17938.3
764.112	17927.9
764.449	17943.72
764.785	17783.73
765.122	17691.75
765.458	17625.54
765.795	17632.09
766.131	17620.79
766.467	17456.05
766.804	17407.69
767.14	17345.09
767.476	17313.68
767.812	17288.6
768.148	17323.63
768.485	17155.95
768.821	17026.69
769.157	17044.99
769.492	16985.33
769.828	17006.57
770.164	16826.24
770.5	16770.19
770.836	16753.02
771.171	16649.07
771.507	16637.99
771.842	16494.04
772.178	16500.15
772.513	16542.4
772.849	16413.37
773.184	16277.1
773.519	16328.4
773.855	16220.38
774.19	16132.47
774.525	16191
774.86	16190.1
775.195	16095.86
775.53	16016.77
775.865	15902.65
776.2	15793.05
776.535	15629.89
776.87	15657
777.205	15716.21
777.539	15492.26
777.874	15587.63
778.209	15502.66
778.543	15526.16
778.878	15365.94
779.212	15379.72
779.547	15214.08
779.881	15287.75
780.215	15130.46
780.55	15261.53
780.884	15137.24
781.218	15038.04
781.552	15069.22
781.886	14956.68
782.22	14887.53
782.554	14781.77
782.888	14716.01
783.222	14708.1
783.556	14624.94
783.889	14554.43
784.223	14517.15
784.557	14501.1
784.89	14393.31
785.224	14333.65
785.557	14315.12
785.891	14260.2
786.224	14208
786.558	14228.57
786.891	14075.58
787.224	14040.1
787.557	14028.57
787.891	13947.9
788.224	13830.38
788.557	13963.04
788.89	13860.89
789.223	13847.79
789.556	13703.83
789.888	13699.31
790.221	13712.2
790.554	13547
790.887	13567.34
791.219	13575.25
791.552	13591.97
791.884	13452.09
792.217	13470.39
792.549	13359.44
792.882	13274.24
793.214	13223.17
793.546	13183.17
793.879	13132.32
794.211	13062.27
794.543	13083.06
794.875	13017.52
795.207	12988.6
795.539	13001.03
795.871	12993.8
796.203	12815.5
796.535	12815.5
796.867	12780.24
797.198	12705.22
797.53	12784.08
797.862	12639.91
798.193	12647.59
798.525	12601.49
798.856	12620.7
799.188	12496.18
799.519	12525.11
799.85	12398.78
800.182	12413.25
800.513	12377.77
800.844	12300.93
801.175	12302.29
801.506	12314.49
801.837	12207.6
802.168	12183.87
802.499	12127.83
802.83	12052.13
803.161	12067.04
803.491	12020.72
803.822	11990.21
804.153	11970.32
804.483	11904.56
804.814	11821.17
805.145	11832.92
805.475	11837.44
805.805	11808.29
806.136	11756.54
806.466	11768.52
806.796	11717.45
807.126	11655.53
807.457	11583.44
807.787	11629.76
808.117	11573.5
808.447	11548.64
808.777	11612.14
809.107	11428.41
809.436	11426.38
809.766	11426.38
810.096	11364.01
810.426	11322.2
810.755	11341.41
811.085	11340.96
811.414	11286.72
811.744	11156.1
812.073	11178.25
812.403	11187.74
812.732	11175.31
813.061	11142.32
813.39	11032.27
813.719	11005.37
814.049	11078.37
814.378	11089.89
814.707	11009.44
815.036	10974.87
815.365	10833.18
815.693	10781.88
816.022	10823.01
816.351	10857.81
816.68	10726.96
817.008	10744.36
817.337	10651.49
817.665	10631.6
817.994	10665.72
818.322	10668.89
818.651	10616.23
818.979	10531.49
819.307	10639.51
819.636	10559.51
819.964	10536.69
820.292	10571.04
820.62	10496.24
820.948	10472.73
821.276	10519.51
821.604	10530.81
821.932	10478.61
822.259	10503.92
822.587	10550.47
822.915	10427.76
823.243	10525.61
823.57	10396.58
823.898	10458.5
824.225	10405.84
824.553	10401.55
824.88	10510.7
825.207	10468.67
825.535	10531.71
825.862	10531.94
826.189	10505.73
826.516	10540.53
826.843	10559.74
827.17	10519.96
827.497	10429.12
827.824	10514.77
828.151	10523.58
828.478	10443.81
828.805	10486.97
829.131	10495.78
829.458	10434.09
829.785	10440.42
830.111	10449.91
830.438	10453.75
830.764	10411.04
831.09	10401.77
831.417	10397.25
831.743	10423.92
832.069	10429.12
832.395	10371.04
832.722	10451.04
833.048	10301.89
833.374	10430.25
833.7	10304.83
834.026	10391.15
834.351	10379.85
834.677	10385.28
835.003	10385.73
835.329	10313.64
835.654	10319.29
835.98	10255.56
836.306	10289.46
836.631	10205.85
836.956	10298.27
837.282	10260.54
837.607	10170.14
837.932	10190.71
838.258	10159.3
838.583	10200.2
838.908	10125.85
839.233	10128.11
839.558	10140.09
839.883	10051.5
840.208	10059.41
840.533	10133.76
840.858	10013.76
841.182	10069.35
841.507	10072.07
841.832	9915.91
842.156	9895.12
842.481	9924.27
842.805	9876.14
843.13	9929.47
843.454	9848.34
843.778	9818.74
844.103	9777.84
844.427	9772.64
844.751	9803.82
845.075	9758.63
845.399	9688.57
845.723	9689.7
846.047	9715.46
846.371	9586.43
846.695	9564.28
847.019	9572.19
847.343	9420.56
847.666	9491.97
847.99	9410.39
848.313	9432.76
848.637	9295.14
848.96	9409.94
849.284	9260.34
849.607	9258.3
849.931	9251.97
850.254	9114.58
850.577	9126.78
850.9	9085.2
851.223	9098.98
851.546	9054.24
851.869	8945.99
852.192	9002.26
852.515	8970.4
852.838	8912.77
853.161	8878.88
853.483	8853.79
853.806	8872.1
854.129	8764.76
854.451	8748.94
854.774	8713.23
855.096	8709.62
855.419	8639.11
855.741	8674.59
856.063	8609.73
856.385	8543.07
856.708	8571.54
857.03	8526.34
857.352	8541.26
857.674	8441.6
857.996	8469.17
858.318	8408.83
858.64	8379
858.961	8370.19
859.283	8387.82
859.605	8325.67
859.926	8309.4
860.248	8359.79
860.57	8315.95
860.891	8356.18
861.212	8307.59
861.534	8253.13
861.855	8178.78
862.176	8207.48
862.498	8245.45
862.819	8159.8
863.14	8123.87
863.461	8110.54
863.782	8141.04
864.103	8121.38
864.424	8142.85
864.745	8144.43
865.065	8098.78
865.386	8044.32
865.707	8075.28
866.027	8052.91
866.348	8045
866.668	8001.84
866.989	8015.17
867.309	7964.78
867.63	7950.99
867.95	7957.77
868.27	7916.19
868.59	7953.03
868.91	7873.25
869.23	7955.06
869.55	7812.92
869.87	7863.54
870.19	7872.12
870.51	7921.61
870.83	7856.53
871.15	7776.98
871.469	7710.55
871.789	7817.66
872.109	7815.18
872.428	7727.49
872.748	7814.72
873.067	7725.01
873.386	7744.9
873.706	7730.43
874.025	7735.4
874.344	7692.02
874.663	7636.88
874.982	7683.2
875.301	7677.55
875.62	7596.65
875.939	7642.98
876.258	7652.47
876.577	7572.47
876.896	7628.74
877.214	7615.63
877.533	7627.38
877.852	7560.04
878.17	7590.77
878.489	7628.06
878.807	7587.84
879.125	7517.56
879.444	7520.72
879.762	7422.64
880.08	7532.02
880.398	7452.47
880.716	7497.67
881.034	7430.55
881.352	7403.44
881.67	7398.92
881.988	7427.62
882.306	7346.49
882.624	7353.72
882.941	7327.51
883.259	7250.9
883.577	7240.05
883.894	7307.39
884.212	7343.55
884.529	7245.47
884.846	7241.18
885.164	7205.02
885.481	7136.55
885.798	7244.57
886.115	7146.27
886.432	7172.71
886.75	7132.48
887.067	7151.24
887.383	7101.52
887.7	7134.06
888.017	7034.86
888.334	7129.77
888.651	7085.93
888.967	7061.52
889.284	6999.83
889.6	7044.12
889.917	6978.81
890.233	6983.79
890.55	6910.11
890.866	6913.28
891.182	6907.63
891.498	6870.57
891.815	6890.23
892.131	6832.83
892.447	6826.28
892.763	6739.27
893.079	6792.38
893.395	6778.37
893.71	6720.52
894.026	6687.97
894.342	6676
894.657	6648.88
894.973	6685.04
895.289	6656.11
895.604	6659.27
895.92	6588.54
896.235	6585.15
896.55	6628.09
896.865	6557.81
897.181	6578.82
897.496	6523.23
897.811	6504.93
898.126	6484.36
898.441	6473.52
898.756	6458.83
899.071	6412.95
899.386	6424.48
899.7	6380.64
900.015	6369.56
900.33	6321.43
900.644	6315.33
900.959	6357.59
901.273	6267.42
901.588	6227.2
901.902	6207.31
902.216	6164.15
902.531	6115.33
902.845	6173.86
903.159	6072.85
903.473	6012.74
903.787	6053.41
904.101	6075.56
904.415	6049.8
904.729	6027.2
905.042	5936.36
905.356	5972.06
905.67	5932.29
905.984	5948.11
906.297	5864.27
906.611	5873.53
906.924	5849.13
907.237	5826.98
907.551	5815.45
907.864	5789.24
908.177	5783.82
908.491	5757.83
908.804	5800.09
909.117	5734.1
909.43	5709.69
909.743	5634.44
910.056	5670.15
910.368	5605.06
910.681	5593.99
910.994	5587.44
911.307	5573.43
911.619	5523.26
911.932	5522.81
912.244	5476.71
912.557	5495.24
912.869	5422.92
913.181	5498.17
913.494	5456.37
913.806	5413.88
914.118	5376.6
914.43	5331.85
914.742	5356.26
915.054	5318.74
915.366	5282.59
915.678	5283.72
915.99	5224.96
916.302	5237.84
916.613	5247.33
916.925	5159.65
917.236	5163.27
917.548	5125.3
917.859	5135.92
918.171	5129.14
918.482	5107.68
918.794	5044.18
919.105	5097.06
919.416	5008.02
919.727	5008.02
920.038	5016.83
920.349	4960.11
920.66	4932.54
920.971	4926.66
921.282	4956.72
921.593	4885.76
921.903	4878.76
922.214	4863.39
922.525	4804.86
922.835	4833.33
923.146	4777.97
923.456	4793.56
923.767	4745.2
924.077	4751.3
924.387	4745.88
924.697	4675.15
925.008	4652.55
925.318	4688.03
925.628	4672.21
925.938	4619.33
926.248	4604.19
926.558	4537.97
926.867	4551.31
927.177	4541.14
927.487	4544.3
927.796	4504.3
928.106	4485.77
928.416	4478.09
928.725	4523.96
929.034	4437.86
929.344	4431.76
929.653	4394.93
929.962	4375.27
930.271	4373.91
930.581	4400.58
930.89	4331.88
931.199	4339.34
931.508	4330.52
931.817	4262.95
932.125	4270.41
932.434	4254.37
932.743	4236.29
933.051	4199.68
933.36	4194.48
933.669	4159
933.977	4157.64
934.286	4098.66
934.594	4101.83
934.902	4099.34
935.21	4071.77
935.519	4027.93
935.827	4049.4
936.135	4022.96
936.443	3980.93
936.751	3994.94
937.059	4006.01
937.367	3967.82
937.674	3971.21
937.982	3961.94
938.29	3921.49
938.597	3919.01
938.905	3939.35
939.213	3883.3
939.52	3864.09
939.827	3895.05
940.135	3829.97
940.442	3830.65
940.749	3813.02
941.056	3766.92
941.363	3744.1
941.67	3760.59
941.977	3751.78
942.284	3740.48
942.591	3732.8
942.898	3665.23
943.205	3683.31
943.511	3655.06
943.818	3658.67
944.125	3620.94
944.431	3606.25
944.738	3638.34
945.044	3596.76
945.35	3594.95
945.657	3572.58
945.963	3567.38
946.269	3557.43
946.575	3572.58
946.881	3529.64
947.187	3498.45
947.493	3465.23
947.799	3476.53
948.105	3415.52
948.41	3392.69
948.716	3419.59
949.022	3403.09
949.327	3415.07
949.633	3354.05
949.938	3368.06
950.244	3355.18
950.549	3333.26
950.854	3342.53
951.16	3278.35
951.465	3305.01
951.77	3281.28
952.075	3264.79
952.38	3220.27
952.685	3218.69
952.99	3239.93
953.294	3192.92
953.599	3159.25
953.904	3209.42
954.209	3146.15
954.513	3184.11
954.818	3185.92
955.122	3104.57
955.426	3130.55
955.731	3112.25
956.035	3090.55
956.339	3094.85
956.643	3082.42
956.948	3058.46
957.252	3007.62
957.556	3023.21
957.86	3013.49
958.163	3019.6
958.467	2972.14
958.771	3002.2
959.075	2963.55
959.378	2958.13
959.682	2974.63
959.985	2944.12
960.289	2928.3
960.592	2914.74
960.896	2898.47
961.199	2855.76
961.502	2877.45
961.805	2844.46
962.108	2860.96
962.411	2854.85
962.714	2812.37
963.017	2787.51
963.32	2813.73
963.623	2770.79
963.926	2749.55
964.228	2798.81
964.531	2745.25
964.833	2751.58
965.136	2735.08
965.438	2706.16
965.741	2697.57
966.043	2693.95
966.345	2662.77
966.648	2723.78
966.95	2658.7
967.252	2644.46
967.554	2653.73
967.856	2588.42
968.158	2567.63
968.46	2569.89
968.761	2595.2
969.063	2584.58
969.365	2566.5
969.666	2571.25
969.968	2554.3
970.269	2544.35
970.571	2534.86
970.872	2507.74
971.174	2498.48
971.475	2488.08
971.776	2474.75
972.077	2484.92
972.378	2474.07
972.679	2479.27
972.98	2418.71
973.281	2462.1
973.582	2441.76
973.883	2387.75
974.183	2400.63
974.484	2419.39
974.785	2380.74
975.085	2380.97
975.386	2387.52
975.686	2376
975.986	2361.99
976.287	2373.51
976.587	2339.61
976.887	2336.9
977.187	2355.21
977.487	2341.42
977.787	2330.35
978.087	2293.29
978.387	2326.05
978.687	2279.95
978.987	2302.55
979.286	2252.38
979.586	2276.11
979.885	2245.83
980.185	2205.38
980.484	2209.67
980.784	2222.55
981.083	2180.3
981.382	2221.88
981.682	2197.02
981.981	2165.38
982.28	2179.84
982.579	2155.66
982.878	2132.16
983.177	2127.87
983.475	2111.15
983.774	2116.57
984.073	2081.99
984.372	2076.34
984.67	2076.57
984.969	2105.5
985.267	2083.58
985.566	2052.84
985.864	2054.88
986.162	2066.85
986.461	2024.37
986.759	2037.25
987.057	2019.17
987.355	2030.7
987.653	2020.75
987.951	1969.45
988.249	1982.79
988.547	1957.25
988.844	1985.27
989.142	1975.56
989.44	1944.37
989.737	1947.76
990.035	1960.19
990.332	1916.35
990.63	1928.55
990.927	1884.03
991.224	1937.59
991.521	1888.55
991.819	1886.29
992.116	1900.08
992.413	1893.52
992.71	1858.72
993.006	1906.18
993.303	1875.45
993.6	1836.35
993.897	1832.96
994.193	1837.71
994.49	1828.44
994.787	1817.14
995.083	1785.28
995.379	1795.9
995.676	1780.53
995.972	1797.03
996.268	1759.29
996.565	1719.52
996.861	1761.1
997.157	1746.86
997.453	1703.47
997.749	1743.92
998.044	1696.69
998.34	1704.6
998.636	1691.5
998.932	1702.34
999.227	1675.68
999.523	1685.39
999.818	1676.13
1000.114	1661.44
1000.409	1692.85
1000.704	1627.99
1001	1651.95
1001.295	1637.71
1001.59	1607.43
1001.885	1617.37
1002.18	1597.94
1002.475	1594.77
1002.77	1589.8
1003.065	1570.37
1003.359	1585.96
1003.654	1558.39
1003.949	1564.27
1004.243	1550.03
1004.538	1541.44
1004.832	1508.68
1005.127	1507.09
1005.421	1526.3
1005.715	1507.55
1006.009	1485.17
1006.304	1492.18
1006.598	1483.36
1006.892	1478.85
1007.186	1494.21
1007.48	1427.55
1007.773	1465.06
1008.067	1418.28
1008.361	1435
1008.655	1431.61
1008.948	1413.08
1009.242	1416.25
1009.535	1410.37
1009.829	1382.58
1010.122	1390.26
1010.415	1389.81
1010.708	1371.73
1011.001	1377.15
1011.295	1383.25
1011.588	1340.77
1011.881	1317.95
1012.173	1334.22
1012.466	1311.17
1012.759	1319.3
1013.052	1307.55
1013.344	1308.23
1013.637	1327.89
1013.93	1301.22
1014.222	1287.21
1014.514	1323.6
1014.807	1303.03
1015.099	1281.11
1015.391	1249.25
1015.683	1253.31
1015.976	1262.58
1016.268	1232.52
1016.56	1226.2
1016.851	1248.34
1017.143	1242.24
1017.435	1208.8
1017.727	1199.53
1018.018	1193.66
1018.31	1192.53
1018.602	1176.03
1018.893	1182.36
1019.185	1177.61
1019.476	1136.93
1019.767	1181.45
1020.058	1151.4
1020.35	1173.54
1020.641	1128.12
1020.932	1136.26
1021.223	1139.65
1021.514	1116.37
1021.804	1117.72
1022.095	1112.98
1022.386	1112.98
1022.677	1088.57
1022.967	1062.81
1023.258	1069.36
1023.548	1082.92
1023.839	1077.05
1024.129	1064.62
1024.419	1073.88
1024.709	1042.47
1025	1066.43
1025.29	1061
1025.58	1064.62
1025.87	1014.68
1026.16	1007.22
1026.449	1002.25
1026.739	1004.51
1027.029	1005.86
1027.319	981.23
1027.608	989.59
1027.898	968.35
1028.187	988.69
1028.477	966.09
1028.766	969.93
1029.055	962.25
1029.344	937.62
1029.634	950.95
1029.923	938.29
1030.212	963.6
1030.501	937.39
1030.79	944.4
1031.078	884.51
1031.367	920.89
1031.656	903.49
1031.945	893.78
1032.233	889.93
1032.522	873.44
1032.81	880.22
1033.099	884.96
1033.387	885.19
1033.675	877.73
1033.963	901.91
1034.251	867.11
1034.54	870.05
1034.828	849.94
1035.116	842.03
1035.403	832.08
1035.691	834.57
1035.979	812.87
1036.267	823.27
1036.554	834.34
1036.842	808.81
1037.129	799.99
1037.417	802.03
1037.704	798.19
1037.992	811.29
1038.279	811.29
1038.566	799.54
1038.853	799.54
1039.14	799.54
