Data from breadboard_black_back_FLMS001491_00080.txt Node
Date: Wed Feb 08 10:50:54 GMT 2017
User: dcchb
Spectrometer: FLMS00149
Trigger mode: 0
Integration Time (sec): 2.000000E-2
Scans to average: 10
Electric dark correction enabled: true
Nonlinearity correction enabled: false
Boxcar width: 0
XAxis mode: Wavelengths
Number of Pixels in Spectrum: 2048
>>>>>Begin Spectral Data<<<<<
341.393	-6.05
341.776	-6.05
342.16	-6.05
342.543	-53.05
342.927	-67.29
343.31	-79.94
343.693	-54.63
344.077	-77.23
344.46	-63.9
344.843	-38.13
345.226	-60.05
345.61	-27.51
345.993	-22.99
346.376	3.67
346.759	0.28
347.142	19.72
347.525	36.21
347.908	64.01
348.291	83.44
348.674	95.87
349.057	121.18
349.44	129.77
349.823	151.24
350.206	167.74
350.588	198.92
350.971	214.06
351.354	222.42
351.737	228.98
352.119	243.67
352.502	287.28
352.884	286.15
353.267	287.51
353.65	309.43
354.032	280.73
354.414	305.13
354.797	291.35
355.179	296.55
355.562	318.24
355.944	335.64
356.326	363.66
356.709	334.28
357.091	357.34
357.473	347.62
357.855	337.22
358.238	364.79
358.62	357.79
359.002	332.93
359.384	349.2
359.766	360.05
360.148	333.16
360.53	349.88
360.912	348.97
361.294	360.27
361.676	353.27
362.057	338.8
362.439	348.3
362.821	360.05
363.203	353.72
363.584	337
363.966	338.8
364.348	350.1
364.729	332.7
365.111	339.48
365.493	335.19
365.874	362.08
366.256	334.06
366.637	324.57
367.019	330.44
367.4	338.58
367.781	328.64
368.163	336.09
368.544	352.59
368.925	341.74
369.306	324.12
369.688	334.74
370.069	358.01
370.45	343.55
370.831	339.48
371.212	322.53
371.593	338.35
371.974	337.9
372.355	362.76
372.736	351.46
373.117	354.85
373.498	346.26
373.879	338.8
374.26	344.23
374.641	337.9
375.021	357.11
375.402	362.76
375.783	342.87
376.163	388.52
376.544	374.28
376.925	387.16
377.305	393.04
377.686	372.93
378.066	382.87
378.447	379.03
378.827	388.97
379.208	381.52
379.588	374.74
379.968	384.23
380.349	380.16
380.729	396.66
381.109	389.88
381.489	368.41
381.87	397.79
382.25	398.92
382.63	407.73
383.01	409.09
383.39	403.66
383.77	412.02
384.15	413.38
384.53	423.55
384.91	426.71
385.29	435.98
385.67	412.02
386.049	421.06
386.429	444.34
386.809	427.84
387.189	439.82
387.568	445.02
387.948	434.85
388.328	450.67
388.707	445.02
389.087	436.66
389.466	446.6
389.846	469.87
390.225	463.77
390.605	475.75
390.984	482.08
391.363	488.86
391.743	469.2
392.122	481.85
392.501	491.79
392.881	499.7
393.26	504
393.639	501.96
394.018	494.51
394.397	490.44
394.776	511.23
395.155	518.23
395.534	502.64
395.913	535.64
396.292	503.09
396.671	526.82
397.05	528.63
397.429	535.41
397.808	553.04
398.186	539.93
398.565	539.93
398.944	564.11
399.323	556.65
399.701	545.13
400.08	546.48
400.458	565.01
400.837	566.82
401.215	579.02
401.594	552.13
401.972	592.58
402.351	592.13
402.729	605.46
403.107	618.35
403.486	613.83
403.864	627.16
404.242	605.46
404.62	616.99
404.999	656.31
405.377	633.71
405.755	652.69
406.133	648.85
406.511	642.98
406.889	652.47
407.267	685.69
407.645	680.94
408.023	685.69
408.401	687.27
408.779	696.54
409.156	682.3
409.534	703.54
409.912	716.42
410.29	738.34
410.667	717.1
411.045	752.81
411.422	735.18
411.8	779.47
412.178	767.72
412.555	796.42
412.933	783.09
413.31	804.56
413.687	795.97
414.065	800.71
414.442	812.69
414.819	803.65
415.197	833.03
415.574	847.94
415.951	838.23
416.328	859.24
416.705	861.95
417.082	899.02
417.46	876.42
417.837	900.6
418.214	883.88
418.591	892.91
418.967	857.66
419.344	912.57
419.721	908.28
420.098	935.85
420.475	944.44
420.852	954.16
421.228	984.66
421.605	968.62
421.982	956.64
422.358	978.79
422.735	1013.14
423.111	1004.55
423.488	1018.33
423.864	1020.37
424.241	1051.78
424.617	1056.07
424.994	1033.93
425.37	1081.61
425.746	1085
426.123	1082.97
426.499	1067.6
426.875	1106.92
427.251	1098.11
427.627	1136.75
428.003	1172.23
428.379	1166.81
428.756	1184.21
429.132	1176.97
429.507	1193.02
429.883	1221.27
430.259	1247.03
430.635	1254.94
431.011	1247.03
431.387	1295.62
431.763	1313.02
432.138	1322.73
432.514	1298.1
432.89	1349.63
433.265	1366.57
433.641	1412.22
434.016	1383.75
434.392	1407.48
434.767	1445.67
435.143	1422.39
435.518	1448.15
435.894	1489.96
436.269	1506.46
436.644	1482.28
437.02	1504.42
437.395	1533.58
437.77	1543.74
438.145	1579
438.52	1556.85
438.895	1593.01
439.271	1587.59
439.646	1647.47
440.021	1651.09
440.395	1643.86
440.77	1633.91
441.145	1652.67
441.52	1691.09
441.895	1700.8
442.27	1714.36
442.645	1714.81
443.019	1746.23
443.394	1741.93
443.769	1760.69
444.143	1747.58
444.518	1787.81
444.892	1796.62
445.267	1823.06
445.641	1822.16
446.016	1818.54
446.39	1838.43
446.764	1872.55
447.139	1880.01
447.513	1861.02
447.887	1886.56
448.262	1901.02
448.636	1924.53
449.01	1941.93
449.384	1971.98
449.758	1978.31
450.132	2000.68
450.506	2015.37
450.88	2005.88
451.254	1999.1
451.628	2046.33
452.002	2078.65
452.376	2076.16
452.75	2115.26
453.123	2151.86
453.497	2172.88
453.871	2196.38
454.244	2218.76
454.618	2229.38
454.992	2263.05
455.365	2298.53
455.739	2336.94
456.112	2345.53
456.486	2400.45
456.859	2403.16
457.232	2422.59
457.606	2454
457.979	2488.35
458.352	2528.58
458.725	2552.53
459.099	2543.94
459.472	2627.33
459.845	2660.78
460.218	2670.95
460.591	2715.01
460.964	2679.76
461.337	2765.86
461.71	2823.71
462.083	2859.64
462.456	2868.46
462.829	2871.17
463.201	2913.88
463.574	2941.9
463.947	2990.49
464.32	3028.68
464.692	3076.59
465.065	3057.6
465.438	3111.39
465.81	3189.58
466.183	3218.95
466.555	3297.6
466.928	3327.65
467.3	3292.4
467.672	3376.69
468.045	3467.54
468.417	3484.48
468.789	3503.47
469.161	3540.08
469.534	3579.85
469.906	3669.56
470.278	3702.33
470.65	3723.57
471.022	3796.79
471.394	3866.85
471.766	3895.55
472.138	3915.21
472.51	4030.91
472.882	4093.28
473.253	4154.98
473.625	4215.76
473.997	4271.81
474.369	4308.87
474.74	4364.01
475.112	4464.57
475.484	4474.97
475.855	4626.15
476.227	4629.09
476.598	4715.64
476.97	4803.55
477.341	4921.51
477.713	4926.71
478.084	5031.79
478.455	5190.65
478.827	5192.01
479.198	5365.34
479.569	5353.81
479.94	5510.87
480.311	5562.17
480.682	5682.84
481.053	5762.16
481.424	5880.13
481.795	5985.66
482.166	6020.01
482.537	6045.55
482.908	6248.71
483.279	6360.57
483.65	6407.57
484.021	6545.2
484.391	6621.13
484.762	6724.4
485.133	6695.47
485.503	6783.83
485.874	6971.85
486.244	7012.08
486.615	7169.59
486.985	7211.84
487.356	7388.11
487.726	7459.07
488.097	7612.96
488.467	7636.01
488.837	7820.19
489.207	7944.48
489.578	7984.03
489.948	8047.98
490.318	8207.75
490.688	8231.03
491.058	8402.77
491.428	8481.19
491.798	8578.59
492.168	8750.79
492.538	8758.7
492.908	8841.18
493.278	8986.94
493.648	9000.27
494.017	9186.26
494.387	9200.72
494.757	9336.31
495.126	9404.33
495.496	9469.41
495.866	9551.9
496.235	9659.92
496.605	9681.61
496.974	9812.91
497.344	9868.72
497.713	9959.79
498.082	10032.56
498.452	10116.85
498.821	10168.83
499.19	10301.03
499.559	10373.8
499.928	10375.6
500.298	10480.91
500.667	10565.43
501.036	10634.58
501.405	10691.3
501.774	10718.87
502.143	10834.57
502.512	10863.73
502.88	11028.02
503.249	11010.39
503.618	11045.64
503.987	11141.23
504.356	11331.74
504.724	11350.72
505.093	11348.01
505.462	11449.47
505.83	11505.74
506.199	11619.41
506.567	11801.1
506.936	11785.51
507.304	11909.12
507.672	12002.9
508.041	12033.19
508.409	12207.87
508.777	12220.53
509.145	12452.38
509.514	12361.77
509.882	12499.16
510.25	12520.86
510.618	12631.59
510.986	12732.6
511.354	12911.58
511.722	12918.59
512.09	13090.79
512.458	13030.45
512.826	13171.01
513.193	13214.17
513.561	13292.81
513.929	13457.1
514.297	13606.48
514.664	13706.59
515.032	13734.16
515.4	13794.72
515.767	13959.01
516.135	14079.46
516.502	13986.36
516.869	14230.19
517.237	14319.23
517.604	14284.88
517.972	14532.56
518.339	14612.1
518.706	14614.14
519.073	14779.78
519.44	14886.9
519.808	15027.23
520.175	15046.89
520.542	15237.85
520.909	15330.73
521.276	15342.25
521.643	15545.86
522.009	15696.59
522.376	15838.96
522.743	15882.58
523.11	16045.96
523.477	16201.66
523.843	16272.62
524.21	16439.62
524.577	16590.58
524.943	16706.28
525.31	16776.56
525.676	16930.23
526.043	16966.16
526.409	17175.88
526.776	17293.16
527.142	17305.14
527.508	17541.97
527.874	17612.02
528.241	17780.15
528.607	17811.57
528.973	18085.46
529.339	18006.81
529.705	18259.46
530.071	18358.9
530.437	18394.83
530.803	18575.16
531.169	18674.14
531.535	18619.23
531.901	18752.78
532.267	18909.16
532.632	19031.87
532.998	19062.15
533.364	19124.53
533.73	19200.91
534.095	19400
534.461	19487
534.826	19599.77
535.192	19604.74
535.557	19784.62
535.923	19839.53
536.288	19964.96
536.653	20025.29
537.019	19985.97
537.384	19982.36
537.749	20254.21
538.114	20260.99
538.479	20325.85
538.845	20492.17
539.21	20340.31
539.575	20605.16
539.94	20655.11
540.305	20687.65
540.67	20687.2
541.034	20842.45
541.399	20921.99
541.764	21101.2
542.129	21056.68
542.494	21215.54
542.858	21141.65
543.223	21255.32
543.587	21422.32
543.952	21319.72
544.316	21518.36
544.681	21592.71
545.045	21679.71
545.41	21749.09
545.774	21820.5
546.138	21856.2
546.503	21940.95
546.867	21987.27
547.231	22188.4
547.595	22218.91
547.959	22187.5
548.324	22340.26
548.688	22336.19
549.052	22440.14
549.416	22505.23
549.779	22548.39
550.143	22547.94
550.507	22832.9
550.871	22842.85
551.235	22775.5
551.599	22996.97
551.962	23067.7
552.326	23235.38
552.689	23316.73
553.053	23254.59
553.417	23328.71
553.78	23649.83
554.143	23648.25
554.507	23652.32
554.87	23878.52
555.234	24066.54
555.597	23854.12
555.96	24024.96
556.323	24176.37
556.686	24248.91
557.05	24405.52
557.413	24530.26
557.776	24469.02
558.139	24679.18
558.502	24776.13
558.865	24798.95
559.228	25026.29
559.59	25043.24
559.953	25077.36
560.316	25378.82
560.679	25437.13
561.041	25609.78
561.404	25738.59
561.767	25776.33
562.129	25689.55
562.492	26023.1
562.854	25977.9
563.217	26143.1
563.579	26224
563.941	26357.56
564.304	26467.38
564.666	26738.79
565.028	26643.2
565.39	26731.33
565.753	26797.32
566.115	27083.64
566.477	27068.5
566.839	27157.99
567.201	27451.76
567.563	27388.49
567.925	27599.1
568.287	27637.52
568.648	27707.8
569.01	27894.24
569.372	27926.33
569.734	27943.73
570.095	28138.07
570.457	28235.25
570.819	28416.71
571.18	28327
571.542	28434.11
571.903	28495.35
572.265	28625.29
572.626	28778.73
572.987	28756.59
573.349	28950.93
573.71	28946.64
574.071	29023.93
574.432	29168.78
574.794	29336.01
575.155	29395.44
575.516	29259.63
575.877	29415.55
576.238	29552.95
576.599	29597.92
576.96	29680.86
577.32	29694.87
577.681	29717.92
578.042	29772.83
578.403	29755.21
578.763	29801.31
579.124	29927.18
579.485	30143.22
579.845	30076.33
580.206	30079.94
580.566	30113.61
580.927	30143.67
581.287	30262.76
581.648	30159.72
582.008	30388.86
582.368	30291.01
582.728	30390.22
583.089	30162.2
583.449	30206.49
583.809	30310.9
584.169	30376.21
584.529	30349.09
584.889	30606.48
585.249	30273.84
585.609	30366.26
585.969	30454.4
586.329	30477
586.688	30391.57
587.048	30432.25
587.408	30474.74
587.768	30375.75
588.127	30425.7
588.487	30440.39
588.846	30618.69
589.206	30451.23
589.565	30446.94
589.925	30516.77
590.284	30402.87
590.643	30533.26
591.003	30620.72
591.362	30708.63
591.721	30528.52
592.08	30577.33
592.44	30750.43
592.799	30667.95
593.158	30660.49
593.517	30708.63
593.876	30808.74
594.235	30687.16
594.593	30799.47
594.952	30804.9
595.311	30700.04
595.67	30799.02
596.029	31042.86
596.387	30996.08
596.746	31027.04
597.104	30915.85
597.463	30931.22
597.822	30892.35
598.18	30845.12
598.538	30876.31
598.897	31165.56
599.255	30933.48
599.613	31251.21
599.972	30969.86
600.33	31144.55
600.688	31067.26
601.046	31190.87
601.404	31220.48
601.762	31142.29
602.12	31325.56
602.478	31328.72
602.836	31375.05
603.194	31331.66
603.552	31260.48
603.91	31187.03
604.268	31446.24
604.625	31309.97
604.983	31393.81
605.341	31245.79
605.698	31542.05
606.056	31505.67
606.413	31462.28
606.771	31524.65
607.128	31637.64
607.485	31548.61
607.843	31594.03
608.2	31723.74
608.557	31822.72
608.914	31780.69
609.272	31967.8
609.629	31860.69
609.986	32014.36
610.343	31922.38
610.7	31998.54
611.057	32067.91
611.414	32048.25
611.771	32003.06
612.127	32235.14
612.484	32129.38
612.841	32235.14
613.198	32131.64
613.554	32174.58
613.911	32381.58
614.267	32299.55
614.624	32317.4
614.98	32347.45
615.337	32473.55
615.693	32360.79
616.05	32448.47
616.406	32607.11
616.762	32535.02
617.118	32470.39
617.475	32532.76
617.831	32529.6
618.187	32523.95
618.543	32764.62
618.899	32904.5
619.255	32678.97
619.611	32690.5
619.967	32958.06
620.323	32907.21
620.678	32789.7
621.034	32693.66
621.39	32826.09
621.746	32611.4
622.101	33012.97
622.457	32901.56
622.812	32853.88
623.168	33029.47
623.523	32946.76
623.879	33101.11
624.234	32822.24
624.589	32903.15
624.945	32929.36
625.3	32996.25
625.655	32906.08
626.01	32965.07
626.365	32932.3
626.72	32987.66
627.075	32786.77
627.43	32824.73
627.785	32812.75
628.14	32886.2
628.495	32989.02
628.85	32825.63
629.205	32769.36
629.559	32963.26
629.914	32769.82
630.269	32783.6
630.623	32721.91
630.978	32676.71
631.332	32834.67
631.687	32867.67
632.041	32594.45
632.396	32761.68
632.75	32653.44
633.104	32668.35
633.459	32533.44
633.813	32570.73
634.167	32437.17
634.521	32526.66
634.875	32462.93
635.229	32532.31
635.583	32294.57
635.937	32250.73
636.291	32110.4
636.645	32277.17
636.999	32176.39
637.352	32215.93
637.706	32142.49
638.06	32224.75
638.413	32086.22
638.767	32052.32
639.121	32091.19
639.474	31962.15
639.828	31932.1
640.181	32070.17
640.534	31979.55
640.888	31703.63
641.241	31683.07
641.594	31679.9
641.947	31837.86
642.301	31678.55
642.654	31693.69
643.007	31762.39
643.36	31622.73
643.713	31488.95
644.066	31614.59
644.419	31442.39
644.771	31401.26
645.124	31181.16
645.477	31052.57
645.83	30742.07
646.182	30615.97
646.535	30480.16
646.888	30429.09
647.24	30397
647.593	30539.59
647.945	30326.49
648.298	30360.39
648.65	30364
649.002	30128.08
649.355	30280.62
649.707	30251.69
650.059	30421.63
650.411	30728.29
650.763	30796.76
651.115	31058.22
651.467	30974.84
651.819	30857.32
652.171	30723.54
652.523	30866.82
652.875	30744.33
653.227	30582.3
653.578	30906.81
653.93	30613.49
654.282	30553.83
654.633	30519.48
654.985	30551.12
655.337	30594.51
655.688	30674.73
656.039	30769.19
656.391	30460.72
656.742	30461.85
657.094	30505.02
657.445	30542.98
657.796	30476.54
658.147	30483.32
658.498	30283.33
658.849	30413.27
659.2	30357.68
659.551	30394.51
659.902	30449.88
660.253	30279.71
660.604	30449.2
660.955	30132.6
661.306	30352.7
661.656	30256.44
662.007	30297.34
662.358	30330.78
662.708	30200.17
663.059	30205.14
663.409	30037.68
663.76	30210.34
664.11	30248.98
664.461	30196.55
664.811	30133.95
665.161	30084.46
665.511	30029.55
665.862	30097.57
666.212	30091.92
666.562	30099.83
666.912	30043.33
667.262	30069.55
667.612	29943.9
667.962	30059.38
668.312	29911.81
668.662	30088.53
669.011	29997.01
669.361	30064.35
669.711	29987.06
670.06	29938.25
670.41	29879.5
670.76	29854.86
671.109	29870.01
671.459	29870.91
671.808	29801.08
672.157	29846.5
672.507	29748.65
672.856	29684.47
673.205	29683.34
673.554	29738.03
673.904	29683.34
674.253	29772.83
674.602	29678.15
674.951	29207.42
675.3	29187.31
675.649	29560.86
675.998	29559.73
676.346	29592.72
676.695	29643.34
677.044	29361.09
677.393	29536
677.741	29444.03
678.09	29430.47
678.438	29295.11
678.787	29401.54
679.135	29381.2
679.484	29212.62
679.832	29285.84
680.181	29203.36
680.529	29197.71
680.877	29092.85
681.225	29195.22
681.573	29278.83
681.922	28992.97
682.27	28952.06
682.618	28990.25
682.966	28911.84
683.314	28983.25
683.661	28838.17
684.009	28682.47
684.357	28754.1
684.705	28567.89
685.053	28766.76
685.4	28441.12
685.748	28426.88
686.095	28513.88
686.443	28224.17
686.79	28365.19
687.138	28242.93
687.485	28367.9
687.832	28160.67
688.18	28284.74
688.527	28132.88
688.874	27987.8
689.221	28082.03
689.568	27886.55
689.915	27884.75
690.262	27905.31
690.609	27795.48
690.956	27737.41
691.303	27641.36
691.65	27488.6
691.997	27554.81
692.344	27338.77
692.69	27310.98
693.037	27247.7
693.383	27146.69
693.73	27159.57
694.077	27024.2
694.423	26988.73
694.769	26960.25
695.116	26929.74
695.462	26895.62
695.808	26734.27
696.155	26820.37
696.501	26532.69
696.847	26600.04
697.193	26319.59
697.539	26425.35
697.885	26286.6
698.231	26154.85
698.577	26166.83
698.923	26222.87
699.269	26085.92
699.614	25948.53
699.96	25842.99
700.306	25801.64
700.651	25734.52
700.997	25717.12
701.342	25789.89
701.688	25643.22
702.033	25588.99
702.379	25485.26
702.724	25459.05
703.069	25426.05
703.415	25165.27
703.76	25180.64
704.105	25136.8
704.45	25136.34
704.795	24965.05
705.14	24854.09
705.485	25012.28
705.83	24840.53
706.175	24800.08
706.52	24673.53
706.865	24606.87
707.209	24557.38
707.554	24530.03
707.899	24572.74
708.243	24451.84
708.588	24395.35
708.932	24339.53
709.277	24214.79
709.621	24249.81
709.966	24163.71
710.31	24102.02
710.654	24001.69
710.998	24028.58
711.342	23981.12
711.687	23878.52
712.031	23752.88
712.375	23694.57
712.719	23766.66
713.063	23691.18
713.407	23849.82
713.75	23534.8
714.094	23633.79
714.438	23551.75
714.782	23464.07
715.125	23455.71
715.469	23363.06
715.812	23232.89
716.156	23206.9
716.499	23248.03
716.843	23149.28
717.186	23159.9
717.53	23115.61
717.873	23209.39
718.216	23135.95
718.559	22972.33
718.902	22866.8
719.246	22933.69
719.589	22765.33
719.932	22717.43
720.275	22737.54
720.617	22694.6
720.96	22653.92
721.303	22655.51
721.646	22676.75
721.989	22435.17
722.331	22594.26
722.674	22482.86
723.016	22456.42
723.359	22319.02
723.701	22416.19
724.044	22236.31
724.386	22253.26
724.729	22267.27
725.071	22227.04
725.413	22144.33
725.755	22234.73
726.097	22095.97
726.439	22030.44
726.782	22014.84
727.124	22094.62
727.465	21966.48
727.807	22019.14
728.149	21811.01
728.491	21805.58
728.833	21835.87
729.175	21732.37
729.516	21787.73
729.858	21699.82
730.199	21680.16
730.541	21681.97
730.882	21631.35
731.224	21598.13
731.565	21547.29
731.906	21386.16
732.248	21527.17
732.589	21539.83
732.93	21370.12
733.271	21390.45
733.612	21394.07
733.953	21346.61
734.294	21216.22
734.635	21213.28
734.976	21316.11
735.317	21048.54
735.658	21166.51
735.999	21155.43
736.339	21023.23
736.68	21089.45
737.021	20933.29
737.361	21004.93
737.702	20981.65
738.042	20932.61
738.383	20921.54
738.723	20936.91
739.063	20756.35
739.404	20844.71
739.744	20754.54
740.084	20745.27
740.424	20757.02
740.764	20696.91
741.104	20750.7
741.444	20590.93
741.784	20519.74
742.124	20595.9
742.464	20490.82
742.804	20486.52
743.143	20413.98
743.483	20477.71
743.823	20342.8
744.162	20332.63
744.502	20344.38
744.841	20298.28
745.181	20308.22
745.52	20230.49
745.86	20214.21
746.199	20179.64
746.538	20241.56
746.877	20283.59
747.216	20224.61
747.556	20116.59
747.895	20086.99
748.234	20056.48
748.573	20013.32
748.911	19955.69
749.25	19858.74
749.589	19778.52
749.928	19865.3
750.267	19788.01
750.605	19728.35
750.944	19760.67
751.283	19646.32
751.621	19592.08
751.96	19640.44
752.298	19561.58
752.636	19486.78
752.975	19389.6
753.313	19301.92
753.651	19467.12
753.989	19235.71
754.327	19315.71
754.666	19206.33
755.004	19171.53
755.342	19140.57
755.679	19216.95
756.017	19090.18
756.355	19071.65
756.693	18936.96
757.031	19013.79
757.368	18904.64
757.706	18896.28
758.044	18779.9
758.381	18810.41
758.719	18652.22
759.056	18673.46
759.394	18657.42
759.731	18506.24
760.068	18639.79
760.405	18538.55
760.743	18448.84
761.08	18422.17
761.417	18320.03
761.754	18287.03
762.091	18350.53
762.428	18265.56
762.765	18054.27
763.102	18155.51
763.438	17868.29
763.775	17797.55
764.112	17950.77
764.449	17990.77
764.785	17819.7
765.122	17669.87
765.458	17631.23
765.795	17605.02
766.131	17638.69
766.467	17561.63
766.804	17409.77
767.14	17480.95
767.476	17352.37
767.812	17217.46
768.148	17273.95
768.485	17189.21
768.821	17115.99
769.157	16995.09
769.492	17033.73
769.828	16837.58
770.164	16851.36
770.5	16841.65
770.836	16785.38
771.171	16762.78
771.507	16698.6
771.842	16464.93
772.178	16564.82
772.513	16516.68
772.849	16379.29
773.184	16299.06
773.519	16391.26
773.855	16244.83
774.19	16198.73
774.525	16125.51
774.86	16139.52
775.195	16074.21
775.53	16048.22
775.865	15920.32
776.2	15887.1
776.535	15747.21
776.87	15697.5
777.205	15697.95
777.539	15612.98
777.874	15643.71
778.209	15478.07
778.543	15495.47
778.878	15344.74
779.212	15330.5
779.547	15226.1
779.881	15259.32
780.215	15198.75
780.55	15198.98
780.884	15092.99
781.218	15059.55
781.552	15049.83
781.886	14999.66
782.22	14933.68
782.554	14796.96
782.888	14716.73
783.222	14746.56
783.556	14605.55
783.889	14625.43
784.223	14503.4
784.557	14491.43
784.89	14535.49
785.224	14397.64
785.557	14328.72
785.891	14253.02
786.224	14206.24
786.558	14155.16
786.891	14084.88
787.224	14128.27
787.557	14050.31
787.891	13995.85
788.224	13943.87
788.557	13887.83
788.89	13889.18
789.223	13859.58
789.556	13692.35
789.888	13724.44
790.221	13673.14
790.554	13613.03
790.887	13651.22
791.219	13606.25
791.552	13516.76
791.884	13528.74
792.217	13444.9
792.549	13321.06
792.882	13296.66
793.214	13204
793.546	13296.88
793.879	13171.01
794.211	13082.88
794.543	13127.39
794.875	13040.39
795.207	13130.33
795.539	12959.94
795.871	12982.31
796.203	12893.95
796.535	12858.48
796.867	12824.13
797.198	12858.02
797.53	12816.44
797.862	12651.93
798.193	12756.56
798.525	12617.8
798.856	12682.43
799.188	12538.71
799.519	12504.81
799.85	12334.87
800.182	12446.28
800.513	12424.81
800.844	12294.42
801.175	12307.3
801.506	12339.39
801.837	12235.44
802.168	12178.95
802.499	12177.14
802.83	12166.97
803.161	12072.51
803.491	12018.5
803.822	12068.89
804.153	11924.49
804.483	11869.57
804.814	11828.22
805.145	11812.85
805.475	11851.04
805.805	11802.23
806.136	11795.45
806.466	11702.12
806.796	11706.64
807.126	11652.41
807.457	11583.48
807.787	11562.46
808.117	11661.67
808.447	11481.34
808.777	11547.1
809.107	11528.79
809.436	11351.85
809.766	11361.34
810.096	11366.54
810.426	11419.87
810.755	11339.65
811.085	11388.91
811.414	11318.63
811.744	11203.38
812.073	11186.66
812.403	11220.78
812.732	11113.66
813.061	11103.49
813.39	11061.01
813.719	11060.56
814.049	11110.27
814.378	11006.77
814.707	11051.52
815.036	10903.95
815.365	10939.43
815.693	10807.68
816.022	10776.95
816.351	10830.28
816.68	10756.38
817.008	10783.28
817.337	10641.81
817.665	10637.06
817.994	10660.34
818.322	10652.43
818.651	10704.63
818.979	10543.06
819.307	10634.81
819.636	10621.7
819.964	10481.59
820.292	10613.34
820.62	10600
820.948	10467.58
821.276	10603.39
821.604	10546.45
821.932	10519.78
822.259	10636.16
822.587	10617.4
822.915	10452.66
823.243	10531.98
823.57	10434.58
823.898	10494.7
824.225	10356.62
824.553	10466
824.88	10474.13
825.207	10549.16
825.535	10425.55
825.862	10454.47
826.189	10494.7
826.516	10397.75
826.843	10518.65
827.17	10545.99
827.497	10505.09
827.824	10490.4
828.151	10558.2
828.478	10474.13
828.805	10494.7
829.131	10475.26
829.458	10471.65
829.785	10409.95
830.111	10477.97
830.438	10531.76
830.764	10503.74
831.09	10501.25
831.417	10370.18
831.743	10411.53
832.069	10472.1
832.395	10382.83
832.722	10445.43
833.048	10355.04
833.374	10378.09
833.7	10341.93
834.026	10321.37
834.351	10344.19
834.677	10322.04
835.003	10357.75
835.329	10296.96
835.654	10322.5
835.98	10328.37
836.306	10343.29
836.631	10266.45
836.956	10262.39
837.282	10307.36
837.607	10249.96
837.932	10212.22
838.258	10141.26
838.583	10151.65
838.908	10091.77
839.233	10110.98
839.558	10113.91
839.883	10094.03
840.208	10073.69
840.533	10091.09
840.858	10055.61
841.182	10066.68
841.507	10031.21
841.832	9906.46
842.156	9950.53
842.481	9980.81
842.805	9913.69
843.13	9838.22
843.454	9897.2
843.778	9817.43
844.103	9845.45
844.427	9794.6
844.751	9799.12
845.075	9725.68
845.399	9748.05
845.723	9720.03
846.047	9619.24
846.371	9648.84
846.695	9623.31
847.019	9499.69
847.343	9589.86
847.666	9478.68
847.99	9481.62
848.313	9476.42
848.637	9315.52
848.96	9338.79
849.284	9308.96
849.607	9227.38
849.931	9229.42
850.254	9176.31
850.577	9138.12
850.9	9105.58
851.223	9107.39
851.546	8983.1
851.869	8975.64
852.192	9019.25
852.515	8891.8
852.838	8931.57
853.161	8895.64
853.483	8844.57
853.806	8820.84
854.129	8809.32
854.451	8663.33
854.774	8718.7
855.096	8709.21
855.419	8699.26
855.741	8651.35
856.063	8595.76
856.385	8601.86
856.708	8594.86
857.03	8526.61
857.352	8510.57
857.674	8514.18
857.996	8434.41
858.318	8425.6
858.64	8394.19
858.961	8407.52
859.283	8402.32
859.605	8337.69
859.926	8396.67
860.248	8342.44
860.57	8287.75
860.891	8264.47
861.212	8253.17
861.534	8229.67
861.855	8235.09
862.176	8204.13
862.498	8189.22
862.819	8188.99
863.14	8117.58
863.461	8159.84
863.782	8136.11
864.103	8123.91
864.424	8083.23
864.745	8101.54
865.065	8040.75
865.386	8019.51
865.707	8068.54
866.027	8087.98
866.348	8031.48
866.668	8005.95
866.989	7986.06
867.309	7929.34
867.63	7963.24
867.95	7972.73
868.27	7924.37
868.59	7869.68
868.91	7927.76
869.23	7918.04
869.55	7865.16
869.87	7860.41
870.19	7876.46
870.51	7840.08
870.83	7865.84
871.15	7789.91
871.469	7816.8
871.789	7880.98
872.109	7780.42
872.428	7783.58
872.748	7815.67
873.067	7816.35
873.386	7755.78
873.706	7743.58
874.025	7612.96
874.344	7679.63
874.663	7699.29
874.982	7714.2
875.301	7664.71
875.62	7601.44
875.939	7592.63
876.258	7607.77
876.577	7604.6
876.896	7589.69
877.214	7609.12
877.533	7632.85
877.852	7568.45
878.17	7560.54
878.489	7560.08
878.807	7574.09
879.125	7514.66
879.444	7519.86
879.762	7453.87
880.08	7507.2
880.398	7479.18
880.716	7513.08
881.034	7476.7
881.352	7432.18
881.67	7393.99
881.988	7473.08
882.306	7406.64
882.624	7335.46
882.941	7354.67
883.259	7328.9
883.577	7336.59
883.894	7308.34
884.212	7322.58
884.529	7270.37
884.846	7233.54
885.164	7249.13
885.481	7241.22
885.798	7253.2
886.115	7170.49
886.432	7190.6
886.75	7172.07
887.067	7130.72
887.383	7149.92
887.7	7137.72
888.017	7081.9
888.334	7094.79
888.651	7057.95
888.967	7031.96
889.284	6999.65
889.6	6985.64
889.917	6970.95
890.233	6897.28
890.55	6931.85
890.866	6927.33
891.182	6928.91
891.498	6890.72
891.815	6875.81
892.131	6845.98
892.447	6841.01
892.763	6829.26
893.079	6814.57
893.395	6772.08
893.71	6798.97
894.026	6760.78
894.342	6737.28
894.657	6673.55
894.973	6655.02
895.289	6715.59
895.604	6671.97
895.92	6637.62
896.235	6590.62
896.55	6645.98
896.865	6584.52
897.181	6532.77
897.496	6538.87
897.811	6495.7
898.126	6507.68
898.441	6451.19
898.756	6434.92
899.071	6396.27
899.386	6426.33
899.7	6316.5
900.015	6365.99
900.33	6287.8
900.644	6305.2
900.959	6305.2
901.273	6257.29
901.588	6245.77
901.902	6233.34
902.216	6176.84
902.531	6176.62
902.845	6131.87
903.159	6170.74
903.473	6073.12
903.787	6097.98
904.101	6056.62
904.415	6019.11
904.729	6016.62
905.042	6018.43
905.356	6011.88
905.67	6001.25
905.984	5957.87
906.297	5925.55
906.611	5919.67
906.924	5863.63
907.237	5866.57
907.551	5833.8
907.864	5826.34
908.177	5791.09
908.491	5820.02
908.804	5775.05
909.117	5708.15
909.43	5707.25
909.743	5694.37
910.056	5699.79
910.368	5638.55
910.681	5668.83
910.994	5627.93
911.307	5584.54
911.619	5513.81
911.932	5528.5
912.244	5498.89
912.557	5473.58
912.869	5429.74
913.181	5465.9
913.494	5486.47
913.806	5425
914.118	5410.54
914.43	5369.63
914.742	5341.38
915.054	5337.09
915.366	5338.67
915.678	5294.83
915.99	5278.11
916.302	5186.36
916.613	5240.14
916.925	5247.83
917.236	5159.02
917.548	5121.28
917.859	5182.07
918.171	5093.26
918.482	5103.43
918.794	5076.31
919.105	5061.62
919.416	5038.34
919.727	5039.47
920.038	4997.67
920.349	4987.04
920.66	4946.82
920.971	4912.47
921.282	4877.67
921.593	4887.39
921.903	4869.53
922.214	4859.59
922.525	4821.4
922.835	4837.9
923.146	4746.37
923.456	4766.71
923.767	4745.92
924.077	4762.42
924.387	4718.35
924.697	4693.72
925.008	4670.22
925.318	4670.22
925.628	4647.39
925.938	4601.29
926.248	4597.68
926.558	4566.26
926.867	4623.66
927.177	4590.67
927.487	4533.5
927.796	4477.23
928.106	4534.85
928.416	4483.55
928.725	4463.44
929.034	4470.22
929.344	4421.86
929.653	4387.96
929.962	4378.25
930.271	4388.87
930.581	4356.55
930.89	4291.02
931.199	4289.89
931.508	4257.57
931.817	4296.67
932.125	4296.89
932.434	4244.01
932.743	4258.93
933.051	4208.76
933.36	4193.39
933.669	4201.98
933.977	4161.75
934.286	4116.56
934.594	4119.04
934.902	4115.2
935.21	4062.77
935.519	4064.58
935.827	4077.46
936.135	4057.35
936.443	4017.35
936.751	4018.03
937.059	3993.4
937.367	3985.94
937.674	3967.18
937.982	3946.85
938.29	3917.47
938.597	3948.43
938.905	3916.34
939.213	3869.11
939.52	3876.56
939.827	3878.6
940.135	3776
940.442	3794.08
940.749	3832.95
941.056	3816.68
941.363	3764.03
941.67	3774.65
941.977	3720.41
942.284	3726.51
942.591	3712.05
942.898	3712.28
943.205	3706.17
943.511	3670.02
943.818	3668.21
944.125	3646.06
944.431	3631.6
944.738	3605.16
945.044	3552.96
945.35	3576.91
945.657	3574.65
945.963	3573.97
946.269	3505.28
946.575	3555.22
946.881	3483.13
947.187	3482.9
947.493	3465.95
947.799	3398.16
948.105	3427.31
948.41	3426.18
948.716	3436.58
949.022	3371.49
949.327	3366.3
949.633	3363.36
949.938	3347.54
950.244	3381.44
950.549	3328.78
950.854	3386.86
951.16	3317.71
951.465	3307.99
951.77	3263.47
952.075	3246.3
952.38	3217.6
952.685	3253.3
952.99	3211.72
953.294	3210.59
953.599	3194.77
953.904	3211.72
954.209	3175.57
954.513	3192.06
954.818	3198.84
955.122	3136.02
955.426	3113.42
955.731	3112.29
956.035	3125.4
956.339	3090.82
956.643	3108
956.948	3051.28
957.252	3039.52
957.556	3017.6
957.86	2996.81
958.163	2991.84
958.467	3011.28
958.771	2968.79
959.075	2970.6
959.378	3005.18
959.682	2935.57
959.985	2953.2
960.289	2914.33
960.592	2886.53
960.896	2882.24
961.199	2860.77
961.502	2896.25
961.805	2859.64
962.108	2826.42
962.411	2832.52
962.714	2808.57
963.017	2839.53
963.32	2815.35
963.623	2792.53
963.926	2768.8
964.228	2782.58
964.531	2785.52
964.833	2729.02
965.136	2692.19
965.438	2694
965.741	2701.68
966.043	2721.79
966.345	2704.62
966.648	2661.68
966.95	2628.91
967.252	2655.35
967.554	2651.96
967.856	2631.4
968.158	2610.16
968.46	2600.44
968.761	2574.23
969.063	2592.76
969.365	2604.96
969.666	2576.94
969.968	2551.18
970.269	2549.59
970.571	2548.24
970.872	2530.16
971.174	2515.24
971.475	2501.01
971.776	2468.47
972.077	2495.36
972.378	2492.65
972.679	2461.01
972.98	2447.45
973.281	2451.52
973.582	2385.98
973.883	2429.6
974.183	2420.78
974.484	2394.12
974.785	2407.45
975.085	2413.33
975.386	2363.84
975.686	2341.24
975.986	2367.68
976.287	2390.73
976.587	2362.71
976.887	2325.87
977.187	2314.57
977.487	2319.54
977.787	2262.37
978.087	2302.82
978.387	2289.26
978.687	2249.26
978.987	2257.17
979.286	2238.64
979.586	2225.76
979.885	2232.99
980.185	2218.08
980.484	2221.92
980.784	2209.04
981.083	2218.08
981.382	2163.39
981.682	2172.65
981.981	2179.21
982.28	2196.61
982.579	2146.21
982.878	2135.59
983.177	2115.71
983.475	2106.67
983.774	2108.02
984.073	2099.44
984.372	2075.93
984.67	2083.39
984.969	2065.76
985.267	2091.07
985.566	2050.4
985.864	2053.11
986.162	2051.75
986.461	2015.82
986.759	2069.61
987.057	2000.91
987.355	2047.69
987.653	2018.76
987.951	1989.16
988.249	1988.7
988.547	1962.72
988.844	1982.83
989.142	1987.8
989.44	1950.74
989.737	1962.26
990.035	1931.31
990.332	1948.71
990.63	1922.49
990.927	1901.7
991.224	1896.96
991.521	1890.18
991.819	1892.89
992.116	1861.93
992.413	1875.49
992.71	1863.28
993.006	1838.65
993.303	1831.42
993.6	1863.96
993.897	1873.45
994.193	1843.17
994.49	1819.9
994.787	1808.37
995.083	1787.35
995.379	1817.64
995.676	1788.71
995.972	1769.95
996.268	1784.87
996.565	1764.76
996.861	1716.17
997.157	1731.76
997.453	1737.41
997.749	1728.82
998.044	1716.62
998.34	1703.97
998.636	1715.27
998.932	1680.01
999.227	1684.98
999.523	1682.72
999.818	1658.77
1000.114	1643.86
1000.409	1646.34
1000.704	1651.31
1001	1609.96
1001.295	1600.69
1001.59	1625.78
1001.885	1603.4
1002.18	1614.48
1002.475	1590.52
1002.77	1576.06
1003.065	1570.86
1003.359	1573.57
1003.654	1537.64
1003.949	1558.43
1004.243	1536.97
1004.538	1553.46
1004.832	1540.13
1005.127	1537.42
1005.421	1517.98
1005.715	1474.59
1006.009	1484.54
1006.304	1495.84
1006.598	1442.5
1006.892	1469.85
1007.186	1483.86
1007.48	1492.22
1007.773	1458.32
1008.067	1451.32
1008.361	1444.54
1008.655	1410.64
1008.948	1425.78
1009.242	1408.38
1009.535	1412
1009.829	1377.65
1010.122	1380.59
1010.415	1383.52
1010.708	1362.96
1011.001	1335.39
1011.295	1346.91
1011.588	1370.64
1011.881	1355.05
1012.173	1368.38
1012.466	1350.76
1012.759	1336.29
1013.052	1304.65
1013.344	1329.74
1013.637	1290.42
1013.93	1317.76
1014.222	1284.99
1014.514	1314.15
1014.807	1262.85
1015.099	1253.81
1015.391	1291.77
1015.683	1269.4
1015.976	1238.22
1016.268	1222.17
1016.56	1266.92
1016.851	1230.98
1017.143	1218.1
1017.435	1247.71
1017.727	1234.6
1018.018	1202.06
1018.31	1189.63
1018.602	1202.28
1018.893	1209.29
1019.185	1188.73
1019.476	1167.26
1019.767	1158.44
1020.058	1152.12
1020.35	1136.07
1020.641	1130.2
1020.932	1117.77
1021.223	1103.76
1021.514	1118.9
1021.804	1125.9
1022.095	1122.29
1022.386	1110.08
1022.677	1118.45
1022.967	1074.83
1023.258	1069.63
1023.548	1101.72
1023.839	1083.42
1024.129	1070.54
1024.419	1071.21
1024.709	1094.72
1025	1044.55
1025.29	1036.19
1025.58	1028.5
1025.87	1029.18
1026.16	1023.31
1026.449	1019.01
1026.739	974.72
1027.029	1015.62
1027.319	1014.95
1027.608	983.53
1027.898	990.09
1028.187	984.66
1028.477	975.62
1028.766	982.63
1029.055	984.44
1029.344	970.65
1029.634	983.53
1029.923	972.01
1030.212	947.6
1030.501	975.17
1030.79	933.82
1031.078	925.46
1031.367	916.64
1031.656	916.64
1031.945	904.44
1032.233	896.98
1032.522	890.43
1032.81	906.93
1033.099	894.5
1033.387	889.3
1033.675	881.16
1033.963	880.49
1034.251	879.58
1034.54	863.54
1034.828	867.83
1035.116	881.84
1035.403	840.71
1035.691	842.75
1035.979	861.73
1036.267	843.42
1036.554	862.63
1036.842	811.33
1037.129	819.47
1037.417	834.16
1037.704	814.05
1037.992	785.35
1038.279	823.09
1038.566	819.92
1038.853	819.92
1039.14	819.92
