Data from breadboard_black_back_FLMS001491_00067.txt Node
Date: Wed Feb 08 10:50:44 GMT 2017
User: dcchb
Spectrometer: FLMS00149
Trigger mode: 0
Integration Time (sec): 2.000000E-2
Scans to average: 10
Electric dark correction enabled: true
Nonlinearity correction enabled: false
Boxcar width: 0
XAxis mode: Wavelengths
Number of Pixels in Spectrum: 2048
>>>>>Begin Spectral Data<<<<<
341.393	-6.77
341.776	-6.77
342.16	-6.77
342.543	-55.35
342.927	-83.6
343.31	-54.22
343.693	-65.75
344.077	-59.87
344.46	-56.93
344.843	-43.83
345.226	-24.62
345.61	-36.82
345.993	-19.42
346.376	-4.28
346.759	-4.73
347.142	4.99
347.525	53.35
347.908	53.57
348.291	69.62
348.674	87.7
349.057	101.25
349.44	98.32
349.823	117.53
350.206	158.2
350.588	192.78
350.971	199.33
351.354	219.9
351.737	231.87
352.119	233.45
352.502	270.74
352.884	276.39
353.267	274.81
353.65	266.45
354.032	296.05
354.414	315.71
354.797	303.96
355.179	316.16
355.562	327.46
355.944	318.2
356.326	319.33
356.709	346.45
357.091	344.19
357.473	352.55
357.855	336.28
358.238	361.81
358.62	357.29
359.002	338.31
359.384	334.69
359.766	355.71
360.148	347.58
360.53	358.42
360.912	331.76
361.294	368.37
361.676	332.66
362.057	339.89
362.439	342.15
362.821	336.28
363.203	349.61
363.584	329.95
363.966	356.39
364.348	337.63
364.729	329.27
365.111	348.71
365.493	339.89
365.874	336.73
366.256	334.47
366.637	331.53
367.019	316.84
367.4	326.33
367.781	346.45
368.163	335.37
368.544	338.08
368.925	334.92
369.306	335.15
369.688	337.86
370.069	324.75
370.45	337.41
370.831	328.37
371.212	340.57
371.593	339.44
371.974	333.79
372.355	342.15
372.736	339.44
373.117	351.64
373.498	339.21
373.879	339.67
374.26	354.81
374.641	328.59
375.021	351.19
375.402	337.86
375.783	335.15
376.163	383.05
376.544	351.42
376.925	339.21
377.305	360.23
377.686	358.87
378.066	365.65
378.447	356.16
378.827	372.21
379.208	346.9
379.588	381.7
379.968	381.02
380.349	371.3
380.729	365.65
381.109	376.28
381.489	389.16
381.87	388.25
382.25	401.36
382.63	393.9
383.01	388.7
383.39	404.07
383.77	394.13
384.15	405.43
384.53	396.39
384.91	417.86
385.29	433.22
385.67	417.63
386.049	421.7
386.429	413.11
386.809	411.08
387.189	440.23
387.568	427.57
387.948	423.96
388.328	430.74
388.707	441.36
389.087	426.67
389.466	438.87
389.846	439.78
390.225	440.45
390.605	457.4
390.984	468.7
391.363	455.37
391.743	459.44
392.122	454.24
392.501	495.14
392.881	466.22
393.26	493.11
393.639	469.61
394.018	505.09
394.397	503.05
394.776	493.56
395.155	480.91
395.534	499.66
395.913	513.67
396.292	514.35
396.671	494.69
397.05	508.02
397.429	509.15
397.808	519.55
398.186	517.97
398.565	520.68
398.944	538.53
399.323	545.31
399.701	545.76
400.08	548.7
400.458	562.49
400.837	579.66
401.215	571.07
401.594	560.68
401.972	571.75
402.351	547.57
402.729	535.82
403.107	587.8
403.486	564.97
403.864	585.76
404.242	608.81
404.62	587.34
404.999	606.33
405.377	601.13
405.755	624.63
406.133	608.13
406.511	623.95
406.889	624.18
407.267	643.39
407.645	645.87
408.023	647.23
408.401	658.08
408.779	656.95
409.156	666.44
409.534	687.45
409.912	708.02
410.29	710.5
410.667	706.66
411.045	703.95
411.422	715.02
411.8	734.91
412.178	757.51
412.555	763.84
412.933	754.34
413.31	767.9
413.687	768.58
414.065	806.32
414.442	809.26
414.819	812.2
415.197	781.24
415.574	807
415.951	813.55
416.328	850.84
416.705	836.15
417.082	827.11
417.46	863.72
417.837	838.64
418.214	854.45
418.591	843.38
418.967	896.26
419.344	881.12
419.721	913.21
420.098	884.06
420.475	913.44
420.852	945.75
421.228	916.37
421.605	909.59
421.982	940.1
422.358	937.62
422.735	963.6
423.111	938.75
423.488	963.6
423.864	967.9
424.241	991.4
424.617	1009.03
424.994	986.2
425.37	1008.12
425.746	1028.69
426.123	1050.83
426.499	1049.93
426.875	1066.43
427.251	1072.53
427.627	1108.46
428.003	1103.26
428.379	1113.43
428.756	1156.59
429.132	1140.55
429.507	1141.68
429.883	1167.44
430.259	1205.41
430.635	1183.94
431.011	1195.91
431.387	1230.49
431.763	1244.73
432.138	1277.27
432.514	1270.94
432.89	1293.09
433.265	1313.43
433.641	1326.76
434.016	1358.17
434.392	1356.14
434.767	1357.27
435.143	1390.71
435.518	1380.54
435.894	1360.88
436.269	1431.84
436.644	1435.91
437.02	1460.77
437.395	1453.54
437.77	1475.23
438.145	1481.33
438.52	1489.24
438.895	1498.73
439.271	1521.1
439.646	1551.61
440.021	1554.78
440.395	1545.51
440.77	1574.21
441.145	1556.81
441.52	1599.29
441.895	1584.61
442.27	1625.96
442.645	1654.66
443.019	1631.16
443.394	1641.33
443.769	1650.37
444.143	1658.05
444.518	1710.03
444.892	1703.47
445.267	1723.13
445.641	1743.02
446.016	1733.98
446.39	1747.31
446.764	1729.46
447.139	1752.96
447.513	1762.45
447.887	1805.84
448.262	1817.14
448.636	1817.14
449.01	1816.69
449.384	1867.99
449.758	1870.47
450.132	1896.69
450.506	1906.18
450.88	1903.24
451.254	1917.03
451.628	1958.15
452.002	1967.87
452.376	1996.35
452.75	2011.49
453.123	2029.34
453.497	2058.94
453.871	2062.11
454.244	2090.81
454.618	2117.92
454.992	2162.9
455.365	2175.1
455.739	2207.87
456.112	2257.36
456.486	2266.85
456.859	2319.73
457.232	2321.08
457.606	2280.63
457.979	2352.27
458.352	2360.86
458.725	2400.85
459.099	2418.93
459.472	2476.11
459.845	2501.87
460.218	2538.93
460.591	2551.36
460.964	2535.31
461.337	2641.53
461.71	2664.8
462.083	2648.31
462.456	2704.8
462.829	2706.38
463.201	2755.42
463.574	2773.73
463.947	2810.56
464.32	2876.1
464.692	2930.33
465.065	2933.27
465.438	2970.11
465.81	2995.19
466.183	3055.08
466.555	3133.72
466.928	3097.56
467.3	3092.36
467.672	3155.86
468.045	3234.28
468.417	3265.46
468.789	3307.05
469.161	3310.44
469.534	3346.14
469.906	3424.33
470.278	3449.64
470.65	3547.27
471.022	3597.89
471.394	3675.62
471.766	3715.17
472.138	3760.37
472.51	3780.03
472.882	3852.12
473.253	3872.45
473.625	3958.1
473.997	4052.79
474.369	4042.85
474.74	4128.95
475.112	4192.9
475.484	4257.08
475.855	4392.44
476.227	4393.12
476.598	4518.54
476.97	4473.57
477.341	4601.02
477.713	4723.96
478.084	4720.79
478.455	4866.1
478.827	4854.35
479.198	5055.47
479.569	5031.97
479.94	5178.18
480.311	5231.06
480.682	5332.08
481.053	5479.42
481.424	5543.15
481.795	5538.17
482.166	5672.86
482.537	5738.39
482.908	5870.37
483.279	5900.2
483.65	6007.31
484.021	6129.34
484.391	6200.3
484.762	6294.54
485.133	6376.8
485.503	6435.78
485.874	6567.98
486.244	6669.44
486.615	6727.52
486.985	6792.6
487.356	6946.72
487.726	6997.12
488.097	7141.07
488.467	7132.48
488.837	7385.81
489.207	7386.03
489.578	7518.91
489.948	7541.74
490.318	7699.92
490.688	7732.92
491.058	7894.72
491.428	7989.63
491.798	8061.5
492.168	8199.35
492.538	8242.28
492.908	8351.88
493.278	8466.68
493.648	8440.24
494.017	8598.43
494.387	8689.5
494.757	8731.99
495.126	8859.22
495.496	8851.76
495.866	8938.54
496.235	9109.15
496.605	9147.57
496.974	9145.31
497.344	9315.7
497.713	9303.05
498.082	9387.11
498.452	9501.69
498.821	9552.31
499.19	9639.31
499.559	9660.55
499.928	9786.2
500.298	9811.51
500.667	9975.57
501.036	9894.44
501.405	10063.03
501.774	10072.74
502.143	10176.02
502.512	10278.84
502.88	10288.56
503.249	10283.81
503.618	10444.71
503.987	10468.21
504.356	10668.43
504.724	10711.6
505.093	10701.2
505.462	10749.79
505.83	10828.88
506.199	10841.99
506.567	11011.25
506.936	11037.46
507.304	11153.85
507.672	11242.66
508.041	11352.48
508.409	11427.28
508.777	11462.54
509.145	11655.3
509.514	11539.6
509.882	11730.55
510.25	11746.82
510.618	11921.96
510.986	11952.69
511.354	12038.12
511.722	12190.2
512.09	12232.01
512.458	12226.36
512.826	12378.45
513.193	12492.79
513.561	12563.53
513.929	12625.22
514.297	12693.01
514.664	12761.71
515.032	12943.85
515.4	13053
515.767	13079.67
516.135	13138.43
516.502	13151.98
516.869	13347.91
517.237	13464.29
517.604	13357.4
517.972	13485.08
518.339	13697.28
518.706	13761.69
519.073	13854.11
519.44	13939.08
519.808	14142.92
520.175	14116.48
520.542	14298.4
520.909	14421.33
521.276	14431.95
521.643	14585.17
522.009	14669.68
522.376	14760.08
522.743	14852.05
523.11	14977.02
523.477	15198.71
523.843	15230.8
524.21	15425.6
524.577	15612.03
524.943	15579.27
525.31	15669.43
525.676	15826.04
526.043	15938.13
526.409	16042.98
526.776	16181.28
527.142	16231
527.508	16436.42
527.874	16504.44
528.241	16653.14
528.607	16685.45
528.973	16908.27
529.339	16941.26
529.705	17073.01
530.071	17190.52
530.437	17328.15
530.803	17384.87
531.169	17555.94
531.535	17463.06
531.901	17517.07
532.267	17733.79
532.632	17744.18
532.998	17817.62
533.364	17951.18
533.73	18032.53
534.095	18212.64
534.461	18291.96
534.826	18348.68
535.192	18388.01
535.557	18478.62
535.923	18566.53
536.288	18696.7
536.653	18787.99
537.019	18689.24
537.384	18856.92
537.749	19008.78
538.114	19018.27
538.479	19027.99
538.845	19069.12
539.21	19152.5
539.575	19305.27
539.94	19336.91
540.305	19436.34
540.67	19393.63
541.034	19474.53
541.399	19531.93
541.764	19579.39
542.129	19707.74
542.494	19797.69
542.858	19931.24
543.223	20058.92
543.587	20011.92
543.952	20057.11
544.316	20163.78
544.681	20171.24
545.045	20290.1
545.41	20295.98
545.774	20421.17
546.138	20537.1
546.503	20465.01
546.867	20495.75
547.231	20731.45
547.595	20812.57
547.959	20901.16
548.324	20888.28
548.688	20954.04
549.052	21079.23
549.416	21030.42
549.779	21082.62
550.143	21240.81
550.507	21373.69
550.871	21452.56
551.235	21429.73
551.599	21550.86
551.962	21549.73
552.326	21856.39
552.689	21900
553.053	21799.21
553.417	21891.87
553.78	22154.69
554.143	22107
554.507	22161.47
554.87	22258.64
555.234	22490.5
555.597	22487.33
555.96	22479.2
556.323	22601.68
556.686	22700.21
557.05	22851.16
557.413	22847.77
557.776	22883.93
558.139	23036.7
558.502	23252.28
558.865	23170.48
559.228	23391.72
559.59	23501.09
559.953	23569.79
560.316	23742.89
560.679	23807.3
561.041	23958.48
561.404	24057.69
561.767	24134.07
562.129	24099.95
562.492	24412.93
562.854	24385.59
563.217	24464.46
563.579	24501.74
563.941	24623.77
564.304	24757.56
564.666	24963.65
565.028	24887.27
565.39	24956.65
565.753	25259.91
566.115	25287.94
566.477	25426.92
566.839	25495.16
567.201	25668.49
567.563	25641.83
567.925	25892.67
568.287	25902.84
568.648	25902.61
569.01	26055.15
569.372	26251.08
569.734	26174.47
570.095	26431.18
570.457	26448.81
570.819	26399.32
571.18	26539.88
571.542	26741.91
571.903	26822.13
572.265	26895.58
572.626	26965.41
572.987	27031.85
573.349	27164.5
573.71	27227.32
574.071	27209.24
574.432	27407.66
574.794	27611.04
575.155	27474.77
575.516	27550.48
575.877	27648.1
576.238	27665.73
576.599	27807.87
576.96	27717.25
577.32	27825.27
577.681	27933.29
578.042	27998.6
578.403	28035.44
578.763	28037.69
579.124	28054.87
579.485	28020.07
579.845	28254.19
580.206	28169.44
580.566	28275.88
580.927	28293.28
581.287	28358.82
581.648	28306.61
582.008	28429.1
582.368	28399.95
582.728	28352.04
583.089	28465.25
583.449	28347.52
583.809	28385.48
584.169	28411.92
584.529	28405.14
584.889	28558.59
585.249	28479.49
585.609	28559.26
585.969	28693.5
586.329	28412.6
586.688	28468.19
587.048	28397.91
587.408	28469.1
587.768	28430.68
588.127	28454.86
588.487	28392.71
588.846	28634.29
589.206	28569.43
589.565	28471.81
589.925	28661.86
590.284	28450.11
590.643	28602.65
591.003	28773.72
591.362	28792.25
591.721	28755.19
592.08	28551.35
592.44	28734.63
592.799	28676.1
593.158	28766.72
593.517	28750.22
593.876	28790.22
594.235	28663.89
594.593	28707.06
594.952	28777.34
595.311	28734.85
595.67	28839.71
596.029	29053.49
596.387	28976.2
596.746	28945.69
597.104	28841.74
597.463	28861.4
597.822	29005.58
598.18	29031.34
598.538	28905.92
598.897	29032.02
599.255	28864.57
599.613	29295.06
599.972	29085.13
600.33	29126.93
600.688	29107.27
601.046	29152.69
601.404	29238.12
601.762	29174.39
602.12	29350.2
602.478	29239.92
602.836	29337.1
603.194	29258.68
603.552	29317.66
603.91	29251
604.268	29377.09
604.625	29321.28
604.983	29395.85
605.341	29312.01
605.698	29471.33
606.056	29576.64
606.413	29436.53
606.771	29604.66
607.128	29616.64
607.485	29465.23
607.843	29549.97
608.2	29778.67
608.557	29739.8
608.914	29646.24
609.272	29890.08
609.629	29913.35
609.986	29921.71
610.343	29961.94
610.7	30086.68
611.057	30100.01
611.414	29975.95
611.771	29979.79
612.127	30085.78
612.484	30122.84
612.841	30265.88
613.198	30087.58
613.554	30112.89
613.911	30324.87
614.267	30291.2
614.624	30297.75
614.98	30240.57
615.337	30380.23
615.693	30335.26
616.05	30335.49
616.406	30630.62
616.762	30368.71
617.118	30407.35
617.475	30470.4
617.831	30679.43
618.187	30630.85
618.543	30642.82
618.899	30674.46
619.255	30703.16
619.611	30724.63
619.967	30679.89
620.323	30814.8
620.678	30709.94
621.034	30618.19
621.39	30695.48
621.746	30523.05
622.101	30905.42
622.457	30775.02
622.812	30786.55
623.168	30889.37
623.523	30875.81
623.879	30812.09
624.234	30724.4
624.589	30704.97
624.945	30832.88
625.3	30893.67
625.655	30808.7
626.01	30789.71
626.365	30793.78
626.72	30785.42
627.075	30856.38
627.43	30817.51
627.785	30724.4
628.14	30818.86
628.495	30630.17
628.85	30715.14
629.205	30619.55
629.559	30777.51
629.914	30674.91
630.269	30735.7
630.623	30672.88
630.978	30598.08
631.332	30762.82
631.687	30627.91
632.041	30629.04
632.396	30657.97
632.75	30499.78
633.104	30575.48
633.459	30439.89
633.813	30439.44
634.167	30367.35
634.521	30340.46
634.875	30456.61
635.229	30241.48
635.583	30225.43
635.937	30252.55
636.291	30199.45
636.645	30192.21
636.999	30004.87
637.352	30118.32
637.706	30019.79
638.06	30178.88
638.413	30101.37
638.767	30107.47
639.121	30038.77
639.474	29757.42
639.828	30005.1
640.181	29766.24
640.534	29837.42
640.888	29742.51
641.241	29515.17
641.594	29676.52
641.947	29736.18
642.301	29606.24
642.654	29678.56
643.007	29593.36
643.36	29590.65
643.713	29589.29
644.066	29617.54
644.419	29415.29
644.771	29129.87
645.124	29095.75
645.477	28933.04
645.83	28793.61
646.182	28556.55
646.535	28392.71
646.888	28551.81
647.24	28345.26
647.593	28371.7
647.945	28354.3
648.298	28281.08
648.65	28110.69
649.002	28049.45
649.355	28278.37
649.707	28281.53
650.059	28410.57
650.411	28663.22
650.763	28787.28
651.115	28925.81
651.467	28845.36
651.819	28950.21
652.171	28703.21
652.523	28677.68
652.875	28759.03
653.227	28486.72
653.578	28861.4
653.93	28757.45
654.282	28522.2
654.633	28482.2
654.985	28547.06
655.337	28599.49
655.688	28594.74
656.039	28647.62
656.391	28447.63
656.742	28512.26
657.094	28517.46
657.445	28561.75
657.796	28469.1
658.147	28392.49
658.498	28365.6
658.849	28454.18
659.2	28289.21
659.551	28322.43
659.902	28291.25
660.253	28278.37
660.604	28324.47
660.955	28218.71
661.306	28248.31
661.656	28259.61
662.007	28116.79
662.358	28136.9
662.708	28125.83
663.059	28136
663.409	28009
663.76	28191.82
664.11	28210.12
664.461	28204.47
664.811	28114.3
665.161	28233.4
665.511	28028.2
665.862	28017.81
666.212	28230.91
666.562	28159.5
666.912	27968.09
667.262	27889.9
667.612	27982.56
667.962	28189.78
668.312	27963.12
668.662	28114.08
669.011	28025.94
669.361	27983.01
669.711	27945.49
670.06	27859.62
670.41	27980.52
670.76	27833.41
671.109	27866.17
671.459	27872.05
671.808	27769.45
672.157	27865.5
672.507	27695.11
672.856	27614.2
673.205	27743.69
673.554	27796.8
673.904	27626.41
674.253	27806.74
674.602	27651.49
674.951	27318.62
675.3	27091.73
675.649	27535.11
675.998	27528.1
676.346	27463.02
676.695	27475.45
677.044	27362.68
677.393	27521.78
677.741	27577.37
678.09	27399.97
678.438	27220.77
678.787	27457.37
679.135	27458.05
679.484	27167.21
679.832	27255.79
680.181	27157.72
680.529	27235.91
680.877	27152.75
681.225	27126.76
681.573	27238.39
681.922	27123.37
682.27	27019.42
682.618	26993.43
682.966	26893.09
683.314	26932.19
683.661	26955.24
684.009	26810.16
684.357	26758.86
684.705	26728.58
685.053	26704.62
685.4	26562.93
685.748	26499.66
686.095	26478.19
686.443	26360.9
686.79	26376.72
687.138	26318.42
687.485	26397.29
687.832	26200
688.18	26277.97
688.527	26058.76
688.874	26162.04
689.221	25940.57
689.568	26023.96
689.915	25837.98
690.262	25888.82
690.609	25979.9
690.956	25807.47
691.303	25740.81
691.65	25599.79
691.997	25594.82
692.344	25400.02
692.69	25416.75
693.037	25373.81
693.383	25239.12
693.73	25333.81
694.077	25069.41
694.423	25105.12
694.769	25071.45
695.116	24994.16
695.462	24959.58
695.808	24823.32
696.155	24915.74
696.501	24740.83
696.847	24722.53
697.193	24530.22
697.539	24605.24
697.885	24498.35
698.231	24486.15
698.577	24402.54
698.923	24325.25
699.269	24320.5
699.614	24213.61
699.96	24184.01
700.306	24082.32
700.651	23953.51
700.997	23953.51
701.342	23894.98
701.688	23845.71
702.033	23746.73
702.379	23672.16
702.724	23574.54
703.069	23666.06
703.415	23373.18
703.76	23399.62
704.105	23388.1
704.45	23345.16
704.795	23252.51
705.14	23196.01
705.485	23097.94
705.83	23102.23
706.175	23063.36
706.52	22979.07
706.865	22949.02
707.209	22922.58
707.554	22718.96
707.899	22922.58
708.243	22779.98
708.588	22753.99
708.932	22547.22
709.277	22595.58
709.621	22594.67
709.966	22424.51
710.31	22490.04
710.654	22340.22
710.998	22336.15
711.342	22280.78
711.687	22223.38
712.031	22154.23
712.375	22057.74
712.719	22112.65
713.063	22114.91
713.407	22070.85
713.75	21895.03
714.094	21956.72
714.438	21878.53
714.782	21887.8
715.125	21688.94
715.469	21803.73
715.812	21641.93
716.156	21544.76
716.499	21621.14
716.843	21587.47
717.186	21403.29
717.53	21553.8
717.873	21589.05
718.216	21476.29
718.559	21339.57
718.902	21267.93
719.246	21254.14
719.589	21183.19
719.932	21135.28
720.275	21145.45
720.617	21087.6
720.96	21145.9
721.303	21039.91
721.646	21082.62
721.989	20854.16
722.331	21069.97
722.674	20930.54
723.016	20850.54
723.359	20883.76
723.701	20841.27
724.044	20683.99
724.386	20628.62
724.729	20623.88
725.071	20672.69
725.413	20561.28
725.755	20562.19
726.097	20498.68
726.439	20440.61
726.782	20401.29
727.124	20458.46
727.465	20413.94
727.807	20259.82
728.149	20340.27
728.491	20217.79
728.833	20277.45
729.175	20194.51
729.516	20149.54
729.858	20248.52
730.199	20199.26
730.541	20203.1
730.882	20100.05
731.224	20083.1
731.565	19965.59
731.906	19991.35
732.248	20022.76
732.589	19858.7
732.93	19825.71
733.271	19820.51
733.612	19979.83
733.953	19815.31
734.294	19777.35
734.635	19754.75
734.976	19776.44
735.317	19613.74
735.658	19711.13
735.999	19662.1
736.339	19670.68
736.68	19625.71
737.021	19650.8
737.361	19470.46
737.702	19550.69
738.042	19424.59
738.383	19419.62
738.723	19533.29
739.063	19369
739.404	19373.97
739.744	19257.81
740.084	19253.29
740.424	19252.39
740.764	19213.52
741.104	19393.63
741.444	19098.95
741.784	19095.11
742.124	19026.63
742.464	19149.12
742.804	19073.64
743.143	19075.22
743.483	18941.66
743.823	18886.98
744.162	18952.06
744.502	18953.41
744.841	18764.94
745.181	18910.03
745.52	18839.29
745.86	18880.42
746.199	18781.89
746.538	18828.22
746.877	18734.21
747.216	18720.88
747.556	18628.9
747.895	18572.86
748.234	18501
748.573	18560.43
748.911	18452.41
749.25	18410.15
749.589	18357.72
749.928	18389.36
750.267	18460.09
750.605	18352.53
750.944	18234.79
751.283	18200.89
751.621	18255.81
751.96	18115.02
752.298	18152.08
752.636	18063.04
752.975	17977.85
753.313	17962.93
753.651	17966.1
753.989	17809.72
754.327	17798.42
754.666	17738.98
755.004	17752.09
755.342	17776.04
755.679	17791.64
756.017	17661.47
756.355	17683.62
756.693	17623.28
757.031	17699.89
757.368	17490.63
757.706	17492.89
758.044	17472.55
758.381	17485.43
758.719	17336.51
759.056	17400.46
759.394	17317.3
759.731	17230.07
760.068	17196.85
760.405	17135.83
760.743	17082.05
761.08	17162.05
761.417	16948.95
761.754	16958.44
762.091	16918.44
762.428	16882.28
762.765	16736.75
763.102	16829.85
763.438	16661.27
763.775	16617.88
764.112	16596.19
764.449	16608.62
764.785	16531.33
765.122	16442.52
765.458	16305.8
765.795	16388.28
766.131	16247.5
766.467	16290.21
766.804	16252.47
767.14	16076.43
767.476	16009.99
767.812	15967.5
768.148	15930.89
768.485	15988.97
768.821	15853.61
769.157	15790.33
769.492	15743.1
769.828	15735.65
770.164	15613.16
770.5	15569.1
770.836	15504.01
771.171	15414.98
771.507	15375.2
771.842	15331.14
772.178	15355.54
772.513	15133.4
772.849	15259.05
773.184	15167.52
773.519	15166.62
773.855	15100.63
774.19	15037.36
774.525	14948.77
774.86	15004.14
775.195	14960.52
775.53	14892.05
775.865	14792.85
776.2	14689.57
776.535	14622.23
776.87	14651.61
777.205	14502.01
777.539	14407.09
777.874	14463.14
778.209	14410.48
778.543	14279.86
778.878	14200.09
779.212	14252.75
779.547	14163.71
779.881	14108.34
780.215	14105.86
780.55	14197.83
780.884	14016.82
781.218	14059.31
781.552	13891.4
781.886	13918.07
782.22	13750.16
782.554	13761.23
782.888	13649.37
783.222	13464.97
783.556	13471.3
783.889	13509.94
784.223	13379.1
784.557	13350.4
784.89	13418.64
785.224	13278.54
785.557	13224.98
785.891	13219.1
786.224	13166.45
786.558	13156.5
786.891	12949.96
787.224	13059.33
787.557	12969.39
787.891	12955.61
788.224	12927.13
788.557	12952.22
788.89	12850.52
789.223	12899.11
789.556	12704.54
789.888	12811.2
790.221	12749.51
790.554	12650.3
790.887	12595.84
791.219	12600.81
791.552	12564.43
791.884	12479.23
792.217	12489.86
792.549	12383.87
792.882	12338.67
793.214	12282.18
793.546	12229.07
793.879	12179.58
794.211	12066.59
794.543	12143.65
794.875	12061.39
795.207	12110.43
795.539	12024.56
795.871	11928.51
796.203	11874.96
796.535	11844
796.867	11914.96
797.198	11803.32
797.53	11726.49
797.862	11721.06
798.193	11690.1
798.525	11675.41
798.856	11707.05
799.188	11578.24
799.519	11526.49
799.85	11403.1
800.182	11502.76
800.513	11512.93
800.844	11390
801.175	11429.09
801.506	11344.57
801.837	11291.69
802.168	11291.47
802.499	11209.44
802.83	11222.32
803.161	11120.4
803.491	11155.65
803.822	11119.27
804.153	11075.2
804.483	10938.48
804.814	10980.29
805.145	10953.62
805.475	10961.08
805.805	10965.38
806.136	10890.35
806.466	10835.89
806.796	10854.87
807.126	10794.76
807.457	10751.6
807.787	10732.61
808.117	10713.18
808.447	10639.06
808.777	10609.9
809.107	10651.94
809.436	10644.25
809.766	10596.57
810.096	10486.97
810.426	10516.35
810.755	10521.09
811.085	10505.27
811.414	10428.89
811.744	10345.05
812.073	10364.49
812.403	10338.95
812.732	10255.34
813.061	10319.97
813.39	10256.69
813.719	10254.43
814.049	10280.42
814.378	10253.76
814.707	10162.46
815.036	10136.24
815.365	10174.66
815.693	10010.37
816.022	10065.74
816.351	9954.1
816.68	9930.6
817.008	9934.22
817.337	9880.66
817.665	9877.04
817.994	9832.75
818.322	9878.62
818.651	9806.76
818.979	9776.03
819.307	9840.66
819.636	9780.77
819.964	9748.91
820.292	9755.24
820.62	9719.31
820.948	9673.21
821.276	9758.85
821.604	9699.19
821.932	9771.51
822.259	9786.65
822.587	9732.87
822.915	9603.83
823.243	9749.14
823.57	9670.95
823.898	9684.73
824.225	9658.29
824.553	9631.4
824.88	9614.68
825.207	9712.75
825.535	9666.2
825.862	9701.91
826.189	9658.97
826.516	9679.99
826.843	9709.59
827.17	9730.61
827.497	9750.04
827.824	9652.87
828.151	9729.48
828.478	9714.33
828.805	9765.18
829.131	9666.65
829.458	9677.95
829.785	9606.99
830.111	9667.33
830.438	9726.99
830.764	9624.39
831.09	9652.42
831.417	9593.21
831.743	9706.43
832.069	9626.65
832.395	9641.79
832.722	9714.33
833.048	9635.69
833.374	9653.77
833.7	9593.43
834.026	9619.42
834.351	9566.32
834.677	9614
835.003	9585.3
835.329	9512.08
835.654	9504.62
835.98	9558.18
836.306	9461.23
836.631	9493.55
836.956	9529.48
837.282	9380.11
837.607	9385.98
837.932	9403.61
838.258	9428.69
838.583	9391.63
838.908	9340.79
839.233	9444.06
839.558	9332.65
839.883	9329.03
840.208	9241.58
840.533	9241.81
840.858	9305.98
841.182	9282.71
841.507	9277.06
841.832	9220.11
842.156	9150.96
842.481	9231.64
842.805	9190.05
843.13	9231.18
843.454	9123.39
843.778	9113.45
844.103	9092.66
844.427	9038.42
844.751	9136.72
845.075	9014.47
845.399	9052.88
845.723	9024.86
846.047	9043.62
846.371	8887.24
846.695	8916.84
847.019	8833
847.343	8778.31
847.666	8841.59
847.99	8731.76
848.313	8738.54
848.637	8671.2
848.96	8672.1
849.284	8639.33
849.607	8580.58
849.931	8568.38
850.254	8492.45
850.577	8514.14
850.9	8409.74
851.223	8369.06
851.546	8392.79
851.869	8339.68
852.192	8332.22
852.515	8289.29
852.838	8257.88
853.161	8225.79
853.483	8155.73
853.806	8143.75
854.129	8149.63
854.451	8143.3
854.774	8082.06
855.096	8104.89
855.419	8085.9
855.741	7949.41
856.063	7957.55
856.385	7921.16
856.708	7912.12
857.03	7916.19
857.352	7895.17
857.674	7828.73
857.996	7827.83
858.318	7828.28
858.64	7819.47
858.961	7788.06
859.283	7750.32
859.605	7764.1
859.926	7844.55
860.248	7734.5
860.57	7722.75
860.891	7677.55
861.212	7625.58
861.534	7668.06
861.855	7631
862.176	7610.89
862.498	7636.65
862.819	7536.99
863.14	7588.74
863.461	7573.6
863.782	7512.58
864.103	7553.26
864.424	7507.61
864.745	7503.09
865.065	7518.91
865.386	7477.56
865.707	7437.56
866.027	7475.75
866.348	7436.2
866.668	7388.75
866.989	7393.04
867.309	7351.01
867.63	7350.78
867.95	7341.29
868.27	7325.25
868.59	7283.21
868.91	7275.08
869.23	7265.36
869.55	7296.09
869.87	7278.24
870.19	7257
870.51	7266.26
870.83	7259.26
871.15	7249.54
871.469	7254.29
871.789	7255.64
872.109	7254.29
872.428	7159.6
872.748	7186.94
873.067	7140.62
873.386	7159.15
873.706	7214.06
874.025	7162.09
874.344	7102.65
874.663	7093.39
874.982	7053.39
875.301	7061.3
875.62	7024.01
875.939	7112.6
876.258	7004.58
876.577	7035.31
876.896	7026.5
877.214	7000.06
877.533	7021.07
877.852	7013.84
878.17	7001.41
878.489	7040.28
878.807	6931.58
879.125	7000.06
879.444	6972.03
879.762	6939.27
880.08	6890.68
880.398	6902.21
880.716	6883.67
881.034	6825.6
881.352	6892.26
881.67	6863.79
881.988	6840.51
882.306	6883.45
882.624	6833.28
882.941	6796.9
883.259	6762.77
883.577	6766.62
883.894	6745.6
884.212	6697.92
884.529	6740.63
884.846	6637.81
885.164	6683.45
885.481	6647.07
885.798	6687.07
886.115	6628.77
886.432	6642.78
886.75	6558.26
887.067	6584.47
887.383	6635.32
887.7	6595.77
888.017	6557.36
888.334	6517.13
888.651	6494.53
888.967	6532.05
889.284	6522.33
889.6	6472.16
889.917	6462.22
890.233	6411.82
890.55	6415.66
890.866	6433.74
891.182	6384.93
891.498	6352.84
891.815	6345.61
892.131	6336.34
892.447	6295.22
892.763	6273.97
893.079	6226.52
893.395	6202.79
893.71	6250.92
894.026	6243.24
894.342	6205.5
894.657	6203.01
894.973	6171.83
895.289	6172.96
895.604	6189
895.92	6092.74
896.235	6097.03
896.55	6117.82
896.865	6074.88
897.181	6064.04
897.496	6057.48
897.811	5996.92
898.126	5956.47
898.441	5974.32
898.756	5888.9
899.071	5937.94
899.386	5932.06
899.7	5855.68
900.015	5905.17
900.33	5808.67
900.644	5803.48
900.959	5819.3
901.273	5802.57
901.588	5748.79
901.902	5717.15
902.216	5690.49
902.531	5704.04
902.845	5664.27
903.159	5637.61
903.473	5575.01
903.787	5657.72
904.101	5565.74
904.415	5654.1
904.729	5579.98
905.042	5531.85
905.356	5497.95
905.67	5485.29
905.984	5530.49
906.297	5468.34
906.611	5419.98
906.924	5402.81
907.237	5384.96
907.551	5380.21
907.864	5349.7
908.177	5349.03
908.491	5336.6
908.804	5356.03
909.117	5332.53
909.43	5314
909.743	5271.51
910.056	5224.96
910.368	5200.33
910.681	5174.57
910.994	5176.6
911.307	5154.45
911.619	5141.35
911.932	5155.81
912.244	5102.25
912.557	5086.43
912.869	5055.02
913.181	5031.29
913.494	5049.82
913.806	5031.75
914.118	5015.48
914.43	4953.33
914.742	4980.22
915.054	4923.73
915.366	4930.51
915.678	4914.91
915.99	4880.34
916.302	4820.45
916.613	4817.74
916.925	4747.69
917.236	4800.79
917.548	4764.63
917.859	4765.76
918.171	4756.5
918.482	4738.42
918.794	4711.53
919.105	4659.78
919.416	4644.86
919.727	4636.05
920.038	4637.86
920.349	4584.98
920.66	4575.26
920.971	4570.06
921.282	4550.4
921.593	4522.16
921.903	4451.65
922.214	4508.82
922.525	4461.82
922.835	4483.74
923.146	4420.24
923.456	4389.28
923.767	4400.8
924.077	4368.26
924.387	4347.47
924.697	4335.95
925.008	4349.5
925.318	4315.15
925.628	4302.95
925.938	4302.05
926.248	4245.55
926.558	4255.5
926.867	4239.9
927.177	4195.16
927.487	4240.35
927.796	4147.02
928.106	4156.74
928.416	4135.95
928.725	4146.12
929.034	4138.44
929.344	4091.66
929.653	4095.5
929.962	4087.82
930.271	4074.03
930.581	4045.56
930.89	4041.26
931.199	3995.39
931.508	3929.4
931.817	3966.46
932.125	3999.01
932.434	3961.27
932.743	3921.04
933.051	3927.37
933.36	3853.7
933.669	3862.96
933.977	3878.33
934.286	3867.48
934.594	3848.95
934.902	3838.33
935.21	3804.43
935.519	3765.56
935.827	3768.95
936.135	3747.49
936.443	3717.2
936.751	3716.3
937.059	3715.85
937.367	3684.44
937.674	3658
937.982	3695.96
938.29	3637.21
938.597	3603.54
938.905	3595.63
939.213	3577.77
939.52	3597.21
939.827	3589.98
940.135	3576.64
940.442	3545.68
940.749	3519.02
941.056	3532.58
941.363	3488.96
941.67	3485.57
941.977	3454.39
942.284	3459.36
942.591	3420.49
942.898	3417.1
943.205	3414.84
943.511	3391.56
943.818	3387.27
944.125	3357.67
944.431	3306.37
944.738	3346.14
945.044	3329.64
945.35	3331
945.657	3307.27
945.963	3334.62
946.269	3286.03
946.575	3273.6
946.881	3230.66
947.187	3233.15
947.493	3226.82
947.799	3219.36
948.105	3171.46
948.41	3152.25
948.716	3192.02
949.022	3156.09
949.327	3145.92
949.633	3152.93
949.938	3142.53
950.244	3125.58
950.549	3098.92
950.854	3082.87
951.16	3062.53
951.465	3096.66
951.77	3010.33
952.075	3018.24
952.38	2987.73
952.685	3011.69
952.99	2961.74
953.294	2987.05
953.599	2951.57
953.904	2931.24
954.209	2906.15
954.513	2948.41
954.818	2941.41
955.122	2925.81
955.426	2935.08
955.731	2893.27
956.035	2869.77
956.339	2865.48
956.643	2843.1
956.948	2836.32
957.252	2812.14
957.556	2829.09
957.86	2809.88
958.163	2798.81
958.467	2760.62
958.771	2799.26
959.075	2755.42
959.378	2767.62
959.682	2733.73
959.985	2715.42
960.289	2676.33
960.592	2696.44
960.896	2709.77
961.199	2649.66
961.502	2690.11
961.805	2681.98
962.108	2638.59
962.411	2630.45
962.714	2585.93
963.017	2600.85
963.32	2624.8
963.623	2608.99
963.926	2588.19
964.228	2538.48
964.531	2566.27
964.833	2591.13
965.136	2507.97
965.438	2512.49
965.741	2512.26
966.043	2511.59
966.345	2492.38
966.648	2471.81
966.95	2487.41
967.252	2474.53
967.554	2467.75
967.856	2457.12
968.158	2402.44
968.46	2450.12
968.761	2425.71
969.063	2417.35
969.365	2388.65
969.666	2373.29
969.968	2350.69
970.269	2379.84
970.571	2327.86
970.872	2341.42
971.174	2335.32
971.475	2328.54
971.776	2347.07
972.077	2287.64
972.378	2307.3
972.679	2298.94
972.98	2287.41
973.281	2267.53
973.582	2259.84
973.883	2259.39
974.183	2227.98
974.484	2241.99
974.785	2232.72
975.085	2263.23
975.386	2254.87
975.686	2213.97
975.986	2207.19
976.287	2159.28
976.587	2172.16
976.887	2172.16
977.187	2157.25
977.487	2155.89
977.787	2152.27
978.087	2138.26
978.387	2116.57
978.687	2114.31
978.987	2083.8
979.286	2065.95
979.586	2103.01
979.885	2088.77
980.185	2089
980.484	2079.28
980.784	2052.39
981.083	2043.8
981.382	2032.73
981.682	2009.68
981.981	2040.64
982.28	2013.52
982.579	1992.96
982.878	1993.63
983.177	1968.78
983.475	2003.13
983.774	1973.3
984.073	1982.56
984.372	1950.02
984.67	1939.62
984.969	1997.48
985.267	1977.59
985.566	1920.42
985.864	1925.16
986.162	1902.56
986.461	1902.56
986.759	1888.1
987.057	1881.55
987.355	1873.41
987.653	1870.93
987.951	1861.43
988.249	1875.67
988.547	1852.85
988.844	1866.63
989.142	1823.02
989.44	1809.91
989.737	1817.59
990.035	1811.94
990.332	1792.28
990.63	1759.52
990.927	1773.53
991.224	1783.92
991.521	1772.85
991.819	1766.07
992.116	1773.07
992.413	1703.7
992.71	1740.31
993.006	1731.49
993.303	1751.15
993.6	1734.66
993.897	1744.6
994.193	1705.51
994.49	1698.05
994.787	1682.91
995.083	1639.07
995.379	1671.38
995.676	1644.72
995.972	1686.07
996.268	1659.18
996.565	1627.54
996.861	1629.58
997.157	1639.75
997.453	1608.79
997.749	1629.8
998.044	1581.44
998.34	1614.43
998.636	1590.71
998.932	1567.2
999.227	1596.13
999.523	1573.53
999.818	1554.55
1000.114	1572.85
1000.409	1569.01
1000.704	1524.27
1001	1526.53
1001.295	1501.9
1001.59	1508.45
1001.885	1508.9
1002.18	1501.9
1002.475	1489.47
1002.77	1470.94
1003.065	1486.3
1003.359	1466.87
1003.654	1463.25
1003.949	1429.58
1004.243	1453.54
1004.538	1439.3
1004.832	1463.93
1005.127	1434.1
1005.421	1458.05
1005.715	1410.6
1006.009	1387.77
1006.304	1390.94
1006.598	1383.03
1006.892	1373.31
1007.186	1342.13
1007.48	1362.24
1007.773	1368.11
1008.067	1355.23
1008.361	1351.17
1008.655	1342.13
1008.948	1329.92
1009.242	1324.05
1009.535	1311.17
1009.829	1315.46
1010.122	1299.64
1010.415	1288.57
1010.708	1299.41
1011.001	1297.83
1011.295	1269.81
1011.588	1253.54
1011.881	1265.97
1012.173	1261.68
1012.466	1240.21
1012.759	1242.47
1013.052	1232.3
1013.344	1217.38
1013.637	1205.18
1013.93	1219.19
1014.222	1226.65
1014.514	1207.89
1014.807	1214.45
1015.099	1182.36
1015.391	1187.55
1015.683	1189.36
1015.976	1169.7
1016.268	1146.88
1016.56	1178.06
1016.851	1150.04
1017.143	1146.2
1017.435	1149.14
1017.727	1124.96
1018.018	1143.03
1018.31	1130.38
1018.602	1122.92
1018.893	1111.4
1019.185	1093.54
1019.476	1089.48
1019.767	1077.5
1020.058	1087.44
1020.35	1071.4
1020.641	1098.74
1020.932	1085.41
1021.223	1067.56
1021.514	1068.23
1021.804	1072.75
1022.095	1049.93
1022.386	1014
1022.677	1002.7
1022.967	1044.73
1023.258	1021.46
1023.548	1025.52
1023.839	1021.23
1024.129	1032.76
1024.419	1006.32
1024.709	997.95
1025	990.27
1025.29	996.82
1025.58	976.71
1025.87	967.45
1026.16	965.19
1026.449	949.59
1026.739	953.44
1027.029	960.67
1027.319	939.65
1027.608	920.67
1027.898	938.75
1028.187	921.8
1028.477	944.4
1028.766	924.51
1029.055	905.98
1029.344	908.92
1029.634	864.17
1029.923	881.35
1030.212	885.19
1030.501	892.42
1030.79	864.17
1031.078	896.26
1031.367	897.84
1031.656	859.88
1031.945	830.5
1032.233	869.6
1032.522	843.61
1032.81	835.92
1033.099	840.44
1033.387	850.84
1033.675	837.73
1033.963	826.21
1034.251	845.64
1034.54	817.17
1034.828	814.91
1035.116	831.18
1035.403	799.77
1035.691	794.57
1035.979	784.63
1036.267	807.68
1036.554	814
1036.842	786.43
1037.129	774.91
1037.417	760.67
1037.704	767.23
1037.992	769.26
1038.279	746.66
1038.566	744.4
1038.853	744.4
1039.14	744.4
