Data from breadboard_black_back_FLMS001491_00081.txt Node
Date: Wed Feb 08 10:51:02 GMT 2017
User: dcchb
Spectrometer: FLMS00149
Trigger mode: 0
Integration Time (sec): 2.000000E-2
Scans to average: 10
Electric dark correction enabled: true
Nonlinearity correction enabled: false
Boxcar width: 0
XAxis mode: Wavelengths
Number of Pixels in Spectrum: 2048
>>>>>Begin Spectral Data<<<<<
341.393	-4.89
341.776	-4.89
342.16	-4.89
342.543	-56.41
342.927	-63.42
343.31	-66.58
343.693	-54.38
344.077	-67.71
344.46	-66.58
344.843	-42.4
345.226	-61.38
345.61	-30.87
345.993	-25.23
346.376	-7.15
346.759	2.8
347.142	39.18
347.525	43.93
347.908	63.59
348.291	91.38
348.674	79.63
349.057	101.78
349.44	111.72
349.823	126.64
350.206	174.09
350.588	203.47
350.971	222
351.354	235.78
351.737	239.85
352.119	265.61
352.502	282.34
352.884	286.63
353.267	288.66
353.65	301.55
354.032	317.82
354.414	304.71
354.797	320.08
355.179	322.56
355.562	330.7
355.944	331.83
356.326	348.32
356.709	349.68
357.091	344.03
357.473	355.56
357.855	349
358.238	329.12
358.62	340.41
359.002	361.66
359.384	341.77
359.766	356.91
360.148	334.31
360.53	342.45
360.912	362.56
361.294	352.39
361.676	352.17
362.057	366.85
362.439	357.14
362.821	346.52
363.203	332.73
363.584	334.31
363.966	327.08
364.348	333.18
364.729	341.32
365.111	320.98
365.493	334.54
365.874	320.08
366.256	338.83
366.637	333.18
367.019	318.95
367.4	338.61
367.781	344.48
368.163	337.48
368.544	353.3
368.925	355.56
369.306	333.41
369.688	356.69
370.069	344.26
370.45	350.58
370.831	344.26
371.212	357.82
371.593	337.93
371.974	332.96
372.355	345.84
372.736	330.02
373.117	351.49
373.498	352.39
373.879	345.84
374.26	358.04
374.641	360.08
375.021	334.99
375.402	353.75
375.783	361.43
376.163	377.93
376.544	347.19
376.925	361.43
377.305	374.99
377.686	368.44
378.066	379.06
378.447	389.68
378.827	382.9
379.208	372.28
379.588	377.02
379.968	400.07
380.349	389.23
380.729	378.15
381.109	387.19
381.489	407.76
381.87	397.14
382.25	422.22
382.63	419.73
383.01	416.8
383.39	412.73
383.77	413.41
384.15	404.59
384.53	433.52
384.91	420.19
385.29	410.92
385.67	413.86
386.049	416.8
386.429	437.59
386.809	431.03
387.189	419.96
387.568	444.37
387.948	428.1
388.328	443.01
388.707	445.04
389.087	426.51
389.466	475.78
389.846	475.55
390.225	463.8
390.605	472.16
390.984	471.71
391.363	468.55
391.743	481.43
392.122	488.21
392.501	458.38
392.881	488.21
393.26	498.15
393.639	507.64
394.018	509.22
394.397	529.56
394.776	525.72
395.155	529.34
395.534	510.35
395.913	524.36
396.292	540.86
396.671	551.48
397.05	543.12
397.429	534.53
397.808	555.78
398.186	542.22
398.565	545.83
398.944	544.7
399.323	530.92
399.701	536.79
400.08	549.45
400.458	585.61
400.837	573.85
401.215	572.27
401.594	587.64
401.972	573.63
402.351	581.09
402.729	603.68
403.107	611.59
403.486	624.93
403.864	598.71
404.242	607.98
404.62	637.13
404.999	609.33
405.377	626.28
405.755	650.46
406.133	644.36
406.511	637.36
406.889	666.73
407.267	665.6
407.645	677.13
408.023	671.71
408.401	682.78
408.779	714.19
409.156	716.45
409.534	708.09
409.912	724.36
410.29	750.57
410.667	732.95
411.045	741.99
411.422	764.81
411.8	755.77
412.178	786.5
412.555	783.79
412.933	769.78
413.31	792.61
413.687	807.97
414.065	808.43
414.442	815.2
414.819	833.74
415.197	833.96
415.574	839.84
415.951	847.52
416.328	853.4
416.705	851.14
417.082	877.35
417.46	888.2
417.837	917.57
418.214	899.27
418.591	889.78
418.967	905.37
419.344	947.4
419.721	911.93
420.098	954.86
420.475	956.22
420.852	959.16
421.228	962.32
421.605	963.45
421.982	1005.48
422.358	994.63
422.735	1014.75
423.111	1005.71
423.488	1026.72
423.864	1026.72
424.241	1056.55
424.617	1054.52
424.994	1066.72
425.37	1064.01
425.746	1079.83
426.123	1087.06
426.499	1099.04
426.875	1109.89
427.251	1119.6
427.627	1151.01
428.003	1138.59
428.379	1177.68
428.756	1161.41
429.132	1199.83
429.507	1250.9
429.883	1216.32
430.259	1203.89
430.635	1273.95
431.011	1257.23
431.387	1312.37
431.763	1297.23
432.138	1334.06
432.514	1326.83
432.89	1342.2
433.265	1366.6
433.641	1359.37
434.016	1410.67
434.392	1373.16
434.767	1442.08
435.143	1461.52
435.518	1453.61
435.894	1484.34
436.269	1507.62
436.644	1507.62
437.02	1533.6
437.395	1523.89
437.77	1514.62
438.145	1584.9
438.52	1606.82
438.895	1613.6
439.271	1612.02
439.646	1629.87
440.021	1682.07
440.395	1657.89
440.77	1667.84
441.145	1658.12
441.52	1718.01
441.895	1695.86
442.27	1741.28
442.645	1713.71
443.019	1732.02
443.394	1763.43
443.769	1760.94
444.143	1771.11
444.518	1816.99
444.892	1777.44
445.267	1802.07
445.641	1830.09
446.016	1840.71
446.39	1846.59
446.764	1856.08
447.139	1867.61
447.513	1882.52
447.887	1891.56
448.262	1894.95
448.636	1924.78
449.01	1921.84
449.384	1979.69
449.758	1982.86
450.132	1977.43
450.506	2026.25
450.88	2026.02
451.254	2045.23
451.628	2066.47
452.002	2094.72
452.376	2094.72
452.75	2127.26
453.123	2110.09
453.497	2206.81
453.871	2169.07
454.244	2243.64
454.618	2224.43
454.992	2262.4
455.365	2268.73
455.739	2334.71
456.112	2357.76
456.486	2374.94
456.859	2424.2
457.232	2443.86
457.606	2437.31
457.979	2452.22
458.352	2479.12
458.725	2580.36
459.099	2593.69
459.472	2619.22
459.845	2668.49
460.218	2654.03
460.591	2694.03
460.964	2694.03
461.337	2745.78
461.71	2818.09
462.083	2862.61
462.456	2832.33
462.829	2893.57
463.201	2939.44
463.574	2957.97
463.947	2980.35
464.32	3023.28
464.692	3044.98
465.065	3109.16
465.438	3147.35
465.81	3170.62
466.183	3208.14
466.555	3283.16
466.928	3352.09
467.3	3322.48
467.672	3347.34
468.045	3455.36
468.417	3472.31
468.789	3472.31
469.161	3559.09
469.534	3617.62
469.906	3669.37
470.278	3689.03
470.65	3701.46
471.022	3833.2
471.394	3919.53
471.766	3898.74
472.138	3944.84
472.51	4030.04
472.882	4089.69
473.253	4105.74
473.625	4208.56
473.997	4279.29
474.369	4316.36
474.74	4382.57
475.112	4479.74
475.484	4514.77
475.855	4587.08
476.227	4651.04
476.598	4773.07
476.97	4773.07
477.341	4900.07
477.713	4947.98
478.084	4992.5
478.455	5131.93
478.827	5190.68
479.198	5319.49
479.569	5340.51
479.94	5495.76
480.311	5540.73
480.682	5672.93
481.053	5764.23
481.424	5850.33
481.795	5900.04
482.166	6013.26
482.537	6131.9
482.908	6162.63
483.279	6312.01
483.65	6329.41
484.021	6513.13
484.391	6611.89
484.762	6628.84
485.133	6708.83
485.503	6813.01
485.874	6942.28
486.244	7087.13
486.615	7177.75
486.985	7283.96
487.356	7351.98
487.726	7469.04
488.097	7566.44
488.467	7633.56
488.837	7802.14
489.207	7843.49
489.578	8017.05
489.948	8063.83
490.318	8119.65
490.688	8204.61
491.058	8316.7
491.428	8396.25
491.798	8579.29
492.168	8683.02
492.538	8690.7
492.908	8796.92
493.278	8943.58
493.648	8991.94
494.017	9125.04
494.387	9174.08
494.757	9250.01
495.126	9359.39
495.496	9438.93
495.866	9477.58
496.235	9588.53
496.605	9678.47
496.974	9734.52
497.344	9838.92
497.713	9837.79
498.082	9951.01
498.452	10111.91
498.821	10144
499.19	10180.83
499.559	10295.41
499.928	10398.46
500.298	10420.83
500.667	10509.41
501.036	10546.93
501.405	10622.86
501.774	10706.92
502.143	10846.81
502.512	10810.65
502.88	10930.87
503.249	10986.69
503.618	11105.33
503.987	11099.23
504.356	11199.79
504.724	11275.72
505.093	11349.62
505.462	11458.31
505.83	11514.58
506.199	11570.4
506.567	11669.83
506.936	11671.87
507.304	11885.65
507.672	11982.59
508.041	11959.09
508.409	12063.5
508.777	12162.25
509.145	12287.9
509.514	12269.14
509.882	12472.98
510.25	12472.3
510.618	12515.69
510.986	12546.42
511.354	12778.28
511.722	12886.07
512.09	13016.47
512.458	12970.82
512.826	13108.89
513.193	13187.08
513.561	13248.1
513.929	13435.44
514.297	13468.43
514.664	13512.05
515.032	13659.39
515.4	13829.1
515.767	13874.97
516.135	13990.9
516.502	13882.88
516.869	14097.12
517.237	14192.03
517.604	14198.58
517.972	14379.59
518.339	14444.45
518.706	14543.21
519.073	14641.73
519.44	14743.2
519.808	14831.11
520.175	14807.83
520.542	15101.16
520.909	15221.38
521.276	15295.73
521.643	15390.19
522.009	15593.12
522.376	15622.05
522.743	15835.15
523.11	16065.88
523.477	16076.95
523.843	16208.47
524.21	16355.13
524.577	16489.14
524.943	16543.15
525.31	16616.6
525.676	16743.83
526.043	16882.8
526.409	16988.34
526.776	17213.87
527.142	17202.34
527.508	17348.33
527.874	17417.03
528.241	17736.79
528.607	17778.15
528.973	17852.04
529.339	17871.03
529.705	18078.03
530.071	18273.28
530.437	18296.55
530.803	18346.95
531.169	18475.98
531.535	18520.95
531.901	18658.58
532.267	18715.07
532.632	18942.41
532.998	18942.19
533.364	19022.18
533.73	19101.28
534.095	19209.3
534.461	19294.72
534.826	19386.24
535.192	19469.4
535.557	19635.5
535.923	19652.22
536.288	19819
536.653	19794.37
537.019	19840.69
537.384	19985.1
537.749	20040.46
538.114	20175.37
538.479	20201.36
538.845	20299.21
539.21	20277.74
539.575	20331.98
539.94	20500.11
540.305	20630.5
540.67	20652.88
541.034	20648.36
541.399	20869.37
541.764	20819.65
542.129	20918.4
542.494	20975.8
542.858	21155.46
543.223	21046.09
543.587	21296.7
543.952	21204.72
544.316	21243.59
544.681	21348.45
545.045	21454.89
545.41	21519.74
545.774	21535.11
546.138	21579.4
546.503	21825.73
546.867	21802.68
547.231	22063.91
547.595	21935.78
547.959	22083.8
548.324	22188.65
548.688	22098.94
549.052	22328.09
549.416	22369.44
549.779	22392.26
550.143	22490.57
550.507	22542.54
550.871	22788.19
551.235	22631.13
551.599	22921.06
551.962	22869.54
552.326	23026.82
552.689	23020.72
553.053	23024.79
553.417	23165.13
553.78	23501.84
554.143	23266.59
554.507	23553.36
554.87	23505.91
555.234	23784.32
555.597	23648.5
555.96	23823.64
556.323	23947.48
556.686	24057.76
557.05	24179.11
557.413	24208.71
557.776	24273.8
558.139	24512.66
558.502	24496.16
558.865	24519.67
559.228	24822.93
559.59	24799.21
559.953	24886.21
560.316	25168.46
560.679	25117.84
561.041	25348.34
561.404	25503.59
561.767	25574.33
562.129	25487.32
562.492	25793.76
562.854	25916.69
563.217	25930.48
563.579	26012.73
563.941	26117.82
564.304	26219.06
564.666	26425.83
565.028	26367.53
565.39	26587.86
565.753	26784.01
566.115	26790.79
566.477	26942.65
566.839	26894.29
567.201	27162.99
567.563	27167.05
567.925	27450.66
568.287	27416.99
568.648	27598.91
569.01	27658.79
569.372	27812.01
569.734	27771.56
570.095	27962.06
570.457	28016.98
570.819	28018.56
571.18	28149.18
571.542	28292.9
571.903	28249.74
572.265	28490.86
572.626	28539
572.987	28599.33
573.349	28616.28
573.71	28866.44
574.071	28889.95
574.432	28922.26
574.794	29055.14
575.155	28988.02
575.516	29029.6
575.877	29273.89
576.238	29210.16
576.599	29314.34
576.96	29338.75
577.32	29413.1
577.681	29511.17
578.042	29657.61
578.403	29641.11
578.763	29631.62
579.124	29740.77
579.485	29853.54
579.845	29887.89
580.206	29814.89
580.566	29900.54
580.927	29832.75
581.287	30108.9
581.648	29862.58
582.008	30141.67
582.368	30043.59
582.728	30182.12
583.089	30074.77
583.449	30004.49
583.809	30032.74
584.169	30093.98
584.529	29985.74
584.889	30201.55
585.249	30102.8
585.609	30057.37
585.969	30235.9
586.329	30185.28
586.688	30216.47
587.048	30229.8
587.408	30109.58
587.768	30317.48
588.127	30221.66
588.487	30204.94
588.846	30370.36
589.206	30084.94
589.565	30181.89
589.925	30339.85
590.284	30242.68
590.643	30190.48
591.003	30413.75
591.362	30407.19
591.721	30382.34
592.08	30381.88
592.44	30473.63
592.799	30490.36
593.158	30399.51
593.517	30442
593.876	30425.95
594.235	30400.87
594.593	30393.41
594.952	30527.42
595.311	30406.29
595.67	30491.26
596.029	30620.3
596.387	30619.84
596.746	30659.62
597.104	30490.36
597.463	30599.96
597.822	30700.52
598.18	30562.44
598.538	30618.49
598.897	30691.03
599.255	30533.52
599.613	31016.44
599.972	30759.28
600.33	30702.55
600.688	30698.94
601.046	30821.87
601.404	30963.79
601.762	30880.85
602.12	31037.46
602.478	30997.91
602.836	31158.36
603.194	30873.4
603.552	30920.63
603.91	31008.76
604.268	31033.17
604.625	30882.21
604.983	31152.03
605.341	30986.84
605.698	31190.9
606.056	31281.75
606.413	31211.02
606.771	31377.34
607.128	31262.99
607.485	31198.59
607.843	31330.79
608.2	31499.82
608.557	31504.12
608.914	31444
609.272	31733.04
609.629	31631.12
609.986	31764.67
610.343	31637.44
610.7	31841.06
611.057	31768.74
611.414	31703.21
611.771	31728.97
612.127	31904.1
612.484	31796.31
612.841	32027.27
613.198	31890.55
613.554	31963.99
613.911	32031.78
614.267	32097.77
614.624	31993.59
614.98	32135.51
615.337	32135.51
615.693	32191.78
616.05	32060.26
616.406	32332.34
616.762	32178.45
617.118	32229.75
617.475	32207.6
617.831	32283.3
618.187	32216.86
618.543	32385.9
618.899	32482.85
619.255	32531.88
619.611	32436.29
619.967	32592.45
620.323	32622.5
620.678	32467.48
621.034	32418.67
621.39	32445.79
621.746	32420.93
622.101	32835.15
622.457	32472.68
622.812	32589.74
623.168	32528.72
623.523	32580.25
623.879	32649.85
624.234	32568.95
624.589	32607.36
624.945	32617.98
625.3	32615.72
625.655	32675.84
626.01	32652.56
626.365	32544.09
626.72	32565.78
627.075	32480.13
627.43	32585.67
627.785	32573.47
628.14	32609.62
628.495	32562.39
628.85	32504.77
629.205	32371.66
629.559	32603.52
629.914	32310.42
630.269	32513.81
630.623	32373.24
630.978	32420.48
631.332	32391.1
631.687	32514.48
632.041	32185.91
632.396	32297.99
632.75	32284.21
633.104	32280.59
633.459	32212.8
633.813	32125.12
634.167	32077.21
634.521	32170.76
634.875	32142.74
635.229	32184.1
635.583	31903.88
635.937	31902.3
636.291	31908.62
636.645	31896.2
636.999	31707.5
637.352	31826.59
637.706	31698.23
638.06	31866.14
638.413	31766.26
638.767	31720.61
639.121	31711.12
639.474	31584.57
639.828	31552.7
640.181	31582.98
640.534	31458.47
640.888	31299.37
641.241	31319.26
641.594	31349.77
641.947	31388.64
642.301	31339.83
642.654	31352.48
643.007	31342.31
643.36	31269.55
643.713	31186.61
644.066	31213.5
644.419	31051.47
644.771	30825.94
645.124	30737.58
645.477	30651.48
645.83	30443.13
646.182	30338.04
646.535	30217.82
646.888	30240.19
647.24	29852.41
647.593	30134.21
647.945	29952.97
648.298	29844.27
648.65	29887.43
649.002	29778.06
649.355	29871.62
649.707	30003.14
650.059	30043.36
650.411	30330.13
650.763	30424.37
651.115	30795.43
651.467	30456.69
651.819	30513.18
652.171	30295.56
652.523	30364.03
652.875	30444.48
653.227	30219.86
653.578	30480.19
653.93	30366.74
654.282	30271.61
654.633	30096.92
654.985	30207.43
655.337	30269.57
655.688	30187.99
656.039	30328.78
656.391	29950.94
656.742	30202.68
657.094	30173.53
657.445	30106.86
657.796	30036.36
658.147	29925.4
658.498	29934.21
658.849	30088.33
659.2	29929.24
659.551	29952.97
659.902	30051.72
660.253	29994.32
660.604	29908.45
660.955	29799.75
661.306	29964.95
661.656	29888.56
662.007	29997.71
662.358	29815.35
662.708	29745.07
663.059	29834.55
663.409	29594.11
663.76	29912.74
664.11	29774.22
664.461	29832.29
664.811	29628.46
665.161	29723.15
665.511	29664.39
665.862	29733.99
666.212	29779.64
666.562	29800.43
666.912	29717.95
667.262	29570.15
667.612	29670.27
667.962	29714.56
668.312	29669.14
668.662	29664.16
669.011	29671.62
669.361	29673.88
669.711	29508.91
670.06	29551.85
670.41	29536.71
670.76	29573.09
671.109	29572.87
671.459	29466.43
671.808	29250.62
672.157	29486.77
672.507	29272.54
672.856	29313.66
673.205	29279.09
673.554	29407.9
673.904	29371.52
674.253	29461.46
674.602	29402.48
674.951	28960.91
675.3	28936.27
675.649	29198.64
675.998	29138.3
676.346	29175.14
676.695	29212.88
677.044	28949.61
677.393	29023.28
677.741	29155.93
678.09	29073.9
678.438	29019.89
678.787	29148.02
679.135	29067.57
679.484	28833
679.832	28935.6
680.181	28825.54
680.529	28919.32
680.877	28837.97
681.225	28817.18
681.573	28768.59
681.922	28585.77
682.27	28564.31
682.618	28528.37
682.966	28522.27
683.314	28611.76
683.661	28574.47
684.009	28385.55
684.357	28313.69
684.705	28256.74
685.053	28272.79
685.4	28298.1
685.748	28142.62
686.095	28057.88
686.443	27957.99
686.79	27800.94
687.138	27867.6
687.485	27929.75
687.832	27820.6
688.18	27782.41
688.527	27723.2
688.874	27809.75
689.221	27655.63
689.568	27500.83
689.915	27523.65
690.262	27552.58
690.609	27357.78
690.956	27389.65
691.303	27265.81
691.65	27173.83
691.997	27178.35
692.344	26965.25
692.69	26914.41
693.037	26927.51
693.383	26796.89
693.73	26938.36
694.077	26728.65
694.423	26567.07
694.769	26471.71
695.116	26541.53
695.462	26413.63
695.808	26409.56
696.155	26407.07
696.501	26184.71
696.847	26230.13
697.193	25978.61
697.539	26078.04
697.885	25910.36
698.231	25862.68
698.577	25828.33
698.923	25837.37
699.269	25676.25
699.614	25588.34
699.96	25628.79
700.306	25548.34
700.651	25578.17
700.997	25409.36
701.342	25386.99
701.688	25222.92
702.033	25143.6
702.379	25203.26
702.724	25131.63
703.069	25189.25
703.415	24812.31
703.76	24932.08
704.105	24897.28
704.45	24785.87
704.795	24636.27
705.14	24521.93
705.485	24618.42
705.83	24473.34
706.175	24440.35
706.52	24394.25
706.865	24351.31
707.209	24302.72
707.554	24137.53
707.899	24290.07
708.243	24090.52
708.588	24126.23
708.932	23928.04
709.277	23953.35
709.621	24027.02
709.966	23797.65
710.31	23916.74
710.654	23661.38
710.998	23708.84
711.342	23740.25
711.687	23553.36
712.031	23538.22
712.375	23491.22
712.719	23493.03
713.063	23326.25
713.407	23463.2
713.75	23263.88
714.094	23211.23
714.438	23058.01
714.782	23279.7
715.125	23044
715.469	23137.78
715.812	22840.84
716.156	22891.23
716.499	22927.84
716.843	22869.77
717.186	22759.49
717.53	22907.73
717.873	22844.23
718.216	22743.44
718.559	22721.52
718.902	22542.99
719.246	22599.72
719.589	22599.49
719.932	22385.03
720.275	22399.72
720.617	22389.1
720.96	22364.69
721.303	22360.63
721.646	22358.14
721.989	22213.06
722.331	22312.72
722.674	22234.08
723.016	22171.93
723.359	22046.96
723.701	22119.73
724.044	21959.96
724.386	21916.8
724.729	21975.33
725.071	21879.51
725.413	21940.98
725.755	21857.36
726.097	21781.66
726.439	21679.29
726.782	21654.2
727.124	21789.79
727.465	21661.66
727.807	21651.72
728.149	21514.32
728.491	21497.37
728.833	21582.57
729.175	21338.96
729.516	21422.12
729.858	21530.37
730.199	21380.99
730.541	21298.06
730.882	21315.68
731.224	21364.95
731.565	21100.55
731.906	21213.54
732.248	21205.18
732.589	21138.96
732.93	21107.55
733.271	21129.47
733.612	21063.26
733.953	21108.23
734.294	20930.83
734.635	20838.41
734.976	21007.44
735.317	20769.48
735.658	20846.77
735.999	20815.58
736.339	20735.36
736.68	20847.45
737.021	20614.91
737.361	20576.94
737.702	20694.68
738.042	20710.73
738.383	20592.54
738.723	20555.25
739.063	20436.61
739.404	20532.43
739.744	20404.29
740.084	20380.11
740.424	20495.59
740.764	20417.85
741.104	20400.23
741.444	20233.9
741.784	20268.7
742.124	20258.76
742.464	20257.63
742.804	20230.97
743.143	20238.87
743.483	20082.95
743.823	20072.1
744.162	20058.54
744.502	20065.55
744.841	19995.72
745.181	20011.31
745.52	19954.36
745.86	19922.05
746.199	19917.98
746.538	19941.03
746.877	19854.48
747.216	19935.83
747.556	19741.94
747.895	19761.6
748.234	19693.58
748.573	19645.9
748.911	19591.43
749.25	19631.21
749.589	19461.27
749.928	19445.22
750.267	19493.58
750.605	19457.2
750.944	19438.9
751.283	19296.07
751.621	19384.89
751.96	19209.3
752.298	19182.41
752.636	19122.97
752.975	19133.14
753.313	18935.63
753.651	19094.05
753.989	18953.94
754.327	19001.39
754.666	18855.86
755.004	18894.28
755.342	18862.64
755.679	18912.13
756.017	18799.82
756.355	18755.07
756.693	18710.1
757.031	18676.88
757.368	18622.65
757.706	18577.45
758.044	18551.46
758.381	18526.15
758.719	18437.11
759.056	18501.29
759.394	18503.55
759.731	18259.72
760.068	18196.44
760.405	18214.97
760.743	18061.53
761.08	18178.59
761.417	17935.21
761.754	18034.64
762.091	18005.94
762.428	17835.1
762.765	17739.28
763.102	17829.45
763.438	17718.04
763.775	17620.41
764.112	17610.02
764.449	17687.76
764.785	17511.49
765.122	17430.81
765.458	17384.26
765.795	17368.89
766.131	17240.08
766.467	17218.16
766.804	17120.09
767.14	17078.28
767.476	17142.46
767.812	16978.4
768.148	17086.87
768.485	16865.86
768.821	16757.16
769.157	16808.91
769.492	16823.6
769.828	16743.83
770.164	16590.61
770.5	16623.6
770.836	16607.56
771.171	16383.83
771.507	16407.11
771.842	16264.97
772.178	16293.44
772.513	16279.66
772.849	16168.93
773.184	16109.72
773.519	16145.65
773.855	16078.98
774.19	15966.9
774.525	15945.43
774.86	15861.14
775.195	15831.76
775.53	15836.5
775.865	15613.69
776.2	15600.8
776.535	15529.17
776.87	15479.23
777.205	15368.04
777.539	15350.19
777.874	15403.3
778.209	15241.49
778.543	15208.05
778.878	15133.25
779.212	15149.06
779.547	15057.32
779.881	15106.13
780.215	14910.2
780.55	14980.26
780.884	14935.06
781.218	14898.22
781.552	14812.35
781.886	14830.88
782.22	14625.69
782.554	14607.16
782.888	14493.71
783.222	14451.91
783.556	14425.47
783.889	14342.31
784.223	14215.53
784.557	14213.04
784.89	14215.76
785.224	14121.3
785.557	14042.65
785.891	13995.42
786.224	14090.34
786.558	13953.84
786.891	13842.21
787.224	13914.75
787.557	13828.65
787.891	13812.83
788.224	13730.57
788.557	13753.17
788.89	13632.95
789.223	13618.03
789.556	13567.19
789.888	13546.4
790.221	13422.1
790.554	13342.33
790.887	13360.19
791.219	13276.12
791.552	13332.62
791.884	13252.62
792.217	13212.39
792.549	13100.98
792.882	12997.71
793.214	12983.92
793.546	13052.17
793.879	13011.49
794.211	12889.69
794.543	12910.71
794.875	12787.09
795.207	12841.78
795.539	12711.39
795.871	12758.62
796.203	12635.68
796.535	12475.24
796.867	12552.75
797.198	12618.74
797.53	12519.76
797.862	12460.55
798.193	12452.19
798.525	12282.7
798.856	12421.23
799.188	12245.19
799.519	12220.33
799.85	12129.26
800.182	12135.81
800.513	12143.27
800.844	12051.29
801.175	12080.9
801.506	12096.26
801.837	12009.71
802.168	12009.94
802.499	11986.21
802.83	11931.52
803.161	11799.55
803.491	11863.73
803.822	11838.19
804.153	11735.6
804.483	11680.46
804.814	11599.1
805.145	11641.81
805.475	11680.91
805.805	11566.11
806.136	11519.78
806.466	11556.39
806.796	11513.45
807.126	11420.35
807.457	11455.15
807.787	11424.64
808.117	11383.97
808.447	11370.41
808.777	11366.57
809.107	11251.31
809.436	11296.06
809.766	11283.18
810.096	11174.03
810.426	11151.2
810.755	11123.86
811.085	11068.04
811.414	11077.53
811.744	11037.31
812.073	11032.56
812.403	10947.82
812.732	10899.23
813.061	10947.59
813.39	10851.32
813.719	10902.17
814.049	10889.52
814.378	10854.04
814.707	10734.72
815.036	10787.82
815.365	10695.17
815.693	10684.78
816.022	10625.57
816.351	10584.44
816.68	10562.29
817.008	10570.88
817.337	10481.17
817.665	10485.01
817.994	10493.59
818.322	10479.13
818.651	10429.19
818.979	10380.6
819.307	10447.49
819.636	10402.52
819.964	10391.45
820.292	10346.03
820.62	10315.07
820.948	10300.6
821.276	10330.89
821.604	10341.51
821.932	10382.41
822.259	10340.15
822.587	10341.28
822.915	10303.77
823.243	10349.19
823.57	10309.42
823.898	10290.44
824.225	10225.35
824.553	10299.7
824.88	10326.14
825.207	10369.08
825.535	10260.38
825.862	10301.96
826.189	10233.04
826.516	10315.29
826.843	10343.77
827.17	10327.04
827.497	10273.03
827.824	10344.45
828.151	10267.39
828.478	10301.96
828.805	10267.61
829.131	10252.47
829.458	10338.12
829.785	10199.36
830.111	10209.53
830.438	10312.13
830.764	10278.46
831.09	10226.48
831.417	10205.01
831.743	10269.42
832.069	10219.48
832.395	10246.14
832.722	10175.18
833.048	10153.26
833.374	10205.01
833.7	10131.12
834.026	10180.83
834.351	10242.98
834.677	10122.98
835.003	10209.31
835.329	10121.4
835.654	10145.35
835.98	10121.85
836.306	10158.46
836.631	10082.08
836.956	10062.65
837.282	10087.05
837.607	10034.85
837.932	9949.2
838.258	9991.46
838.583	10019.71
838.908	9972.7
839.233	9951.24
839.558	9890.45
839.883	9885.25
840.208	9810.22
840.533	9840.28
840.858	9842.76
841.182	9804.12
841.507	9815.87
841.832	9749.88
842.156	9789.66
842.481	9782.43
842.805	9761.41
843.13	9730.22
843.454	9643.67
843.778	9642.77
844.103	9671.24
844.427	9547.4
844.751	9539.04
845.075	9590.34
845.399	9542.21
845.723	9505.15
846.047	9588.08
846.371	9464.69
846.695	9421.76
847.019	9378.14
847.343	9317.35
847.666	9306.96
847.99	9229.67
848.313	9270.58
848.637	9154.19
848.96	9214.98
849.284	9200.29
849.607	9120.3
849.931	9097.92
850.254	9002.56
850.577	9014.99
850.9	8941.54
851.223	8847.08
851.546	8872.62
851.869	8799.63
852.192	8914.65
852.515	8805.5
852.838	8719.4
853.161	8737.03
853.483	8668.11
853.806	8575
854.129	8636.92
854.451	8614.1
854.774	8517.83
855.096	8555.57
855.419	8450.26
855.741	8547.2
856.063	8440.31
856.385	8386.53
856.708	8445.96
857.03	8421.11
857.352	8339.98
857.674	8344.27
857.996	8312.63
858.318	8257.95
858.64	8319.87
858.961	8214.56
859.283	8236.48
859.605	8198.06
859.926	8203.48
860.248	8190.6
860.57	8144.96
860.891	8179.08
861.212	8088.23
861.534	8067.9
861.855	8041.23
862.176	8122.36
862.498	8091.85
862.819	8103.83
863.14	8065.86
863.461	8028.8
863.782	8018.4
864.103	7993.32
864.424	7966.43
864.745	7990.38
865.065	7874.68
865.386	7926.88
865.707	7876.49
866.027	7952.42
866.348	7911.52
866.668	7873.1
866.989	7834.23
867.309	7755.14
867.63	7830.16
867.95	7764.4
868.27	7725.31
868.59	7749.71
868.91	7726.89
869.23	7742.48
869.55	7704.74
869.87	7747.9
870.19	7678.98
870.51	7675.59
870.83	7702.03
871.15	7669.71
871.469	7669.04
871.789	7716.94
872.109	7652.99
872.428	7621.81
872.748	7591.75
873.067	7602.6
873.386	7640.11
873.706	7595.59
874.025	7514.69
874.344	7467.01
874.663	7497.29
874.982	7529.15
875.301	7503.62
875.62	7507.68
875.939	7440.34
876.258	7417.29
876.577	7419.78
876.896	7428.82
877.214	7453.67
877.533	7417.97
877.852	7459.1
878.17	7384.07
878.489	7419.32
878.807	7395.14
879.125	7319.21
879.444	7394.47
879.762	7349.5
880.08	7336.62
880.398	7311.76
880.716	7295.94
881.034	7328.48
881.352	7255.49
881.67	7202.38
881.988	7251.87
882.306	7227.92
882.624	7200.8
882.941	7150.41
883.259	7185.43
883.577	7140.46
883.894	7122.84
884.212	7184.3
884.529	7127.58
884.846	7146.56
885.164	7123.97
885.481	7128.03
885.798	7058.2
886.115	7074.93
886.432	7028.15
886.75	7018.66
887.067	6991.77
887.383	6984.31
887.7	7025.66
888.017	6943.63
888.334	6929.39
888.651	6928.72
888.967	6840.81
889.284	6901.15
889.6	6851.2
889.917	6829.51
890.233	6798.1
890.55	6770.75
890.866	6764.65
891.182	6789.74
891.498	6739.57
891.815	6745.9
892.131	6747.25
892.447	6692.34
892.763	6646.01
893.079	6599.46
893.395	6651.66
893.71	6593.58
894.026	6572.12
894.342	6627.71
894.657	6518.56
894.973	6539.8
895.289	6552
895.604	6534.38
895.92	6482.85
896.235	6453.47
896.55	6473.36
896.865	6422.97
897.181	6379.13
897.496	6412.12
897.811	6385.23
898.126	6335.51
898.441	6324.44
898.756	6290.77
899.071	6287.38
899.386	6287.15
899.7	6253.48
900.015	6210.99
900.33	6172.13
900.644	6173.48
900.959	6162.41
901.273	6112.01
901.588	6091.68
901.902	6041.28
902.216	6020.94
902.531	6060.04
902.845	6082.18
903.159	6038.34
903.473	5928.06
903.787	5879.03
904.101	5911.57
904.415	5933.71
904.729	5920.16
905.042	5839.71
905.356	5841.74
905.67	5812.81
905.984	5839.25
906.297	5816.2
906.611	5730.33
906.924	5761.29
907.237	5726.26
907.551	5749.99
907.864	5686.94
908.177	5643.78
908.491	5639.26
908.804	5694.85
909.117	5594.74
909.43	5597.23
909.743	5554.06
910.056	5618.69
910.368	5548.87
910.681	5477.23
910.994	5491.24
911.307	5457.79
911.619	5413.28
911.932	5437.68
912.244	5409.43
912.557	5392.71
912.869	5294.86
913.181	5371.47
913.494	5320.4
913.806	5256.22
914.118	5276.33
914.43	5283.34
914.742	5234.52
915.054	5178.03
915.366	5201.76
915.678	5180.29
915.99	5131.02
916.302	5136.67
916.613	5098.03
916.925	5103.23
917.236	5045.38
917.548	5051.7
917.859	5045.83
918.171	4956.11
918.482	4985.49
918.794	4937.58
919.105	4964.47
919.416	4903.23
919.727	4898.94
920.038	4875.44
920.349	4860.07
920.66	4870.24
920.971	4865.27
921.282	4819.85
921.593	4776.46
921.903	4771.71
922.214	4758.15
922.525	4779.17
922.835	4763.35
923.146	4703.24
923.456	4671.15
923.767	4632.51
924.077	4677.02
924.387	4630.25
924.697	4592.51
925.008	4575.11
925.318	4542.11
925.628	4574.65
925.938	4547.54
926.248	4550.93
926.558	4542.11
926.867	4501.21
927.177	4472.96
927.487	4439.52
927.796	4364.04
928.106	4387.77
928.416	4404.26
928.725	4381.44
929.034	4318.39
929.344	4354.77
929.653	4330.14
929.962	4280.88
930.271	4243.59
930.581	4256.92
930.89	4228.22
931.199	4195.45
931.508	4202.23
931.817	4185.51
932.125	4149.58
932.434	4166.98
932.743	4130.6
933.051	4088.79
933.36	4093.99
933.669	4049.92
933.977	4095.57
934.286	4036.59
934.594	4051.73
934.902	4014.22
935.21	3976.93
935.519	3982.13
935.827	3946.87
936.135	3966.76
936.443	3909.36
936.751	3898.29
937.059	3884.28
937.367	3889.7
937.674	3866.42
937.982	3845.18
938.29	3860.77
938.597	3852.86
938.905	3803.6
939.213	3754.56
939.52	3764.28
939.827	3781.91
940.135	3751.62
940.442	3749.82
940.749	3690.38
941.056	3738.74
941.363	3698.07
941.67	3688.12
941.977	3631.18
942.284	3655.58
942.591	3652.42
942.898	3585.75
943.205	3597.73
943.511	3550.05
943.818	3561.35
944.125	3547.34
944.431	3569.03
944.738	3541.01
945.044	3544.85
945.35	3499.2
945.657	3494.68
945.963	3506.89
946.269	3458.07
946.575	3399.32
946.881	3406.32
947.187	3396.61
947.493	3414.91
947.799	3380.56
948.105	3341.24
948.41	3346.89
948.716	3319.32
949.022	3327
949.327	3323.84
949.633	3271.64
949.938	3286.33
950.244	3306.89
950.549	3270.51
950.854	3256.27
951.16	3224.41
951.465	3247.46
951.77	3195.25
952.075	3190.74
952.38	3181.7
952.685	3173.33
952.99	3155.26
953.294	3104.18
953.599	3153.22
953.904	3127.69
954.209	3113.9
954.513	3101.02
954.818	3108.93
955.122	3082.26
955.426	3070.51
955.731	3044.75
956.035	3038.65
956.339	3020.34
956.643	2977.63
956.948	2963.4
957.252	2957.52
957.556	2986.45
957.86	2938.99
958.163	2919.33
958.467	2919.78
958.771	2906
959.075	2905.09
959.378	2903.29
959.682	2883.85
959.985	2862.61
960.289	2845.43
960.592	2831.2
960.896	2830.97
961.199	2818.77
961.502	2807.47
961.805	2784.19
962.108	2783.06
962.411	2776.51
962.714	2783.97
963.017	2709.62
963.32	2770.86
963.623	2712.1
963.926	2710.07
964.228	2709.84
964.531	2705.55
964.833	2689.05
965.136	2661.94
965.438	2651.31
965.741	2615.38
966.043	2652.9
966.345	2614.71
966.648	2627.36
966.95	2624.2
967.252	2598.21
967.554	2570.86
967.856	2562.28
968.158	2581.49
968.46	2535.84
968.761	2556.4
969.063	2500.13
969.365	2527.7
969.666	2477.99
969.968	2491.54
970.269	2526.57
970.571	2484.09
970.872	2488.15
971.174	2440.47
971.475	2481.6
971.776	2438.89
972.077	2452.9
972.378	2449.29
972.679	2424.88
972.98	2390.53
973.281	2379.46
973.582	2397.54
973.883	2373.13
974.183	2365.22
974.484	2361.15
974.785	2343.07
975.085	2339.68
975.386	2355.73
975.686	2329.97
975.986	2319.12
976.287	2308.5
976.587	2280.7
976.887	2266.01
977.187	2277.31
977.487	2257.43
977.787	2241.61
978.087	2229.4
978.387	2248.61
978.687	2221.27
978.987	2207.26
979.286	2216.98
979.586	2185.34
979.885	2174.72
980.185	2150.31
980.484	2159.35
980.784	2174.72
981.083	2188.73
981.382	2141.72
981.682	2151.67
981.981	2161.38
982.28	2114.83
982.579	2071.67
982.878	2079.8
983.177	2086.36
983.475	2078
983.774	2074.15
984.073	2058.56
984.372	2039.81
984.67	2019.92
984.969	2065.34
985.267	2033.48
985.566	1998.22
985.864	2039.35
986.162	1999.35
986.461	2004.1
986.759	2001.16
987.057	2005.23
987.355	1942.18
987.653	1958
987.951	1954.84
988.249	1946.25
988.547	1929.3
988.844	1916.64
989.142	1918.23
989.44	1924.78
989.737	1890.2
990.035	1914.61
990.332	1903.54
990.63	1887.72
990.927	1871
991.224	1859.47
991.521	1841.84
991.819	1828.74
992.116	1821.05
992.413	1838.91
992.71	1835.29
993.006	1820.6
993.303	1818.57
993.6	1821.51
993.897	1779.92
994.193	1795.07
994.49	1754.39
994.787	1759.13
995.083	1755.74
995.379	1740.83
995.676	1776.76
995.972	1755.97
996.268	1714.62
996.565	1726.14
996.861	1720.72
997.157	1691.11
997.453	1706.93
997.749	1685.24
998.044	1652.24
998.34	1656.76
998.636	1672.81
998.932	1664.45
999.227	1646.37
999.523	1672.81
999.818	1634.84
1000.114	1652.24
1000.409	1626.26
1000.704	1636.65
1001	1585.81
1001.295	1596.88
1001.59	1546.26
1001.885	1561.63
1002.18	1576.99
1002.475	1534.73
1002.77	1543.55
1003.065	1564.34
1003.359	1522.3
1003.654	1546.71
1003.949	1528.86
1004.243	1491.8
1004.538	1510.1
1004.832	1508.29
1005.127	1502.64
1005.421	1476.66
1005.715	1459.03
1006.009	1503.77
1006.304	1466.94
1006.598	1449.54
1006.892	1449.99
1007.186	1453.15
1007.48	1431.01
1007.773	1425.13
1008.067	1414.74
1008.361	1397.79
1008.655	1412.03
1008.948	1385.59
1009.242	1371.8
1009.535	1355.53
1009.829	1366.6
1010.122	1381.29
1010.415	1328.19
1010.708	1348.98
1011.001	1348.75
1011.295	1353.95
1011.588	1330.22
1011.881	1322.99
1012.173	1318.47
1012.466	1295.19
1012.759	1313.72
1013.052	1312.59
1013.344	1311.24
1013.637	1254.52
1013.93	1267.85
1014.222	1275.98
1014.514	1261.52
1014.807	1250
1015.099	1224.91
1015.391	1240.05
1015.683	1233.72
1015.976	1250.22
1016.268	1230.33
1016.56	1219.94
1016.851	1182.65
1017.143	1205.02
1017.435	1199.6
1017.727	1177.45
1018.018	1187.62
1018.31	1169.32
1018.602	1174.52
1018.893	1174.07
1019.185	1158.25
1019.476	1147.17
1019.767	1147.85
1020.058	1125.03
1020.35	1146.27
1020.641	1127.74
1020.932	1111.69
1021.223	1104.46
1021.514	1085.25
1021.804	1129.32
1022.095	1104.24
1022.386	1075.31
1022.677	1075.54
1022.967	1073.73
1023.258	1061.98
1023.548	1049.1
1023.839	1058.59
1024.129	1026.72
1024.419	1020.4
1024.709	1046.38
1025	1028.53
1025.29	1000.28
1025.58	1030.79
1025.87	1015.88
1026.16	989.44
1026.449	1009.55
1026.739	1013.84
1027.029	999.61
1027.319	1003.22
1027.608	987.4
1027.898	982.66
1028.187	965.94
1028.477	978.82
1028.766	950.57
1029.055	932.49
1029.344	923.68
1029.634	934.07
1029.923	916.9
1030.212	954.86
1030.501	910.8
1030.79	909.21
1031.078	899.04
1031.367	918.93
1031.656	887.07
1031.945	884.81
1032.233	888.2
1032.522	853.4
1032.81	876.9
1033.099	850.46
1033.387	887.52
1033.675	878.25
1033.963	861.31
1034.251	865.82
1034.54	858.59
1034.828	852.94
1035.116	825.83
1035.403	822.21
1035.691	809.55
1035.979	822.44
1036.267	828.31
1036.554	810.91
1036.842	815.2
1037.129	803.23
1037.417	808.88
1037.704	801.87
1037.992	795.54
1038.279	767.3
1038.566	795.54
1038.853	795.54
1039.14	795.54
