Data from breadboard_white_FLMS001491_00077.txt Node
Date: Wed Feb 08 10:48:15 GMT 2017
User: dcchb
Spectrometer: FLMS00149
Trigger mode: 0
Integration Time (sec): 2.000000E-2
Scans to average: 10
Electric dark correction enabled: true
Nonlinearity correction enabled: false
Boxcar width: 0
XAxis mode: Wavelengths
Number of Pixels in Spectrum: 2048
>>>>>Begin Spectral Data<<<<<
341.393	2.44
341.776	2.44
342.16	2.44
342.543	-73.71
342.927	-64.22
343.31	-73.94
343.693	-82.07
344.077	-43.66
344.46	-63.54
344.843	-52.24
345.226	-58.12
345.61	-26.71
345.993	-12.02
346.376	1.77
346.759	16
347.142	46.06
347.525	66.4
347.908	52.39
348.291	57.13
348.674	69.33
349.057	103.23
349.44	119.5
349.823	168.77
350.206	164.47
350.588	200.86
350.971	207.64
351.354	229.33
351.737	234.75
352.119	264.58
352.502	266.84
352.884	291.02
353.267	293.74
353.65	296
354.032	312.49
354.414	308.2
354.797	323.34
355.179	313.4
355.562	341.42
355.944	365.15
356.326	339.61
356.709	327.86
357.091	351.81
357.473	355.43
357.855	354.75
358.238	347.52
358.62	360.85
359.002	354.3
359.384	355.65
359.766	357.69
360.148	353.39
360.53	339.84
360.912	361.08
361.294	335.09
361.676	353.62
362.057	369.44
362.439	363.11
362.821	326.28
363.203	354.52
363.584	349.33
363.966	335.99
364.348	323.79
364.729	355.65
365.111	337.12
365.493	329.21
365.874	336.67
366.256	328.31
366.637	335.99
367.019	345.71
367.4	337.12
367.781	337.58
368.163	340.29
368.544	349.78
368.925	323.56
369.306	353.17
369.688	309.78
370.069	349.1
370.45	332.83
370.831	327.18
371.212	369.89
371.593	342.55
371.974	335.54
372.355	342.77
372.736	331.25
373.117	347.07
373.498	347.29
373.879	338.48
374.26	351.13
374.641	353.17
375.021	347.52
375.402	363.34
375.783	344.58
376.163	359.04
376.544	379.61
376.925	361.98
377.305	359.72
377.686	371.25
378.066	357.69
378.447	382.55
378.827	361.53
379.208	378.93
379.588	368.76
379.968	376.22
380.349	366.73
380.729	368.76
381.109	387.29
381.489	383
381.87	382.77
382.25	377.35
382.63	411.25
383.01	393.62
383.39	416.22
383.77	402.66
384.15	419.83
384.53	409.66
384.91	393.17
385.29	436.78
385.67	430.45
386.049	429.1
386.429	416.44
386.809	406.95
387.189	419.16
387.568	428.87
387.948	431.81
388.328	453.05
388.707	452.38
389.087	446.05
389.466	447.18
389.846	471.81
390.225	474.52
390.605	452.38
390.984	472.94
391.363	503.9
391.743	484.46
392.122	491.24
392.501	480.4
392.881	482.88
393.26	516.1
393.639	508.64
394.018	518.36
394.397	531.7
394.776	530.57
395.155	537.34
395.534	552.26
395.913	547.97
396.292	558.59
396.671	564.91
397.05	567.63
397.429	592.26
397.808	565.37
398.186	583.45
398.565	572.15
398.944	598.13
399.323	614.86
399.701	592.03
400.08	639.04
400.458	625.7
400.837	625.93
401.215	642.88
401.594	630
401.972	644.23
402.351	682.2
402.729	665.48
403.107	664.57
403.486	710
403.864	701.63
404.242	729.66
404.62	733.05
404.999	743.89
405.377	747.73
405.755	744.57
406.133	751.12
406.511	794.51
406.889	818.24
407.267	830.44
407.645	838.13
408.023	863.66
408.401	845.36
408.779	873.61
409.156	900.72
409.534	920.39
409.912	929.42
410.29	953.38
410.667	970.33
411.045	994.51
411.422	999.25
411.8	985.47
412.178	1049.87
412.555	1059.36
412.933	1069.31
413.31	1108.4
413.687	1110.44
414.065	1109.76
414.442	1131.23
414.819	1144.56
415.197	1165.58
415.574	1197.44
415.951	1194.28
416.328	1210.55
416.705	1250.09
417.082	1250.77
417.46	1272.24
417.837	1296.65
418.214	1288.29
418.591	1309.98
418.967	1314.95
419.344	1335.52
419.721	1364.22
420.098	1380.94
420.475	1387.72
420.852	1429.98
421.228	1437.89
421.605	1450.09
421.982	1470.65
422.358	1492.12
422.735	1521.5
423.111	1513.36
423.488	1564.44
423.864	1535.51
424.241	1561.05
424.617	1605.57
424.994	1610.54
425.37	1608.95
425.746	1646.69
426.123	1647.82
426.499	1665.45
426.875	1722.17
427.251	1734.83
427.627	1772.34
428.003	1783.41
428.379	1841.27
428.756	1862.28
429.132	1875.39
429.507	1885.56
429.883	1929.85
430.259	1947.48
430.635	1966.01
431.011	1958.78
431.387	2035.84
431.763	2050.53
432.138	2099.79
432.514	2107.7
432.89	2125.1
433.265	2197.87
433.641	2188.83
434.016	2262.95
434.392	2265.89
434.767	2315.83
435.143	2297.75
435.518	2351.31
435.894	2344.98
436.269	2456.62
436.644	2449.84
437.02	2463.62
437.395	2470.18
437.77	2519.67
438.145	2543.85
438.52	2612.54
438.895	2604.63
439.271	2648.48
439.646	2647.35
440.021	2688.25
440.395	2709.49
440.77	2728.02
441.145	2748.36
441.52	2791.75
441.895	2806.44
442.27	2829.71
442.645	2823.61
443.019	2858.64
443.394	2884.85
443.769	2938.64
444.143	2965.08
444.518	2989.94
444.892	2961.69
445.267	2977.28
445.641	3014.12
446.016	3024.28
446.39	3070.84
446.764	3099.99
447.139	3094.11
447.513	3148.12
447.887	3155.13
448.262	3188.57
448.636	3193.09
449.01	3243.49
449.384	3293.88
449.758	3265.41
450.132	3334.33
450.506	3335.01
450.88	3375.91
451.254	3369.13
451.628	3448.91
452.002	3461.79
452.376	3494.33
452.75	3574.78
453.123	3579.52
453.497	3650.94
453.871	3676.47
454.244	3722.12
454.618	3777.94
454.992	3806.86
455.365	3840.99
455.739	3942.9
456.112	3933.41
456.486	3995.78
456.859	4064.26
457.232	4104.48
457.606	4120.98
457.979	4178.83
458.352	4260.64
458.725	4304.93
459.099	4346.74
459.472	4439.61
459.845	4507.41
460.218	4565.71
460.591	4545.83
460.964	4598.48
461.337	4703.79
461.71	4786.05
462.083	4833.28
462.456	4830.79
462.829	4849.55
463.201	4947.85
463.574	4989.66
463.947	5075.08
464.32	5182.19
464.692	5233.04
465.065	5255.19
465.438	5359.59
465.81	5403.21
466.183	5410.21
466.555	5581.05
466.928	5689.3
467.3	5634.84
467.672	5739.47
468.045	5884.55
468.417	5878.9
468.789	5936.07
469.161	6017.2
469.534	6143.3
469.906	6289.74
470.278	6331.77
470.65	6353.69
471.022	6553.68
471.394	6611.99
471.766	6709.61
472.138	6791.19
472.51	6960.9
472.882	7025.08
473.253	7059.88
473.625	7226.21
473.997	7421.01
474.369	7450.16
474.74	7541.91
475.112	7684.73
475.484	7774.67
475.855	8049.69
476.227	8020.09
476.598	8237.93
476.97	8329.68
477.341	8475.89
477.713	8597.25
478.084	8700.97
478.455	8933.51
478.827	9049.89
479.198	9254.4
479.569	9306.83
479.94	9586.82
480.311	9621.63
480.682	9845.57
481.053	10055.29
481.424	10219.12
481.795	10398.78
482.166	10547.93
482.537	10695.5
482.908	10901.59
483.279	10970.29
483.65	11169.83
484.021	11489.6
484.391	11577.96
484.762	11684.62
485.133	11829.93
485.503	11970.94
485.874	12288.45
486.244	12376.36
486.615	12592.39
486.985	12748.32
487.356	13079.61
487.726	13184.7
488.097	13422.88
488.467	13445.25
488.837	13767.73
489.207	13857.9
489.578	14091.34
489.948	14259.02
490.318	14496.3
490.688	14476.41
491.058	14604.09
491.428	14920.92
491.798	15030.75
492.168	15358.65
492.538	15428.03
492.908	15657.4
493.278	15872.99
493.648	15851.07
494.017	16107.1
494.387	16303.26
494.757	16359.75
495.126	16588.67
495.496	16594.78
495.866	16759.52
496.235	16924.94
496.605	17137.13
496.974	17217.58
497.344	17461.87
497.713	17549.1
498.082	17740.06
498.452	17926.49
498.821	18011.24
499.19	18123.1
499.559	18274.51
499.928	18313.37
500.298	18594.04
500.667	18669.3
501.036	18721.05
501.405	18958.56
501.774	19000.59
502.143	19135.73
502.512	19325.1
502.88	19403.06
503.249	19475.38
503.618	19664.07
503.987	19757.86
504.356	19916.27
504.724	19984.52
505.093	20117.17
505.462	20227.67
505.83	20301.57
506.199	20539.53
506.567	20832.4
506.936	20855.68
507.304	20966.86
507.672	21199.4
508.041	21306.74
508.409	21492.73
508.777	21572.95
509.145	21848.87
509.514	21859.5
509.882	22214.97
510.25	22097.68
510.618	22431.46
510.986	22446.15
511.354	22668.97
511.722	22899.24
512.09	23059.24
512.458	23099.69
512.826	23420.81
513.193	23470.98
513.561	23529.28
513.929	23824.64
514.297	23977.41
514.664	24057.18
515.032	24278.64
515.4	24371.07
515.767	24595.92
516.135	24651.06
516.502	24572.64
516.869	25093.76
517.237	25233.42
517.604	25349.12
517.972	25673.63
518.339	25713.41
518.706	25823.23
519.073	26075.88
519.44	26160.17
519.808	26561.07
520.175	26535.98
520.542	26923.09
520.909	27085.35
521.276	27130.54
521.643	27415.51
522.009	27597.2
522.376	27761.26
522.743	27955.83
523.11	28126.45
523.477	28508.59
523.843	28665.87
524.21	29097.95
524.577	29205.52
524.943	29323.25
525.31	29452.97
525.676	29818.38
526.043	29836.01
526.409	30052.5
526.776	30494.98
527.142	30588.98
527.508	30758.7
527.874	30833.27
528.241	31283.2
528.607	31140.83
528.973	31563.42
529.339	31696.98
529.705	32040.02
530.071	32179.22
530.437	32303.97
530.803	32594.58
531.169	32700.57
531.535	32706.22
531.901	32956.38
532.267	33062.37
532.632	33365.41
532.998	33465.97
533.364	33693.76
533.73	33688.11
534.095	34049.01
534.461	34165.16
534.826	34296.01
535.192	34481.31
535.557	34636.11
535.923	34690.8
536.288	34922.43
536.653	35060.5
537.019	35024.35
537.384	35189.31
537.749	35456.43
538.114	35543.2
538.479	35594.95
538.845	35745.46
539.21	35900.26
539.575	35916.3
539.94	36105
540.305	36474.25
540.67	36421.82
541.034	36503.18
541.399	36769.61
541.764	36722.16
542.129	36948.59
542.494	37046.67
542.858	37083.28
543.223	37256.15
543.587	37356.26
543.952	37345.19
544.316	37533.43
544.681	37547.44
545.045	37851.17
545.41	38043.03
545.774	38011.61
546.138	38074.89
546.503	38204.38
546.867	38210.7
547.231	38596.46
547.595	38762.33
547.959	38684.36
548.324	38709
548.688	38972.72
549.052	38956.22
549.416	39207.74
549.779	39179.72
550.143	39319.38
550.507	39606.6
550.871	39811.79
551.235	39765.92
551.599	40096.53
551.962	40114.38
552.326	40145.12
552.689	40463.07
553.053	40390.08
553.417	40539.68
553.78	40933.12
554.143	40855.38
554.507	40954.81
554.87	41132.21
555.234	41514.35
555.597	41320.23
555.96	41500.79
556.323	41632.76
556.686	41755.02
557.05	42209.7
557.413	42164.05
557.776	42281.33
558.139	42554.54
558.502	42608.33
558.865	42707.31
559.228	43140.07
559.59	43272.94
559.953	43249.22
560.316	43633.16
560.679	43724.46
561.041	43885.81
561.404	44058.46
561.767	44378.45
562.129	44191.56
562.492	44577.54
562.854	44488.05
563.217	44641.95
563.579	44875.84
563.941	45180.46
564.304	45377.3
564.666	45503.39
565.028	45608.93
565.39	45785.65
565.753	45909.94
566.115	46161.46
566.477	46387.44
566.839	46461.33
567.201	46727.09
567.563	46680.09
567.925	46956.01
568.287	46950.14
568.648	47071.26
569.01	47137.02
569.372	47490.23
569.734	47369.11
570.095	47631.02
570.457	47819.94
570.819	47823.56
571.18	47838.93
571.542	48108.07
571.903	48200.27
572.265	48418.57
572.626	48474.39
572.987	48530.66
573.349	48612.69
573.71	48752.8
574.071	48999.57
574.432	48850.88
574.794	49177.42
575.155	49153.24
575.516	49189.85
575.877	49328.6
576.238	49350.3
576.599	49559.11
576.96	49475.94
577.32	49560.69
577.681	49741.93
578.042	49840
578.403	49813.56
578.763	49909.83
579.124	49928.14
579.485	50025.99
579.845	50051.75
580.206	50024.18
580.566	50127.23
580.927	50056.95
581.287	50357.28
581.648	50198.86
582.008	50355.02
582.368	50317.73
582.728	50331.52
583.089	50342.14
583.449	50298.75
583.809	50345.53
584.169	50340.78
584.529	50294.68
584.889	50500.32
585.249	50281.35
585.609	50263.27
585.969	50534.9
586.329	50246.09
586.688	50345.07
587.048	50422.13
587.408	50239.09
587.768	50371.97
588.127	50350.05
588.487	50245.87
588.846	50561.57
589.206	50264.85
589.565	50266.88
589.925	50540.32
590.284	50368.12
590.643	50392.53
591.003	50472.08
591.362	50611.51
591.721	50580.77
592.08	50547.78
592.44	50642.69
592.799	50614.45
593.158	50570.15
593.517	50516.82
593.876	50606.31
594.235	50435.24
594.593	50531.51
594.952	50636.14
595.311	50539.87
595.67	50654.67
596.029	50869.35
596.387	50872.29
596.746	50846.76
597.104	50627.1
597.463	50765.4
597.822	50858.73
598.18	50760.88
598.538	50760.66
598.897	51016.02
599.255	50662.81
599.613	51110.7
599.972	50884.27
600.33	50942.8
600.688	50842.24
601.046	50907.32
601.404	51043.81
601.762	50954.1
602.12	51152.74
602.478	51085.85
602.836	51110.03
603.194	51073.64
603.552	51184.83
603.91	50996.13
604.268	51162.68
604.625	51071.16
604.983	51244.71
605.341	51047.88
605.698	51304.6
606.056	51266.86
606.413	51347.08
606.771	51406.97
607.128	51482.9
607.485	51403.58
607.843	51364.71
608.2	51680.18
608.557	51622.56
608.914	51420.98
609.272	51697.36
609.629	51677.02
609.986	51877.46
610.343	51688.09
610.7	51903.68
611.057	51879.27
611.414	51808.31
611.771	51853.06
612.127	51964.24
612.484	51917.01
612.841	52010.79
613.198	51886.95
613.554	51912.04
613.911	52195.2
614.267	52114.29
614.624	52141.19
614.98	52255.76
615.337	52277.45
615.693	52264.12
616.05	52118.59
616.406	52376.66
616.762	52233.84
617.118	52345.25
617.475	52302.54
617.831	52277.91
618.187	52394.74
618.543	52436.32
618.899	52561.29
619.255	52429.31
619.611	52475.41
619.967	52545.02
620.323	52652.81
620.678	52448.3
621.034	52432.03
621.39	52463.21
621.746	52507.96
622.101	52864.1
622.457	52450.56
622.812	52630.44
623.168	52672.02
623.523	52714.5
623.879	52800.15
624.234	52532.14
624.589	52698.23
624.945	52660.95
625.3	52681.06
625.655	52528.97
626.01	52634.73
626.365	52724
626.72	52616.43
627.075	52588.18
627.43	52623.43
627.785	52401.74
628.14	52527.16
628.495	52561.74
628.85	52519.71
629.205	52414.62
629.559	52562.64
629.914	52371.91
630.269	52563.1
630.623	52310.9
630.978	52344.34
631.332	52566.26
631.687	52451.69
632.041	52343.67
632.396	52296.44
632.75	52220.96
633.104	52275.42
633.459	52095.99
633.813	52116.55
634.167	52082.66
634.521	52104.12
634.875	52121.07
635.229	52075.2
635.583	51896.9
635.937	51884.24
636.291	51898.48
636.645	51779.84
636.999	51833.62
637.352	51802.44
637.706	51628.43
638.06	51787.3
638.413	51787.52
638.767	51662.78
639.121	51634.31
639.474	51549.11
639.828	51512.5
640.181	51564.7
640.534	51526.06
640.888	51380.3
641.241	51220.53
641.594	51324.71
641.947	51436.12
642.301	51242.45
642.654	51279.97
643.007	51313.64
643.36	51183.92
643.713	51166.52
644.066	51190.02
644.419	51042.68
644.771	50929.24
645.124	50580.55
645.477	50550.04
645.83	50396.6
646.182	50070.05
646.535	49830.51
646.888	49819.89
647.24	49644.98
647.593	49870.06
647.945	49776.28
648.298	49562.5
648.65	49544.19
649.002	49538.77
649.355	49547.36
649.707	49622.83
650.059	49937.85
650.411	50207.9
650.763	50193.89
651.115	50587.78
651.467	50370.61
651.819	50279.54
652.171	50143.05
652.523	50170.39
652.875	50146.21
653.227	49966.1
653.578	50269.14
653.93	50207.23
654.282	49986.89
654.633	49815.6
654.985	49938.76
655.337	49864.18
655.688	49918.87
656.039	50097.4
656.391	49764.98
656.742	49835.71
657.094	49745.77
657.445	49899.66
657.796	49883.84
658.147	49676.17
658.498	49741.25
658.849	49765.43
659.2	49778.08
659.551	49650.4
659.902	49625.32
660.253	49627.13
660.604	49531.76
660.955	49508.49
661.306	49653.57
661.656	49413.35
662.007	49522.27
662.358	49539.67
662.708	49446.34
663.059	49434.36
663.409	49255.84
663.76	49401.14
664.11	49356.63
664.461	49319.79
664.811	49371.31
665.161	49358.21
665.511	49193.92
665.862	49275.95
666.212	49374.25
666.562	49361.37
666.912	49280.7
667.262	49183.3
667.612	49119.57
667.962	49255.16
668.312	49031.66
668.662	49225.56
669.011	49176.74
669.361	49088.38
669.711	49103.53
670.06	49060.36
670.41	48989.4
670.76	49118.89
671.109	49130.42
671.459	49113.24
671.808	49007.48
672.157	48965.22
672.507	48895.4
672.856	48866.7
673.205	48774.95
673.554	48891.78
673.904	48832.8
674.253	48929.07
674.602	48767.71
674.951	48305.81
675.3	48043.89
675.649	48675.06
675.998	48503.32
676.346	48709.86
676.695	48684.1
677.044	48397.1
677.393	48534.27
677.741	48647.94
678.09	48447.5
678.438	48410.89
678.787	48523.43
679.135	48405.01
679.484	48132.25
679.832	48343.77
680.181	48064.23
680.529	48326.14
680.877	48101.29
681.225	48066.94
681.573	48281.17
681.922	47906.49
682.27	47781.53
682.618	47855.42
682.966	47828.08
683.314	47864.91
683.661	47596.45
684.009	47394.64
684.357	47401.65
684.705	47300.86
685.053	47384.25
685.4	47233.52
685.748	46936.8
686.095	47009.34
686.443	46931.38
686.79	46853.87
687.138	46887.09
687.485	46792.63
687.832	46746.75
688.18	46791.5
688.527	46503.37
688.874	46574.55
689.221	46387.21
689.568	46273.09
689.915	46240.78
690.262	46130.72
690.609	46042.36
690.956	45984.96
691.303	45846.44
691.65	45680.11
691.997	45722.6
692.344	45421.59
692.69	45452.77
693.037	45362.83
693.383	45107.25
693.73	45331.87
694.077	45107.25
694.423	45079.22
694.769	45014.59
695.116	44715.17
695.462	44872.9
695.808	44600.59
696.155	44771.66
696.501	44238.34
696.847	44331.22
697.193	44066.82
697.539	44245.35
697.885	43795.64
698.231	43593.61
698.577	43765.59
698.923	43545.48
699.269	43392.49
699.614	43310.68
699.96	43151.82
700.306	43234.98
700.651	43090.35
700.997	42985.27
701.342	42910.24
701.688	42743.47
702.033	42712.51
702.379	42770.81
702.724	42588.89
703.069	42633.64
703.415	42006.99
703.76	42265.06
704.105	42016.03
704.45	41865.07
704.795	41749.59
705.14	41806.09
705.485	41583.05
705.83	41537.85
706.175	41417.4
706.52	41404.74
706.865	41158.2
707.209	41073
707.554	41020.35
707.899	41009.73
708.243	40752.11
708.588	40892.67
708.932	40580.81
709.277	40546.01
709.621	40659.91
709.966	40315.06
710.31	40410.65
710.654	39958.45
710.998	40140.37
711.342	40047.94
711.687	39932.69
712.031	39780.61
712.375	39693.15
712.719	39706.26
713.063	39615.64
713.407	39577.45
713.75	39488.64
714.094	39408.41
714.438	39221.07
714.782	39369.77
715.125	39178.81
715.469	39148.08
715.812	38952.61
716.156	38702.89
716.499	38693.18
716.843	38821.99
717.186	38603.24
717.53	38760.07
717.873	38610.69
718.216	38615.44
718.559	38344.49
718.902	38048.9
719.246	38215.45
719.589	38105.17
719.932	38016.59
720.275	38064.04
720.617	37949.69
720.96	37895.91
721.303	37900.2
721.646	37794.44
721.989	37483.04
722.331	37621.12
722.674	37636.48
723.016	37499.31
723.359	37505.41
723.701	37429.03
724.044	37136.83
724.386	37075.59
724.729	37221.35
725.071	37032.66
725.413	36899.1
725.755	36927.8
726.097	36811.42
726.439	36625.44
726.782	36664.76
727.124	36898.2
727.465	36582.72
727.807	36542.73
728.149	36558.54
728.491	36333.47
728.833	36441.26
729.175	36266.35
729.516	36086.47
729.858	36250.53
730.199	36290.75
730.541	36029.29
730.882	35937.54
731.224	36164.43
731.565	35869.3
731.906	35816.42
732.248	35877.66
732.589	35692.35
732.93	35620.49
733.271	35634.5
733.612	35607.38
733.953	35563.99
734.294	35475.64
734.635	35349.54
734.976	35361.97
735.317	35153.84
735.658	35333.04
735.999	35074.06
736.339	35060.05
736.68	35186.15
737.021	34971.02
737.361	34799.49
737.702	34984.35
738.042	34848.08
738.383	34930.79
738.723	34878.36
739.063	34667.97
739.404	34714.53
739.744	34683.57
740.084	34531.71
740.424	34485.15
740.764	34429.79
741.104	34348.88
741.444	34237.7
741.784	34097.37
742.124	34329.68
742.464	34213.3
742.804	34163.13
743.143	34070.7
743.483	34146.86
743.823	33856.92
744.162	33853.08
744.502	33842.23
744.841	33745.29
745.181	33826.19
745.52	33693.53
745.86	33630.94
746.199	33684.72
746.538	33469.13
746.877	33485.4
747.216	33529.92
747.556	33230.95
747.895	33334.45
748.234	33286.54
748.573	33197.95
748.911	33039.77
749.25	33078.64
749.589	32796.16
749.928	33033.67
750.267	32994.57
750.605	32793.67
750.944	32615.6
751.283	32526.33
751.621	32639.78
751.96	32415.38
752.298	32377.86
752.636	32416.96
752.975	32220.13
753.313	32197.98
753.651	32228.71
753.989	32012
754.327	32018.55
754.666	31767.48
755.004	31908.72
755.342	31861.27
755.679	31814.04
756.017	31626.24
756.355	31708.5
756.693	31449.98
757.031	31576.98
757.368	31346.7
757.706	31336.99
758.044	31143.32
758.381	31172.02
758.719	31000.27
759.056	30966.6
759.394	30912.59
759.731	30665.14
760.068	30667.17
760.405	30669.43
760.743	30455.2
761.08	30504.69
761.417	30186.96
761.754	30335.43
762.091	30200.97
762.428	30057.7
762.765	29922.33
763.102	30026.74
763.438	29768.67
763.775	29666.97
764.112	29770.25
764.449	29746.07
764.785	29400.09
765.122	29299.98
765.458	29108.57
765.795	29152.41
766.131	29173.88
766.467	29025.64
766.804	28856.15
767.14	28694.57
767.476	28594.23
767.812	28460.23
768.148	28572.99
768.485	28416.61
768.821	28243.06
769.157	28281.7
769.492	28268.59
769.828	28043.97
770.164	27951.77
770.5	27787.93
770.836	27758.1
771.171	27433.36
771.507	27506.35
771.842	27384.55
772.178	27338.67
772.513	27109.98
772.849	27091.45
773.184	27143.2
773.519	26937.55
773.855	26789.08
774.19	26669.31
774.525	26656.21
774.86	26674.28
775.195	26646.94
775.53	26425.93
775.865	26345.03
776.2	26270.23
776.535	25904.59
776.87	25952.04
777.205	25797.47
777.539	25773.74
777.874	25791.6
778.209	25505.95
778.543	25504.37
778.878	25342.12
779.212	25262.34
779.547	25180.09
779.881	25161.78
780.215	25135.34
780.55	24995.23
780.884	24893.54
781.218	24695.81
781.552	24823.94
781.886	24589.82
782.22	24478.41
782.554	24410.84
782.888	24194.35
783.222	24122.94
783.556	24036.61
783.889	24025.31
784.223	23943.06
784.557	23851.08
784.89	23850.86
785.224	23608.83
785.557	23491.77
785.891	23450.64
786.224	23466.69
786.558	23383.75
786.891	23163.87
787.224	23145.11
787.557	23106.24
787.891	22983.76
788.224	22916.64
788.557	22939.24
788.89	22794.84
789.223	22701.28
789.556	22620.83
789.888	22495.19
790.221	22478.91
790.554	22360.73
790.887	22280.05
791.219	22261.07
791.552	22181.52
791.884	22032.6
792.217	21953.73
792.549	21971.13
792.882	21710.12
793.214	21643
793.546	21756.9
793.879	21507.19
794.211	21377.7
794.543	21409.79
794.875	21390.58
795.207	21559.84
795.539	21307.19
795.871	21256.12
796.203	21022.68
796.535	20959.63
796.867	20967.32
797.198	20834.21
797.53	20892.52
797.862	20707.89
798.193	20840.99
798.525	20564.39
798.856	20656.36
799.188	20408.69
799.519	20346.99
799.85	20251.4
800.182	20330.04
800.513	20219.31
800.844	20168.47
801.175	20094.8
801.506	20108.81
801.837	20099.77
802.168	20013.44
802.499	19908.59
802.83	19730.96
803.161	19650.74
803.491	19720.8
803.822	19777.06
804.153	19479.67
804.483	19402.39
804.814	19287.36
805.145	19246.46
805.475	19270.86
805.805	19266.34
806.136	19213.01
806.466	19338.88
806.796	19112.68
807.126	19009.63
807.457	18916.07
807.787	18963.3
808.117	18809.18
808.447	18757.2
808.777	18843.08
809.107	18707.71
809.436	18613.71
809.766	18584.33
810.096	18605.57
810.426	18470.66
810.755	18523.09
811.085	18482.64
811.414	18393.37
811.744	18286.26
812.073	18259.59
812.403	18216.88
812.732	18068.64
813.061	18138.01
813.39	18055.98
813.719	17914.74
814.049	18023.44
814.378	17947.06
814.707	17910.67
815.036	17863.22
815.365	17753.39
815.693	17578.93
816.022	17631.58
816.351	17587.97
816.68	17395.43
817.008	17488.54
817.337	17336.45
817.665	17241.76
817.994	17329.9
818.322	17331.03
818.651	17247.87
818.979	17188.66
819.307	17256.23
819.636	17162.22
819.964	17153.63
820.292	17085.61
820.62	17095.55
820.948	17057.36
821.276	17096.68
821.604	17018.27
821.932	17075.67
822.259	17164.48
822.587	17035.22
822.915	17020.08
823.243	17119.73
823.57	16931.49
823.898	16954.99
824.225	16996.8
824.553	16943.47
824.88	16992.96
825.207	17097.81
825.535	16930.59
825.862	17120.64
826.189	16882
826.516	16974.65
826.843	17041.09
827.17	17039.28
827.497	16998.61
827.824	16995.44
828.151	16973.52
828.478	16930.36
828.805	17038.15
829.131	16927.2
829.458	16825.28
829.785	16825.05
830.111	16824.37
830.438	16823.47
830.764	16857.14
831.09	16907.54
831.417	16902.11
831.743	16809.69
832.069	16842.45
832.395	16816.01
832.722	16776.69
833.048	16734.66
833.374	16810.59
833.7	16653.31
834.026	16733.98
834.351	16627.77
834.677	16687.88
835.003	16659.86
835.329	16746.41
835.654	16670.71
835.98	16574.66
836.306	16555.68
836.631	16485.63
836.956	16595.45
837.282	16456.25
837.607	16431.62
837.932	16467.77
838.258	16355.23
838.583	16364.73
838.908	16293.31
839.233	16273.43
839.558	16309.36
839.883	16168.57
840.208	16147.1
840.533	16184.84
840.858	16167.22
841.182	16110.95
841.507	16068.91
841.832	16077.05
842.156	15971.52
842.481	15991.18
842.805	15919.09
843.13	15827.11
843.454	15839.09
843.778	15774.23
844.103	15785.31
844.427	15768.58
844.751	15785.98
845.075	15718.19
845.399	15624.18
845.723	15637.06
846.047	15527.23
846.371	15431.42
846.695	15415.37
847.019	15357.29
847.343	15252.21
847.666	15130.18
847.99	15194.59
848.313	15078.88
848.637	15032.56
848.96	15007.25
849.284	14988.26
849.607	14763.86
849.931	14721.6
850.254	14787.14
850.577	14689.97
850.9	14549.86
851.223	14543.53
851.546	14409.52
851.869	14236.42
852.192	14343.31
852.515	14187.83
852.838	14113.71
853.161	14128.63
853.483	14103.77
853.806	14060.38
854.129	14072.36
854.451	13962.3
854.774	13936.77
855.096	13833.72
855.419	13793.27
855.741	13763.66
856.063	13643.67
856.385	13727.28
856.708	13687.51
857.03	13645.25
857.352	13693.16
857.674	13591.24
857.996	13516.44
858.318	13451.36
858.64	13415.88
858.961	13448.42
859.283	13417.46
859.605	13299.72
859.926	13411.36
860.248	13241.64
860.57	13219.95
860.891	13277.35
861.212	13174.07
861.534	13166.17
861.855	13113.51
862.176	13121.87
862.498	13075.77
862.819	13102.44
863.14	12977.47
863.461	12932.05
863.782	12822.45
864.103	12866.29
864.424	12869
864.745	12895.89
865.065	12753.97
865.386	12771.6
865.707	12701.09
866.027	12742
866.348	12770.7
866.668	12684.82
866.989	12645.95
867.309	12515.79
867.63	12629.46
867.95	12578.84
868.27	12456.81
868.59	12454.77
868.91	12411.61
869.23	12418.84
869.55	12406.86
869.87	12466.75
870.19	12504.71
870.51	12372.51
870.83	12360.08
871.15	12275.34
871.469	12264.27
871.789	12292.29
872.109	12303.59
872.428	12303.14
872.748	12258.17
873.067	12226.3
873.386	12184.04
873.706	12238.28
874.025	12145.85
874.344	12118.06
874.663	12053.2
874.982	12068.57
875.301	12153.54
875.62	12054.1
875.939	12028.12
876.258	12025.86
876.577	11950.83
876.896	11975.69
877.214	11891.17
877.533	11873.09
877.852	11911.06
878.17	11858.4
878.489	11915.8
878.807	11810.27
879.125	11821.79
879.444	11846.43
879.762	11728.24
880.08	11741.57
880.398	11686.66
880.716	11676.03
881.034	11720.78
881.352	11654.79
881.67	11599.43
881.988	11588.35
882.306	11597.62
882.624	11488.47
882.941	11461.58
883.259	11500.45
883.577	11482.37
883.894	11447.79
884.212	11488.92
884.529	11413.44
884.846	11414.8
885.164	11403.73
885.481	11407.34
885.798	11389.49
886.115	11294.12
886.432	11305.2
886.75	11236.05
887.067	11198.53
887.383	11172.32
887.7	11184.52
888.017	11125.99
888.334	11211.19
888.651	11138.87
888.967	11057.29
889.284	11008.26
889.6	10952.21
889.917	10909.73
890.233	10911.76
890.55	10844.64
890.866	10907.92
891.182	10924.19
891.498	10842.38
891.815	10766.23
892.131	10730.75
892.447	10634.93
892.763	10635.16
893.079	10605.55
893.395	10571.43
893.71	10525.1
894.026	10559.45
894.342	10504.99
894.657	10399.23
894.973	10407.14
895.289	10377.09
895.604	10448.04
895.92	10310.65
896.235	10294.83
896.55	10285.34
896.865	10253.47
897.181	10246.24
897.496	10218.9
897.811	10166.92
898.126	10029.75
898.441	10102.74
898.756	10018
899.071	9948.17
899.386	10020.49
899.7	9979.81
900.015	9880.38
900.33	9763.09
900.644	9858.46
900.959	9785.01
901.273	9760.15
901.588	9722.41
901.902	9689.65
902.216	9648.97
902.531	9604.22
902.845	9586.82
903.159	9569.42
903.473	9526.49
903.787	9507.73
904.101	9395.64
904.415	9398.58
904.729	9384.8
905.042	9380.05
905.356	9262.09
905.67	9338.24
905.984	9292.59
906.297	9172.6
906.611	9155.2
906.924	9088.98
907.237	9108.19
907.551	9020.96
907.864	9024.35
908.177	8984.81
908.491	8991.81
908.804	8881.53
909.117	8808.77
909.43	8819.84
909.743	8791.82
910.056	8756.79
910.368	8746.39
910.681	8733.74
910.994	8698.71
911.307	8561.54
911.619	8504.59
911.932	8559.51
912.244	8506.85
912.557	8470.24
912.869	8476.8
913.181	8454.42
913.494	8319.74
913.806	8333.52
914.118	8314.54
914.43	8244.26
914.742	8274.99
915.054	8196.8
915.366	8147.31
915.678	8152.51
915.99	8148.22
916.302	8077.71
916.613	8006.3
916.925	7993.87
917.236	7966.08
917.548	7957.49
917.859	7888.79
918.171	7905.74
918.482	7830.71
918.794	7783.26
919.105	7720.88
919.416	7734.9
919.727	7751.17
920.038	7682.92
920.349	7656.25
920.66	7569.93
920.971	7581.45
921.282	7578.97
921.593	7540.78
921.903	7443.6
922.214	7492.87
922.525	7417.16
922.835	7411.51
923.146	7348.01
923.456	7335.13
923.767	7301.69
924.077	7344.4
924.387	7249.03
924.697	7183.27
925.008	7190.95
925.318	7163.39
925.628	7096.49
925.938	7037.06
926.248	7011.75
926.558	7021.69
926.867	6971.07
927.177	7018.53
927.487	6927.23
927.796	6901.25
928.106	6882.04
928.416	6814.02
928.725	6778.99
929.034	6779.67
929.344	6795.49
929.653	6746.45
929.962	6707.35
930.271	6616.51
930.581	6601.82
930.89	6581.93
931.199	6560.92
931.508	6548.49
931.817	6510.29
932.125	6464.65
932.434	6510.97
932.743	6436.62
933.051	6393.69
933.36	6412.22
933.669	6365.44
933.977	6301.26
934.286	6315.27
934.594	6284.76
934.902	6187.37
935.21	6277.08
935.519	6209.29
935.827	6143.75
936.135	6155.28
936.443	6101.94
936.751	6033.7
937.059	6045.45
937.367	6010.2
937.674	6005.9
937.982	5997.09
938.29	5934.72
938.597	5920.93
938.905	5847.04
939.213	5873.25
939.52	5817.21
939.827	5835.28
940.135	5805.68
940.442	5778.11
940.749	5758.68
941.056	5733.37
941.363	5688.62
941.67	5661.28
941.977	5655.18
942.284	5582.64
942.591	5621.73
942.898	5563.88
943.205	5551.22
943.511	5522.75
943.818	5474.16
944.125	5448.85
944.431	5431.45
944.738	5450.21
945.044	5384.22
945.35	5358.91
945.657	5328.63
945.963	5388.29
946.269	5281.4
946.575	5308.29
946.881	5262.87
947.187	5280.04
947.493	5209.99
947.799	5207.96
948.105	5206.15
948.41	5089.77
948.716	5171.35
949.022	5117.34
949.327	5108.75
949.633	5051.58
949.938	5039.15
950.244	5062.42
950.549	5010.22
950.854	5011.58
951.16	4932.26
951.465	4988.75
951.77	4887.96
952.075	4908.53
952.38	4875.31
952.685	4872.6
952.99	4793.28
953.294	4825.14
953.599	4822.66
953.904	4746.5
954.209	4701.98
954.513	4725.03
954.818	4701.53
955.122	4722.09
955.426	4603.23
955.731	4631.93
956.035	4571.59
956.339	4618.14
956.643	4566.17
956.948	4527.97
957.252	4525.71
957.556	4559.39
957.86	4497.47
958.163	4494.98
958.467	4481.42
958.771	4464.25
959.075	4442.78
959.378	4396.23
959.682	4389.45
959.985	4378.6
960.289	4331.82
960.592	4345.83
960.896	4305.16
961.199	4258.38
961.502	4291.6
961.805	4299.73
962.108	4197.14
962.411	4224.48
962.714	4200.53
963.017	4222.22
963.32	4189.45
963.623	4148.32
963.926	4105.39
964.228	4069.46
964.531	4071.94
964.833	4089.79
965.136	4006.41
965.438	4018.16
965.741	4031.26
966.043	3996.01
966.345	3995.11
966.648	3937.93
966.95	4002.79
967.252	3920.08
967.554	3889.8
967.856	3888.89
968.158	3880.08
968.46	3888.22
968.761	3848.22
969.063	3858.61
969.365	3779.97
969.666	3848.67
969.968	3752.4
970.269	3756.02
970.571	3716.24
970.872	3718.5
971.174	3703.36
971.475	3735.23
971.776	3698.62
972.077	3636.02
972.378	3689.13
972.679	3588.11
972.98	3638.73
973.281	3634.44
973.582	3599.41
973.883	3554.67
974.183	3535.46
974.484	3508.11
974.785	3527.77
975.085	3539.98
975.386	3522.12
975.686	3481.67
975.986	3473.99
976.287	3452.97
976.587	3419.08
976.887	3417.27
977.187	3437.61
977.487	3407.33
977.787	3342.92
978.087	3339.08
978.387	3328.23
978.687	3325.52
978.987	3313.32
979.286	3301.34
979.586	3303.37
979.885	3268.57
980.185	3265.41
980.484	3199.42
980.784	3224.28
981.083	3244.17
981.382	3210.04
981.682	3223.38
981.981	3156.48
982.28	3128.91
982.579	3109.48
982.878	3157.39
983.177	3120.1
983.475	3094.34
983.774	3048.92
984.073	3072.42
984.372	3003.49
984.67	3043.04
984.969	3011.4
985.267	3029.26
985.566	3021.35
985.864	2965.08
986.162	3017.73
986.461	2979.31
986.759	2964.63
987.057	2933.21
987.355	2901.58
987.653	2904.74
987.951	2892.76
988.249	2860
988.547	2860.9
988.844	2874.68
989.142	2844.18
989.44	2846.89
989.737	2807.34
990.035	2802.82
990.332	2786.78
990.63	2760.79
990.927	2774.12
991.224	2756.5
991.521	2730.28
991.819	2734.8
992.116	2736.61
992.413	2688.02
992.71	2715.14
993.006	2687.8
993.303	2652.54
993.6	2648.48
993.897	2668.36
994.193	2601.25
994.49	2616.16
994.787	2628.59
995.083	2585.2
995.379	2532.77
995.676	2549.04
995.972	2566.67
996.268	2526.9
996.565	2509.04
996.861	2485.32
997.157	2506.56
997.453	2440.35
997.749	2483.51
998.044	2425.43
998.34	2432.44
998.636	2398.99
998.932	2410.06
999.227	2402.38
999.523	2374.58
999.818	2396.05
1000.114	2366.22
1000.409	2349.73
1000.704	2344.98
1001	2371.65
1001.295	2300.46
1001.59	2283.06
1001.885	2330.97
1002.18	2300.46
1002.475	2304.98
1002.77	2288.71
1003.065	2269.5
1003.359	2221.82
1003.654	2216.4
1003.949	2213.68
1004.243	2201.48
1004.538	2188.15
1004.832	2181.37
1005.127	2141.37
1005.421	2158.54
1005.715	2146.57
1006.009	2102.95
1006.304	2121.48
1006.598	2112.9
1006.892	2098.43
1007.186	2087.13
1007.48	2058.21
1007.773	2045.1
1008.067	2052.33
1008.361	2028.83
1008.655	2021.6
1008.948	2032.67
1009.242	1990.19
1009.535	1992.45
1009.829	1958.78
1010.122	1984.54
1010.415	1967.14
1010.708	1931.21
1011.001	1923.75
1011.295	1875.84
1011.588	1903.64
1011.881	1913.81
1012.173	1862.96
1012.466	1834.49
1012.759	1828.61
1013.052	1839.23
1013.344	1851.66
1013.637	1808.72
1013.93	1792.45
1014.222	1800.14
1014.514	1790.19
1014.807	1798.33
1015.099	1773.02
1015.391	1766.46
1015.683	1737.54
1015.976	1761.49
1016.268	1747.48
1016.56	1702.74
1016.851	1718.33
1017.143	1714.26
1017.435	1694.6
1017.727	1622.97
1018.018	1650.08
1018.31	1654.15
1018.602	1639.91
1018.893	1689.4
1019.185	1632.23
1019.476	1597.43
1019.767	1602.63
1020.058	1596.3
1020.35	1603.76
1020.641	1558.33
1020.932	1548.39
1021.223	1543.42
1021.514	1547.94
1021.804	1528.73
1022.095	1540.48
1022.386	1530.54
1022.677	1483.76
1022.967	1505.45
1023.258	1504.32
1023.548	1489.41
1023.839	1498.22
1024.129	1486.92
1024.419	1439.47
1024.709	1457.77
1025	1417.55
1025.29	1399.24
1025.58	1407.15
1025.87	1387.94
1026.16	1416.42
1026.449	1383.2
1026.739	1375.74
1027.029	1391.11
1027.319	1356.76
1027.608	1314.05
1027.898	1323.31
1028.187	1331.67
1028.477	1304.56
1028.766	1310.88
1029.055	1292.8
1029.344	1295.06
1029.634	1284.44
1029.923	1286.48
1030.212	1260.49
1030.501	1269.3
1030.79	1238.12
1031.078	1246.7
1031.367	1224.56
1031.656	1229.3
1031.945	1208.97
1032.233	1205.58
1032.522	1185.92
1032.81	1183.2
1033.099	1161.51
1033.387	1168.29
1033.675	1168.06
1033.963	1158.57
1034.251	1174.16
1034.54	1156.31
1034.828	1115.41
1035.116	1135.97
1035.403	1117.67
1035.691	1131.68
1035.979	1087.16
1036.267	1110.44
1036.554	1084.9
1036.842	1097.1
1037.129	1076.99
1037.417	1067.27
1037.704	1075.64
1037.992	1055.07
1038.279	1063.21
1038.566	1040.83
1038.853	1040.83
1039.14	1040.83
