Data from breadboard_white_FLMS001491_00067.txt Node
Date: Wed Feb 08 10:48:06 GMT 2017
User: dcchb
Spectrometer: FLMS00149
Trigger mode: 0
Integration Time (sec): 2.000000E-2
Scans to average: 10
Electric dark correction enabled: true
Nonlinearity correction enabled: false
Boxcar width: 0
XAxis mode: Wavelengths
Number of Pixels in Spectrum: 2048
>>>>>Begin Spectral Data<<<<<
341.393	-5.93
341.776	-5.93
342.16	-5.93
342.543	-72.37
342.927	-70.11
343.31	-66.27
343.693	-60.62
344.077	-62.2
344.46	-41.41
344.843	-40.96
345.226	-54.52
345.61	-49.09
345.993	-22.88
346.376	-4.8
346.759	14.41
347.142	26.84
347.525	36.55
347.908	55.99
348.291	80.85
348.674	91.01
349.057	97.12
349.44	107.74
349.823	133.95
350.206	176.21
350.588	188.41
350.971	211.92
351.354	225.02
351.737	251.01
352.119	269.31
352.502	259.15
352.884	299.6
353.267	307.51
353.65	273.38
354.032	302.31
354.414	302.76
354.797	349.31
355.179	322.42
355.562	324.45
355.944	349.54
356.326	335.75
356.709	349.54
357.091	352.25
357.473	363.78
357.855	337.79
358.238	372.36
358.62	343.44
359.002	347.28
359.384	375.3
359.766	358.35
360.148	351.35
360.53	354.28
360.912	353.15
361.294	352.25
361.676	345.02
362.057	356.77
362.439	341.18
362.821	349.99
363.203	329.88
363.584	347.73
363.966	356.54
364.348	328.3
364.729	328.3
365.111	326.49
365.493	338.92
365.874	330.78
366.256	335.3
366.637	353.15
367.019	350.67
367.4	346.15
367.781	336.43
368.163	334.85
368.544	354.74
368.925	349.99
369.306	335.53
369.688	329.88
370.069	332.36
370.45	359.71
370.831	356.32
371.212	349.31
371.593	341.86
371.974	336.88
372.355	353.61
372.736	350.44
373.117	358.8
373.498	357.22
373.879	350.44
374.26	346.38
374.641	339.14
375.021	343.21
375.402	364.68
375.783	374.17
376.163	367.39
376.544	369.65
376.925	355.19
377.305	353.83
377.686	368.07
378.066	377.79
378.447	377.33
378.827	364.45
379.208	397
379.588	378.01
379.968	395.64
380.349	390.44
380.729	379.82
381.109	370.1
381.489	390.67
381.87	395.41
382.25	389.09
382.63	392.02
383.01	401.74
383.39	402.64
383.77	394.28
384.15	426.82
384.53	412.81
384.91	404.45
385.29	412.14
385.67	420.72
386.049	417.79
386.429	432.02
386.809	451.01
387.189	446.49
387.568	420.5
387.948	425.02
388.328	447.84
388.707	454.85
389.087	466.82
389.466	463.43
389.846	445.36
390.225	455.75
390.605	481.74
390.984	460.5
391.363	484
391.743	499.37
392.122	480.83
392.501	483.77
392.881	496.43
393.26	491.91
393.639	514.96
394.018	533.04
394.397	487.84
394.776	518.35
395.155	523.32
395.534	540.27
395.913	534.39
396.292	533.04
396.671	568.97
397.05	574.84
397.429	567.39
397.808	561.06
398.186	595.63
398.565	581.85
398.944	594.05
399.323	602.64
399.701	589.98
400.08	624.11
400.458	627.27
400.837	650.1
401.215	647.38
401.594	658.23
401.972	631.79
402.351	671.56
402.729	683.32
403.107	704.33
403.486	663.65
403.864	688.74
404.242	723.77
404.62	730.55
404.999	737.78
405.377	766.25
405.755	752.01
406.133	754.95
406.511	794.95
406.889	804.44
407.267	821.62
407.645	809.64
408.023	844.67
408.401	846.7
408.779	853.03
409.156	874.5
409.534	909.52
409.912	911.78
410.29	924.44
410.667	955.17
411.045	952.46
411.422	962.4
411.8	992.23
412.178	1036.75
412.555	1023.19
412.933	1056.64
413.31	1079.46
413.687	1092.8
414.065	1102.97
414.442	1115.85
414.819	1129.63
415.197	1156.98
415.574	1169.86
415.951	1186.58
416.328	1218.89
416.705	1225.9
417.082	1214.37
417.46	1250.08
417.837	1289.85
418.214	1278.55
418.591	1293.24
418.967	1285.33
419.344	1356.74
419.721	1360.81
420.098	1339.57
420.475	1392.22
420.852	1387.7
421.228	1401.26
421.605	1415.27
421.982	1435.39
422.358	1474.93
422.735	1496.63
423.111	1468.61
423.488	1493.01
423.864	1520.13
424.241	1575.5
424.617	1552.45
424.994	1589.05
425.37	1590.64
425.746	1606.23
426.123	1615.49
426.499	1655.95
426.875	1661.59
427.251	1707.02
427.627	1757.64
428.003	1793.12
428.379	1777.07
428.756	1781.82
429.132	1850.97
429.507	1855.04
429.883	1865.21
430.259	1909.72
430.635	1909.05
431.011	1922.15
431.387	1984.3
431.763	2024.75
432.138	2042.83
432.514	2055.26
432.89	2057.97
433.265	2115.82
433.641	2145.2
434.016	2151.75
434.392	2161.02
434.767	2250.96
435.143	2250.51
435.518	2296.61
435.894	2262.03
436.269	2357.85
436.644	2368.24
437.02	2363.05
437.395	2402.14
437.77	2424.06
438.145	2468.35
438.52	2523.72
438.895	2530.27
439.271	2532.76
439.646	2586.54
440.021	2594.23
440.395	2634.45
440.77	2584.28
441.145	2655.01
441.52	2691.62
441.895	2716.71
442.27	2739.08
442.645	2727.56
443.019	2802.58
443.394	2765.29
443.769	2798.51
444.143	2788.34
444.518	2860.66
444.892	2845.74
445.267	2857.04
445.641	2882.58
446.016	2904.05
446.39	2936.82
446.764	2967.1
447.139	2957.61
447.513	3007.55
447.887	3015.46
448.262	3027.89
448.636	3031.73
449.01	3135.23
449.384	3125.06
449.758	3155.79
450.132	3185.85
450.506	3204.38
450.88	3230.82
451.254	3226.53
451.628	3309.24
452.002	3310.59
452.376	3368.67
452.75	3384.71
453.123	3428.33
453.497	3437.59
453.871	3516.46
454.244	3574.99
454.618	3610.92
454.992	3635.1
455.365	3627.64
455.739	3771.82
456.112	3783.8
456.486	3810.69
456.859	3844.14
457.232	3952.38
457.606	3914.87
457.979	3964.81
458.352	4060.85
458.725	4076.45
459.099	4136.33
459.472	4210
459.845	4262.88
460.218	4290.68
460.591	4325.03
460.964	4369.09
461.337	4449.32
461.71	4565.93
462.083	4603.89
462.456	4631.01
462.829	4606.6
463.201	4694.28
463.574	4734.96
463.947	4836.88
464.32	4897.44
464.692	4902.41
465.065	5001.85
465.438	5077.32
465.81	5106.02
466.183	5160.49
466.555	5318.22
466.928	5332.46
467.3	5328.84
467.672	5424.89
468.045	5595.5
468.417	5565.67
468.789	5607.25
469.161	5674.37
469.534	5787.36
469.906	5905.78
470.278	5921.37
470.65	6026.9
471.022	6100.12
471.394	6267.8
471.766	6302.6
472.138	6339.89
472.51	6528.36
472.882	6599.77
473.253	6784.4
473.625	6771.74
473.997	6966.31
474.369	6998.18
474.74	7046.99
475.112	7268
475.484	7355.91
475.855	7433.87
476.227	7538.73
476.598	7721.32
476.97	7770.36
477.341	7968.77
477.713	8126.96
478.084	8131.03
478.455	8353.85
478.827	8406.5
479.198	8739.6
479.569	8642.2
479.94	8938.01
480.311	9011.91
480.682	9214.39
481.053	9457.1
481.424	9559.24
481.795	9645.11
482.166	9789.06
482.537	9952.22
482.908	10182.27
483.279	10237.19
483.65	10413.91
484.021	10605.77
484.391	10824.07
484.762	10867.68
485.133	11024.96
485.503	11153.32
485.874	11360.32
486.244	11519.19
486.615	11680.09
486.985	11898.61
487.356	12048.67
487.726	12191.71
488.097	12470.12
488.467	12519.16
488.837	12760.29
489.207	12870.79
489.578	13054.97
489.948	13178.35
490.318	13372.47
490.688	13419.48
491.058	13698.79
491.428	13906.7
491.798	13914.38
492.168	14249.06
492.538	14330.19
492.908	14483.63
493.278	14642.5
493.648	14644.3
494.017	14866.45
494.387	15049.27
494.757	15193.44
495.126	15320.67
495.496	15473.21
495.866	15559.76
496.235	15658.06
496.605	15868.45
496.974	15930.37
497.344	16100.09
497.713	16196.81
498.082	16348.89
498.452	16514.76
498.821	16607.19
499.19	16671.37
499.559	16756.11
499.928	16954.98
500.298	17133.73
500.667	17301.64
501.036	17275.65
501.405	17409.88
501.774	17503.21
502.143	17653.26
502.512	17829.53
502.88	17951.56
503.249	17982.75
503.618	18099.35
503.987	18230.2
504.356	18349.52
504.724	18474.71
505.093	18660.24
505.462	18642.17
505.83	18749.06
506.199	19025.43
506.567	19295.48
506.936	19227.01
507.304	19508.81
507.672	19488.7
508.041	19557.62
508.409	19826.31
508.777	19938.4
509.145	20102.24
509.514	20145.4
509.882	20257.94
510.25	20428.11
510.618	20521.21
510.986	20655.67
511.354	20822.9
511.722	21043.46
512.09	21224.02
512.458	21176.56
512.826	21449.1
513.193	21586.49
513.561	21666.49
513.929	21762.08
514.297	22071.68
514.664	22208.4
515.032	22289.75
515.4	22480.03
515.767	22599.35
516.135	22803.19
516.502	22739.01
516.869	23168.15
517.237	23212.89
517.604	23197.98
517.972	23517.07
518.339	23669.83
518.706	23777.17
519.073	23959.54
519.44	24042.93
519.808	24330.83
520.175	24345.74
520.542	24715.9
520.909	24784.6
521.276	24876.13
521.643	24976.91
522.009	25371.71
522.376	25619.83
522.743	25689.21
523.11	26088.52
523.477	26253.04
523.843	26341.85
524.21	26636.08
524.577	26766.25
524.943	27040.81
525.31	27195.39
525.676	27422.27
526.043	27614.13
526.409	27613.23
526.776	28031.07
527.142	28068.81
527.508	28249.37
527.874	28433.55
528.241	28599.64
528.607	28838.51
528.973	28992.63
529.339	28990.59
529.705	29245.5
530.071	29497.02
530.437	29771.59
530.803	29918.7
531.169	30100.85
531.535	30118.93
531.901	30287.06
532.267	30474.85
532.632	30666.48
532.998	30677.33
533.364	30995.96
533.73	31113.93
534.095	31254.94
534.461	31318.22
534.826	31553.92
535.192	31656.51
535.557	31844.76
535.923	31816.73
536.288	31969.95
536.653	32158.42
537.019	32096.27
537.384	32308.7
537.749	32508.69
538.114	32616.94
538.479	32729.03
538.845	32850.38
539.21	32850.61
539.575	33172.63
539.94	32988.91
540.305	33314.1
540.67	33318.16
541.034	33442
541.399	33637.93
541.764	33626.63
542.129	33850.8
542.494	33982.33
542.858	34145.71
543.223	34249.21
543.587	34361.07
543.952	34370.79
544.316	34671.8
544.681	34575.31
545.045	34853.49
545.41	34916.77
545.774	35116.31
546.138	35009.64
546.503	35295.74
546.867	35216.19
547.231	35582.74
547.595	35513.36
547.959	35737.08
548.324	35714.48
548.688	35818.66
549.052	35967.13
549.416	36147.47
549.779	36257.3
550.143	36294.81
550.507	36587
550.871	36599.43
551.235	36613.9
551.599	36818.41
551.962	36883.49
552.326	37192.64
552.689	37443.48
553.053	37310.6
553.417	37286.19
553.78	37786.07
554.143	37643.02
554.507	38003.24
554.87	38007.08
555.234	38238.49
555.597	38111.26
555.96	38384.7
556.323	38551.47
556.686	38560.96
557.05	38847.28
557.413	38989.2
557.776	39197.33
558.139	39233.26
558.502	39470.32
558.865	39410.88
559.228	39824.89
559.59	39941.49
559.953	40066.01
560.316	40483.17
560.679	40563.85
561.041	40694.01
561.404	40772.2
561.767	40939.88
562.129	40996.61
562.492	41310.27
562.854	41409.93
563.217	41472.53
563.579	41601.56
563.941	41847.2
564.304	41942.57
564.666	42237.48
565.028	42429.34
565.39	42484.48
565.753	42836.33
566.115	42964.24
566.477	43082.88
566.839	43115.87
567.201	43465.92
567.563	43460.27
567.925	43869.3
568.287	43676.76
568.648	43796.31
569.01	44088.05
569.372	44331.21
569.734	44330.08
570.095	44678.77
570.457	44717.64
570.819	44803.29
571.18	44885.99
571.542	45030.85
571.903	45153.78
572.265	45323.05
572.626	45348.81
572.987	45530.95
573.349	45647.1
573.71	45763.71
574.071	45910.83
574.432	45913.76
574.794	46257.94
575.155	46071.95
575.516	46068.79
575.877	46199.41
576.238	46363.24
576.599	46450.02
576.96	46413.19
577.32	46631.94
577.681	46814.98
578.042	46897.24
578.403	46800.52
578.763	46882.78
579.124	47047.07
579.485	47041.42
579.845	47236.89
580.206	47234.41
580.566	47053.4
580.927	47151.02
581.287	47442.76
581.648	47159.83
582.008	47403.67
582.368	47274.18
582.728	47404.57
583.089	47350.79
583.449	47287.29
583.809	47407.74
584.169	47334.07
584.529	47320.06
584.889	47715.75
585.249	47539.26
585.609	47355.76
585.969	47543.55
586.329	47454.06
586.688	47418.36
587.048	47444.35
587.408	47365.03
587.768	47514.4
588.127	47461.52
588.487	47361.18
588.846	47725.24
589.206	47355.99
589.565	47438.92
589.925	47667.39
590.284	47483.44
590.643	47579.94
591.003	47655.64
591.362	47733.38
591.721	47639.82
592.08	47599.6
592.44	47865.58
592.799	47715.98
593.158	47530.45
593.517	47603.21
593.876	47766.82
594.235	47625.13
594.593	47925.24
594.952	47749.87
595.311	47628.52
595.67	47689.31
596.029	47876.2
596.387	47888.63
596.746	47956.42
597.104	47819.48
597.463	47904.67
597.822	48011.34
598.18	47829.19
598.538	47794.84
598.897	48048.85
599.255	47748.29
599.613	48330.65
599.972	47935.86
600.33	48026.03
600.688	48050.43
601.046	48216.53
601.404	48288.17
601.762	48147.6
602.12	48475.73
602.478	48449.97
602.836	48521.38
603.194	48315.74
603.552	48278.45
603.91	48324.77
604.268	48424.21
604.625	48369.75
604.983	48615.39
605.341	48239.81
605.698	48504.2
606.056	48495.17
606.413	48528.84
606.771	48677.99
607.128	48689.74
607.485	48505.56
607.843	48660.81
608.2	48761.83
608.557	48842.05
608.914	48804.99
609.272	48953.23
609.629	48991.65
609.986	49050.63
610.343	48941.48
610.7	49227.12
611.057	49211.3
611.414	49128.37
611.771	49219.44
612.127	49317.52
612.484	49300.79
612.841	49393.45
613.198	49220.34
613.554	49321.81
613.911	49665.53
614.267	49549.6
614.624	49384.18
614.98	49637.73
615.337	49714.57
615.693	49654.23
616.05	49573.56
616.406	49816.26
616.762	49665.98
617.118	49645.87
617.475	49623.05
617.831	49740.78
618.187	49772.19
618.543	49828.24
618.899	50043.15
619.255	49945.07
619.611	49876.6
619.967	50088.57
620.323	50030.49
620.678	49864.4
621.034	49939.42
621.39	49951.85
621.746	49810.61
622.101	50288.11
622.457	49873.89
622.812	49903.04
623.168	50056.03
623.523	50071.17
623.879	50163.6
624.234	49957.5
624.589	50047.44
624.945	50120.66
625.3	50208.11
625.655	50135.35
626.01	50167.44
626.365	50070.04
626.72	50075.91
627.075	50006.99
627.43	50035.69
627.785	49823.94
628.14	49863.49
628.495	49892.42
628.85	49966.54
629.205	49853.55
629.559	49976.93
629.914	49827.56
630.269	49903.49
630.623	49766.54
630.978	49719.09
631.332	49891.29
631.687	49893.55
632.041	49660.56
632.396	49794.57
632.75	49605.42
633.104	49728.13
633.459	49506.66
633.813	49508.47
634.167	49522.48
634.521	49563.61
634.875	49503.27
635.229	49463.5
635.583	49275.71
635.937	49252.21
636.291	49135.83
636.645	49233.23
636.999	48977.64
637.352	49180.12
637.706	48814.71
638.06	49137.41
638.413	48899.67
638.767	48903.52
639.121	48962.72
639.474	48833.46
639.828	48772.67
640.181	48822.16
640.534	48822.39
640.888	48600.02
641.241	48546.01
641.594	48630.76
641.947	48657.65
642.301	48387.37
642.654	48566.58
643.007	48484.32
643.36	48396.86
643.713	48364.1
644.066	48434.83
644.419	48210.65
644.771	48033.71
645.124	47673.72
645.477	47611.8
645.83	47315.08
646.182	47095.43
646.535	46952.16
646.888	47065.15
647.24	46789
647.593	47093.17
647.945	46835.77
648.298	46769.11
648.65	46676.23
649.002	46508.1
649.355	46709.68
649.707	46638.04
650.059	46719.62
650.411	47261.07
650.763	47221.53
651.115	47801.17
651.467	47494.29
651.819	47517.11
652.171	47414.29
652.523	47295.88
652.875	47272.82
653.227	47128.65
653.578	47376.78
653.93	47177.69
654.282	47100.85
654.633	47036.45
654.985	47050.46
655.337	47064.47
655.688	47061.98
656.039	47201.87
656.391	46922.78
656.742	46854.76
657.094	46957.13
657.445	46940.4
657.796	46932.04
658.147	46802.33
658.498	46749.9
658.849	46870.58
659.2	46664.48
659.551	46575.44
659.902	46807.75
660.253	46739.51
660.604	46727.08
660.955	46553.75
661.306	46649.56
661.656	46591.03
662.007	46575.22
662.358	46572.28
662.708	46595.1
663.059	46371.38
663.409	46335.22
663.76	46573.63
664.11	46450.02
664.461	46539.96
664.811	46463.58
665.161	46363.92
665.511	46336.35
665.862	46417.48
666.212	46432.39
666.562	46385.62
666.912	46337.71
667.262	46272.63
667.612	46150.14
667.962	46336.35
668.312	45990.82
668.662	46439.85
669.011	46223.36
669.361	46200.76
669.711	46191.95
670.06	46015.91
670.41	46127.54
670.76	46011.39
671.109	45964.61
671.459	46078.05
671.808	45994.21
672.157	45998.28
672.507	45823.6
672.856	45724.16
673.205	45828.12
673.554	45993.76
673.904	45747.67
674.253	45930.94
674.602	45745.41
674.951	45155.14
675.3	45138.64
675.649	45765.52
675.998	45632.87
676.346	45621.34
676.695	45588.35
677.044	45409.6
677.393	45545.64
677.741	45499.31
678.09	45384.51
678.438	45318.75
678.787	45235.14
679.135	45220.22
679.484	45015.71
679.832	45210.28
680.181	44927.58
680.529	45182.71
680.877	44827.47
681.225	44878.99
681.573	45213.22
681.922	44761.48
682.27	44670.63
682.618	44771.65
682.966	44623.4
683.314	44762.83
683.661	44543.41
684.009	44397.87
684.357	44379.34
684.705	44239.68
685.053	44444.2
685.4	44084.21
685.748	44136.86
686.095	44134.38
686.443	43923.99
686.79	43843.54
687.138	43806.48
687.485	43902.07
687.832	43588.18
688.18	43583.2
688.527	43496.65
688.874	43439.48
689.221	43382.98
689.568	43259.82
689.915	43197.45
690.262	43013.95
690.609	42898.02
690.956	42877.46
691.303	42854.41
691.65	42638.37
691.997	42682.44
692.344	42421.88
692.69	42370.13
693.037	42410.58
693.383	42154.09
693.73	42256.23
694.077	41976.01
694.423	41914.32
694.769	41807.43
695.116	41694.44
695.462	41749.81
695.808	41570.83
696.155	41670.71
696.501	41415.35
696.847	41289.71
697.193	41019.43
697.539	41114.57
697.885	40816.72
698.231	40797.29
698.577	40847.68
698.923	40717.52
699.269	40385.1
699.614	40150.98
699.96	40232.11
700.306	40187.59
700.651	40106.69
700.997	39880.7
701.342	39960.93
701.688	39859.91
702.033	39545.34
702.379	39671.67
702.724	39521.62
703.069	39579.02
703.415	38897.23
703.76	39118.24
704.105	39115.75
704.45	39052.93
704.795	38723.9
705.14	38685.25
705.485	38720.06
705.83	38612.04
706.175	38716.44
706.52	38452.04
706.865	38233.51
707.209	38447.07
707.554	38186.51
707.899	38188.32
708.243	37873.75
708.588	38036.23
708.932	37775.9
709.277	37697.03
709.621	37715.56
709.966	37487.77
710.31	37462.24
710.654	37179.76
710.998	37193.32
711.342	37295.91
711.687	37100.89
712.031	36979.99
712.375	36764.4
712.719	36862.48
713.063	36721.01
713.407	36928.01
713.75	36653.44
714.094	36538.19
714.438	36482.83
714.782	36488.48
715.125	36340.91
715.469	36389.5
715.812	36083.29
716.156	35869.96
716.499	36053.01
716.843	36023.4
717.186	35737.08
717.53	35982.05
717.873	35855.05
718.216	36055.27
718.559	35688.27
718.902	35417.77
719.246	35617.76
719.589	35357.21
719.932	35255.06
720.275	35316.76
720.617	35330.54
720.96	35171.45
721.303	35107.49
721.646	35065.01
721.989	34922.42
722.331	34915.18
722.674	35025.69
723.016	34834.51
723.359	34805.13
723.701	34764.23
724.044	34489.21
724.386	34363.11
724.729	34563.55
725.071	34452.82
725.413	34244.24
725.755	34322.66
726.097	34101.65
726.439	34036.34
726.782	34031.59
727.124	34188.2
727.465	33976.45
727.807	33948.88
728.149	33796.12
728.491	33661.88
728.833	33703.01
729.175	33576.24
729.516	33449.91
729.858	33606.07
730.199	33588.66
730.541	33512.06
730.882	33440.65
731.224	33461.44
731.565	33220.76
731.906	33298.05
732.248	33239.75
732.589	33175.34
732.93	33058.06
733.271	33038.62
733.612	32958.62
733.953	32981.68
734.294	32996.14
734.635	32858.06
734.976	32926.76
735.317	32642.7
735.658	32611.74
735.999	32776.03
736.339	32571.74
736.68	32527.68
737.021	32544.17
737.361	32368.13
737.702	32470.28
738.042	32364.06
738.383	32317.74
738.723	32447.68
739.063	32044.07
739.404	32158.87
739.744	32059.44
740.084	32041.81
740.424	32099.44
740.764	32037.07
741.104	31979.89
741.444	31728.37
741.784	31751.88
742.124	31885.88
742.464	31780.58
742.804	31738.77
743.143	31634.82
743.483	31522.05
743.823	31426.46
744.162	31407.48
744.502	31453.13
744.841	31219.24
745.181	31270.08
745.52	31142.4
745.86	31178.11
746.199	31052.69
746.538	30989.41
746.877	31094.95
747.216	31037.77
747.556	30974.5
747.895	30841.39
748.234	30680.04
748.573	30646.37
748.911	30763.88
749.25	30622.42
749.589	30369.77
749.928	30500.16
750.267	30554.62
750.605	30391.69
750.944	30346.72
751.283	30253.16
751.621	30313.72
751.96	30112.82
752.298	30021.53
752.636	30049.32
752.975	29907.18
753.313	29785.83
753.651	29992.38
753.989	29749.44
754.327	29647.07
754.666	29631.25
755.004	29593.29
755.342	29444.59
755.679	29386.06
756.017	29237.14
756.355	29371.15
756.693	29208.44
757.031	29332.51
757.368	29060.65
757.706	29107.43
758.044	28808.9
758.381	28882.12
758.719	28796.93
759.056	28803.03
759.394	28604.16
759.731	28512.87
760.068	28464.73
760.405	28310.16
760.743	28234.91
761.08	28330.5
761.417	28065.19
761.754	28172.76
762.091	27968.47
762.428	27911.3
762.765	27657.07
763.102	27762.6
763.438	27629.05
763.775	27441.71
764.112	27415.27
764.449	27536.39
764.785	27258.44
765.122	27095.05
765.458	27054.83
765.795	27021.15
766.131	26969.63
766.467	26908.61
766.804	26689.41
767.14	26639.47
767.476	26572.13
767.812	26455.52
768.148	26416.88
768.485	26290.78
768.821	26175.07
769.157	26166.26
769.492	25982.54
769.828	26032.48
770.164	25805.82
770.5	25744.13
770.836	25609.44
771.171	25467.07
771.507	25446.73
771.842	25292.84
772.178	25410.12
772.513	25150.69
772.849	25208.55
773.184	25019.4
773.519	25145.72
773.855	24876.35
774.19	24780.31
774.525	24598.84
774.86	24628.22
775.195	24570.37
775.53	24511.62
775.865	24356.59
776.2	24258.06
776.535	24101.23
776.87	24034.57
777.205	24024.85
777.539	23908.24
777.874	23925.87
778.209	23720.9
778.543	23755.48
778.878	23583.96
779.212	23393.45
779.547	23285.66
779.881	23267.13
780.215	23196.4
780.55	23250.63
780.884	23023.97
781.218	22955.27
781.552	22923.18
781.886	22806.12
782.22	22672.34
782.554	22553.25
782.888	22350.54
783.222	22400.26
783.556	22176.54
783.889	22136.76
784.223	22035.75
784.557	21981.29
784.89	22097.44
785.224	21843.66
785.557	21784
785.891	21734.97
786.224	21691.35
786.558	21638.47
786.891	21443.22
787.224	21399.61
787.557	21348.99
787.891	21281.42
788.224	21177.24
788.557	21287.29
788.89	21112.83
789.223	21024.48
789.556	20927.75
789.888	20818.61
790.221	20755.56
790.554	20728.44
790.887	20650.47
791.219	20493.42
791.552	20561.89
791.884	20426.07
792.217	20349.24
792.549	20270.14
792.882	20132.07
793.214	20093.88
793.546	20119.64
793.879	19963.71
794.211	19761.01
794.543	19967.55
794.875	19755.58
795.207	19818.18
795.539	19586.77
795.871	19651.63
796.203	19496.38
796.535	19431.75
796.867	19331.19
797.198	19325.09
797.53	19277.63
797.862	19228.82
798.193	19257.74
798.525	19118.99
798.856	19098.88
799.188	18933.91
799.519	18883.06
799.85	18769.39
800.182	18708.38
800.513	18764.65
800.844	18548.61
801.175	18647.81
801.506	18618.89
801.837	18496.41
802.168	18488.27
802.499	18360.82
802.83	18314.72
803.161	18231.78
803.491	18168.05
803.822	18180.26
804.153	18113.37
804.483	17936.65
804.814	17921.73
805.145	17936.87
805.475	17882.41
805.805	17804.67
806.136	17810.32
806.466	17708.18
806.796	17774.84
807.126	17579.14
807.457	17556.09
807.787	17541.18
808.117	17556.32
808.447	17424.57
808.777	17476.32
809.107	17324.01
809.436	17213.5
809.766	17168.76
810.096	17064.81
810.426	17064.58
810.755	17267.96
811.085	17075.43
811.414	17007.86
811.744	16808.09
812.073	16826.62
812.403	16877.01
812.732	16793.63
813.061	16787.75
813.39	16653.52
813.719	16641.54
814.049	16727.64
814.378	16580.52
814.707	16563.8
815.036	16470.47
815.365	16445.84
815.693	16382.79
816.022	16280.87
816.351	16211.04
816.68	16098.96
817.008	16197.26
817.337	16061.67
817.665	16063.02
817.994	16006.98
818.322	16060.76
818.651	15941.9
818.979	15907.1
819.307	15988.9
819.636	15861
819.964	15752.75
820.292	15820.09
820.62	15748.91
820.948	15703.26
821.276	15816.48
821.604	15787.33
821.932	15762.24
822.259	15781.22
822.587	15750.49
822.915	15633.66
823.243	15748.46
823.57	15680.66
823.898	15651.51
824.225	15677.72
824.553	15684.73
824.88	15613.32
825.207	15641.11
825.535	15603.15
825.862	15644.73
826.189	15651.06
826.516	15567.9
826.843	15735.57
827.17	15563.6
827.497	15704.62
827.824	15629.82
828.151	15640.89
828.478	15646.99
828.805	15767.21
829.131	15530.61
829.458	15484.73
829.785	15498.97
830.111	15571.29
830.438	15625.07
830.764	15514.34
831.09	15575.81
831.417	15479.99
831.743	15627.1
832.069	15516.15
832.395	15493.32
832.722	15533.32
833.048	15455.58
833.374	15469.37
833.7	15370.39
834.026	15456.71
834.351	15489.48
834.677	15414.45
835.003	15369.03
835.329	15415.13
835.654	15432.08
835.98	15242.48
836.306	15348.69
836.631	15264.63
836.956	15274.34
837.282	15293.55
837.607	15192.99
837.932	15176.04
838.258	15170.62
838.583	15120.45
838.908	15057.85
839.233	15076.61
839.558	15111.64
839.883	15052.43
840.208	14880.46
840.533	14930.62
840.858	14890.17
841.182	14933.56
841.507	14879.78
841.832	14782.61
842.156	14856.5
842.481	14773.57
842.805	14710.52
843.13	14685.66
843.454	14692.44
843.778	14660.57
844.103	14586.45
844.427	14560.92
844.751	14538.09
845.075	14468.04
845.399	14475.04
845.723	14415.16
846.047	14354.59
846.371	14200.25
846.695	14251.55
847.019	14162.28
847.343	14083.64
847.666	14035.96
847.99	13948.05
848.313	14030.08
848.637	13884.55
848.96	13870.77
849.284	13870.09
849.607	13729.3
849.931	13665.35
850.254	13603.2
850.577	13493.15
850.9	13401.4
851.223	13450.21
851.546	13279.14
851.869	13306.26
852.192	13309.42
852.515	13124.12
852.838	13134.97
853.161	13119.15
853.483	13053.16
853.806	12990.34
854.129	12963.9
854.451	12974.97
854.774	12845.71
855.096	12888.19
855.419	12836.89
855.741	12810.91
856.063	12748.99
856.385	12618.37
856.708	12631.7
857.03	12609.56
857.352	12609.1
857.674	12519.16
857.996	12491.37
858.318	12364.59
858.64	12447.3
858.961	12367.75
859.283	12378.6
859.605	12313.74
859.926	12349.9
860.248	12273.97
860.57	12182.22
860.891	12199.4
861.212	12033.75
861.534	12068.78
861.855	12085.5
862.176	12091.6
862.498	12076.69
862.819	11921.89
863.14	11912.85
863.461	11916.24
863.782	11862
864.103	11928.9
864.424	12017.48
864.745	11893.42
865.065	11832.17
865.386	11761.44
865.707	11833.76
866.027	11720.99
866.348	11689.13
866.668	11722.8
866.989	11731.39
867.309	11557.38
867.63	11615.46
867.95	11577.04
868.27	11489.13
868.59	11591.96
868.91	11483.03
869.23	11509.7
869.55	11516.7
869.87	11466.31
870.19	11502.69
870.51	11463.14
870.83	11377.95
871.15	11354.45
871.469	11380.89
871.789	11406.88
872.109	11402.13
872.428	11265.41
872.748	11237.16
873.067	11272.87
873.386	11223.15
873.706	11212.53
874.025	11175.24
874.344	11065.64
874.663	11224.28
874.982	11119.43
875.301	11111.52
875.62	11125.53
875.939	11059.99
876.258	11053.89
876.577	10952.65
876.896	11028.81
877.214	10991.52
877.533	11004.63
877.852	10963.5
878.17	10929.37
878.489	10955.59
878.807	10984.06
879.125	10930.5
879.444	10930.05
879.762	10837.85
880.08	10838.53
880.398	10754.69
880.716	10867.68
881.034	10807.79
881.352	10746.55
881.67	10670.4
881.988	10751.98
882.306	10703.16
882.624	10669.27
882.941	10652.54
883.259	10650.74
883.577	10593.79
883.894	10590.4
884.212	10542.94
884.529	10596.73
884.846	10491.19
885.164	10507.92
885.481	10475.83
885.798	10419.33
886.115	10380.91
886.432	10408.94
886.75	10363.74
887.067	10351.08
887.383	10285.77
887.7	10330.97
888.017	10182.73
888.334	10315.15
888.651	10287.81
888.967	10278.32
889.284	10123.07
889.6	10176.63
889.917	10092.79
890.233	10145.67
890.55	10075.61
890.866	10062.73
891.182	10047.36
891.498	9921.26
891.815	9942.96
892.131	9994.03
892.447	9850.76
892.763	9899.8
893.079	9813.92
893.395	9803.08
893.71	9736.64
894.026	9739.8
894.342	9742.29
894.657	9619.8
894.973	9687.6
895.289	9676.53
895.604	9636.07
895.92	9538.9
896.235	9504.78
896.55	9442.86
896.865	9475.63
897.181	9413.48
897.496	9386.59
897.811	9380.71
898.126	9283.09
898.441	9320.15
898.756	9211.9
899.071	9241.73
899.386	9195.18
899.7	9155.18
900.015	9124.9
900.33	9058.91
900.644	9045.13
900.959	9019.82
901.273	9005.13
901.588	8941.4
901.902	8924.68
902.216	8861.86
902.531	8875.19
902.845	8816.89
903.159	8801.07
903.473	8759.26
903.787	8764.01
904.101	8714.29
904.415	8652.15
904.729	8598.14
905.042	8596.1
905.356	8613.05
905.67	8524.24
905.984	8483.11
906.297	8478.59
906.611	8445.15
906.924	8465.94
907.237	8357.46
907.551	8314.53
907.864	8250.35
908.177	8312.49
908.491	8274.3
908.804	8171.71
909.117	8184.59
909.43	8169.9
909.743	8087.19
910.056	8106.17
910.368	8038.83
910.681	7968.55
910.994	7992.05
911.307	7892.62
911.619	7809.46
911.932	7901.43
912.244	7832.28
912.557	7812.85
912.869	7729.91
913.181	7749.57
913.494	7732.17
913.806	7696.46
914.118	7704.15
914.43	7637.26
914.742	7553.19
915.054	7505.51
915.366	7537.82
915.678	7547.32
915.99	7445.17
916.302	7417.15
916.613	7392.74
916.925	7425.96
917.236	7430.26
917.548	7310.71
917.859	7317.94
918.171	7269.13
918.482	7246.76
918.794	7151.17
919.105	7182.35
919.416	7102.81
919.727	7072.98
920.038	7057.39
920.349	7061.23
920.66	6960.66
920.971	6946.43
921.282	6954.79
921.593	6942.13
921.903	6861.01
922.214	6827.33
922.525	6792.53
922.835	6785.98
923.146	6746.88
923.456	6728.35
923.767	6738.52
924.077	6685.42
924.387	6672.08
924.697	6624.85
925.008	6616.49
925.318	6585.31
925.628	6542.14
925.938	6564.29
926.248	6447.01
926.558	6433.67
926.867	6408.59
927.177	6370.4
927.487	6343.51
927.796	6315.94
928.106	6316.39
928.416	6256.05
928.725	6341.02
929.034	6228.48
929.344	6226.67
929.653	6218.09
929.962	6131.31
930.271	6164.3
930.581	6094.25
930.89	6115.49
931.199	6078.65
931.508	5982.39
931.817	5989.16
932.125	5961.37
932.434	5974.02
932.743	5887.92
933.051	5850.19
933.36	5857.87
933.669	5843.18
933.977	5815.16
934.286	5752.33
934.594	5800.47
934.902	5708.04
935.21	5688.16
935.519	5708.04
935.827	5660.13
936.135	5612.9
936.443	5583.07
936.751	5590.76
937.059	5556.41
937.367	5517.09
937.674	5564.09
937.982	5540.36
938.29	5448.16
938.597	5517.76
938.905	5425.56
939.213	5396.19
939.52	5377.43
939.827	5349.41
940.135	5337.2
940.442	5321.84
940.749	5294.95
941.056	5298.11
941.363	5180.15
941.67	5221.05
941.977	5220.6
942.284	5178.34
942.591	5158.23
942.898	5155.29
943.205	5119.58
943.511	5067.61
943.818	5105.8
944.125	5024.9
944.431	5013.6
944.738	4961.85
945.044	4938.8
945.35	4979.93
945.657	4967.95
945.963	4937.67
946.269	4843.43
946.575	4911.23
946.881	4838.91
947.187	4824.22
947.493	4842.53
947.799	4802.76
948.105	4776.99
948.41	4701.51
948.716	4737.67
949.022	4718.01
949.327	4730.67
949.633	4664
949.938	4685.92
950.244	4642.76
950.549	4588.98
950.854	4582.65
951.16	4573.61
951.465	4513.5
951.77	4560.05
952.075	4504.01
952.38	4509.88
952.685	4427.17
952.99	4461.75
953.294	4458.36
953.599	4417.23
953.904	4371.58
954.209	4322.54
954.513	4364.57
954.818	4346.72
955.122	4321.64
955.426	4285.48
955.731	4284.8
956.035	4217.46
956.339	4226.73
956.643	4226.73
956.948	4179.49
957.252	4142.66
957.556	4132.04
957.86	4131.36
958.163	4142.66
958.467	4104.24
958.771	4088.88
959.075	4073.51
959.378	4044.58
959.682	4025.83
959.985	3996.22
960.289	3966.84
960.592	3939.5
960.896	3901.08
961.199	3920.52
961.502	3921.2
961.805	3897.24
962.108	3899.05
962.411	3862.44
962.714	3856.79
963.017	3829.9
963.32	3810.24
963.623	3772.5
963.926	3810.01
964.228	3790.8
964.531	3732.95
964.833	3707.42
965.136	3698.6
965.438	3712.84
965.741	3676.23
966.043	3662.22
966.345	3658.38
966.648	3646.85
966.95	3637.81
967.252	3581.32
967.554	3638.94
967.856	3586.97
968.158	3525.95
968.46	3538.61
968.761	3518.72
969.063	3497.7
969.365	3475.33
969.666	3519.85
969.968	3463.13
970.269	3452.28
970.571	3443.47
970.872	3414.99
971.174	3441.43
971.475	3386.52
971.776	3391.49
972.077	3365.5
972.378	3371.61
972.679	3341.1
972.98	3331.16
973.281	3330.48
973.582	3296.13
973.883	3244.83
974.183	3220.88
974.484	3245.73
974.785	3248.9
975.085	3209.8
975.386	3245.06
975.686	3215.9
975.986	3186.75
976.287	3183.81
976.587	3134.55
976.887	3148.79
977.187	3146.53
977.487	3108.79
977.787	3071.05
978.087	3071.95
978.387	3092.29
978.687	3078.28
978.987	3071.5
979.286	3016.14
979.586	3000.99
979.885	3007.32
980.185	2989.02
980.484	3020.43
980.784	2937.95
981.083	2950.6
981.382	2937.72
981.682	2953.31
981.981	2901.79
982.28	2863.6
982.579	2864.5
982.878	2883.71
983.177	2882.13
983.475	2881.22
983.774	2849.81
984.073	2807.55
984.372	2793.99
984.67	2810.27
984.969	2759.87
985.267	2769.59
985.566	2744.28
985.864	2749.02
986.162	2774.56
986.461	2746.09
986.759	2680.55
987.057	2721.23
987.355	2688.01
987.653	2664.73
987.951	2626.32
988.249	2666.99
988.547	2634
988.844	2613.66
989.142	2625.64
989.44	2594.68
989.737	2568.92
990.035	2589.25
990.332	2588.8
990.63	2549.93
990.927	2544.96
991.224	2529.37
991.521	2549.71
991.819	2510.16
992.116	2505.19
992.413	2492.08
992.71	2456.83
993.006	2474
993.303	2454.79
993.6	2456.83
993.897	2458.86
994.193	2430.16
994.49	2390.84
994.787	2396.94
995.083	2356.49
995.379	2355.14
995.676	2342.71
995.972	2304.52
996.268	2340.22
996.565	2354.46
996.861	2290.5
997.157	2307.68
997.453	2273.33
997.749	2267.23
998.044	2254.12
998.34	2258.87
998.636	2234.24
998.932	2195.37
999.227	2193.78
999.523	2193.33
999.818	2178.64
1000.114	2163.95
1000.409	2161.92
1000.704	2165.08
1001	2144.07
1001.295	2137.29
1001.59	2116.95
1001.885	2135.48
1002.18	2109.72
1002.475	2071.3
1002.77	2060.45
1003.065	2064.97
1003.359	2065.88
1003.654	2075.37
1003.949	2031.3
1004.243	2030.4
1004.538	2026.33
1004.832	1997.63
1005.127	1991.76
1005.421	1935.26
1005.715	1964.64
1006.009	1962.6
1006.304	1960.12
1006.598	1934.36
1006.892	1947.69
1007.186	1921.25
1007.48	1944.75
1007.773	1876.28
1008.067	1903.4
1008.361	1876.5
1008.655	1850.74
1008.948	1866.56
1009.242	1833.57
1009.535	1831.31
1009.829	1821.36
1010.122	1796.51
1010.415	1793.12
1010.708	1767.35
1011.001	1779.56
1011.295	1741.59
1011.588	1740.69
1011.881	1737.52
1012.173	1725.55
1012.466	1705.44
1012.759	1699.79
1013.052	1721.48
1013.344	1688.94
1013.637	1695.72
1013.93	1673.57
1014.222	1654.14
1014.514	1652.1
1014.807	1651.43
1015.099	1613.69
1015.391	1635.83
1015.683	1596.74
1015.976	1594.48
1016.268	1617.53
1016.56	1581.82
1016.851	1587.47
1017.143	1588.38
1017.435	1577.98
1017.727	1550.19
1018.018	1531.65
1018.31	1531.2
1018.602	1515.16
1018.893	1515.38
1019.185	1507.02
1019.476	1494.59
1019.767	1465.44
1020.058	1477.87
1020.35	1471.54
1020.641	1451.66
1020.932	1430.19
1021.223	1440.36
1021.514	1416.63
1021.804	1409.17
1022.095	1423.18
1022.386	1387.7
1022.677	1380.47
1022.967	1374.37
1023.258	1333.92
1023.548	1339.8
1023.839	1331.21
1024.129	1338.44
1024.419	1319.91
1024.709	1326.69
1025	1299.12
1025.29	1288.95
1025.58	1273.36
1025.87	1285.11
1026.16	1277.88
1026.449	1300.02
1026.739	1236.52
1027.029	1235.39
1027.319	1228.16
1027.608	1208.5
1027.898	1236.3
1028.187	1196.52
1028.477	1216.18
1028.766	1200.82
1029.055	1207.82
1029.344	1211.21
1029.634	1191.78
1029.923	1178.22
1030.212	1174.83
1030.501	1158.33
1030.79	1142.51
1031.078	1126.24
1031.367	1111.78
1031.656	1136.41
1031.945	1133.02
1032.233	1115.39
1032.522	1109.29
1032.81	1100.03
1033.099	1102.06
1033.387	1092.34
1033.675	1060.71
1033.963	1077.43
1034.251	1051.67
1034.54	1072.01
1034.828	1047.6
1035.116	1024.32
1035.403	1043.98
1035.691	1010.99
1035.979	1029.52
1036.267	1003.08
1036.554	1020.71
1036.842	1010.99
1037.129	982.06
1037.417	985.91
1037.704	992.01
1037.992	972.35
1038.279	978.45
1038.566	969.86
1038.853	969.86
1039.14	969.86
