Data from breadboard_black_back_FLMS001491_00096.txt Node
Date: Wed Feb 08 10:51:11 GMT 2017
User: dcchb
Spectrometer: FLMS00149
Trigger mode: 0
Integration Time (sec): 2.000000E-2
Scans to average: 10
Electric dark correction enabled: true
Nonlinearity correction enabled: false
Boxcar width: 0
XAxis mode: Wavelengths
Number of Pixels in Spectrum: 2048
>>>>>Begin Spectral Data<<<<<
341.393	-26.26
341.776	-26.26
342.16	-26.26
342.543	-78.23
342.927	-72.36
343.31	-60.61
343.693	-73.94
344.077	-65.35
344.46	-69.87
344.843	-72.13
345.226	-36.2
345.61	-37.78
345.993	-28.06
346.376	0.18
346.759	-0.04
347.142	16.91
347.525	50.58
347.908	62.78
348.291	92.16
348.674	105.49
349.057	115.89
349.44	97.81
349.823	136.45
350.206	157.69
350.588	176.9
350.971	208.99
351.354	222.78
351.737	233.85
352.119	243.12
352.502	276.11
352.884	272.94
353.267	286.73
353.65	275.2
354.032	299.38
354.414	308.2
354.797	309.55
355.179	341.64
355.562	316.33
355.944	317.24
356.326	321.08
356.709	319.95
357.091	331.25
357.473	348.88
357.855	317.24
358.238	338.48
358.62	325.82
359.002	329.21
359.384	352.94
359.766	343.23
360.148	333.73
360.53	334.86
360.912	341.87
361.294	314.53
361.676	331.7
362.057	338.71
362.439	343.45
362.821	324.47
363.203	322.89
363.584	337.12
363.966	336.9
364.348	323.34
364.729	307.29
365.111	338.25
365.493	315.2
365.874	341.19
366.256	317.01
366.637	312.94
367.019	323.34
367.4	329.44
367.781	308.42
368.163	307.29
368.544	314.3
368.925	320.18
369.306	348.65
369.688	333.96
370.069	321.08
370.45	330.12
370.831	345.49
371.212	356.33
371.593	338.25
371.974	350
372.355	333.06
372.736	327.86
373.117	321.08
373.498	338.25
373.879	331.93
374.26	316.56
374.641	349.55
375.021	322.44
375.402	347.52
375.783	333.51
376.163	346.84
376.544	333.96
376.925	339.38
377.305	346.84
377.686	360.63
378.066	367.86
378.447	386.16
378.827	364.92
379.208	365.6
379.588	370.8
379.968	378.48
380.349	374.86
380.729	358.37
381.109	383
381.489	361.76
381.87	387.29
382.25	382.09
382.63	372.15
383.01	391.59
383.39	375.77
383.77	393.62
384.15	376.44
384.53	408.76
384.91	405.14
385.29	414.18
385.67	395.2
386.049	418.7
386.429	409.66
386.809	407.86
387.189	410.34
387.568	416.9
387.948	424.13
388.328	411.02
388.707	418.48
389.087	421.19
389.466	418.25
389.846	429.1
390.225	437.69
390.605	453.51
390.984	441.3
391.363	456.44
391.743	426.84
392.122	431.13
392.501	464.13
392.881	488.31
393.26	478.14
393.639	498.93
394.018	473.84
394.397	469.78
394.776	466.16
395.155	480.62
395.534	460.51
395.913	498.7
396.292	474.75
396.671	488.08
397.05	503
397.429	507.97
397.808	504.13
398.186	499.83
398.565	504.35
398.944	505.93
399.323	532.15
399.701	510.23
400.08	531.24
400.458	550.45
400.837	527.63
401.215	562.88
401.594	533.95
401.972	539.83
402.351	528.98
402.729	556.33
403.107	571.69
403.486	556.1
403.864	560.85
404.242	546.16
404.62	561.07
404.999	573.28
405.377	593.84
405.755	581.64
406.133	568.98
406.511	594.07
406.889	603.11
407.267	624.35
407.645	614.18
408.023	618.02
408.401	632.03
408.779	623.67
409.156	627.74
409.534	641.07
409.912	656.66
410.29	679.94
410.667	672.71
411.045	688.75
411.422	684.23
411.8	672.26
412.178	700.28
412.555	666.61
412.933	728.75
413.31	708.19
413.687	722.2
414.065	713.61
414.442	752.03
414.819	742.99
415.197	759.71
415.574	770.56
415.951	759.26
416.328	765.81
416.705	768.07
417.082	792.93
417.46	804
417.837	806.94
418.214	816.43
418.591	804
418.967	815.53
419.344	825.92
419.721	830.22
420.098	815.08
420.475	844.68
420.852	847.62
421.228	835.87
421.605	888.97
421.982	893.72
422.358	891.23
422.735	916.32
423.111	914.06
423.488	920.84
423.864	933.94
424.241	942.98
424.617	947.73
424.994	948.18
425.37	955.41
425.746	964.45
426.123	988.63
426.499	973.27
426.875	1007.16
427.251	988.63
427.627	1028.41
428.003	1049.65
428.379	1046.48
428.756	1072.02
429.132	1039.93
429.507	1077.22
429.883	1060.95
430.259	1097.56
430.635	1108.18
431.011	1127.61
431.387	1151.34
431.763	1170.1
432.138	1162.19
432.514	1158.12
432.89	1187.72
433.265	1233.37
433.641	1231.11
434.016	1244.9
434.392	1260.04
434.767	1246.93
435.143	1280.83
435.518	1273.82
435.894	1309.08
436.269	1319.47
436.644	1343.43
437.02	1336.42
437.395	1345.01
437.77	1379.58
438.145	1386.59
438.52	1390.2
438.895	1415.06
439.271	1421.84
439.646	1449.64
440.021	1457.32
440.395	1482.4
440.77	1466.81
441.145	1455.06
441.52	1505.45
441.895	1501.84
442.27	1511.33
442.645	1490.77
443.019	1519.69
443.394	1565.11
443.769	1576.87
444.143	1541.16
444.518	1607.6
444.892	1593.81
445.267	1594.94
445.641	1608.95
446.016	1608.73
446.39	1629.52
446.764	1644.43
447.139	1645.56
447.513	1669.74
447.887	1652.8
448.262	1669.52
448.636	1705.9
449.01	1698.67
449.384	1712.68
449.758	1755.62
450.132	1749.06
450.506	1777.54
450.88	1776.63
451.254	1778.44
451.628	1803.53
452.002	1844.88
452.376	1875.16
452.75	1891.21
453.123	1870.64
453.497	1896.18
453.871	1934.14
454.244	1959
454.618	1987.7
454.992	1953.35
455.365	2008.94
455.739	2057.98
456.112	2064.54
456.486	2091.88
456.859	2089.17
457.232	2120.58
457.606	2161.71
457.979	2199.45
458.352	2254.36
458.725	2246.23
459.099	2280.12
459.472	2331.42
459.845	2286
460.218	2344.98
460.591	2377.97
460.964	2387.01
461.337	2452.55
461.71	2477.63
462.083	2509.95
462.456	2521.47
462.829	2559.44
463.201	2564.41
463.574	2592.88
463.947	2621.81
464.32	2686.21
464.692	2692.77
465.065	2725.99
465.438	2781.13
465.81	2831.07
466.183	2848.92
466.555	2893.21
466.928	2896.83
467.3	2893.89
467.672	2962.59
468.045	3073.1
468.417	3086.88
468.789	3047.79
469.161	3114.45
469.534	3156.26
469.906	3222.02
470.278	3238.97
470.65	3249.59
471.022	3374.56
471.394	3405.07
471.766	3432.86
472.138	3445.97
472.51	3577.26
472.882	3577.94
473.253	3660.88
473.625	3664.27
473.997	3790.82
474.369	3829.24
474.74	3844.15
475.112	3922.57
475.484	4007.08
475.855	4032.39
476.227	4080.98
476.598	4176.34
476.97	4207.3
477.341	4314.87
477.713	4371.82
478.084	4384.93
478.455	4497.01
478.827	4528.2
479.198	4705.37
479.569	4708.99
479.94	4850.45
480.311	4900.39
480.682	4965.02
481.053	5100.61
481.424	5173.61
481.795	5188.07
482.166	5305.35
482.537	5338.57
482.908	5527.72
483.279	5540.6
483.65	5622.86
484.021	5684.78
484.391	5797.32
484.762	5829.86
485.133	5934.04
485.503	5988.05
485.874	6122.28
486.244	6174.94
486.615	6328.15
486.985	6304.65
487.356	6470.52
487.726	6516.17
488.097	6677.97
488.467	6655.15
488.837	6818.76
489.207	6891.98
489.578	6960.23
489.948	7089.04
490.318	7138.53
490.688	7130.84
491.058	7329.48
491.428	7394.11
491.798	7529.48
492.168	7587.55
492.538	7731.05
492.908	7780.77
493.278	7905.74
493.648	7914.55
494.017	8017.15
494.387	8122.46
494.757	8190.48
495.126	8268.67
495.496	8264.83
495.866	8366.97
496.235	8391.83
496.605	8575.1
496.974	8530.81
497.344	8626.62
497.713	8743
498.082	8829.78
498.452	8877.92
498.821	9022.55
499.19	8992.49
499.559	9057.8
499.928	9132.15
500.298	9222.54
500.667	9261.18
501.036	9290.79
501.405	9433.61
501.774	9519.48
502.143	9569.65
502.512	9565.81
502.88	9664.34
503.249	9698.69
503.618	9780.72
503.987	9857.33
504.356	9920.6
504.724	9927.38
505.093	9998.79
505.462	10047.15
505.83	10121.73
506.199	10234.26
506.567	10386.8
506.936	10352.23
507.304	10481.26
507.672	10537.76
508.041	10595.39
508.409	10722.61
508.777	10808.04
509.145	10867.69
509.514	10877.64
509.882	10961.03
510.25	11001.48
510.618	11047.35
510.986	11175.26
511.354	11268.81
511.722	11369.15
512.09	11463.84
512.458	11415.48
512.826	11639.43
513.193	11605.3
513.561	11732.3
513.929	11812.75
514.297	11949.25
514.664	12012.3
515.032	12064.95
515.4	12200.31
515.767	12280.54
516.135	12347.43
516.502	12273.76
516.869	12551.72
517.237	12678.95
517.604	12600.98
517.972	12754.88
518.339	12803.01
518.706	12887.75
519.073	12936.79
519.44	13096.11
519.808	13305.14
520.175	13246.16
520.542	13403.45
520.909	13460.62
521.276	13541.07
521.643	13717.79
522.009	13776.77
522.376	13917.56
522.743	13979.25
523.11	14033.71
523.477	14256.31
523.843	14363.42
524.21	14519.58
524.577	14556.41
524.943	14631.66
525.31	14784.2
525.676	14907.36
526.043	15033.69
526.409	15063.97
526.776	15339.22
527.142	15333.34
527.508	15458.99
527.874	15533.11
528.241	15622.15
528.607	15696.95
528.973	15880.44
529.339	15922.7
529.705	16053.77
530.071	16234.56
530.437	16226.2
530.803	16477.26
531.169	16423.48
531.535	16478.62
531.901	16520.43
532.267	16708.9
532.632	16784.38
532.998	16880.87
533.364	16835.67
533.73	16993.41
534.095	17193.18
534.461	17246.28
534.826	17243.35
535.192	17240.86
535.557	17462.32
535.923	17550
536.288	17558.59
536.653	17764.01
537.019	17614.41
537.384	17799.04
537.749	17959.26
538.114	17917.23
538.479	18028.86
538.845	18113.15
539.21	18020.05
539.575	18169.42
539.94	18222.3
540.305	18362.41
540.67	18394.95
541.034	18594.27
541.399	18579.81
541.764	18588.85
542.129	18710.2
542.494	18747.49
542.858	18752.68
543.223	18823.87
543.587	18944.77
543.952	18972.11
544.316	19003.98
544.681	18983.41
545.045	19231.99
545.41	19336.17
545.774	19315.38
546.138	19442.84
546.503	19501.82
546.867	19502.72
547.231	19728.7
547.595	19715.37
547.959	19904.07
548.324	19740.46
548.688	19852.32
549.052	19900.68
549.416	19991.97
549.779	20114.46
550.143	20153.1
550.507	20251.4
550.871	20256.6
551.235	20345.19
551.599	20507.44
551.962	20590.15
552.326	20612.3
552.689	20811.61
553.053	20731.84
553.417	20762.58
553.78	21080.53
554.143	20975.68
554.507	21123.47
554.87	21167.76
555.234	21468.32
555.597	21340.87
555.96	21435.55
556.323	21533.63
556.686	21600.07
557.05	21712.38
557.413	21824.92
557.776	21955.76
558.139	22017.46
558.502	22042.09
558.865	22073.5
559.228	22252.25
559.59	22407.96
559.953	22368.41
560.316	22598.01
560.679	22707.38
561.041	22768.17
561.404	22762.3
561.767	22980.82
562.129	22954.83
562.492	23244.09
562.854	23157.99
563.217	23166.13
563.579	23348.72
563.941	23514.37
564.304	23602.05
564.666	23705.1
565.028	23734.93
565.39	23931.08
565.753	24057.4
566.115	24184.86
566.477	24250.62
566.839	24473.89
567.201	24496.04
567.563	24468.92
567.925	24720.21
568.287	24652.19
568.648	24764.5
569.01	24894.22
569.372	25085.4
569.734	24999.75
570.095	25212.18
570.457	25383.02
570.819	25404.26
571.18	25369.23
571.542	25556.8
571.903	25591.6
572.265	25734.87
572.626	25730.81
572.987	25791.14
573.349	25969.67
573.71	25945.04
574.071	26033.62
574.432	26241.3
574.794	26415.53
575.155	26294.86
575.516	26369.66
575.877	26479.94
576.238	26462.54
576.599	26715.87
576.96	26709.54
577.32	26608.52
577.681	26738.24
578.042	26679.93
578.403	26792.93
578.763	26803.55
579.124	26833.15
579.485	27023.88
579.845	26949.31
580.206	26992.47
580.566	27028.17
580.927	26939.81
581.287	27100.71
581.648	27163.31
582.008	27319.92
582.368	27152.46
582.728	27316.08
583.089	27134.84
583.449	27115.85
583.809	27348.39
584.169	27333.25
584.529	27285.79
584.889	27490.08
585.249	27282.63
585.609	27248.96
585.969	27400.82
586.329	27356.75
586.688	27364.21
587.048	27444.43
587.408	27323.31
587.768	27399.92
588.127	27361.05
588.487	27408.5
588.846	27488.73
589.206	27375.51
589.565	27434.94
589.925	27547.93
590.284	27430.65
590.643	27557.43
591.003	27521.04
591.362	27623.41
591.721	27596.97
592.08	27581.83
592.44	27654.6
592.799	27675.16
593.158	27556.52
593.517	27676.52
593.876	27732.56
594.235	27549.29
594.593	27630.19
594.952	27712.22
595.311	27679
595.67	27755.84
596.029	27962.61
596.387	27921.03
596.746	27963.06
597.104	27750.87
597.463	27934.59
597.822	27989.5
598.18	27981.82
598.538	27857.53
598.897	27953.12
599.255	27756.06
599.613	28179.1
599.972	27981.14
600.33	28134.59
600.688	27937.98
601.046	28106.56
601.404	28149.27
601.762	28145.43
602.12	28304.98
602.478	28249.61
602.836	28279.21
603.194	28079.9
603.552	28167.13
603.91	28244.86
604.268	28288.03
604.625	28295.71
604.983	28362.6
605.341	28282.83
605.698	28415.48
606.056	28496.61
606.413	28442.15
606.771	28610.73
607.128	28608.47
607.485	28524.86
607.843	28531.41
608.2	28638.75
608.557	28844.85
608.914	28645.98
609.272	28836.26
609.629	28837.39
609.986	28989.7
610.343	28762.82
610.7	28970.27
611.057	28930.95
611.414	28935.69
611.771	28999.65
612.127	29000.78
612.484	29038.74
612.841	29216.36
613.198	28997.16
613.554	29062.02
613.911	29237.15
614.267	29234.9
614.624	29325.97
614.98	29363.25
615.337	29499.52
615.693	29356.93
616.05	29408.22
616.406	29443.93
616.762	29506.07
617.118	29523.02
617.475	29531.38
617.831	29530.48
618.187	29652.96
618.543	29654.09
618.899	29761.21
619.255	29640.76
619.611	29645.51
619.967	29763.24
620.323	29699.29
620.678	29696.35
621.034	29651.38
621.39	29651.16
621.746	29677.6
622.101	30076.68
622.457	29668.56
622.812	29808.21
623.168	29850.47
623.523	29854.54
623.879	30065.16
624.234	29614.77
624.589	29889.12
624.945	29957.36
625.3	29958.94
625.655	29800.98
626.01	29909.23
626.365	29785.39
626.72	29902
627.075	29895.44
627.43	29933.86
627.785	29863.58
628.14	29802.56
628.495	29895.67
628.85	29854.09
629.205	29650.25
629.559	29848.66
629.914	29809.12
630.269	29811.6
630.623	29724.6
630.978	29613.64
631.332	29809.8
631.687	29839.63
632.041	29666.97
632.396	29676.47
632.75	29601.44
633.104	29612.29
633.459	29542.91
633.813	29414.33
634.167	29535.68
634.521	29472.18
634.875	29548.11
635.229	29524.15
635.583	29318.28
635.937	29360.54
636.291	29381.78
636.645	29192.64
636.999	29213.88
637.352	29281.67
637.706	29206.42
638.06	29202.58
638.413	29277.38
638.767	29144.5
639.121	29121.23
639.474	28909.48
639.828	28979.76
640.181	29056.59
640.534	29043.94
640.888	28813.44
641.241	28801.46
641.594	28857.28
641.947	28933.43
642.301	28793.32
642.654	28893.44
643.007	28846.2
643.36	28771.63
643.713	28746.55
644.066	28760.56
644.419	28513.33
644.771	28500.9
645.124	28269.5
645.477	28264.53
645.83	28036.06
646.182	27883.97
646.535	27830.86
646.888	27743.18
647.24	27603.53
647.593	27765.1
647.945	27622.51
648.298	27600.59
648.65	27550.65
649.002	27408.05
649.355	27563.3
649.707	27540.48
650.059	27723.3
650.411	27952.89
650.763	27922.61
651.115	28294.58
651.467	28221.36
651.819	28116.73
652.171	28152.44
652.523	28078.32
652.875	27971.65
653.227	27843.29
653.578	28040.8
653.93	27968.71
654.282	27877.19
654.633	27744.09
654.985	27839.23
655.337	27928.26
655.688	27854.82
656.039	28090.97
656.391	27660.7
656.742	27662.06
657.094	27791.77
657.445	27906.57
657.796	27868.6
658.147	27745.44
658.498	27682.39
658.849	27736.86
659.2	27663.19
659.551	27732.56
659.902	27762.84
660.253	27667.93
660.604	27786.57
660.955	27543.41
661.306	27673.58
661.656	27601.49
662.007	27529.86
662.358	27574.83
662.708	27566.69
663.059	27542.06
663.409	27435.85
663.76	27632.45
664.11	27600.81
664.461	27509.29
664.811	27553.36
665.161	27533.47
665.511	27394.72
665.862	27605.11
666.212	27493.7
666.562	27603.3
666.912	27443.98
667.262	27412.34
667.612	27415.28
667.962	27467.26
668.312	27314.95
668.662	27541.83
669.011	27432.46
669.361	27315.4
669.711	27363.53
670.06	27215.51
670.41	27347.26
670.76	27241.05
671.109	27425.23
671.459	27396.3
671.808	27215.74
672.157	27402.17
672.507	27207.6
672.856	27094.61
673.205	27273.36
673.554	27168.51
673.904	27195.85
674.253	27305.91
674.602	27312.23
674.951	26793.6
675.3	26629.09
675.649	27074.05
675.998	27138.23
676.346	27075.18
676.695	27158.34
677.044	26985.24
677.393	27035.18
677.741	26937.78
678.09	26862.53
678.438	26669.76
678.787	26884.9
679.135	26856.65
679.484	26555.42
679.832	26732.59
680.181	26663.21
680.529	26841.51
680.877	26636.77
681.225	26585.02
681.573	26801.74
681.922	26615.98
682.27	26561.75
682.618	26602.42
682.966	26568.3
683.314	26679.26
683.661	26429.09
684.009	26352.94
684.357	26443.56
684.705	26312.94
685.053	26298.48
685.4	26122.43
685.748	26083.34
686.095	26009.22
686.443	25931.71
686.79	25871.14
687.138	25807.41
687.485	26013.51
687.832	25893.29
688.18	25880.18
688.527	25702.56
688.874	25689
689.221	25744.14
689.568	25623.46
689.915	25547.76
690.262	25575.56
690.609	25513.86
690.956	25397.03
691.303	25381.89
691.65	25327.65
691.997	25246.3
692.344	25053.08
692.69	25086.76
693.037	25079.07
693.383	24942.8
693.73	25010.6
694.077	24782.81
694.423	24753.21
694.769	24642.47
695.116	24625.52
695.462	24610.16
695.808	24520.67
696.155	24590.72
696.501	24381.01
696.847	24425.3
697.193	24142.37
697.539	24268.25
697.885	24114.35
698.231	24065.77
698.577	24096.05
698.923	24081.13
699.269	23901.48
699.614	23901.7
699.96	23764.76
700.306	23793
700.651	23626.23
700.997	23577.87
701.342	23573.58
701.688	23533.8
702.033	23401.38
702.379	23396.86
702.724	23303.98
703.069	23379.68
703.415	23066.92
703.76	23116.41
704.105	23123.64
704.45	23116.41
704.795	22874.61
705.14	22910.09
705.485	22918.9
705.83	22802.52
706.175	22752.13
706.52	22773.6
706.865	22634.39
707.209	22580.83
707.554	22526.14
707.899	22538.8
708.243	22542.19
708.588	22333.83
708.932	22254.74
709.277	22337
709.621	22321.63
709.966	22114.86
710.31	22251.58
710.654	22036.67
710.998	21942.21
711.342	22071.92
711.687	22062.65
712.031	21821.3
712.375	21800.29
712.719	21968.65
713.063	21704.92
713.407	21776.56
713.75	21701.53
714.094	21832.6
714.438	21633.06
714.782	21672.83
715.125	21553.29
715.469	21570.92
715.812	21419.06
716.156	21328.66
716.499	21389.23
716.843	21294.54
717.186	21194.2
717.53	21322.33
717.873	21229.91
718.216	21200.3
718.559	21216.35
718.902	20997.37
719.246	21098.61
719.589	20872.18
719.932	20931.61
720.275	20881.44
720.617	20902.01
720.96	20821.56
721.303	20846.19
721.646	20742.46
721.989	20746.53
722.331	20777.72
722.674	20623.37
723.016	20676.02
723.359	20531.4
723.701	20570.94
724.044	20485.97
724.386	20309.03
724.729	20479.87
725.071	20457.05
725.413	20339.99
725.755	20285.07
726.097	20225.41
726.439	20245.75
726.782	20245.98
727.124	20216.83
727.465	20115.13
727.807	20168.01
728.149	20145.19
728.491	20007.57
728.833	20068.81
729.175	20103.16
729.516	19959.88
729.858	19892.32
730.199	20025.19
730.541	19897.51
730.882	19860
731.224	19835.59
731.565	19805.54
731.906	19849.15
732.248	19716.95
732.589	19731.19
732.93	19636.05
733.271	19734.35
733.612	19810.51
733.953	19633.34
734.294	19525.32
734.635	19576.17
734.976	19605.54
735.317	19512.66
735.658	19490.97
735.999	19486.68
736.339	19471.54
736.68	19477.64
737.021	19391.99
737.361	19320.58
737.702	19344.08
738.042	19301.82
738.383	19215.27
738.723	19245.1
739.063	19179.11
739.404	19292.78
739.744	19138.44
740.084	19144.31
740.424	19057.99
740.764	19070.19
741.104	19158.32
741.444	19032.45
741.784	18973.02
742.124	18945.9
742.464	18991.55
742.804	19003.98
743.143	18884.43
743.483	18897.77
743.823	18812.34
744.162	18804.89
744.502	18782.74
744.841	18774.38
745.181	18803.98
745.52	18630.88
745.86	18686.7
746.199	18687.15
746.538	18572.58
746.877	18692.35
747.216	18642.41
747.556	18592.24
747.895	18628.62
748.234	18513.6
748.573	18347.27
748.911	18436.08
749.25	18326.93
749.589	18338.23
749.928	18287.39
750.267	18306.37
750.605	18295.75
750.944	18173.04
751.283	18186.82
751.621	18194.96
751.96	18021.18
752.298	17982.54
752.636	18049.43
752.975	17917.9
753.313	17810.34
753.651	17931.24
753.989	17802.2
754.327	17787.96
754.666	17686.05
755.004	17751.36
755.342	17791.35
755.679	17742.09
756.017	17609.21
756.355	17611.47
756.693	17487.63
757.031	17588.42
757.368	17439.27
757.706	17485.15
758.044	17461.42
758.381	17395.88
758.719	17342.78
759.056	17280.18
759.394	17264.36
759.731	17169.45
760.068	17084.03
760.405	17078.83
760.743	17023.92
761.08	17106.85
761.417	16904.6
761.754	16957.7
762.091	16825.73
762.428	16828.44
762.765	16696.47
763.102	16766.75
763.438	16701.89
763.775	16480.2
764.112	16595.45
764.449	16499.18
764.785	16534.89
765.122	16339.42
765.458	16303.48
765.795	16222.58
766.131	16191.85
766.467	16210.38
766.804	16204.5
767.14	16075.47
767.476	16071.63
767.812	15938.52
768.148	16014.68
768.485	15950.72
768.821	15837.28
769.157	15824.63
769.492	15771.07
769.828	15802.03
770.164	15609.26
770.5	15584.63
770.836	15579.43
771.171	15431.42
771.507	15424.86
771.842	15297.63
772.178	15304.64
772.513	15296.73
772.849	15276.17
773.184	15179.45
773.519	15120.46
773.855	15022.16
774.19	15079.11
774.525	14968.6
774.86	14873.01
775.195	14897.65
775.53	14828.49
775.865	14746.69
776.2	14600.93
776.535	14559.12
776.87	14607.94
777.205	14567.03
777.539	14430.31
777.874	14470.54
778.209	14259.92
778.543	14317.77
778.878	14221.5
779.212	14196.19
779.547	14216.08
779.881	14196.65
780.215	14170.43
780.55	14210.43
780.884	14016.54
781.218	14002.53
781.552	14001.17
781.886	13845.7
782.22	13777
782.554	13693.61
782.888	13684.34
783.222	13550.79
783.556	13557.12
783.889	13546.04
784.223	13439.38
784.557	13466.5
784.89	13474.63
785.224	13372.04
785.557	13244.36
785.891	13198.03
786.224	13218.82
786.558	13156.45
786.891	13130.69
787.224	13039.39
787.557	13022.67
787.891	12983.57
788.224	12971.82
788.557	12916.23
788.89	12855.44
789.223	12875.33
789.556	12772.28
789.888	12695.22
790.221	12725.72
790.554	12688.89
790.887	12625.39
791.219	12571.15
791.552	12545.16
791.884	12483.25
792.217	12433.75
792.549	12357.82
792.882	12311.95
793.214	12348.79
793.546	12381.78
793.879	12240.09
794.211	12163.48
794.543	12119.64
794.875	12142.24
795.207	12176.81
795.539	12096.81
795.871	12017.27
796.203	11970.26
796.535	11883.49
796.867	11874.45
797.198	11790.83
797.53	11839.42
797.862	11802.13
798.193	11845.97
798.525	11731.4
798.856	11677.62
799.188	11572.53
799.519	11552.42
799.85	11478.98
800.182	11566.89
800.513	11558.75
800.844	11330.06
801.175	11490.5
801.506	11468.81
801.837	11416.38
802.168	11268.36
802.499	11284.18
802.83	11225.88
803.161	11217.29
803.491	11170.96
803.822	11212.54
804.153	11127.12
804.483	11041.7
804.814	11053.23
805.145	10935.04
805.475	10983.85
805.805	10976.17
806.136	10985.43
806.466	10984.3
806.796	10933.23
807.126	10849.84
807.457	10867.02
807.787	10841.93
808.117	10764.87
808.447	10744.31
808.777	10739.79
809.107	10657.08
809.436	10698.43
809.766	10621.6
810.096	10595.39
810.426	10587.48
810.755	10631.99
811.085	10553.8
811.414	10544.77
811.744	10469.96
812.073	10403.3
812.403	10428.38
812.732	10423.41
813.061	10322.4
813.39	10318.33
813.719	10245.79
814.049	10271.55
814.378	10341.61
814.707	10319.23
815.036	10259.8
815.365	10178
815.693	10090.54
816.022	10098.9
816.351	10026.81
816.68	9973.48
817.008	10036.76
817.337	9980.26
817.665	9916.08
817.994	10029.3
818.322	9972.8
818.651	9961.73
818.979	9832.92
819.307	9873.37
819.636	9778.23
819.964	9830.89
820.292	9839.47
820.62	9841.05
820.948	9768.51
821.276	9796.31
821.604	9775.52
821.932	9845.57
822.259	9754.96
822.587	9823.2
822.915	9770.32
823.243	9788.4
823.57	9777.78
823.898	9814.61
824.225	9738.01
824.553	9777.1
824.88	9735.07
825.207	9764.67
825.535	9820.72
825.862	9745.92
826.189	9747.5
826.516	9783.43
826.843	9842.64
827.17	9742.98
827.497	9726.93
827.824	9787.04
828.151	9821.85
828.478	9790.43
828.805	9771.68
829.131	9705.92
829.458	9755.63
829.785	9688.74
830.111	9695.97
830.438	9796.08
830.764	9749.31
831.09	9743.2
831.417	9747.05
831.743	9681.96
832.069	9694.84
832.395	9731.45
832.722	9755.63
833.048	9725.13
833.374	9688.97
833.7	9671.12
834.026	9749.53
834.351	9741.4
834.677	9683.54
835.003	9655.97
835.329	9644
835.654	9670.21
835.98	9597.22
836.306	9571.68
836.631	9584.56
836.956	9631.34
837.282	9582.3
837.607	9561.29
837.932	9484.23
838.258	9532.81
838.583	9474.96
838.908	9430.9
839.233	9455.3
839.558	9448.75
839.883	9450.78
840.208	9330.11
840.533	9425.92
840.858	9362.65
841.182	9372.14
841.507	9331.92
841.832	9327.17
842.156	9289.43
842.481	9284.23
842.805	9324.01
843.13	9223.44
843.454	9209.43
843.778	9229.09
844.103	9203.78
844.427	9217.79
844.751	9180.28
845.075	9119.27
845.399	9083.56
845.723	9047.18
846.047	9092.83
846.371	8984.58
846.695	9006.95
847.019	8974.41
847.343	8929.67
847.666	8868.88
847.99	8813.06
848.313	8812.61
848.637	8759.73
848.96	8748.2
849.284	8723.12
849.607	8640.18
849.931	8646.74
850.254	8644.48
850.577	8576.91
850.9	8514.31
851.223	8486.51
851.546	8450.36
851.869	8391.38
852.192	8484.03
852.515	8384.6
852.838	8276.35
853.161	8298.04
853.483	8298.72
853.806	8235.45
854.129	8225.05
854.451	8227.09
854.774	8109.57
855.096	8170.36
855.419	8113.42
855.741	8094.21
856.063	8099.18
856.385	8070.48
856.708	7998.84
857.03	7931.05
857.352	7993.19
857.674	8027.54
857.996	7990.03
858.318	7916.13
858.64	7923.59
858.961	7855.8
859.283	7838.85
859.605	7867.77
859.926	7870.94
860.248	7803.14
860.57	7768.57
860.891	7755.23
861.212	7764.27
861.534	7771.5
861.855	7729.47
862.176	7722.47
862.498	7686.99
862.819	7665.97
863.14	7598.4
863.461	7673.2
863.782	7698.06
864.103	7613.09
864.424	7591.85
864.745	7631.85
865.065	7607.89
865.386	7553.21
865.707	7546.2
866.027	7613.09
866.348	7508.23
866.668	7481.79
866.989	7479.53
867.309	7456.71
867.63	7409.48
867.95	7409.71
868.27	7342.36
868.59	7417.62
868.91	7445.41
869.23	7394.11
869.55	7352.76
869.87	7402.7
870.19	7387.79
870.51	7427.11
870.83	7374.45
871.15	7318.18
871.469	7354.11
871.789	7307.34
872.109	7296.94
872.428	7266.66
872.748	7301.01
873.067	7266.21
873.386	7314.12
873.706	7292.87
874.025	7230.5
874.344	7187.79
874.663	7226.66
874.982	7143.72
875.301	7158.87
875.62	7169.71
875.939	7211.75
876.258	7188.92
876.577	7114.8
876.896	7164.97
877.214	7096.95
877.533	7107.12
877.852	7091.3
878.17	7085.2
878.489	7087.68
878.807	7060.11
879.125	7070.28
879.444	7053.33
879.762	6996.61
880.08	6989.38
880.398	7003.84
880.716	7011.07
881.034	6998.42
881.352	6963.39
881.67	6978.76
881.988	7008.36
882.306	6940.11
882.624	6921.58
882.941	6908.25
883.259	6891.53
883.577	6862.6
883.894	6917.74
884.212	6775.37
884.529	6838.87
884.846	6818.99
885.164	6761.59
885.481	6817.63
885.798	6774.69
886.115	6848.82
886.432	6724.07
886.75	6708.48
887.067	6768.82
887.383	6665.55
887.7	6757.07
888.017	6730.4
888.334	6709.39
888.651	6717.52
888.967	6624.64
889.284	6555.27
889.6	6557.07
889.917	6534.93
890.233	6533.12
890.55	6495.15
890.866	6510.29
891.182	6536.06
891.498	6484.31
891.815	6476.62
892.131	6429.17
892.447	6389.17
892.763	6394.14
893.079	6327.7
893.395	6382.39
893.71	6371.32
894.026	6307.36
894.342	6336.06
894.657	6265.1
894.973	6285.67
895.289	6269.85
895.604	6234.37
895.92	6150.53
896.235	6172.68
896.55	6234.6
896.865	6229.85
897.181	6192.11
897.496	6150.08
897.811	6114.6
898.126	6089.74
898.441	6060.14
898.756	6085.67
899.071	6052.68
899.386	6065.33
899.7	6016.52
900.015	5990.76
900.33	5945.79
900.644	5971.78
900.959	5891.1
901.273	5889.52
901.588	5878.9
901.902	5810.2
902.216	5852.91
902.531	5814.72
902.845	5818.79
903.159	5786.7
903.473	5754.38
903.787	5682.07
904.101	5694.5
904.415	5644.78
904.729	5694.5
905.042	5668.51
905.356	5591
905.67	5600.94
905.984	5584.67
906.297	5623.76
906.611	5550.77
906.924	5579.25
907.237	5502.19
907.551	5496.08
907.864	5506.71
908.177	5464.67
908.491	5465.58
908.804	5447.27
909.117	5430.55
909.43	5417.89
909.743	5329.31
910.056	5324.11
910.368	5301.06
910.681	5285.69
910.994	5262.87
911.307	5282.98
911.619	5159.14
911.932	5222.87
912.244	5228.52
912.557	5183.78
912.869	5132.48
913.181	5140.61
913.494	5145.81
913.806	5147.62
914.118	5055.87
914.43	5014.74
914.742	4997.79
915.054	4965.93
915.366	5002.31
915.678	4967.51
915.99	4988.75
916.302	4888.42
916.613	4914.86
916.925	4891.58
917.236	4885.25
917.548	4874.86
917.859	4879.38
918.171	4769.78
918.482	4798.7
918.794	4757.35
919.105	4771.81
919.416	4786.72
919.727	4748.53
920.038	4727.52
920.349	4698.37
920.66	4682.32
920.971	4641.19
921.282	4631.47
921.593	4570.68
921.903	4599.38
922.214	4561.19
922.525	4594.87
922.835	4536.79
923.146	4505.38
923.456	4516
923.767	4495.43
924.077	4472.38
924.387	4480.74
924.697	4416.79
925.008	4414.76
925.318	4388.99
925.628	4378.37
925.938	4369.56
926.248	4377.7
926.558	4313.52
926.867	4312.84
927.177	4317.13
927.487	4284.14
927.796	4255.44
928.106	4236
928.416	4243.69
928.725	4190.58
929.034	4156.23
929.344	4156.68
929.653	4184.71
929.962	4106.06
930.271	4136.35
930.581	4116.01
930.89	4105.39
931.199	4075.1
931.508	4070.13
931.817	4036.01
932.125	4013.64
932.434	4040.76
932.743	3983.81
933.051	3963.47
933.36	3952.4
933.669	3950.14
933.977	3948.1
934.286	3923.24
934.594	3908.78
934.902	3912.17
935.21	3853.42
935.519	3895.9
935.827	3819.52
936.135	3785.17
936.443	3777.26
936.751	3778.16
937.059	3784.04
937.367	3729.35
937.674	3755.34
937.982	3747.2
938.29	3723.7
938.597	3707.43
938.905	3696.81
939.213	3629.01
939.52	3687.54
939.827	3637.6
940.135	3626.08
940.442	3607.09
940.749	3585.17
941.056	3637.83
941.363	3575.46
941.67	3543.37
941.977	3545.18
942.284	3506.76
942.591	3493.43
942.898	3507.89
943.205	3463.37
943.511	3447.55
943.818	3453.88
944.125	3456.82
944.431	3452.07
944.738	3412.3
945.044	3408.68
945.35	3390.38
945.657	3347.21
945.963	3339.98
946.269	3331.17
946.575	3338.4
946.881	3311.06
947.187	3314.45
947.493	3259.76
947.799	3276.93
948.105	3259.31
948.41	3248.23
948.716	3215.47
949.022	3230.83
949.327	3198.52
949.633	3200.33
949.938	3189.25
950.244	3178.63
950.549	3167.33
950.854	3136.15
951.16	3128.69
951.465	3102.93
951.77	3120.33
952.075	3090.95
952.38	3037.84
952.685	3081.68
952.99	3058.63
953.294	3041.69
953.599	3004.85
953.904	2984.96
954.209	2988.13
954.513	3001.46
954.818	2988.13
955.122	2975.7
955.426	2925.76
955.731	2938.41
956.035	2929.37
956.339	2938.19
956.643	2930.28
956.948	2902.71
957.252	2861.58
957.556	2876.27
957.86	2894.8
958.163	2887.11
958.467	2886.89
958.771	2812.99
959.075	2838.98
959.378	2777.29
959.682	2775.03
959.985	2743.84
960.289	2739.09
960.592	2768.92
960.896	2749.26
961.199	2764.18
961.502	2705.65
961.805	2666.1
962.108	2676.95
962.411	2653.22
962.714	2685.08
963.017	2660.68
963.32	2664.52
963.623	2639.21
963.926	2626.33
964.228	2619.55
964.531	2617.74
964.833	2592.88
965.136	2572.09
965.438	2572.32
965.741	2561.7
966.043	2568.48
966.345	2538.42
966.648	2526.9
966.95	2566.22
967.252	2527.35
967.554	2503.17
967.856	2519.67
968.158	2499.1
968.46	2509.5
968.761	2448.93
969.063	2453.45
969.365	2448.03
969.666	2419.56
969.968	2413.68
970.269	2401.25
970.571	2402.38
970.872	2455.94
971.174	2379.56
971.475	2407.35
971.776	2373
972.077	2389.5
972.378	2352.21
972.679	2321.48
972.98	2353.12
973.281	2354.02
973.582	2306.11
973.883	2314.02
974.183	2312.67
974.484	2306.56
974.785	2282.84
975.085	2254.59
975.386	2261.14
975.686	2282.61
975.986	2236.51
976.287	2279.9
976.587	2222.5
976.887	2245.32
977.187	2249.16
977.487	2225.44
977.787	2204.42
978.087	2195.38
978.387	2177.98
978.687	2188.15
978.987	2165.55
979.286	2151.09
979.586	2139.11
979.885	2123.07
980.185	2120.35
980.484	2083.52
980.784	2127.81
981.083	2082.84
981.382	2072.45
981.682	2061.37
981.981	2037.87
982.28	2083.52
982.579	2010.98
982.878	2056.4
983.177	2023.18
983.475	2066.8
983.774	2014.14
984.073	2008.49
984.372	1990.87
984.67	1986.57
984.969	1981.6
985.267	1980.7
985.566	1984.31
985.864	1973.24
986.162	1956.97
986.461	1953.13
986.759	1908.83
987.057	1908.83
987.355	1925.33
987.653	1875.84
987.951	1881.49
988.249	1935.95
988.547	1895.5
988.844	1868.84
989.142	1850.3
989.44	1840.59
989.737	1842.62
990.035	1868.84
990.332	1838.55
990.63	1834.94
990.927	1812.11
991.224	1827.93
991.521	1830.42
991.819	1787.93
992.116	1794.03
992.413	1776.63
992.71	1763.98
993.006	1789.06
993.303	1756.75
993.6	1773.47
993.897	1757.65
994.193	1726.69
994.49	1726.92
994.787	1716.97
995.083	1668.16
995.379	1710.87
995.676	1724.66
995.972	1676.75
996.268	1683.76
996.565	1680.59
996.861	1667.71
997.157	1684.21
997.453	1656.41
997.749	1669.07
998.044	1628.16
998.34	1638.78
998.636	1636.75
998.932	1607.82
999.227	1617.77
999.523	1582.97
999.818	1613.7
1000.114	1578.45
1000.409	1578.67
1000.704	1561.95
1001	1559.92
1001.295	1554.04
1001.59	1569.63
1001.885	1537.54
1002.18	1541.39
1002.475	1513.82
1002.77	1509.75
1003.065	1490.09
1003.359	1529.63
1003.654	1473.14
1003.949	1496.87
1004.243	1507.94
1004.538	1477.21
1004.832	1447.83
1005.127	1453.48
1005.421	1460.94
1005.715	1439.92
1006.009	1455.96
1006.304	1443.31
1006.598	1425.68
1006.892	1421.39
1007.186	1405.12
1007.48	1401.28
1007.773	1407.38
1008.067	1380.03
1008.361	1336.87
1008.655	1381.39
1008.948	1352.69
1009.242	1354.05
1009.535	1331
1009.829	1327.15
1010.122	1337.1
1010.415	1303.2
1010.708	1316.31
1011.001	1323.54
1011.295	1291.22
1011.588	1295.74
1011.881	1280.15
1012.173	1275.86
1012.466	1283.09
1012.759	1268.4
1013.052	1271.34
1013.344	1262.3
1013.637	1257.78
1013.93	1255.74
1014.222	1232.69
1014.514	1239.7
1014.807	1213.49
1015.099	1212.13
1015.391	1216.2
1015.683	1203.77
1015.976	1189.98
1016.268	1203.99
1016.56	1175.52
1016.851	1176.42
1017.143	1148.18
1017.435	1151.34
1017.727	1152.02
1018.018	1156.54
1018.31	1135.97
1018.602	1145.01
1018.893	1134.62
1019.185	1131.45
1019.476	1116.99
1019.767	1122.87
1020.058	1100.04
1020.35	1086.93
1020.641	1091.91
1020.932	1067.73
1021.223	1085.58
1021.514	1101.85
1021.804	1058.23
1022.095	1060.72
1022.386	1086.71
1022.677	1033.38
1022.967	1069.76
1023.258	1026.15
1023.548	1050.33
1023.839	1025.02
1024.129	1025.24
1024.419	1026.82
1024.709	994.51
1025	1012.36
1025.29	992.02
1025.58	1006.26
1025.87	985.47
1026.16	955.19
1026.449	958.58
1026.739	976.2
1027.029	962.64
1027.319	958.12
1027.608	965.13
1027.898	936.66
1028.187	930.78
1028.477	938.92
1028.766	914.28
1029.055	942.98
1029.344	926.26
1029.634	900.95
1029.923	931.46
1030.212	889.2
1030.501	882.87
1030.79	874.74
1031.078	917.45
1031.367	890.33
1031.656	886.49
1031.945	908.18
1032.233	859.6
1032.522	859.14
1032.81	863.66
1033.099	851.01
1033.387	851.91
1033.675	857.56
1033.963	832.48
1034.251	834.74
1034.54	824.34
1034.828	838.58
1035.116	829.31
1035.403	801.52
1035.691	797.9
1035.979	828.41
1036.267	791.35
1036.554	792.93
1036.842	811.46
1037.129	778.24
1037.417	786.38
1037.704	779.15
1037.992	789.77
1038.279	782.31
1038.566	782.54
1038.853	782.54
1039.14	782.54
