Data from breadboard_white_FLMS001491_00002.txt Node
Date: Wed Feb 08 10:47:08 GMT 2017
User: dcchb
Spectrometer: FLMS00149
Trigger mode: 0
Integration Time (sec): 2.000000E-2
Scans to average: 10
Electric dark correction enabled: true
Nonlinearity correction enabled: false
Boxcar width: 0
XAxis mode: Wavelengths
Number of Pixels in Spectrum: 2048
>>>>>Begin Spectral Data<<<<<
341.393	-9.1
341.776	-9.1
342.16	-9.1
342.543	-62.43
342.927	-42.54
343.31	-81.41
343.693	-56.78
344.077	-66.95
344.46	-60.62
344.843	-48.87
345.226	-40.96
345.61	-31.92
345.993	-27.17
346.376	-27.63
346.759	16.21
347.142	17.57
347.525	41.07
347.908	64.57
348.291	88.75
348.674	91.69
349.057	122.43
349.44	136.89
349.823	152.26
350.206	166.27
350.588	207.85
350.971	239.71
351.354	250.33
351.737	254.17
352.119	251.24
352.502	283.1
352.884	273.16
353.267	304.57
353.65	309.09
354.032	310.44
354.414	314.29
354.797	325.81
355.179	328.07
355.562	350.44
355.944	346.38
356.326	364.91
356.709	350.22
357.091	365.81
357.473	371.23
357.855	352.02
358.238	368.97
358.62	362.65
359.002	368.52
359.384	357.9
359.766	348.63
360.148	365.58
360.53	366.49
360.912	347.96
361.294	355.87
361.676	358.58
362.057	354.74
362.439	383.66
362.821	353.83
363.203	343.21
363.584	357.22
363.966	349.54
364.348	376.43
364.729	354.74
365.111	362.42
365.493	369.88
365.874	355.87
366.256	357.22
366.637	344.57
367.019	352.7
367.4	367.84
367.781	362.87
368.163	345.47
368.544	352.02
368.925	341.4
369.306	352.93
369.688	356.54
370.069	368.75
370.45	368.97
370.831	384.57
371.212	349.31
371.593	368.75
371.974	350.22
372.355	344.79
372.736	356.09
373.117	371.01
373.498	361.52
373.879	345.7
374.26	381.4
374.641	377.33
375.021	342.31
375.402	359.03
375.783	371.01
376.163	378.24
376.544	359.03
376.925	361.29
377.305	379.59
377.686	378.24
378.066	383.44
378.447	373.27
378.827	379.14
379.208	388.86
379.588	399.26
379.968	405.36
380.349	392.02
380.729	407.84
381.109	395.64
381.489	416.88
381.87	416.43
382.25	398.35
382.63	396.54
383.01	402.42
383.39	399.03
383.77	433.83
384.15	435.41
384.53	426.6
384.91	390.22
385.29	423.89
385.67	436.32
386.049	449.65
386.429	446.26
386.809	454.85
387.189	437.67
387.568	435.86
387.948	463.66
388.328	467.05
388.707	467.5
389.087	455.3
389.466	489.42
389.846	476.54
390.225	467.95
390.605	486.48
390.984	473.83
391.363	484.68
391.743	502.08
392.122	524.22
392.501	527.61
392.881	507.73
393.26	526.94
393.639	512.47
394.018	531.45
394.397	532.81
394.776	550.89
395.155	570.1
395.534	585.24
395.913	548.86
396.292	562.64
396.671	573.26
397.05	593.15
397.429	587.5
397.808	616.42
398.186	619.36
398.565	651.45
398.944	615.07
399.323	636.08
399.701	666.37
400.08	647.61
400.458	644.45
400.837	686.25
401.215	667.95
401.594	707.95
401.972	691
402.351	716.76
402.729	716.99
403.107	745.46
403.486	738.46
403.864	758.57
404.242	789.08
404.62	793.59
404.999	813.93
405.377	808.28
405.755	830.88
406.133	855.97
406.511	847.6
406.889	891.22
407.267	889.64
407.645	909.07
408.023	916.76
408.401	971.44
408.779	974.83
409.156	998.56
409.534	1000.37
409.912	1043.53
410.29	1046.7
410.667	1088.95
411.045	1078.56
411.422	1105
411.8	1102.06
412.178	1175.28
412.555	1169.18
412.933	1197.43
413.31	1231.55
413.687	1239.68
414.065	1251.44
414.442	1270.64
414.819	1309.97
415.197	1315.62
415.574	1339.12
415.951	1362.85
416.328	1404.2
416.705	1397.19
417.082	1410.08
417.46	1451.88
417.837	1477.64
418.214	1480.81
418.591	1523.52
418.967	1538.21
419.344	1568.26
419.721	1617.3
420.098	1581.14
420.475	1622.73
420.852	1608.71
421.228	1629.05
421.605	1684.87
421.982	1685.1
422.358	1691.65
422.735	1731.88
423.111	1734.59
423.488	1785.43
423.864	1810.97
424.241	1820.69
424.617	1833.79
424.994	1857.97
425.37	1845.77
425.746	1862.49
426.123	1922.38
426.499	1947.91
426.875	1984.98
427.251	2010.51
427.627	2034.69
428.003	2045.54
428.379	2083.28
428.756	2115.14
429.132	2136.16
429.507	2201.24
429.883	2206.44
430.259	2241.92
430.635	2266.55
431.011	2275.82
431.387	2335.7
431.763	2385.42
432.138	2384.74
432.514	2431.07
432.89	2430.39
433.265	2503.61
433.641	2534.11
434.016	2582.02
434.392	2610.5
434.767	2648.69
435.143	2650.04
435.518	2711.06
435.894	2735.92
436.269	2761.23
436.644	2803.26
437.02	2827.67
437.395	2868.57
437.77	2892.3
438.145	2956.02
438.52	2928
438.895	3015.01
439.271	2980.66
439.646	3066.53
440.021	3059.98
440.395	3097.04
440.77	3073.08
441.145	3136.58
441.52	3201.89
441.895	3212.74
442.27	3218.84
442.645	3207.99
443.019	3286.18
443.394	3291.16
443.769	3334.55
444.143	3319.86
444.518	3365.5
444.892	3375.9
445.267	3440.53
445.641	3441.21
446.016	3435.11
446.39	3497.48
446.764	3516.69
447.139	3504.48
447.513	3564.14
447.887	3582.22
448.262	3591.71
448.636	3598.49
449.01	3691.6
449.384	3689.79
449.758	3710.35
450.132	3760.07
450.506	3824.25
450.88	3821.76
451.254	3843.91
451.628	3939.05
452.002	3942.21
452.376	3977.24
452.75	4031.48
453.123	4026.05
453.497	4108.54
453.871	4120.06
454.244	4217.01
454.618	4242.32
454.992	4295.2
455.365	4290
455.739	4452.71
456.112	4500.84
456.486	4507.62
456.859	4560.05
457.232	4636.88
457.606	4664
457.979	4707.16
458.352	4791.23
458.725	4860.38
459.099	4918.68
459.472	4993.71
459.845	5064.9
460.218	5079.13
460.591	5149.86
460.964	5119.81
461.337	5307.83
461.71	5381.5
462.083	5407.03
462.456	5400.03
462.829	5445
463.201	5614.71
463.574	5629.63
463.947	5690.19
464.32	5779.45
464.692	5842.05
465.065	5887.7
465.438	5944.87
465.81	6050.18
466.183	6179.67
466.555	6247.01
466.928	6356.84
467.3	6277.52
467.672	6365.65
468.045	6641.58
468.417	6589.37
468.789	6677.28
469.161	6746.43
469.534	6885.86
469.906	6990.49
470.278	7064.16
470.65	7160.21
471.022	7254.89
471.394	7380.99
471.766	7494.21
472.138	7550.48
472.51	7721.77
472.882	7839.51
473.253	7926.29
473.625	8065.95
473.997	8167.41
474.369	8230.46
474.74	8390.23
475.112	8557.01
475.484	8649.21
475.855	8834.97
476.227	8896.66
476.598	9174.62
476.97	9288.29
477.341	9468.85
477.713	9565.57
478.084	9704.77
478.455	9936.63
478.827	10032.9
479.198	10318.09
479.569	10383.17
479.94	10621.81
480.311	10666.56
480.682	10910.17
481.053	11246.88
481.424	11321.68
481.795	11491.17
482.166	11699.52
482.537	11904.04
482.908	12050.7
483.279	12097.48
483.65	12373.4
484.021	12629.44
484.391	12695.65
484.762	12880.06
485.133	12992.82
485.503	13184.91
485.874	13515.29
486.244	13647.49
486.615	13889.52
486.985	13966.36
487.356	14268.27
487.726	14436.4
488.097	14765.88
488.467	14800.68
488.837	14990.51
489.207	15263.5
489.578	15355.02
489.948	15602.25
490.318	15764.95
490.688	15816.93
491.058	16101.89
491.428	16390.47
491.798	16496.68
492.168	16894.87
492.538	16899.84
492.908	17058.25
493.278	17322.2
493.648	17356.78
494.017	17622.98
494.387	17857.1
494.757	17892.13
495.126	18143.87
495.496	18215.96
495.866	18363.53
496.235	18537.99
496.605	18845.32
496.974	18881.93
497.344	18925.77
497.713	19021.36
498.082	19334.12
498.452	19478.75
498.821	19598.3
499.19	19650.05
499.559	19868.12
499.928	19858.63
500.298	20085.74
500.667	20318.73
501.036	20290.48
501.405	20551.27
501.774	20530.7
502.143	20811.6
502.512	20855.44
502.88	21089.56
503.249	21100.86
503.618	21364.58
503.987	21366.39
504.356	21500.17
504.724	21657.23
505.093	21798.92
505.462	21888.86
505.83	22088.4
506.199	22302.63
506.567	22464.44
506.936	22392.12
507.304	22778.33
507.672	22826.01
508.041	22995.27
508.409	23194.14
508.777	23356.39
509.145	23555.93
509.514	23594.13
509.882	23851.29
510.25	23775.82
510.618	24030.27
510.986	24096.94
511.354	24362.92
511.722	24478.4
512.09	24788.44
512.458	24816.47
512.826	25146.85
513.193	25179.17
513.561	25262.33
513.929	25481.08
514.297	25622.77
514.664	25957.68
515.032	26028.41
515.4	26253.72
515.767	26353.37
516.135	26579.58
516.502	26392.24
516.869	26910.42
517.237	27057.31
517.604	27036.29
517.972	27349.51
518.339	27555.83
518.706	27669.95
519.073	27842.38
519.44	27989.04
519.808	28258.64
520.175	28322.59
520.542	28737.27
520.909	28904.27
521.276	28989.01
521.643	29284.6
522.009	29422.9
522.376	29610.46
522.743	29887.07
523.11	30048.19
523.477	30322.54
523.843	30620.61
524.21	30791.45
524.577	31141.72
524.943	31097.88
525.31	31346.69
525.676	31716.85
526.043	31856.73
526.409	31952.32
526.776	32389.83
527.142	32600.22
527.508	32723.15
527.874	32933.77
528.241	33068.9
528.607	33134.44
528.973	33565.16
529.339	33513.19
529.705	33901.2
530.071	34256.67
530.437	34340.51
530.803	34456.66
531.169	34768.75
531.535	34689.65
531.901	34845.35
532.267	34994.28
532.632	35200.83
532.998	35218.68
533.364	35698.89
533.73	35574.6
534.095	35950.86
534.461	36068.83
534.826	36171.42
535.192	36330.51
535.557	36657.06
535.923	36537.29
536.288	36675.36
536.653	36958.29
537.019	36927.56
537.384	37045.98
537.749	37166.88
538.114	37400.77
538.479	37429.02
538.845	37678.73
539.21	37549.92
539.575	37769.35
539.94	37932.28
540.305	38124.82
540.67	38221.99
541.034	38389.22
541.399	38413.62
541.764	38520.74
542.129	38745.82
542.494	38734.74
542.858	38957.56
543.223	39000.27
543.587	39238.23
543.952	39217.9
544.316	39413.37
544.681	39215.18
545.045	39734.94
545.41	39718.45
545.774	39886.35
546.138	39922.74
546.503	40034.6
546.867	40124.54
547.231	40457.41
547.595	40479.56
547.959	40527.92
548.324	40437.98
548.688	40724.3
549.052	40949.15
549.416	40997.51
549.779	41036.83
550.143	41277.73
550.507	41430.72
550.871	41594.78
551.235	41614.89
551.599	41920.42
551.962	41880.2
552.326	42108.89
552.689	42076.8
553.053	42169.91
553.417	42292.84
553.78	42825.71
554.143	42630.24
554.507	42966.95
554.87	43025.93
555.234	43440.84
555.597	43251.69
555.96	43195.19
556.323	43667.27
556.686	43559.48
557.05	43892.35
557.413	44029.29
557.776	44119.01
558.139	44401.26
558.502	44498.66
558.865	44589.96
559.228	44839.67
559.59	44935.71
559.953	45103.39
560.316	45378.86
560.679	45354.01
561.041	45708.8
561.404	45912.63
561.767	46240.31
562.129	46149.24
562.492	46444.82
562.854	46342.45
563.217	46457.48
563.579	46776.79
563.941	46939.27
564.304	47048.88
564.666	47328.64
565.028	47405.25
565.39	47527.96
565.753	47766.15
566.115	47876.88
566.477	48095.85
566.839	48110.09
567.201	48422.4
567.563	48471.66
567.925	48766.34
568.287	48517.31
568.648	48783.29
569.01	48929.28
569.372	49225.99
569.734	49108.03
570.095	49457.17
570.457	49477.51
570.819	49565.42
571.18	49587.11
571.542	49818.75
571.903	49870.72
572.265	50012.64
572.626	50210.83
572.987	50194.1
573.349	50272.75
573.71	50369.92
574.071	50429.35
574.432	50630.02
574.794	50843.58
575.155	50694.88
575.516	50706.41
575.877	50837.7
576.238	50859.85
576.599	51076.11
576.96	51008.32
577.32	51173.51
577.681	51204.47
578.042	51241.31
578.403	51347.75
578.763	51281.08
579.124	51262.78
579.485	51491.7
579.845	51541.64
580.206	51511.81
580.566	51554.75
580.927	51515.43
581.287	51637.91
581.648	51585.71
582.008	51759.03
582.368	51692.14
582.728	51681.52
583.089	51632.03
583.449	51611.02
583.809	51605.59
584.169	51755.19
584.529	51644.01
584.889	51822.31
585.249	51676.1
585.609	51700.51
585.969	51917.67
586.329	51689.43
586.688	51811.91
587.048	51821.41
587.408	51643.33
587.768	51694.4
588.127	51769.66
588.487	51639.26
588.846	51871.35
589.206	51776.44
589.565	51720.62
589.925	51788.19
590.284	51698.7
590.643	51788.19
591.003	51767.4
591.362	51834.06
591.721	51753.84
592.08	51787.96
592.44	51841.07
592.799	51849.88
593.158	51824.34
593.517	51811.24
593.876	51848.75
594.235	51844
594.593	51825.47
594.952	51891.23
595.311	51808.52
595.67	51889.88
596.029	52083.55
596.387	52048.97
596.746	52037.45
597.104	51918.8
597.463	51988.86
597.822	52015.07
598.18	51911.12
598.538	51896.43
598.897	52144.79
599.255	51782.99
599.613	52314.27
599.972	52137.78
600.33	52103.88
600.688	52024.79
601.046	52169.87
601.404	52293.48
601.762	52155.41
602.12	52408.51
602.478	52296.42
602.836	52370.77
603.194	52159.48
603.552	52276.54
603.91	52205.58
604.268	52431.33
604.625	52281.96
604.983	52450.54
605.341	52194.05
605.698	52365.12
606.056	52530.77
606.413	52465
606.771	52535.74
607.128	52596.53
607.485	52432.46
607.843	52444.21
608.2	52647.82
608.557	52690.08
608.914	52625.23
609.272	52769.63
609.629	52776.18
609.986	52864.32
610.343	52719.01
610.7	52942.73
611.057	52913.58
611.414	52938.89
611.771	52958.55
612.127	52947.25
612.484	52961.94
612.841	53053.69
613.198	52900.47
613.554	53014.37
613.911	53172.78
614.267	53150.64
614.624	53097.3
614.98	53145.21
615.337	53259.33
615.693	53251.88
616.05	53139.79
616.406	53348.37
616.762	53291.2
617.118	53252.78
617.475	53227.92
617.831	53337.52
618.187	53333.91
618.543	53354.47
618.899	53515.15
619.255	53511.76
619.611	53384.98
619.967	53488.71
620.323	53552.66
620.678	53462.94
621.034	53275.83
621.39	53362.38
621.746	53341.37
622.101	53702.94
622.457	53402.38
622.812	53500.68
623.168	53523.06
623.523	53539.1
623.879	53668.81
624.234	53401.25
624.589	53488.03
624.945	53492.1
625.3	53491.87
625.655	53447.13
626.01	53573.22
626.365	53517.41
626.72	53414.81
627.075	53508.14
627.43	53411.42
627.785	53434.47
628.14	53445.32
628.495	53446.22
628.85	53359.22
629.205	53141.37
629.559	53478.99
629.914	53199.22
630.269	53278.09
630.623	53217.53
630.978	53055.5
631.332	53254.59
631.687	53313.12
632.041	53222.95
632.396	53123.74
632.75	52941.15
633.104	53086.91
633.459	52968.49
633.813	52981.15
634.167	52962.17
634.521	52890.3
634.875	52940.25
635.229	52791.78
635.583	52723.53
635.937	52773.92
636.291	52727.37
636.645	52705.9
636.999	52566.7
637.352	52675.17
637.706	52441.28
638.06	52542.29
638.413	52531.44
638.767	52373.03
639.121	52432.69
639.474	52196.54
639.828	52252.58
640.181	52364.22
640.534	52289.42
640.888	52178.68
641.241	52026.6
641.594	52102.98
641.947	52137.56
642.301	52011.46
642.654	52027.5
643.007	51978.01
643.36	51979.82
643.713	51867.28
644.066	51961.52
644.419	51799.49
644.771	51467.06
645.124	51086.96
645.477	51159.73
645.83	50897.36
646.182	50831.83
646.535	50636.13
646.888	50738.04
647.24	50582.79
647.593	50814.43
647.945	50564.04
648.298	50529.69
648.65	50489.92
649.002	50350.48
649.355	50483.59
649.707	50469.8
650.059	50520.2
650.411	50849.91
650.763	50862.56
651.115	51214.64
651.467	51119.5
651.819	51016.91
652.171	51037.47
652.523	50940.98
652.875	50892.84
653.227	50692.4
653.578	50922.9
653.93	50879.96
654.282	50714.54
654.633	50526.07
654.985	50694.43
655.337	50595.68
655.688	50702.57
656.039	50720.87
656.391	50471.16
656.742	50434.32
657.094	50487.43
657.445	50626.86
657.796	50502.57
658.147	50446.53
658.498	50323.82
658.849	50512.97
659.2	50381.44
659.551	50373.76
659.902	50353.2
660.253	50255.12
660.604	50309.58
660.955	50094.9
661.306	50366.75
661.656	50171.73
662.007	50275.01
662.358	50198.17
662.708	50136.93
663.059	50067.55
663.409	49874.34
663.76	50210.6
664.11	50197.49
664.461	50103.94
664.811	50062.81
665.161	50004.96
665.511	49876.37
665.862	49952.08
666.212	50093.54
666.562	50035.46
666.912	49912.98
667.262	49854
667.612	49762.25
667.962	49850.84
668.312	49826.66
668.662	49899.65
669.011	49818.07
669.361	49776.04
669.711	49732.87
670.06	49628.7
670.41	49689.71
670.76	49541.92
671.109	49740.1
671.459	49583.5
671.808	49580.11
672.157	49585.76
672.507	49284.75
672.856	49464.63
673.205	49375.82
673.554	49514.8
673.904	49375.14
674.253	49621.46
674.602	49527.68
674.951	48822.39
675.3	48672.56
675.649	49217.63
675.998	49203.62
676.346	49225.54
676.695	49277.74
677.044	48903.29
677.393	49056.96
677.741	49183.51
678.09	48924.08
678.438	48810.41
678.787	48896.74
679.135	48898.77
679.484	48696.97
679.832	48821.71
680.181	48646.57
680.529	48687.93
680.877	48646.35
681.225	48444.09
681.573	48726.57
681.922	48432.12
682.27	48335.85
682.618	48366.81
682.966	48212.01
683.314	48190.54
683.661	48180.37
684.009	47961.17
684.357	47953.26
684.705	47944.9
685.053	47874.62
685.4	47751.46
685.748	47594.85
686.095	47609.09
686.443	47374.07
686.79	47384.69
687.138	47527.06
687.485	47375.2
687.832	47204.35
688.18	47271.69
688.527	46950.8
688.874	47062.89
689.221	46919.84
689.568	46755.55
689.915	46691.6
690.262	46777.7
690.609	46549
690.956	46455.22
691.303	46433.52
691.65	46093.87
691.997	46111.5
692.344	45850.26
692.69	45820.21
693.037	45878.06
693.383	45402.59
693.73	45659.76
694.077	45337.28
694.423	45447.56
694.769	45300.9
695.116	45181.58
695.462	45095.48
695.808	44888.93
696.155	45208.92
696.501	44639.9
696.847	44561.94
697.193	44423.86
697.539	44551.99
697.885	44221.61
698.231	44114.26
698.577	44068.62
698.923	43866.36
699.269	43830.43
699.614	43601.96
699.96	43518.8
700.306	43620.49
700.651	43393.6
700.997	43303.66
701.342	43138.47
701.688	43202.88
702.033	42920.85
702.379	42963.56
702.724	42751.36
703.069	42841.98
703.415	42325.61
703.76	42380.3
704.105	42375.1
704.45	42319.28
704.795	42047.43
705.14	41884.49
705.485	41753.2
705.83	41732.41
706.175	41773.76
706.52	41681.79
706.865	41534.9
707.209	41385.97
707.554	41341.91
707.899	41402.7
708.243	41263.27
708.588	40983.95
708.932	40821.92
709.277	40689.27
709.621	40779.66
709.966	40443.85
710.31	40531.53
710.654	40142.62
710.998	40282.27
711.342	40258.09
711.687	40246.34
712.031	40037.99
712.375	39865.56
712.719	39832.12
713.063	39764.77
713.407	39891.55
713.75	39681.39
714.094	39494.72
714.438	39365.01
714.782	39470.77
715.125	39296.76
715.469	39296.09
715.812	39082.31
716.156	38953.27
716.499	39083.44
716.843	38961.86
717.186	38671.7
717.53	38928.19
717.873	38764.35
718.216	38673.28
718.559	38452.72
718.902	38398.71
719.246	38432.38
719.589	38174.31
719.932	38130.01
720.275	38198.26
720.617	38094.31
720.96	38043.69
721.303	38035.55
721.646	37922.11
721.989	37766.86
722.331	37755.11
722.674	37564.38
723.016	37591.27
723.359	37471.5
723.701	37510.14
724.044	37358.06
724.386	37128.91
724.729	37270.6
725.071	37146.99
725.413	37239.42
725.755	37010.04
726.097	36824.06
726.439	36668.58
726.782	36773.89
727.124	36936.15
727.465	36676.49
727.807	36496.84
728.149	36378.87
728.491	36381.13
728.833	36328.25
729.175	36492.32
729.516	36215.49
729.858	36233.12
730.199	36166.68
730.541	36220.46
730.882	36135.94
731.224	36215.71
731.565	35870.41
731.906	35926
732.248	35919.68
732.589	35660.7
732.93	35607.14
733.271	35570.08
733.612	35584.09
733.953	35460.93
734.294	35344.55
734.635	35285.12
734.976	35479.69
735.317	35232.69
735.658	35261.62
735.999	35092.81
736.339	35095.29
736.68	35196.98
737.021	34923.32
737.361	34916.09
737.702	35065.24
738.042	34865.69
738.383	34819.59
738.723	34835.19
739.063	34574.4
739.404	34503.44
739.744	34589.54
740.084	34471.13
740.424	34519.71
740.764	34309.1
741.104	34408.08
741.444	34218.25
741.784	34083.79
742.124	34107.97
742.464	34070.91
742.804	33858.49
743.143	33856.91
743.483	33885.83
743.823	33746.17
744.162	33667.53
744.502	33636.8
744.841	33559.29
745.181	33770.81
745.52	33381.66
745.86	33472.06
746.199	33433.87
746.538	33288.11
746.877	33369.91
747.216	33239.75
747.556	33205.4
747.895	33140.99
748.234	32966.31
748.573	32956.82
748.911	32870.27
749.25	32874.56
749.589	32665.53
749.928	32707.11
750.267	32734.9
750.605	32635.92
750.944	32579.43
751.283	32422.59
751.621	32472.99
751.96	32124.52
752.298	32153.22
752.636	32201.13
752.975	32007.24
753.313	31885.43
753.651	31987.8
753.989	31855.6
754.327	31766.11
754.666	31468.04
755.004	31559.11
755.342	31619
755.679	31662.16
756.017	31376.07
756.355	31348.95
756.693	31187.15
757.031	31311.66
757.368	31072.35
757.706	31110.31
758.044	30966.81
758.381	30900.83
758.719	30725.69
759.056	30806.37
759.394	30637.33
759.731	30406.15
760.068	30543.32
760.405	30209.32
760.743	30276.66
761.08	30187.4
761.417	30015.43
761.754	30035.54
762.091	29813.17
762.428	29796.45
762.765	29626.74
763.102	29657.02
763.438	29520.75
763.775	29327.08
764.112	29279.4
764.449	29280.53
764.785	29078.27
765.122	28964.83
765.458	28964.38
765.795	28777.94
766.131	28732.07
766.467	28594.67
766.804	28553.99
767.14	28412.98
767.476	28414.34
767.812	28167.11
768.148	28205.3
768.485	28015.93
768.821	27890.51
769.157	27874.46
769.492	27804.18
769.828	27713.11
770.164	27567.13
770.5	27341.15
770.836	27316.51
771.171	27153.81
771.507	27093.02
771.842	26908.61
772.178	26947.03
772.513	26776.41
772.849	26761.27
773.184	26556.99
773.519	26728.05
773.855	26523.31
774.19	26468.4
774.525	26322.19
774.86	26234.96
775.195	26151.8
775.53	26022.76
775.865	25822.99
776.2	25851.24
776.535	25663.68
776.87	25602.43
777.205	25413.51
777.539	25394.3
777.874	25423
778.209	25137.36
778.543	25179.85
778.878	24988.89
779.212	24991.83
779.547	24802
779.881	24830.03
780.215	24718.62
780.55	24640.43
780.884	24520.65
781.218	24346.42
781.552	24461
781.886	24169.93
782.22	24148.69
782.554	23962.25
782.888	23752.54
783.222	23740.79
783.556	23631.19
783.889	23674.8
784.223	23402.94
784.557	23430.29
784.89	23446.78
785.224	23323.4
785.557	23099.22
785.891	23073.24
786.224	23059.22
786.558	22950.07
786.891	22836.18
787.224	22820.59
787.557	22620.82
787.891	22566.58
788.224	22543.53
788.557	22519.13
788.89	22394.61
789.223	22254.5
789.556	22121.4
789.888	22110.55
790.221	22068.06
790.554	21833.04
790.887	21874.17
791.219	21809.31
791.552	21838.01
791.884	21749.88
792.217	21653.61
792.549	21477.12
792.882	21380.62
793.214	21276.22
793.546	21266.28
793.879	21119.16
794.211	20928.66
794.543	21125.04
794.875	20974.31
795.207	20959.84
795.539	20868.77
795.871	20767.08
796.203	20655.67
796.535	20497.48
796.867	20513.08
797.198	20448.22
797.53	20380.88
797.862	20292.07
798.193	20329.13
798.525	20180.66
798.856	20094.56
799.188	19953.09
799.519	19953.77
799.85	19867.9
800.182	19847.33
800.513	19757.39
800.844	19656.83
801.175	19714.23
801.506	19594.23
801.837	19542.93
802.168	19512.65
802.499	19426.1
802.83	19263.84
803.161	19274.46
803.491	19156.28
803.822	19256.84
804.153	19147.69
804.483	18927.13
804.814	18914.02
805.145	18824.99
805.475	18836.06
805.805	18782.05
806.136	18711.99
806.466	18821.37
806.796	18685.33
807.126	18497.54
807.457	18505.45
807.787	18521.94
808.117	18399.23
808.447	18236.75
808.777	18305.68
809.107	18225.23
809.436	18198.56
809.766	18169.18
810.096	18050.09
810.426	18040.83
810.755	18111.33
811.085	18007.15
811.414	17878.8
811.744	17799.02
812.073	17792.47
812.403	17802.19
812.732	17673.6
813.061	17626.37
813.39	17516.09
813.719	17504.57
814.049	17702.3
814.378	17474.29
814.707	17419.82
815.036	17388.86
815.365	17302.99
815.693	17179.15
816.022	17199.49
816.351	17117.91
816.68	16967.18
817.008	17064.13
817.337	16883.12
817.665	16945.26
817.994	16891.02
818.322	16844.47
818.651	16632.73
818.979	16694.87
819.307	16772.16
819.636	16717.24
819.964	16531.49
820.292	16713.63
820.62	16617.13
820.948	16627.53
821.276	16581.43
821.604	16485.39
821.932	16597.93
822.259	16561.77
822.587	16432.28
822.915	16459.17
823.243	16410.59
823.57	16450.13
823.898	16409.68
824.225	16316.35
824.553	16358.84
824.88	16399.51
825.207	16415.11
825.535	16459.62
825.862	16313.19
826.189	16417.82
826.516	16478.38
826.843	16420.98
827.17	16405.39
827.497	16458.27
827.824	16369.23
828.151	16478.61
828.478	16375.56
828.805	16405.84
829.131	16291.49
829.458	16220.53
829.785	16219.63
830.111	16232.51
830.438	16425.27
830.764	16240.42
831.09	16358.38
831.417	16245.39
831.743	16309.35
832.069	16310.93
832.395	16192.51
832.722	16275
833.048	16218.95
833.374	16168.33
833.7	16161.78
834.026	16074.1
834.351	16173.08
834.677	16051.5
835.003	16036.13
835.329	16063.93
835.654	15999.75
835.98	16066.64
836.306	15989.81
836.631	15871.39
836.956	15984.38
837.282	15967.89
837.607	15945.06
837.932	15836.59
838.258	15867.55
838.583	15803.6
838.908	15716.14
839.233	15750.72
839.558	15758.85
839.883	15715.91
840.208	15567.9
840.533	15553.43
840.858	15736.93
841.182	15563.83
841.507	15548.01
841.832	15528.35
842.156	15514.79
842.481	15438.18
842.805	15390.27
843.13	15300.33
843.454	15263.5
843.778	15254.91
844.103	15197.06
844.427	15253.33
844.751	15157.74
845.075	15104.86
845.399	15086.33
845.723	15005.88
846.047	14954.58
846.371	14865.09
846.695	14849.95
847.019	14734.02
847.343	14626.9
847.666	14587.58
847.99	14531.09
848.313	14528.6
848.637	14504.19
848.96	14422.16
849.284	14399.11
849.607	14223.98
849.931	14221.94
850.254	14259
850.577	14028.05
850.9	13948.96
851.223	13981.04
851.546	13881.61
851.869	13864.21
852.192	13909.41
852.515	13695.4
852.838	13672.58
853.161	13638.45
853.483	13501.51
853.806	13535.18
854.129	13459.25
854.451	13423.09
854.774	13396.2
855.096	13348.52
855.419	13341.06
855.741	13211.8
856.063	13125.25
856.385	13181.07
856.708	13038.47
857.03	13033.05
857.352	13153.72
857.674	12979.04
857.996	12976.55
858.318	12859.49
858.64	12844.13
858.961	12864.24
859.283	12799.15
859.605	12656.56
859.926	12717.58
860.248	12729.55
860.57	12634.87
860.891	12652.49
861.212	12526.62
861.534	12524.36
861.855	12430.8
862.176	12588.31
862.498	12463.8
862.819	12478.03
863.14	12390.8
863.461	12364.59
863.782	12317.36
864.103	12312.16
864.424	12290.69
864.745	12295.21
865.065	12261.54
865.386	12228.1
865.707	12200.75
866.027	12159.62
866.348	12093.64
866.668	12098.38
866.989	12056.12
867.309	11981.78
867.63	11994.88
867.95	12032.85
868.27	11917.14
868.59	11928.22
868.91	11892.96
869.23	11871.27
869.55	11830.82
869.87	11807.99
870.19	11863.81
870.51	11792.18
870.83	11834.66
871.15	11737.71
871.469	11810.25
871.789	11725.06
872.109	11710.14
872.428	11599.19
872.748	11691.16
873.067	11613.2
873.386	11668.79
873.706	11636.7
874.025	11500.88
874.344	11478.96
874.663	11476.48
874.982	11506.99
875.301	11549.24
875.62	11441.9
875.939	11383.6
876.258	11290.95
876.577	11397.16
876.896	11330.04
877.214	11288.23
877.533	11293.21
877.852	11283.94
878.17	11232.42
878.489	11226.09
878.807	11230.83
879.125	11212.08
879.444	11191.29
879.762	11139.76
880.08	11155.36
880.398	11119.43
880.716	11118.3
881.034	11055.47
881.352	11114.91
881.67	11016.6
881.988	11051.4
882.306	11002.59
882.624	11017.51
882.941	10946.32
883.259	10919.88
883.577	10850.51
883.894	10801.47
884.212	10839.66
884.529	10801.69
884.846	10795.82
885.164	10785.2
885.481	10719.21
885.798	10730.06
886.115	10693.22
886.432	10714.92
886.75	10663.62
887.067	10603.51
887.383	10594.69
887.7	10560.12
888.017	10585.2
888.334	10517.41
888.651	10502.94
888.967	10483.06
889.284	10438.54
889.6	10348.37
889.917	10306.57
890.233	10336.62
890.55	10222.95
890.866	10280.8
891.182	10184.08
891.498	10187.47
891.815	10136.63
892.131	10130.75
892.447	10090.98
892.763	10051.66
893.079	10026.35
893.395	9984.31
893.71	9984.99
894.026	10002.84
894.342	9858.44
894.657	9839.01
894.973	9786.35
895.289	9772.57
895.604	9870.42
895.92	9783.87
896.235	9736.18
896.55	9726.47
896.865	9622.74
897.181	9562.63
897.496	9594.27
897.811	9556.08
898.126	9496.19
898.441	9492.12
898.756	9441.28
899.071	9387.04
899.386	9446.47
899.7	9352.24
900.015	9230.66
900.33	9243.77
900.644	9186.59
900.959	9225.69
901.273	9156.31
901.588	9128.07
901.902	9100.5
902.216	9090.55
902.531	9009.88
902.845	8968.3
903.159	8908.64
903.473	8913.16
903.787	8887.39
904.101	8757.91
904.415	8801.97
904.729	8844
905.042	8686.04
905.356	8706.83
905.67	8751.58
905.984	8702.54
906.297	8654.41
906.611	8585.25
906.924	8560.85
907.237	8538.48
907.551	8466.61
907.864	8436.11
908.177	8437.69
908.491	8412.38
908.804	8336.67
909.117	8291.7
909.43	8254.64
909.743	8204.47
910.056	8227.98
910.368	8152.27
910.681	8130.13
910.994	8068.88
911.307	8085.38
911.619	7993.18
911.932	7998.6
912.244	7954.08
912.557	7949.56
912.869	7904.37
913.181	7837.25
913.494	7875.67
913.806	7803.58
914.118	7760.19
914.43	7766.52
914.742	7679.97
915.054	7625.28
915.366	7645.17
915.678	7591.38
915.99	7618.05
916.302	7494.66
916.613	7478.16
916.925	7439.52
917.236	7392.29
917.548	7357.49
917.859	7354.55
918.171	7312.52
918.482	7242.46
918.794	7258.51
919.105	7209.25
919.416	7145.07
919.727	7178.06
920.038	7123.37
920.349	7063.26
920.66	7028.23
920.971	7134.67
921.282	6986.88
921.593	6939.42
921.903	6863.94
922.214	6877.05
922.525	6863.27
922.835	6862.36
923.146	6818.97
923.456	6829.14
923.767	6746.21
924.077	6757.73
924.387	6708.24
924.697	6665.76
925.008	6643.38
925.318	6595.02
925.628	6607.23
925.938	6562.03
926.248	6519.55
926.558	6517.96
926.867	6512.54
927.177	6407.68
927.487	6443.16
927.796	6304.64
928.106	6348.93
928.416	6326.1
928.725	6334.47
929.034	6203.85
929.344	6258.31
929.653	6242.94
929.962	6160.69
930.271	6135.83
930.581	6134.7
930.89	6119.56
931.199	6073.46
931.508	6050.63
931.817	6031.65
932.125	6071.2
932.434	5974.93
932.743	5932.67
933.051	5902.84
933.36	5875.04
933.669	5852.44
933.977	5790.53
934.286	5844.31
934.594	5763.63
934.902	5742.84
935.21	5745.1
935.519	5735.61
935.827	5688.16
936.135	5647.48
936.443	5575.84
936.751	5588.5
937.059	5618.1
937.367	5536.52
937.674	5554.37
937.982	5570.19
938.29	5507.37
938.597	5533.36
938.905	5488.84
939.213	5442.96
939.52	5389.41
939.827	5379.69
940.135	5397.54
940.442	5320.93
940.749	5291.1
941.056	5332.01
941.363	5217.89
941.67	5230.54
941.977	5202.97
942.284	5153.03
942.591	5152.58
942.898	5158.45
943.205	5163.2
943.511	5085.91
943.818	5092.92
944.125	5008.85
944.431	4968.4
944.738	5005.24
945.044	4988.29
945.35	4970.66
945.657	4951.45
945.963	4947.16
946.269	4855.86
946.575	4898.35
946.881	4859.93
947.187	4868.06
947.493	4810.89
947.799	4782.87
948.105	4753.94
948.41	4687.96
948.716	4705.81
949.022	4722.53
949.327	4715.3
949.633	4657.9
949.938	4641.63
950.244	4623.1
950.549	4573.16
950.854	4566.15
951.16	4578.58
951.465	4508.07
951.77	4520.05
952.075	4425.36
952.38	4494.51
952.685	4411.35
952.99	4403.22
953.294	4418.81
953.599	4346.27
953.904	4349.89
954.209	4322.54
954.513	4363.67
954.818	4287.29
955.122	4268.53
955.426	4302.2
955.731	4268.31
956.035	4209.55
956.339	4206.16
956.643	4171.81
956.948	4156.44
957.252	4135.88
957.556	4129.33
957.86	4126.84
958.163	4099.95
958.467	4096.78
958.771	4068.76
959.075	4037.13
959.378	3985.38
959.682	3994.19
959.985	3988.54
960.289	3976.56
960.592	3951.25
960.896	3906.96
961.199	3905.38
961.502	3902.67
961.805	3856.57
962.108	3857.7
962.411	3832.39
962.714	3803.69
963.017	3792.39
963.32	3870.58
963.623	3772.05
963.926	3773.4
964.228	3754.2
964.531	3749
964.833	3751.26
965.136	3696.8
965.438	3650.47
965.741	3633.07
966.043	3634.65
966.345	3603.69
966.648	3632.39
966.95	3573.63
967.252	3556.69
967.554	3560.98
967.856	3568.21
968.158	3553.3
968.46	3526.63
968.761	3510.36
969.063	3500.42
969.365	3468.55
969.666	3467.42
969.968	3433.98
970.269	3412.51
970.571	3434.2
970.872	3403.7
971.174	3410.25
971.475	3363.24
971.776	3358.73
972.077	3338.84
972.378	3318.27
972.679	3314.66
972.98	3308.78
973.281	3300.2
973.582	3285.51
973.883	3285.51
974.183	3232.17
974.484	3212.74
974.785	3200.76
975.085	3218.62
975.386	3207.77
975.686	3196.47
975.986	3156.92
976.287	3153.53
976.587	3117.38
976.887	3088.9
977.187	3101.33
977.487	3081.22
977.787	3072.63
978.087	3078.96
978.387	3072.41
978.687	3049.13
978.987	3048.45
979.286	2994.22
979.586	2999.64
979.885	3008.45
980.185	2972.07
980.484	2917.38
980.784	2967.55
981.083	2882.35
981.382	2908.79
981.682	2838.06
981.981	2866.99
982.28	2879.87
982.579	2856.37
982.878	2853.43
983.177	2803.26
983.475	2831.51
983.774	2800.32
984.073	2790.15
984.372	2787.44
984.67	2779.53
984.969	2750.61
985.267	2754.9
985.566	2703.15
985.864	2688.91
986.162	2715.8
986.461	2711.28
986.759	2688.01
987.057	2609.37
987.355	2622.7
987.653	2665.64
987.951	2593.55
988.249	2630.83
988.547	2595.81
988.844	2606.2
989.142	2563.04
989.44	2566.43
989.737	2522.82
990.035	2539.76
990.332	2533.21
990.63	2496.38
990.927	2489.37
991.224	2485.53
991.521	2467.22
991.819	2448.47
992.116	2486.88
992.413	2416.15
992.71	2404.4
993.006	2424.51
993.303	2413.67
993.6	2374.12
993.897	2377.51
994.193	2342.93
994.49	2337.74
994.787	2367.56
995.083	2315.36
995.379	2358.98
995.676	2308.36
995.972	2301.58
996.268	2296.83
996.565	2276.49
996.861	2263.84
997.157	2253.44
997.453	2221.35
997.749	2218.19
998.044	2203.73
998.34	2182.94
998.636	2190.85
998.932	2215.25
999.227	2201.92
999.523	2139.77
999.818	2135.93
1000.114	2131.64
1000.409	2114.92
1000.704	2094.35
1001	2095.26
1001.295	2122.6
1001.59	2085.09
1001.885	2050.29
1002.18	2030.4
1002.475	2052.77
1002.77	2025.2
1003.065	2036.5
1003.359	2029.27
1003.654	2015.03
1003.949	1979.33
1004.243	1980.23
1004.538	1970.29
1004.832	1956.73
1005.127	1915.37
1005.421	1928.93
1005.715	1926.9
1006.009	1902.49
1006.304	1905.43
1006.598	1867.92
1006.892	1870.85
1007.186	1835.6
1007.48	1876.5
1007.773	1831.53
1008.067	1820.01
1008.361	1830.86
1008.655	1817.07
1008.948	1818.2
1009.242	1771.65
1009.535	1791.99
1009.829	1776.39
1010.122	1786.56
1010.415	1732.78
1010.708	1712.44
1011.001	1714.47
1011.295	1723.06
1011.588	1708.83
1011.881	1717.86
1012.173	1690.97
1012.466	1691.65
1012.759	1679.67
1013.052	1676.74
1013.344	1672.44
1013.637	1633.8
1013.93	1628.6
1014.222	1616.85
1014.514	1616.17
1014.807	1601.48
1015.099	1582.5
1015.391	1585.66
1015.683	1606.45
1015.976	1570.52
1016.268	1550.19
1016.56	1524.65
1016.851	1552.22
1017.143	1539.79
1017.435	1512.22
1017.727	1498.66
1018.018	1497.08
1018.31	1483.75
1018.602	1476.74
1018.893	1454.59
1019.185	1440.36
1019.476	1444.88
1019.767	1456.18
1020.058	1440.81
1020.35	1409.62
1020.641	1411.66
1020.932	1426.57
1021.223	1366.91
1021.514	1377.76
1021.804	1362.62
1022.095	1380.92
1022.386	1343.19
1022.677	1323.3
1022.967	1335.28
1023.258	1312.9
1023.548	1331.66
1023.839	1328.72
1024.129	1298.89
1024.419	1309.29
1024.709	1291.43
1025	1278.55
1025.29	1291.43
1025.58	1242.17
1025.87	1279.91
1026.16	1254.6
1026.449	1234.04
1026.739	1219.12
1027.029	1219.35
1027.319	1209.86
1027.608	1208.5
1027.898	1197.43
1028.187	1185
1028.477	1195.62
1028.766	1158.78
1029.055	1159.01
1029.344	1174.38
1029.634	1140.93
1029.923	1139.8
1030.212	1131.67
1030.501	1134.6
1030.79	1104.55
1031.078	1107.26
1031.367	1110.2
1031.656	1110.87
1031.945	1096.64
1032.233	1092.12
1032.522	1088.28
1032.81	1111.55
1033.099	1063.42
1033.387	1047.83
1033.675	1061.61
1033.963	1056.64
1034.251	1043.98
1034.54	1028.39
1034.828	1015.51
1035.116	1024.1
1035.403	1028.62
1035.691	1023.42
1035.979	983.42
1036.267	988.84
1036.554	993.36
1036.842	979.13
1037.129	975.06
1037.417	929.41
1037.704	962.4
1037.992	971.9
1038.279	935.51
1038.566	940.26
1038.853	940.26
1039.14	940.26
