Data from breadboard_white_FLMS001491_00019.txt Node
Date: Wed Feb 08 10:47:21 GMT 2017
User: dcchb
Spectrometer: FLMS00149
Trigger mode: 0
Integration Time (sec): 2.000000E-2
Scans to average: 10
Electric dark correction enabled: true
Nonlinearity correction enabled: false
Boxcar width: 0
XAxis mode: Wavelengths
Number of Pixels in Spectrum: 2048
>>>>>Begin Spectral Data<<<<<
341.393	6.95
341.776	6.95
342.16	6.95
342.543	-52.94
342.927	-70.34
343.31	-66.5
343.693	-52.26
344.077	-61.07
344.46	-62.88
344.843	-44.58
345.226	-34.41
345.61	-41.41
345.993	-31.47
346.376	-21.3
346.759	20.28
347.142	17.8
347.525	28.87
347.908	44.69
348.291	87.85
348.674	95.99
349.057	120.39
349.44	123.78
349.823	118.58
350.206	154.06
350.588	218.47
350.971	227.51
351.354	256.66
351.737	273.83
352.119	279.48
352.502	268.64
352.884	295.53
353.267	298.24
353.65	311.8
354.032	316.09
354.414	309.09
354.797	313.61
355.179	328.3
355.562	350.22
355.944	338.47
356.326	365.13
356.709	363.32
357.091	363.1
357.473	380.27
357.855	375.3
358.238	361.97
358.62	365.81
359.002	372.14
359.384	367.39
359.766	357
360.148	370.33
360.53	384.57
360.912	371.23
361.294	361.06
361.676	364
362.057	358.58
362.439	374.4
362.821	355.64
363.203	368.3
363.584	363.78
363.966	356.54
364.348	382.76
364.729	356.32
365.111	363.78
365.493	350.89
365.874	350.44
366.256	326.04
366.637	372.14
367.019	359.71
367.4	347.96
367.781	342.53
368.163	358.13
368.544	343.44
368.925	351.57
369.306	355.87
369.688	362.65
370.069	344.12
370.45	365.13
370.831	373.04
371.212	375.3
371.593	382.98
371.974	357.67
372.355	361.97
372.736	367.84
373.117	377.11
373.498	383.66
373.879	351.8
374.26	373.72
374.641	366.26
375.021	366.04
375.402	356.77
375.783	395.64
376.163	396.09
376.544	385.24
376.925	381.4
377.305	385.47
377.686	385.92
378.066	395.19
378.447	411.91
378.827	402.87
379.208	416.66
379.588	410.78
379.968	396.54
380.349	404.9
380.729	416.88
381.109	420.5
381.489	428.86
381.87	411.23
382.25	433.6
382.63	422.31
383.01	442.64
383.39	415.07
383.77	462.08
384.15	443.77
384.53	450.33
384.91	450.55
385.29	432.7
385.67	457.56
386.049	450.78
386.429	484.22
386.809	466.15
387.189	485.58
387.568	490.55
387.948	482.42
388.328	506.6
388.707	479.93
389.087	489.65
389.466	507.05
389.846	502.08
390.225	510.89
390.605	519.25
390.984	519.03
391.363	539.36
391.743	517.9
392.122	537.78
392.501	565.13
392.881	569.42
393.26	554.28
393.639	587.27
394.018	575.75
394.397	568.74
394.776	583.43
395.155	593.37
395.534	613.71
395.913	635.41
396.292	618.23
396.671	631.57
397.05	646.48
397.429	657.1
397.808	648.06
398.186	643.09
398.565	679.7
398.944	658.91
399.323	713.82
399.701	694.16
400.08	710.43
400.458	686.71
400.837	718.12
401.215	728.06
401.594	763.99
401.972	775.52
402.351	797.21
402.729	784.56
403.107	785.69
403.486	833.37
403.864	805.12
404.242	801.28
404.62	846.02
404.999	843.99
405.377	893.71
405.755	895.29
406.133	915.85
406.511	909.07
406.889	958.11
407.267	948.17
407.645	972.8
408.023	997.88
408.401	1007.37
408.779	1043.53
409.156	1063.42
409.534	1074.72
409.912	1085.11
410.29	1126.24
410.667	1112.23
411.045	1156.3
411.422	1199.23
411.8	1213.47
412.178	1235.84
412.555	1239.01
412.933	1258.22
413.31	1279.46
413.687	1303.19
414.065	1349.51
414.442	1340.02
414.819	1354.48
415.197	1413.69
415.574	1427.93
415.951	1420.02
416.328	1486.46
416.705	1486.46
417.082	1509.28
417.46	1523.52
417.837	1560.13
418.214	1529.39
418.591	1609.84
418.967	1575.5
419.344	1632.22
419.721	1676.51
420.098	1662.27
420.475	1679.45
420.852	1716.96
421.228	1731.88
421.605	1776.85
421.982	1752.67
422.358	1773.91
422.735	1816.84
423.111	1882.61
423.488	1847.58
423.864	1873.57
424.241	1900.46
424.617	1938.88
424.994	1954.92
425.37	1971.19
425.746	1975.48
426.123	2013.9
426.499	2027.23
426.875	2082.6
427.251	2146.33
427.627	2156.95
428.003	2178.19
428.379	2212.31
428.756	2228.81
429.132	2298.41
429.507	2290.5
429.883	2343.16
430.259	2381.8
430.635	2390.39
431.011	2401.46
431.387	2450.73
431.763	2511.06
432.138	2500.89
432.514	2560.55
432.89	2612.76
433.265	2657.05
433.641	2651.85
434.016	2693.66
434.392	2749.02
434.767	2813.88
435.143	2818.4
435.518	2833.32
435.894	2861.34
436.269	2912.64
436.644	2990.15
437.02	2976.59
437.395	2984.27
437.77	3038.51
438.145	3137.49
438.52	3155.34
438.895	3188.56
439.271	3155.57
439.646	3254.32
440.021	3280.76
440.395	3259.07
440.77	3321.89
441.145	3339.97
441.52	3384.49
441.895	3410.93
442.27	3424.94
442.645	3412.51
443.019	3490.7
443.394	3508.1
443.769	3543.13
444.143	3547.42
444.518	3553.07
444.892	3603.01
445.267	3618.38
445.641	3671.03
446.016	3697.93
446.39	3729.56
446.764	3732.05
447.139	3748.55
447.513	3770.69
447.887	3831.26
448.262	3843.91
448.636	3871.93
449.01	3939.5
449.384	3940.63
449.758	3974.75
450.132	3996.22
450.506	4088.88
450.88	4119.16
451.254	4062.44
451.628	4134.52
452.002	4257.91
452.376	4270.34
452.75	4298.81
453.123	4348.53
453.497	4392.14
453.871	4450.45
454.244	4540.39
454.618	4562.08
454.992	4638.47
455.365	4633.49
455.739	4753.26
456.112	4826.71
456.486	4833.71
456.859	4871.68
457.232	4993.94
457.606	4943.09
457.979	5088.4
458.352	5157.1
458.725	5228.28
459.099	5234.83
459.472	5390.76
459.845	5427.15
460.218	5476.86
460.591	5517.99
460.964	5550.31
461.337	5656.52
461.71	5801.15
462.083	5880.69
462.456	5883.86
462.829	5861.03
463.201	5997.98
463.574	6060.8
463.947	6126.34
464.32	6307.8
464.692	6293.11
465.065	6408.36
465.438	6480.68
465.81	6565.19
466.183	6615.14
466.555	6783.49
466.928	6846.32
467.3	6800.67
467.672	6952.53
468.045	7063.26
468.417	7141.68
468.789	7226.65
469.161	7326.08
469.534	7424.16
469.906	7615.34
470.278	7635.9
470.65	7786.41
471.022	7934.42
471.394	8084.93
471.766	8077.25
472.138	8269.1
472.51	8436.56
472.882	8509.55
473.253	8641.07
473.625	8768.3
473.997	8940.27
474.369	9006.49
474.74	9115.18
475.112	9350.21
475.484	9452.12
475.855	9611.89
476.227	9661.16
476.598	9963.3
476.97	10063.18
477.341	10273.35
477.713	10459.78
478.084	10559.67
478.455	10833.33
478.827	10884.86
479.198	11218.63
479.569	11255.92
479.94	11528.91
480.311	11713.76
480.682	11937.71
481.053	12208.66
481.424	12383.8
481.795	12572.72
482.166	12713.73
482.537	12884.35
482.908	13206.15
483.279	13275.53
483.65	13576.08
484.021	13856.3
484.391	13956.64
484.762	14037.09
485.133	14304.88
485.503	14422.84
485.874	14802.94
486.244	14938.99
486.615	15217.17
486.985	15352.08
487.356	15671.85
487.726	15782.58
488.097	16185.73
488.467	16159.74
488.837	16528.1
489.207	16674.31
489.578	16992.27
489.948	17213.95
490.318	17501.63
490.688	17583.44
491.058	17844.67
491.428	18028.85
491.798	18128.96
492.168	18517.65
492.538	18618.66
492.908	18873.57
493.278	19129.61
493.648	19114.24
494.017	19422.03
494.387	19565.53
494.757	19666.09
495.126	20047.33
495.496	20006.42
495.866	20144.05
496.235	20482.79
496.605	20597.59
496.974	20706.52
497.344	20903.35
497.713	21061.54
498.082	21189.22
498.452	21478.02
498.821	21570.9
499.19	21685.93
499.559	21892.48
499.928	22052.7
500.298	22176.99
500.667	22408.85
501.036	22455.17
501.405	22680.03
501.774	22681.16
502.143	22910.3
502.512	22962.73
502.88	23301.48
503.249	23324.3
503.618	23461.7
503.987	23669.6
504.356	23851.75
504.724	23950.05
505.093	24059.2
505.462	24221.45
505.83	24393.2
506.199	24555.68
506.567	24881.32
506.936	24901.44
507.304	25157.7
507.672	25225.49
508.041	25460.97
508.409	25734.18
508.777	25799.27
509.145	26008.07
509.514	26086.94
509.882	26240.38
510.25	26520.38
510.618	26693.25
510.986	26743.42
511.354	27052.34
511.722	27250.3
512.09	27501.37
512.458	27549.95
512.826	27703.85
513.193	27932.32
513.561	28011.86
513.929	28262.93
514.297	28574.79
514.664	28683.94
515.032	28998.28
515.4	29150.36
515.767	29297.03
516.135	29391.71
516.502	29254.09
516.869	30023.79
517.237	30015.65
517.604	29880.06
517.972	30376.55
518.339	30619.93
518.706	30564.34
519.073	30872.8
519.44	31026.92
519.808	31436.63
520.175	31487.48
520.542	31791.2
520.909	32173.33
521.276	32021.02
521.643	32575.81
522.009	32744.39
522.376	32870.27
522.743	33125.85
523.11	33488.33
523.477	33778.26
523.843	34015.09
524.21	34331.92
524.577	34632.93
524.943	34706.83
525.31	34891.91
525.676	35318.79
526.043	35495.73
526.409	35630.19
526.776	36019.34
527.142	36102.05
527.508	36386.56
527.874	36497.06
528.241	36731.18
528.607	36954
528.973	37245.52
529.339	37406.64
529.705	37774.32
530.071	38009.11
530.437	38179.28
530.803	38311.25
531.169	38590.12
531.535	38638.48
531.901	38749.89
532.267	38872.82
532.632	39112.14
532.998	39338.8
533.364	39525.23
533.73	39703.08
534.095	40075.5
534.461	40212.45
534.826	40385.77
535.192	40502.16
535.557	40794.13
535.923	40764.97
536.288	40950.73
536.653	41191.85
537.019	41045.19
537.384	41312.08
537.749	41497.16
538.114	41615.35
538.479	41739.19
538.845	41976.69
539.21	41952.06
539.575	41985.73
539.94	42154.54
540.305	42572.16
540.67	42468.43
541.034	42579.61
541.399	42868.65
541.764	43011.02
542.129	43041.52
542.494	43206.72
542.858	43152.48
543.223	43400.84
543.587	43709.08
543.952	43681.51
544.316	43821.39
544.681	43894.83
545.045	44185.45
545.41	44274.71
545.774	44340.7
546.138	44348.38
546.503	44582.27
546.867	44475.16
547.231	44843.06
547.595	45053
547.959	45145.2
548.324	45305.42
548.688	45302.26
549.052	45385.19
549.416	45671.96
549.779	45692.08
550.143	45877.61
550.507	45997.83
550.871	46066.08
551.235	46090.93
551.599	46387.2
551.962	46437.37
552.326	46686.85
552.689	46870.12
553.053	46672.61
553.417	46841.2
553.78	47364.8
554.143	47179.49
554.507	47527.06
554.87	47536.55
555.234	48016.08
555.597	47884.56
555.96	47902.64
556.323	48047.95
556.686	48244.78
557.05	48558.21
557.413	48756.63
557.776	48678.66
558.139	48981.93
558.502	49042.72
558.865	49171.76
559.228	49334.24
559.59	49519.32
559.953	49562.26
560.316	49837.5
560.679	49902.13
561.041	50188.23
561.404	50371.73
561.767	50461.67
562.129	50397.04
562.492	50749.57
562.854	50767.42
563.217	50848.78
563.579	51079.28
563.941	51254.64
564.304	51263.91
564.666	51552.49
565.028	51631.35
565.39	51688.53
565.753	51921.74
566.115	51931.01
566.477	52163.09
566.839	52178.46
567.201	52334.61
567.563	52470.65
567.925	52640.37
568.287	52683.98
568.648	52759.23
569.01	52948.61
569.372	53187.7
569.734	52990.64
570.095	53231.54
570.457	53399.67
570.819	53446.45
571.18	53478.99
571.542	53628.14
571.903	53636.95
572.265	53821.58
572.626	53809.15
572.987	53926.89
573.349	53990.16
573.71	54147.67
574.071	54195.13
574.432	54224.96
574.794	54483.03
575.155	54405.74
575.516	54294.79
575.877	54558.06
576.238	54558.51
576.599	54653.2
576.96	54689.13
577.32	54699.3
577.681	54768.22
578.042	54861.33
578.403	54816.13
578.763	54906.3
579.124	54962.79
579.485	55039.17
579.845	55071.26
580.206	55042.11
580.566	55065.39
580.927	55123.69
581.287	55215.67
581.648	55150.58
582.008	55228.1
582.368	55089.34
582.728	55227.42
583.089	55202.56
583.449	55296.79
583.809	55186.29
584.169	55333.63
584.529	55249.56
584.889	55425.38
585.249	55241.65
585.609	55191.94
585.969	55395.1
586.329	55240.75
586.688	55333.86
587.048	55236.23
587.408	55180.64
587.768	55289.34
588.127	55204.14
588.487	55219.73
588.846	55389.67
589.206	55242.78
589.565	55223.58
589.925	55367.08
590.284	55285.04
590.643	55333.63
591.003	55408.88
591.362	55405.04
591.721	55368.88
592.08	55369.34
592.44	55416.57
592.799	55395.55
593.158	55377.24
593.517	55386.28
593.876	55411.37
594.235	55313.74
594.593	55373.4
594.952	55428.32
595.311	55349.9
595.67	55468.54
596.029	55542.89
596.387	55576.56
596.746	55559.16
597.104	55483
597.463	55484.81
597.822	55608.88
598.18	55566.17
598.538	55483
598.897	55698.14
599.255	55473.97
599.613	55834.41
599.972	55681.42
600.33	55660.63
600.688	55626.05
601.046	55638.93
601.404	55802.32
601.762	55690.23
602.12	55762.77
602.478	55869.89
602.836	55837.8
603.194	55703.79
603.552	55804.8
603.91	55810.68
604.268	55954.4
604.625	55789.44
604.983	55856.78
605.341	55803.22
605.698	55959.15
606.056	56012.93
606.413	55861.53
606.771	56139.26
607.128	56080.73
607.485	56044.35
607.843	56043.67
608.2	56145.36
608.557	56181.07
608.914	56138.13
609.272	56216.54
609.629	56299.03
609.986	56346.48
610.343	56302.42
610.7	56402.3
611.057	56378.8
611.414	56280.5
611.771	56431
612.127	56445.69
612.484	56427.84
612.841	56441.4
613.198	56373.38
613.554	56416.31
613.911	56602.97
614.267	56625.8
614.624	56569.98
614.98	56577.89
615.337	56737.21
615.693	56618.34
616.05	56611.79
616.406	56819.01
616.762	56721.16
617.118	56684.78
617.475	56777.66
617.831	56784.89
618.187	56795.29
618.543	56752.58
618.899	56869.63
619.255	56832.57
619.611	56910.76
619.967	56879.35
620.323	56917.77
620.678	56864.89
621.034	56866.7
621.39	56847.49
621.746	56795.96
622.101	57101.04
622.457	56834.61
622.812	56979.46
623.168	57046.35
623.523	56998.67
623.879	57022.17
624.234	56848.17
624.589	57002.96
624.945	57032.79
625.3	56984.43
625.655	56942.63
626.01	57008.39
626.365	56975.85
626.72	56974.94
627.075	56947.82
627.43	56974.26
627.785	56806.81
628.14	56924.32
628.495	56871.44
628.85	56864.89
629.205	56714.61
629.559	56888.62
629.914	56735.85
630.269	56797.32
630.623	56656.53
630.978	56657.44
631.332	56755.06
631.687	56799.58
632.041	56608.85
632.396	56654.95
632.75	56536.54
633.104	56532.92
633.459	56469.65
633.813	56391.68
634.167	56489.76
634.521	56414.96
634.875	56464.9
635.229	56428.52
635.583	56297.22
635.937	56301.74
636.291	56216.09
636.645	56277.11
636.999	56124.12
637.352	56238.92
637.706	56085.47
638.06	56177
638.413	56094.06
638.767	55983.78
639.121	55995.53
639.474	55977.91
639.828	55845.48
640.181	56007.74
640.534	55893.16
640.888	55831.7
641.241	55745.82
641.594	55769.55
641.947	55814.3
642.301	55740.85
642.654	55728.2
643.007	55732.49
643.36	55667.86
643.713	55580.4
644.066	55700.17
644.419	55530.46
644.771	55412.72
645.124	55147.19
645.477	55019.97
645.83	54793.53
646.182	54811.84
646.535	54602.8
646.888	54650.94
647.24	54415.69
647.593	54617.26
647.945	54444.16
648.298	54382.47
648.65	54331.4
649.002	54260.89
649.355	54416.82
649.707	54355.8
650.059	54447.78
650.411	54799.18
650.763	54812.06
651.115	55057.7
651.467	55004.15
651.819	54966.86
652.171	54875.79
652.523	54805.28
652.875	54763.48
653.227	54698.84
653.578	54890.25
653.93	54705.4
654.282	54580.66
654.633	54616.13
654.985	54655
655.337	54716.24
655.688	54696.13
656.039	54758.05
656.391	54432.64
656.742	54511.28
657.094	54490.26
657.445	54622.69
657.796	54471.96
658.147	54365.52
658.498	54346.76
658.849	54530.26
659.2	54409.59
659.551	54342.24
659.902	54442.58
660.253	54363.26
660.604	54371.85
660.955	54260.89
661.306	54307.22
661.656	54163.72
662.007	54278.06
662.358	54211.17
662.708	54225.64
663.059	54176.6
663.409	53998.07
663.76	54199.65
664.11	54134.79
664.461	54067.67
664.811	54071.06
665.161	54151.06
665.511	53947.45
665.862	53979.99
666.212	54091.85
666.562	54078.52
666.912	53980.22
667.262	53981.8
667.612	53921.69
667.962	54074.23
668.312	53923.72
668.662	54055.02
669.011	53941.58
669.361	53930.05
669.711	53837.17
670.06	53868.58
670.41	53820
670.76	53728.47
671.109	53854.57
671.459	53839.66
671.808	53730.73
672.157	53802.82
672.507	53544.98
672.856	53555.15
673.205	53598.08
673.554	53676.95
673.904	53451.65
674.253	53627.91
674.602	53451.87
674.951	53078.1
675.3	52928.72
675.649	53403.29
675.998	53448.26
676.346	53375.26
676.695	53526.9
677.044	53240.13
677.393	53243.29
677.741	53412.1
678.09	53265.21
678.438	53236.28
678.787	53243.29
679.135	53228.6
679.484	53030.41
679.832	53127.81
680.181	52913.81
680.529	52974.6
680.877	52913.35
681.225	52901.15
681.573	53076.51
681.922	52864.99
682.27	52799.46
682.618	52732.79
682.966	52596.98
683.314	52700.25
683.661	52598.33
684.009	52451.45
684.357	52505.91
684.705	52255.07
685.053	52399.47
685.4	52351.11
685.748	52105.01
686.095	52219.36
686.443	52035.41
686.79	51945.24
687.138	52048.52
687.485	51963.55
687.832	51908.41
688.18	51860.05
688.527	51699.15
688.874	51675.42
689.221	51582.99
689.568	51558.36
689.915	51357.24
690.262	51440.62
690.609	51254.19
690.956	51132.84
691.303	51157.69
691.65	50855.56
691.997	50973.52
692.344	50748.67
692.69	50653.07
693.037	50699.4
693.383	50466.87
693.73	50496.92
694.077	50238.85
694.423	50348.68
694.769	50194.33
695.116	50008.57
695.462	50093.77
695.808	49816.49
696.155	50019.87
696.501	49792.76
696.847	49747.79
697.193	49413.56
697.539	49512.77
697.885	49330.62
698.231	49143.06
698.577	49277.97
698.923	49098.77
699.269	48952.33
699.614	48747.36
699.96	48775.16
700.306	48755.27
700.651	48485.22
700.997	48491.55
701.342	48332.91
701.688	48313.7
702.033	48092.92
702.379	48039.58
702.724	47944.22
703.069	48056.53
703.415	47609.54
703.76	47680.95
704.105	47482.54
704.45	47483.44
704.795	47275.31
705.14	47176.78
705.485	47055.88
705.83	46925.49
706.175	46922.78
706.52	46782.44
706.865	46656.34
707.209	46517.59
707.554	46350.82
707.899	46483.24
708.243	46314.66
708.588	46252.51
708.932	46018.85
709.277	46083.48
709.621	45992.41
709.966	45760.55
710.31	45791.06
710.654	45346.77
710.998	45585.86
711.342	45532.98
711.687	45284.18
712.031	45259.32
712.375	45086.44
712.719	45102.71
713.063	44961.47
713.407	45100.23
713.75	44882.38
714.094	44824.08
714.438	44690.97
714.782	44569.85
715.125	44424.54
715.469	44588.6
715.812	44258.67
716.156	43966.47
716.499	44107.48
716.843	44190.19
717.186	43849.41
717.53	44086.69
717.873	43979.8
718.216	43807.38
718.559	43693.48
718.902	43414.4
719.246	43503.66
719.589	43324.68
719.932	43253.04
720.275	43137.57
720.617	43060.05
720.96	43094.18
721.303	43191.8
721.646	43014.86
721.989	42895.76
722.331	42904.8
722.674	42775.32
723.016	42609.22
723.359	42623.23
723.701	42610.57
724.044	42394.54
724.386	42095.79
724.729	42430.47
725.071	42044.49
725.413	42195.67
725.755	42150.7
726.097	42082
726.439	41755.23
726.782	41782.35
727.124	41872.29
727.465	41652.63
727.807	41728.11
728.149	41496.03
728.491	41359.08
728.833	41389.14
729.175	41120.22
729.516	41232.31
729.858	41102.14
730.199	41201.12
730.541	41149.6
730.882	40963.84
731.224	40995.25
731.565	40685.43
731.906	40701.25
732.248	40828.47
732.589	40612.43
732.93	40398.43
733.271	40485.66
733.612	40464.87
733.953	40410.41
734.294	40157.98
734.635	40163.41
734.976	40106.46
735.317	40056.29
735.658	40054.71
735.999	39899.23
736.339	39917.54
736.68	39905.11
737.021	39724.32
737.361	39629.64
737.702	39729.97
738.042	39613.37
738.383	39640.48
738.723	39591.9
739.063	39366.14
739.404	39449.75
739.744	39142.87
740.084	39277.78
740.424	39208.4
740.764	39140.84
741.104	39243.43
741.444	38907.17
741.784	38866.27
742.124	38887.96
742.464	38846.15
742.804	38848.64
743.143	38588.99
743.483	38753.05
743.823	38515.99
744.162	38501.53
744.502	38608.19
744.841	38395.32
745.181	38322.78
745.52	38150.58
745.86	38207.75
746.199	38130.24
746.538	38033.75
746.877	38047.3
747.216	37936.35
747.556	37845.95
747.895	37893.18
748.234	37758.72
748.573	37765.73
748.911	37521.44
749.25	37487.55
749.589	37425.17
749.928	37503.14
750.267	37452.52
750.605	37197.84
750.944	37153.77
751.283	36970.72
751.621	36975.92
751.96	36792.87
752.298	36835.59
752.636	36787
752.975	36655.48
753.313	36369.61
753.651	36633.1
753.989	36435.82
754.327	36272.89
754.666	36145.43
755.004	36138.43
755.342	36105.66
755.679	36067.24
756.017	35799.91
756.355	35917.42
756.693	35741.83
757.031	35774.6
757.368	35586.13
757.706	35431.1
758.044	35456.64
758.381	35329.18
758.719	34993.83
759.056	35129.87
759.394	35017.55
759.731	34794.96
760.068	34693.72
760.405	34705.02
760.743	34488.98
761.08	34664.12
761.417	34253.96
761.754	34421.64
762.091	34228.2
762.428	33999.5
762.765	33913.18
763.102	34001.76
763.438	33741.43
763.775	33576.24
764.112	33598.61
764.449	33478.84
764.785	33359.97
765.122	33117.94
765.458	33069.58
765.795	32945.29
766.131	33040.2
766.467	32959.08
766.804	32755.92
767.14	32583.49
767.476	32438.41
767.812	32260.11
768.148	32436.15
768.485	32236.16
768.821	31941.25
769.157	32037.52
769.492	31910.29
769.828	31804.76
770.164	31420.59
770.5	31594.14
770.836	31479.34
771.171	31247.26
771.507	31179.69
771.842	31053.59
772.178	30864.44
772.513	30913.25
772.849	30841.39
773.184	30709.87
773.519	30667.61
773.855	30514.62
774.19	30300.16
774.525	30257
774.86	30315.98
775.195	30169.55
775.53	29950.34
775.865	29921.64
776.2	29683.46
776.535	29386.29
776.87	29483.01
777.205	29153.53
777.539	29197.82
777.874	29111.72
778.209	28924.83
778.543	28898.39
778.878	28776.59
779.212	28638.74
779.547	28449.82
779.881	28564.39
780.215	28281.46
780.55	28408.24
780.884	28285.53
781.218	27995.14
781.552	28075.82
781.886	27903.62
782.22	27633.79
782.554	27602.83
782.888	27538.88
783.222	27357.19
783.556	27342.73
783.889	27260.7
784.223	27015.5
784.557	26947.71
784.89	26998.56
785.224	26843.76
785.557	26768.05
785.891	26640.82
786.224	26605.12
786.558	26523.09
786.891	26352.92
787.224	26187.5
787.557	26195.64
787.891	26119.03
788.224	26034.51
788.557	25924.01
788.89	25740.96
789.223	25752.94
789.556	25492.83
789.888	25384.36
790.221	25384.59
790.554	25249.9
790.887	25240.18
791.219	25141.66
791.552	25109.79
791.884	24952.96
792.217	24952.51
792.549	24798.84
792.882	24639.07
793.214	24338.06
793.546	24549.35
793.879	24392.97
794.211	24234.33
794.543	24209.93
794.875	24170.38
795.207	24186.2
795.539	24134.22
795.871	24032.31
796.203	23774.91
796.535	23773.78
796.867	23614.69
797.198	23559.1
797.53	23577.18
797.862	23425.54
798.193	23436.62
798.525	23277.75
798.856	23351.65
799.188	22974.48
799.519	22936.06
799.85	22938.55
800.182	22820.81
800.513	22765.67
800.844	22597.32
801.175	22809.97
801.506	22726.35
801.837	22605.45
802.168	22560.48
802.499	22428.51
802.83	22270.77
803.161	22162.75
803.491	22243.43
803.822	22230.55
804.153	22103.77
804.483	21798.01
804.814	21807.28
805.145	21794.85
805.475	21743.1
805.805	21571.58
806.136	21668.75
806.466	21703.55
806.796	21622.88
807.126	21396.9
807.457	21454.75
807.787	21396.44
808.117	21226.05
808.447	21275.32
808.777	21220.18
809.107	21085.49
809.436	21018.15
809.766	21088.65
810.096	20829.45
810.426	20851.82
810.755	20922.11
811.085	20701.32
811.414	20800.07
811.744	20568.67
812.073	20448.9
812.403	20536.13
812.732	20276.25
813.061	20405.96
813.39	20278.73
813.719	20231.5
814.049	20347.66
814.378	20209.81
814.707	20090.04
815.036	20116.93
815.365	19987.67
815.693	19846.2
816.022	19825.86
816.351	19748.58
816.68	19651.4
817.008	19767.56
817.337	19676.49
817.665	19462.93
817.994	19548.13
818.322	19579.32
818.651	19415.25
818.979	19264.07
819.307	19383.16
819.636	19306.1
819.964	19272.66
820.292	19272.21
820.62	19274.24
820.948	19155.6
821.276	19329.6
821.604	19181.13
821.932	19261.36
822.259	19157.18
822.587	19162.15
822.915	19146.78
823.243	19165.09
823.57	19133
823.898	19065.66
824.225	18997.41
824.553	19018.88
824.88	19001.93
825.207	19091.19
825.535	18992.44
825.862	19090.74
826.189	18998.09
826.516	19134.81
826.843	19115.6
827.17	19153.79
827.497	19123.28
827.824	19097.97
828.151	19000.57
828.478	18988.37
828.805	19148.37
829.131	19103.62
829.458	18951.99
829.785	18870.86
830.111	18965.55
830.438	19031.99
830.764	18969.16
831.09	18965.09
831.417	18776.4
831.743	18897.75
832.069	18968.03
832.395	18826.79
832.722	18901.82
833.048	18782.95
833.374	18864.53
833.7	18773.24
834.026	18828.83
834.351	18795.61
834.677	18707.47
835.003	18769.17
835.329	18695.95
835.654	18712.9
835.98	18725.1
836.306	18624.99
836.631	18569.17
836.956	18578.89
837.282	18623.86
837.607	18544.54
837.932	18490.98
838.258	18359.23
838.583	18435.84
838.908	18312.68
839.233	18295.73
839.558	18257.32
839.883	18162.18
840.208	18152.91
840.533	18236.07
840.858	18118.56
841.182	18095.51
841.507	18120.37
841.832	17969.41
842.156	18017.55
842.481	17999.24
842.805	17840.38
843.13	17946.36
843.454	17894.61
843.778	17692.13
844.103	17765.13
844.427	17735.75
844.751	17718.12
845.075	17586.15
845.399	17570.33
845.723	17473.16
846.047	17509.31
846.371	17350.22
846.695	17335.98
847.019	17140.74
847.343	17139.83
847.666	17025.03
847.99	16928.09
848.313	16959.05
848.637	16754.31
848.96	16714.08
849.284	16834.53
849.607	16600.64
849.931	16610.35
850.254	16442.68
850.577	16337.37
850.9	16268.44
851.223	16300.98
851.546	16077.49
851.869	16066.19
852.192	16120.65
852.515	15992.74
852.838	15798.85
853.161	15904.61
853.483	15828.23
853.806	15642.7
854.129	15699.19
854.451	15635.92
854.774	15638.85
855.096	15534.68
855.419	15472.53
855.741	15478.41
856.063	15364.29
856.385	15298.75
856.708	15296.26
857.03	15186.21
857.352	15256.49
857.674	15210.17
857.996	15158.64
858.318	15094.91
858.64	15067.57
858.961	14952.54
859.283	14978.08
859.605	14884.3
859.926	15019.89
860.248	14789.61
860.57	14750.29
860.891	14844.98
861.212	14678.2
861.534	14689.5
861.855	14590.97
862.176	14663.06
862.498	14614.93
862.819	14582.16
863.14	14446.12
863.461	14476.17
863.782	14426.68
864.103	14450.19
864.424	14360.92
864.745	14450.41
865.065	14338.1
865.386	14223.07
865.707	14287.7
866.027	14362.5
866.348	14154.83
866.668	14173.36
866.989	14150.08
867.309	13975.17
867.63	14099.23
867.95	14030.31
868.27	13973.14
868.59	13962.74
868.91	13944.44
869.23	13892.23
869.55	13835.06
869.87	13987.15
870.19	13838.68
870.51	13807.04
870.83	13830.54
871.15	13718.9
871.469	13707.15
871.789	13776.98
872.109	13741.05
872.428	13650.66
872.748	13746.93
873.067	13603.65
873.386	13660.15
873.706	13633.94
874.025	13459.93
874.344	13486.37
874.663	13443.66
874.982	13372.7
875.301	13479.59
875.62	13353.26
875.939	13285.47
876.258	13403.43
876.577	13312.81
876.896	13355.3
877.214	13250.44
877.533	13208.64
877.852	13236.88
878.17	13261.06
878.489	13268.75
878.807	13242.31
879.125	13183.78
879.444	13172.48
879.762	13162.31
880.08	13159.37
880.398	13050
880.716	13037.79
881.034	12987.62
881.352	13031.69
881.67	12971.35
881.988	12951.47
882.306	12998.02
882.624	12887.74
882.941	12886.84
883.259	12780.4
883.577	12769.1
883.894	12724.81
884.212	12764.13
884.529	12746.05
884.846	12652.27
885.164	12690.46
885.481	12539.73
885.798	12605.26
886.115	12464.7
886.432	12535.66
886.75	12468.77
887.067	12597.58
887.383	12356.68
887.7	12446.4
888.017	12365.27
888.334	12360.52
888.651	12330.92
888.967	12289.34
889.284	12186.97
889.6	12217.48
889.917	12079.63
890.233	12139.06
890.55	12128.21
890.866	12082.11
891.182	12070.59
891.498	12007.76
891.815	11907.2
892.131	11918.73
892.447	11883.7
892.763	11860.87
893.079	11782.01
893.395	11785.85
893.71	11706.3
894.026	11781.33
894.342	11667.43
894.657	11561
894.973	11535.01
895.289	11575.91
895.604	11614.33
895.92	11473.54
896.235	11442.81
896.55	11383.15
896.865	11316.26
897.181	11344.28
897.496	11342.7
897.811	11223.83
898.126	11216.15
898.441	11158.29
898.756	11169.82
899.071	11008.92
899.386	11055.7
899.7	10935.93
900.015	10924.18
900.33	10776.38
900.644	10870.17
900.959	10791.75
901.273	10764.41
901.588	10744.29
901.902	10699.78
902.216	10742.03
902.531	10616.16
902.845	10654.58
903.159	10553.56
903.473	10497.07
903.787	10477.41
904.101	10367.13
904.415	10441.48
904.729	10428.82
905.042	10352.89
905.356	10267.24
905.67	10235.38
905.984	10270.63
906.297	10177.75
906.611	10125.1
906.924	10086.23
907.237	10075.16
907.551	10040.58
907.864	9908.84
908.177	9952.45
908.491	9946.12
908.804	9816.86
909.117	9844.88
909.43	9770.31
909.743	9736.64
910.056	9676.98
910.368	9613.02
910.681	9568.05
910.994	9589.07
911.307	9508.39
911.619	9391.56
911.932	9439.47
912.244	9359.02
912.557	9318.57
912.869	9250.77
913.181	9263.43
913.494	9225.46
913.806	9200.15
914.118	9139.14
914.43	8995.87
914.742	9121.29
915.054	9024.56
915.366	9032.02
915.678	8966.71
915.99	8947.5
916.302	8852.14
916.613	8832.48
916.925	8829.77
917.236	8803.33
917.548	8653.73
917.859	8682.43
918.171	8646.72
918.482	8689.21
918.794	8537.12
919.105	8559.49
919.416	8498.93
919.727	8495.31
920.038	8386.84
920.349	8350.91
920.66	8298.03
920.971	8298.48
921.282	8286.28
921.593	8190.24
921.903	8176.23
922.214	8206.73
922.525	8095.1
922.835	8127.41
923.146	8024.14
923.456	8071.14
923.767	8022.11
924.077	7971.26
924.387	7918.61
924.697	7845.61
925.008	7881.54
925.318	7853.52
925.628	7811.49
925.938	7814.88
926.248	7740.76
926.558	7693.07
926.867	7606.98
927.177	7664.15
927.487	7636.13
927.796	7547.99
928.106	7484.04
928.416	7441.78
928.725	7433.19
929.034	7449.69
929.344	7430.48
929.653	7383.7
929.962	7369.69
930.271	7300.54
930.581	7230.94
930.89	7196.14
931.199	7152.52
931.508	7158.4
931.817	7133.54
932.125	7092.19
932.434	7110.49
932.743	7051.74
933.051	7011.96
933.36	6952.53
933.669	6944.85
933.977	6887.22
934.286	6910.5
934.594	6907.56
934.902	6720.9
935.21	6750.95
935.519	6767.68
935.827	6708.02
936.135	6649.71
936.443	6630.96
936.751	6609.94
937.059	6671.63
937.367	6626.21
937.674	6533.56
937.982	6559.09
938.29	6462.37
938.597	6480.9
938.905	6435.25
939.213	6421.47
939.52	6383.5
939.827	6390.96
940.135	6325.43
940.442	6265.77
940.749	6291.76
941.056	6300.34
941.363	6169.05
941.67	6215.37
941.977	6167.92
942.284	6104.42
942.591	6115.26
942.898	6087.02
943.205	6054.25
943.511	6082.95
943.818	6018.09
944.125	5991.42
944.431	5963.63
944.738	5921.14
945.044	5916.85
945.35	5851.77
945.657	5850.64
945.963	5864.87
946.269	5744.2
946.575	5774.71
946.881	5711.21
947.187	5746.01
947.493	5647.93
947.799	5686.35
948.105	5578.55
948.41	5613.81
948.716	5581.27
949.022	5619.68
949.327	5615.84
949.633	5462.85
949.938	5498.56
950.244	5491.1
950.549	5455.39
950.854	5393.25
951.16	5363.42
951.465	5356.41
951.77	5305.11
952.075	5320.26
952.38	5286.58
952.685	5269.86
952.99	5248.62
953.294	5276.64
953.599	5200.71
953.904	5145.12
954.209	5082.07
954.513	5134.72
954.818	5106.48
955.122	5059.92
955.426	5064.44
955.731	5013.15
956.035	5005.69
956.339	5005.91
956.643	4975.63
956.948	4894.28
957.252	4890.44
957.556	4900.15
957.86	4851.12
958.163	4880.72
958.467	4826.48
958.771	4826.71
959.075	4794.17
959.378	4783.09
959.682	4772.02
959.985	4708.07
960.289	4692.7
960.592	4608.64
960.896	4608.41
961.199	4679.59
961.502	4604.79
961.805	4586.04
962.108	4569.09
962.411	4546.04
962.714	4511.01
963.017	4593.95
963.32	4544
963.623	4496.77
963.926	4467.85
964.228	4427.85
964.531	4441.18
964.833	4423.56
965.136	4419.71
965.438	4371.35
965.741	4400.05
966.043	4323.9
966.345	4338.36
966.648	4326.84
966.95	4244.35
967.252	4274.86
967.554	4233.28
967.856	4242.54
968.158	4161.87
968.46	4146.05
968.761	4122.1
969.063	4115.54
969.365	4094.75
969.666	4135.43
969.968	4079.61
970.269	3999.61
970.571	4028.76
970.872	4023.34
971.174	4007.52
971.475	3958.71
971.776	3960.97
972.077	3951.25
972.378	3930.24
972.679	3908.99
972.98	3927.98
973.281	3874.19
973.582	3836.68
973.883	3827.87
974.183	3840.29
974.484	3807.3
974.785	3814.08
975.085	3806.4
975.386	3783.12
975.686	3736.57
975.986	3713.52
976.287	3733.4
976.587	3699.51
976.887	3708.09
977.187	3635.55
977.487	3640.3
977.787	3615.44
978.087	3587.65
978.387	3518.95
978.687	3570.25
978.987	3582.67
979.286	3559.62
979.586	3541.77
979.885	3530.7
980.185	3509.91
980.484	3448.21
980.784	3441.21
981.083	3461.1
981.382	3425.62
981.682	3430.36
981.981	3439.18
982.28	3386.3
982.579	3332.51
982.878	3384.71
983.177	3339.97
983.475	3334.09
983.774	3304.94
984.073	3300.2
984.372	3255.9
984.67	3263.59
984.969	3268.33
985.267	3288.9
985.566	3215.23
985.864	3200.76
986.162	3183.59
986.461	3129.35
986.759	3192.18
987.057	3119.86
987.355	3136.58
987.653	3130.26
987.951	3104.95
988.249	3125.29
988.547	3066.76
988.844	3028.11
989.142	3071.28
989.44	3038.73
989.737	3032.41
990.035	2967.32
990.332	3004.38
990.63	2958.06
990.927	2939.08
991.224	2968.68
991.521	2964.61
991.819	2942.24
992.116	2912.86
992.413	2868.34
992.71	2862.69
993.006	2830.6
993.303	2843.26
993.6	2847.33
993.897	2810.72
994.193	2878.06
994.49	2767.33
994.787	2786.31
995.083	2763.94
995.379	2727.56
995.676	2735.01
995.972	2691.4
996.268	2690.72
996.565	2704.96
996.861	2677.39
997.157	2697.5
997.453	2645.52
997.749	2660.66
998.044	2620.21
998.34	2611.4
998.636	2587.67
998.932	2578.86
999.227	2574.34
999.523	2542.25
999.818	2535.7
1000.114	2527.79
1000.409	2516.94
1000.704	2502.02
1001	2479.43
1001.295	2467.68
1001.59	2443.95
1001.885	2472.19
1002.18	2421.35
1002.475	2455.25
1002.77	2386.1
1003.065	2390.62
1003.359	2387.68
1003.654	2358.75
1003.949	2385.64
1004.243	2347.9
1004.538	2333.44
1004.832	2313.33
1005.127	2288.02
1005.421	2274.46
1005.715	2276.49
1006.009	2279.43
1006.304	2247.79
1006.598	2224.07
1006.892	2221.81
1007.186	2192.65
1007.48	2188.81
1007.773	2184.29
1008.067	2192.65
1008.361	2172.54
1008.655	2146.55
1008.948	2110.17
1009.242	2128.93
1009.535	2105.2
1009.829	2118.98
1010.122	2051.19
1010.415	2051.41
1010.708	2062.26
1011.001	2026.56
1011.295	2017.07
1011.588	2030.85
1011.881	1998.76
1012.173	1960.34
1012.466	1998.99
1012.759	1983.17
1013.052	1965.09
1013.344	1964.86
1013.637	1922.6
1013.93	1923.51
1014.222	1887.8
1014.514	1889.16
1014.807	1869.72
1015.099	1874.92
1015.391	1865.88
1015.683	1838.77
1015.976	1847.8
1016.268	1844.19
1016.56	1833.12
1016.851	1808.71
1017.143	1794.02
1017.435	1781.37
1017.727	1766.68
1018.018	1749.28
1018.31	1731.65
1018.602	1754.7
1018.893	1740.69
1019.185	1737.07
1019.476	1702.72
1019.767	1690.07
1020.058	1665.44
1020.35	1666.34
1020.641	1676.96
1020.932	1631.54
1021.223	1591.31
1021.514	1643.52
1021.804	1623.18
1022.095	1595.61
1022.386	1613.91
1022.677	1595.83
1022.967	1556.29
1023.258	1543.63
1023.548	1543.41
1023.839	1564.42
1024.129	1535.27
1024.419	1539.34
1024.709	1512.22
1025	1473.13
1025.29	1473.35
1025.58	1488.72
1025.87	1460.7
1026.16	1463.41
1026.449	1449.62
1026.739	1454.59
1027.029	1423.18
1027.319	1438.1
1027.608	1407.36
1027.898	1418.66
1028.187	1403.07
1028.477	1404.43
1028.766	1380.02
1029.055	1356.07
1029.344	1356.29
1029.634	1370.53
1029.923	1330.08
1030.212	1303.86
1030.501	1288.27
1030.79	1297.99
1031.078	1275.16
1031.367	1310.42
1031.656	1279.91
1031.945	1300.25
1032.233	1277.42
1032.522	1257.31
1032.81	1247.14
1033.099	1233.13
1033.387	1232.45
1033.675	1215.5
1033.963	1208.73
1034.251	1181.83
1034.54	1205.56
1034.828	1161.72
1035.116	1177.09
1035.403	1174.6
1035.691	1169.4
1035.979	1132.12
1036.267	1178.44
1036.554	1149.29
1036.842	1126.69
1037.129	1128.95
1037.417	1121.04
1037.704	1103.64
1037.992	1088.28
1038.279	1101.16
1038.566	1073.81
1038.853	1073.81
1039.14	1073.81
