Data from breadboard_black_back_FLMS001491_00078.txt Node
Date: Wed Feb 08 10:50:54 GMT 2017
User: dcchb
Spectrometer: FLMS00149
Trigger mode: 0
Integration Time (sec): 2.000000E-2
Scans to average: 10
Electric dark correction enabled: true
Nonlinearity correction enabled: false
Boxcar width: 0
XAxis mode: Wavelengths
Number of Pixels in Spectrum: 2048
>>>>>Begin Spectral Data<<<<<
341.393	-6.09
341.776	-6.09
342.16	-6.09
342.543	-51.28
342.927	-52.19
343.31	-65.75
343.693	-68.91
344.077	-62.58
344.46	-76.14
344.843	-39.08
345.226	-32.08
345.61	-32.75
345.993	-32.08
346.376	-22.36
346.759	5.44
347.142	32.78
347.525	47.7
347.908	64.42
348.291	75.72
348.674	108.49
349.057	97.19
349.44	113.01
349.823	130.63
350.206	153.68
350.588	188.26
350.971	234.13
351.354	245.66
351.737	242.04
352.119	263.06
352.502	255.37
352.884	278.88
353.267	285.2
353.65	309.84
354.032	313.23
354.414	309.38
354.797	331.98
355.179	322.49
355.562	333.79
355.944	339.89
356.326	340.12
356.709	345.77
357.091	370.4
357.473	363.62
357.855	356.39
358.238	371.08
358.62	348.48
359.002	345.99
359.384	343.96
359.766	333.34
360.148	332.21
360.53	351.19
360.912	360
361.294	356.39
361.676	348.93
362.057	338.31
362.439	329.05
362.821	358.65
363.203	335.82
363.584	332.43
363.966	346.22
364.348	334.24
364.729	358.42
365.111	342.38
365.493	345.09
365.874	353.45
366.256	343.73
366.637	329.72
367.019	311.64
367.4	340.8
367.781	335.82
368.163	324.3
368.544	363.62
368.925	331.76
369.306	348.93
369.688	333.79
370.069	361.59
370.45	353.9
370.831	359.55
371.212	354.13
371.593	351.42
371.974	340.57
372.355	357.29
372.736	357.29
373.117	344.19
373.498	355.94
373.879	345.32
374.26	357.07
374.641	344.41
375.021	357.07
375.402	374.02
375.783	355.49
376.163	381.7
376.544	385.99
376.925	365.43
377.305	370.17
377.686	372.66
378.066	368.37
378.447	372.89
378.827	380.12
379.208	391.42
379.588	385.31
379.968	393
380.349	391.87
380.729	372.43
381.109	390.06
381.489	401.81
381.87	407.24
382.25	403.39
382.63	392.09
383.01	392.09
383.39	396.39
383.77	390.29
384.15	425.54
384.53	410.17
384.91	425.09
385.29	424.86
385.67	425.09
386.049	446.33
386.429	431.42
386.809	428.03
387.189	431.87
387.568	464.63
387.948	455.37
388.328	450.4
388.707	452.43
389.087	448.59
389.466	475.26
389.846	468.7
390.225	457.4
390.605	450.4
390.984	483.84
391.363	463.5
391.743	476.61
392.122	483.17
392.501	480.45
392.881	480.68
393.26	510.28
393.639	502.83
394.018	522.03
394.397	509.38
394.776	491.98
395.155	500.57
395.534	510.74
395.913	520
396.292	521.36
396.671	535.14
397.05	537.4
397.429	545.99
397.808	543.28
398.186	547.34
398.565	537.63
398.944	541.47
399.323	551.64
399.701	536.72
400.08	575.37
400.458	563.84
400.837	593.67
401.215	593.9
401.594	573.56
401.972	585.08
402.351	587.34
402.729	578.53
403.107	594.8
403.486	608.13
403.864	607.91
404.242	618.3
404.62	611.98
404.999	647.23
405.377	643.39
405.755	649.26
406.133	629.15
406.511	648.58
406.889	666.44
407.267	683.84
407.645	653.78
408.023	698.3
408.401	681.58
408.779	702.82
409.156	688.36
409.534	719.09
409.912	741.46
410.29	733.1
410.667	762.25
411.045	736.72
411.422	736.94
411.8	751.18
412.178	792.76
412.555	750.28
412.933	782.14
413.31	786.43
413.687	803.38
414.065	830.5
414.442	825.76
414.819	812.42
415.197	842.48
415.574	853.33
415.951	825.53
416.328	841.8
416.705	873.66
417.082	874.34
417.46	891.29
417.837	879.99
418.214	907.33
418.591	907.56
418.967	916.37
419.344	915.92
419.721	928.58
420.098	932.19
420.475	974
420.852	952.08
421.228	977.39
421.605	971.29
421.982	985.98
422.358	987.56
422.735	999.76
423.111	979.88
423.488	994.11
423.864	1017.84
424.241	1030.04
424.617	1065.97
424.994	1049.48
425.37	1053.55
425.746	1058.29
426.123	1074.79
426.499	1079.31
426.875	1110.04
427.251	1115.24
427.627	1149.36
428.003	1143.71
428.379	1162.92
428.756	1199.3
429.132	1245.18
429.507	1210.38
429.883	1253.31
430.259	1238.4
430.635	1240.89
431.011	1245.18
431.387	1312.3
431.763	1305.97
432.138	1319.3
432.514	1322.01
432.89	1329.24
433.265	1383.93
433.641	1409.24
434.016	1397.49
434.392	1406.98
434.767	1468
435.143	1449.24
435.518	1451.5
435.894	1492.86
436.269	1522.46
436.644	1509.8
437.02	1510.26
437.395	1541.89
437.77	1555.68
438.145	1562.68
438.52	1574.66
438.895	1592.51
439.271	1596.36
439.646	1654.89
440.021	1637.03
440.395	1647.43
440.77	1656.69
441.145	1660.76
441.52	1688.11
441.895	1717.03
442.27	1714.32
442.645	1722.45
443.019	1720.65
443.394	1769.23
443.769	1751.15
444.143	1762.68
444.518	1787.54
444.892	1793.41
445.267	1812.17
445.641	1819.63
446.016	1842.45
446.39	1846.29
446.764	1859.63
447.139	1857.37
447.513	1891.26
447.887	1881.77
448.262	1916.57
448.636	1919.06
449.01	1953.86
449.384	1973.97
449.758	1974.65
450.132	2026.85
450.506	1989.79
450.88	2028.44
451.254	2030.7
451.628	2081.09
452.002	2072.5
452.376	2093.07
452.75	2121.31
453.123	2121.31
453.497	2152.95
453.871	2206.51
454.244	2222.1
454.618	2237.92
454.992	2276.34
455.365	2273.4
455.739	2339.61
456.112	2376.9
456.486	2378.26
456.859	2379.84
457.232	2428.2
457.606	2419.39
457.979	2488.54
458.352	2548.87
458.725	2530.57
459.099	2573.05
459.472	2629.78
459.845	2652.15
460.218	2659.15
460.591	2678.81
460.964	2707.74
461.337	2766.5
461.71	2835.87
462.083	2858.47
462.456	2826.15
462.829	2881.75
463.201	2923.1
463.574	2926.26
463.947	2948.19
464.32	3057.79
464.692	3057.56
465.065	3106.83
465.438	3131.01
465.81	3203.55
466.183	3275.63
466.555	3319.7
466.928	3275.41
467.3	3286.71
467.672	3355.86
468.045	3454.39
468.417	3452.8
468.789	3491.67
469.161	3538
469.534	3603.76
469.906	3672.01
470.278	3751.1
470.65	3736.87
471.022	3746.13
471.394	3866.13
471.766	3953.58
472.138	3957.42
472.51	4058.66
472.882	4103.18
473.253	4119.68
473.625	4180.7
473.997	4320.8
474.369	4351.76
474.74	4368.49
475.112	4441.03
475.484	4535.71
475.855	4590.18
476.227	4636.28
476.598	4751.3
476.97	4813.67
477.341	4928.25
477.713	4980.67
478.084	5007.34
478.455	5131.86
478.827	5191.97
479.198	5315.58
479.569	5357.39
479.94	5491.17
480.311	5553.54
480.682	5672.18
481.053	5778.85
481.424	5878.73
481.795	5951.04
482.166	6055.67
482.537	6074.66
482.908	6196.69
483.279	6327.08
483.65	6401.2
484.021	6573.17
484.391	6610.01
484.762	6683.23
485.133	6735.43
485.503	6851.81
485.874	7034.18
486.244	7048.64
486.615	7191.92
486.985	7267.39
487.356	7435.3
487.726	7404.11
488.097	7671.68
488.467	7653.82
488.837	7863.08
489.207	7892.01
489.578	8033.48
489.948	8093.36
490.318	8230.08
490.688	8243.64
491.058	8363.86
491.428	8487.7
491.798	8605.21
492.168	8784.87
492.538	8757.75
492.908	8887.46
493.278	8996.84
493.648	9050.62
494.017	9104.18
494.387	9219.21
494.757	9268.25
495.126	9390.95
495.496	9439.09
495.866	9505.07
496.235	9669.59
496.605	9722.02
496.974	9778.51
497.344	9895.12
497.713	9982.58
498.082	10011.28
498.452	10173.76
498.821	10244.72
499.19	10240.42
499.559	10352.74
499.928	10434.99
500.298	10484.48
500.667	10572.62
501.036	10609.68
501.405	10720.64
501.774	10757.25
502.143	10867.75
502.512	10892.84
502.88	11013.74
503.249	11018.26
503.618	11190.91
503.987	11173.05
504.356	11248.31
504.724	11332.6
505.093	11393.61
505.462	11480.84
505.83	11513.61
506.199	11619.6
506.567	11835.86
506.936	11854.17
507.304	11924.67
507.672	11953.6
508.041	12040.83
508.409	12159.24
508.777	12291.44
509.145	12361.05
509.514	12386.36
509.882	12527.37
510.25	12609.85
510.618	12690.3
510.986	12695.05
511.354	12814.14
511.722	12929.17
512.09	13145.21
512.458	13067.24
512.826	13204.86
513.193	13326.67
513.561	13386.1
513.929	13505.87
514.297	13645.76
514.664	13648.24
515.032	13731.86
515.4	13864.96
515.767	13941.12
516.135	14019.53
516.502	13988.8
516.869	14274.22
517.237	14285.06
517.604	14315.34
517.972	14510.37
518.339	14554.43
518.706	14646.18
519.073	14768.44
519.44	14864.71
519.808	15041.2
520.175	14939.28
520.542	15246.17
520.909	15402.55
521.276	15362.1
521.643	15502.66
522.009	15626.72
522.376	15801.63
522.743	15887.96
523.11	15960.72
523.477	16257.21
523.843	16260.83
524.21	16476.64
524.577	16578.56
524.943	16669.41
525.31	16810.65
525.676	16889.74
526.043	17084.99
526.409	17105.1
526.776	17382.16
527.142	17379.44
527.508	17490.4
527.874	17615.82
528.241	17776.27
528.607	17807.46
528.973	18026.43
529.339	18058.52
529.705	18248.8
530.071	18300.1
530.437	18404.73
530.803	18505.97
531.169	18672.07
531.535	18716.81
531.901	18800.42
532.267	18871.16
532.632	19016.01
532.998	19013.3
533.364	19185.05
533.73	19261.65
534.095	19383.69
534.461	19438.37
534.826	19636.79
535.192	19560.86
535.557	19771.92
535.923	19825.48
536.288	19925.82
536.653	20119.49
537.019	19997
537.384	20098.24
537.749	20138.47
538.114	20298.92
538.479	20360.61
538.845	20417.56
539.21	20503.43
539.575	20570.55
539.94	20568.29
540.305	20774.38
540.67	20680.15
541.034	20924.66
541.399	20933.93
541.764	20966.47
542.129	21080.82
542.494	21134.6
542.858	21257.76
543.223	21235.61
543.587	21384.76
543.952	21392.67
544.316	21527.81
544.681	21581.37
545.045	21560.35
545.41	21770.97
545.774	21782.94
546.138	21851.64
546.503	21978.42
546.867	21877.18
547.231	22248.69
547.595	22114.91
547.959	22207.11
548.324	22310.16
548.688	22338.18
549.052	22489.59
549.416	22412.53
549.779	22489.14
550.143	22714.67
550.507	22692.3
550.871	22842.13
551.235	22900.43
551.599	23138.61
551.962	23129.12
552.326	23185.62
552.689	23328.21
553.053	23226.52
553.417	23353.98
553.78	23747.19
554.143	23498.38
554.507	23693.85
554.87	23747.86
555.234	23990.57
555.597	23977.69
555.96	23914.87
556.323	24180.62
556.686	24219.49
557.05	24465.81
557.413	24362.99
557.776	24433.27
558.139	24788.06
558.502	24664.68
558.865	24781.28
559.228	24914.61
559.59	25061.28
559.953	25174.49
560.316	25320.03
560.679	25450.42
561.041	25450.42
561.404	25688.6
561.767	25899.9
562.129	25799.34
562.492	25955.94
562.854	25986.45
563.217	26064.41
563.579	26289.49
563.941	26442.48
564.304	26416.72
564.666	26631.63
565.028	26647.9
565.39	26712.31
565.753	26844.96
566.115	27056.48
566.477	27179.64
566.839	27188.9
567.201	27372.4
567.563	27396.58
567.925	27586.63
568.287	27688.78
568.648	27696.46
569.01	27851.26
569.372	28051.48
569.734	27988.66
570.095	28127.18
570.457	28187.07
570.819	28244.47
571.18	28250.8
571.542	28514.07
571.903	28621.18
572.265	28736.21
572.626	28825.92
572.987	28777.79
573.349	28852.59
573.71	28971
574.071	29041.51
574.432	29151.79
574.794	29414.83
575.155	29227.72
575.516	29364.67
575.877	29394.5
576.238	29473.59
576.599	29520.82
576.96	29608.5
577.32	29575.51
577.681	29790.19
578.042	29885.56
578.403	29741.15
578.763	29877.19
579.124	29967.81
579.485	30042.39
579.845	30130.07
580.206	29990.64
580.566	30013.24
580.927	30056.4
581.287	30209.16
581.648	30166
582.008	30314.02
582.368	30242.38
582.728	30269.5
583.089	30281.7
583.449	30292.1
583.809	30367.58
584.169	30278.09
584.529	30500.68
584.889	30678.3
585.249	30476.27
585.609	30322.83
585.969	30628.36
586.329	30447.8
586.688	30438.31
587.048	30388.82
587.408	30372.77
587.768	30464.52
588.127	30440.12
588.487	30384.98
588.846	30654.58
589.206	30354.7
589.565	30476.5
589.925	30618.87
590.284	30485.77
590.643	30561.02
591.003	30599.21
591.362	30663.16
591.721	30616.16
592.08	30713.33
592.44	30724.86
592.799	30742.48
593.158	30581.58
593.517	30672.43
593.876	30699.55
594.235	30622.49
594.593	30553.56
594.952	30817.28
595.311	30619.32
595.67	30830.84
596.029	30865.42
596.387	30954.68
596.746	31048.46
597.104	30732.31
597.463	30837.85
597.822	30977.28
598.18	30772.54
598.538	30792.42
598.897	31008.24
599.255	30784.97
599.613	31243.03
599.972	31025.87
600.33	31034.45
600.688	30972.08
601.046	31175.47
601.404	31199.19
601.762	31138.18
602.12	31212.98
602.478	31312.19
602.836	31333.65
603.194	31269.7
603.552	31290.26
603.91	31123.04
604.268	31371.84
604.625	31240.55
604.983	31390.15
605.341	31219.76
605.698	31476.47
606.056	31395.35
606.413	31453.88
606.771	31492.29
607.128	31737.71
607.485	31437.83
607.843	31607.32
608.2	31861.78
608.557	31753.98
608.914	31782.23
609.272	31937.48
609.629	31932.51
609.986	32131.15
610.343	31905.16
610.7	32067.65
611.057	32014.31
611.414	32040.08
611.771	32144.71
612.127	32272.61
612.484	32114.42
612.841	32231.93
613.198	32199.62
613.554	32216.57
613.911	32314.87
614.267	32319.62
614.624	32302.44
614.98	32370.01
615.337	32508.31
615.693	32548.99
616.05	32437.81
616.406	32556.67
616.762	32490.01
617.118	32639.38
617.475	32588.99
617.831	32782.43
618.187	32765.03
618.543	32694.75
618.899	32868.98
619.255	32848.19
619.611	32716.67
619.967	32859.94
620.323	32857.68
620.678	32770.68
621.034	32813.84
621.39	32749.44
621.746	32676.44
622.101	33033.04
622.457	32794.63
622.812	32903.1
623.168	33006.38
623.523	33003.21
623.879	32987.17
624.234	32859.26
624.589	32833.73
624.945	33049.09
625.3	32798.02
625.655	33034.17
626.01	32953.72
626.365	33023.78
626.72	32946.27
627.075	32944.68
627.43	32850.9
627.785	32873.73
628.14	32948.75
628.495	32933.61
628.85	32799.6
629.205	32798.93
629.559	32986.04
629.914	32780.62
630.269	32780.62
630.623	32772.26
630.978	32862.43
631.332	32845.03
631.687	32877.79
632.041	32653.39
632.396	32829.89
632.75	32616.11
633.104	32646.16
633.459	32526.39
633.813	32719.61
634.167	32542.66
634.521	32480.29
634.875	32456.56
635.229	32405.72
635.583	32300.86
635.937	32372.04
636.291	32333.63
636.645	32274.42
636.999	32096.12
637.352	32347.19
637.706	32078.27
638.06	32285.04
638.413	32117.14
638.767	32001.88
639.121	32181.09
639.474	31946.97
639.828	32031.49
640.181	32022.9
640.534	31986.52
640.888	31830.59
641.241	31551.05
641.594	31756.92
641.947	31812.51
642.301	31774.55
642.654	31787.65
643.007	31614.1
643.36	31673.76
643.713	31531.84
644.066	31752.63
644.419	31517.15
644.771	31396.48
645.124	31118.29
645.477	31066.77
645.83	30845.76
646.182	30660
646.535	30465.2
646.888	30576.39
647.24	30445.09
647.593	30388.14
647.945	30320.12
648.298	30274.7
648.65	30187.47
649.002	30309.27
649.355	30297.07
649.707	30144.76
650.059	30326.67
650.411	30758.53
650.763	30680.34
651.115	31129.59
651.467	30836.72
651.819	30913.33
652.171	30790.84
652.523	30686.44
652.875	30698.19
653.227	30680.56
653.578	30865.42
653.93	30771.18
654.282	30655.93
654.633	30477.4
654.985	30673.78
655.337	30619.1
655.688	30627.01
656.039	30659.09
656.391	30411.42
656.742	30528.02
657.094	30478.08
657.445	30595.59
657.796	30458.2
658.147	30419.1
658.498	30486.9
658.849	30444.64
659.2	30298.43
659.551	30346.11
659.902	30431.08
660.253	30320.8
660.604	30236.51
660.955	30166
661.306	30448.93
661.656	30290.52
662.007	30350.63
662.358	30168.03
662.708	30224.53
663.059	30187.92
663.409	29963.07
663.76	30155.38
664.11	30256.17
664.461	30182.27
664.811	30160.35
665.161	30152.22
665.511	30120.13
665.862	30079.9
666.212	30121.93
666.562	30231.99
666.912	30068.83
667.262	30012.11
667.612	30061.14
667.962	30066.79
668.312	30043.29
668.662	30108.83
669.011	29987.7
669.361	29972.79
669.711	29880.13
670.06	29962.84
670.41	29881.26
670.76	29827.03
671.109	29934.82
671.459	29942.28
671.808	29847.82
672.157	29892.56
672.507	29738.44
672.856	29658.44
673.205	29740.48
673.554	29748.84
673.904	29723.98
674.253	29840.81
674.602	29795.61
674.951	29263.88
675.3	29119.7
675.649	29552.01
675.998	29595.62
676.346	29683.98
676.695	29600.14
677.044	29328.06
677.393	29370.54
677.741	29473.14
678.09	29395.17
678.438	29410.54
678.787	29452.8
679.135	29429.75
679.484	29174.39
679.832	29334.61
680.181	29192.01
680.529	29201.96
680.877	29081.51
681.225	28971.91
681.573	29350.2
681.922	29034.28
682.27	28929.2
682.618	28998.57
682.966	28972.13
683.314	28962.42
683.661	28907.73
684.009	28785.47
684.357	28745.25
684.705	28695.76
685.053	28605.59
685.4	28528.98
685.748	28380.96
686.095	28361.08
686.443	28204.92
686.79	28344.81
687.138	28331.7
687.485	28328.08
687.832	28117.24
688.18	28177.35
688.527	28052.16
688.874	28030.92
689.221	27836.12
689.568	27923.57
689.915	27867.98
690.262	27987.07
690.609	27702.56
690.956	27853.97
691.303	27680.19
691.65	27565.39
691.997	27547.99
692.344	27397.26
692.69	27330.82
693.037	27393.87
693.383	27077.95
693.73	27222.35
694.077	26970.6
694.423	27105.29
694.769	26901.45
695.116	26894
695.462	26833.43
695.808	26819.87
696.155	26835.69
696.501	26666.88
696.847	26689.48
697.193	26338.08
697.539	26556.83
697.885	26276.39
698.231	26120.01
698.577	26151.19
698.923	26061.7
699.269	26095.37
699.614	25938.32
699.96	25867.36
700.306	25965.43
700.651	25755.27
700.997	25723.41
701.342	25721.82
701.688	25628.94
702.033	25576.06
702.379	25489.06
702.724	25327.03
703.069	25520.93
703.415	25190.54
703.76	25084.55
704.105	25194.15
704.45	25063.99
704.795	25013.14
705.14	24904.9
705.485	24921.84
705.83	24773.37
706.175	24787.84
706.52	24637.11
706.865	24587.62
707.209	24569.31
707.554	24531.35
707.899	24559.59
708.243	24510.56
708.588	24382.42
708.932	24292.26
709.277	24285.25
709.621	24349.66
709.966	24125.48
710.31	24163.45
710.654	23966.39
710.998	23981.53
711.342	24052.04
711.687	23853.85
712.031	23824.02
712.375	23680.3
712.719	23731.82
713.063	23759.16
713.407	23816.11
713.75	23652.73
714.094	23605.72
714.438	23404.14
714.782	23549.9
715.125	23456.12
715.469	23506.74
715.812	23284.83
716.156	23196.47
716.499	23197.37
716.843	23239.4
717.186	23030.14
717.53	23157.82
717.873	23228.1
718.216	23153.3
718.559	23043.25
718.902	22860.66
719.246	22949.02
719.589	22827.66
719.932	22711.06
720.275	22704.05
720.617	22697.04
720.96	22634.67
721.303	22719.87
721.646	22638.29
721.989	22441.68
722.331	22494.11
722.674	22435.58
723.016	22461.34
723.359	22496.37
723.701	22446.2
724.044	22316.94
724.386	22195.81
724.729	22336.6
725.071	22137.06
725.413	22206.44
725.755	22117.17
726.097	22020.9
726.439	21975.93
726.782	21997.18
727.124	22077.17
727.465	21967.35
727.807	21903.17
728.149	21815.03
728.491	21793.34
728.833	21882.83
729.175	21739.1
729.516	21782.94
729.858	21694.13
730.199	21799.44
730.541	21619.11
730.882	21608.94
731.224	21656.62
731.565	21510.18
731.906	21531.2
732.248	21493.01
732.589	21480.58
732.93	21369.17
733.271	21397.19
733.612	21340.47
733.953	21441.71
734.294	21256.18
734.635	21240.81
734.976	21248.27
735.317	21126.24
735.658	21222.51
735.999	21076.07
736.339	21126.69
736.68	21128.95
737.021	20979.35
737.361	20972.8
737.702	20971.44
738.042	20994.49
738.383	20900.93
738.723	20940.03
739.063	20752.91
739.404	20928.28
739.744	20846.02
740.084	20697.1
740.424	20774.38
740.764	20690.09
741.104	20722.63
741.444	20542.07
741.784	20606.48
742.124	20521.73
742.464	20591.56
742.804	20489.19
743.143	20488.29
743.483	20528.74
743.823	20296.43
744.162	20333.49
744.502	20357.44
744.841	20298.92
745.181	20331.91
745.52	20349.08
745.86	20360.16
746.199	20197.68
746.538	20229.76
746.877	20203.1
747.216	20172.59
747.556	20018.24
747.895	20077.45
748.234	20018.92
748.573	19888.08
748.911	19953.39
749.25	20015.76
749.589	19811.24
749.928	19812.6
750.267	19759.72
750.605	19744.13
750.944	19708.42
751.283	19752.94
751.621	19810.79
751.96	19563.79
752.298	19550.46
752.636	19508.43
752.975	19445.15
753.313	19364.25
753.651	19328.77
753.989	19290.81
754.327	19210.13
754.666	19183.46
755.004	19211.71
755.342	19226.18
755.679	19176.01
756.017	19102.34
756.355	19032.51
756.693	19038.61
757.031	18992.96
757.368	18964.71
757.706	18879.29
758.044	18819.63
758.381	18778.05
758.719	18752.97
759.056	18756.81
759.394	18663.93
759.731	18626.42
760.068	18570.83
760.405	18445.4
760.743	18395.46
761.08	18485.18
761.417	18333.32
761.754	18221
762.091	18277.27
762.428	18139.65
762.765	17987.11
763.102	18143.94
763.438	18016.72
763.775	17881.35
764.112	17945.3
764.449	17885.19
764.785	17795.7
765.122	17679.32
765.458	17616.95
765.795	17577.86
766.131	17588.48
766.467	17472.55
766.804	17446.56
767.14	17342.83
767.476	17327.24
767.812	17266.68
768.148	17294.02
768.485	17188.49
768.821	17172.44
769.157	17096.06
769.492	17030.07
769.828	17037.53
770.164	16862.62
770.5	16799.12
770.836	16786.47
771.171	16705.11
771.507	16661.5
771.842	16541.95
772.178	16633.02
772.513	16519.13
772.849	16407.49
773.184	16360.26
773.519	16331.79
773.855	16285.91
774.19	16172.02
774.525	16145.8
774.86	16123.66
775.195	16056.99
775.53	16041.17
775.865	15956.2
776.2	15822.2
776.535	15806.6
776.87	15663.11
777.205	15668.08
777.539	15648.64
777.874	15542.66
778.209	15370.23
778.543	15430.34
778.878	15373.85
779.212	15361.87
779.547	15319.61
779.881	15296.34
780.215	15255.88
780.55	15234.64
780.884	15122.1
781.218	15076.68
781.552	15044.36
781.886	14996
782.22	14936.57
782.554	14873.52
782.888	14665.62
783.222	14635.79
783.556	14659.29
783.889	14585.39
784.223	14515.11
784.557	14473.76
784.89	14533.19
785.224	14361.9
785.557	14340.88
785.891	14287.55
786.224	14205.52
786.558	14240.77
786.891	14061.11
787.224	14123.71
787.557	14004.84
787.891	14054.33
788.224	13977.27
788.557	13930.27
788.89	13868.12
789.223	13904.73
789.556	13784.06
789.888	13750.16
790.221	13680.11
790.554	13637.85
790.887	13613.22
791.219	13557.4
791.552	13558.98
791.884	13515.36
792.217	13375.26
792.549	13367.35
792.882	13253.9
793.214	13246.45
793.546	13210.51
793.879	13136.62
794.211	13078.54
794.543	13113.34
794.875	13034.25
795.207	13060.01
795.539	13090.29
795.871	12971.42
796.203	12809.17
796.535	12781.82
796.867	12755.61
797.198	12776.63
797.53	12729.17
797.862	12690.08
798.193	12668.61
798.525	12585.67
798.856	12631.77
799.188	12615.05
799.519	12488.73
799.85	12383.42
800.182	12376.41
800.513	12443.08
800.844	12291.22
801.175	12425.68
801.506	12294.61
801.837	12269.07
802.168	12213.25
802.499	12152.46
802.83	12070.66
803.161	12055.74
803.491	12018.23
803.822	12058.23
804.153	11991.34
804.483	11886.26
804.814	11831.79
805.145	11912.92
805.475	11812.13
805.805	11872.47
806.136	11813.94
806.466	11786.6
806.796	11783.43
807.126	11658.69
807.457	11599.26
807.787	11660.27
808.117	11601.52
808.447	11544.57
808.777	11580.95
809.107	11441.97
809.436	11428.41
809.766	11426.38
810.096	11422.99
810.426	11388.87
810.755	11380.51
811.085	11291.24
811.414	11321.07
811.744	11245.37
812.073	11248.08
812.403	11261.41
812.732	11133.73
813.061	11187.06
813.39	11110.68
813.719	11089.67
814.049	11079.5
814.378	11064.36
814.707	11049.44
815.036	10978.93
815.365	10960.86
815.693	10848.09
816.022	10879.05
816.351	10824.14
816.68	10723.8
817.008	10818.26
817.337	10686.74
817.665	10724.48
817.994	10719.96
818.322	10705.5
818.651	10587.31
818.979	10579.17
819.307	10583.01
819.636	10613.97
819.964	10519.06
820.292	10604.03
820.62	10563.13
820.948	10550.92
821.276	10592.73
821.604	10529.23
821.932	10616.68
822.259	10543.24
822.587	10529.45
822.915	10437.48
823.243	10541.21
823.57	10507.99
823.898	10499.63
824.225	10447.42
824.553	10466.63
824.88	10484.94
825.207	10565.84
825.535	10509.79
825.862	10477.25
826.189	10409.46
826.516	10529.45
826.843	10482
827.17	10503.24
827.497	10505.73
827.824	10584.37
828.151	10491.26
828.478	10495.56
828.805	10493.3
829.131	10452.85
829.458	10434.32
829.785	10375.56
830.111	10426.63
830.438	10438.38
830.764	10470.02
831.09	10448.33
831.417	10385.05
831.743	10416.69
832.069	10405.39
832.395	10417.37
832.722	10458.72
833.048	10444.03
833.374	10435.45
833.7	10347.54
834.026	10375.11
834.351	10381.89
834.677	10319.06
835.003	10350.25
835.329	10405.39
835.654	10294.66
835.98	10270.7
836.306	10307.09
836.631	10270.7
836.956	10345.73
837.282	10298.05
837.607	10279.07
837.932	10198.16
838.258	10197.26
838.583	10253.3
838.908	10168.33
839.233	10193.64
839.558	10103.93
839.883	10111.84
840.208	10052.41
840.533	10090.6
840.858	10106.42
841.182	10032.07
841.507	9976.02
841.832	9950.94
842.156	9947.78
842.481	9975.35
842.805	9957.72
843.13	9917.95
843.454	9938.96
843.778	9808.57
844.103	9843.37
844.427	9823.03
844.751	9813.77
845.075	9740.1
845.399	9768.8
845.723	9705.97
846.047	9686.99
846.371	9656.71
846.695	9630.27
847.019	9573.55
847.343	9535.36
847.666	9524.51
847.99	9372.88
848.313	9465.53
848.637	9426.43
848.96	9325.87
849.284	9321.12
849.607	9294.91
849.931	9224.63
850.254	9215.14
850.577	9097.4
850.9	9006.33
851.223	9153.67
851.546	9028.25
851.869	8953.23
852.192	8969.95
852.515	8977.41
852.838	8873.23
853.161	8896.73
853.483	8862.61
853.806	8802.72
854.129	8817.86
854.451	8726.34
854.774	8783.06
855.096	8683.18
855.419	8670.29
855.741	8646.11
856.063	8624.42
856.385	8579.45
856.708	8580.58
857.03	8524.54
857.352	8544.2
857.674	8447.7
857.996	8498.32
858.318	8459
858.64	8472.56
858.961	8409.06
859.283	8453.8
859.605	8361.6
859.926	8334.71
860.248	8326.12
860.57	8338.78
860.891	8300.36
861.212	8243.19
861.534	8295.16
861.855	8260.36
862.176	8191.89
862.498	8196.41
862.819	8106.47
863.14	8165.22
863.461	8129.97
863.782	8082.51
864.103	8171.55
864.424	8067.6
864.745	8126.35
865.065	8042.74
865.386	8060.59
865.707	8071.67
866.027	8091.33
866.348	7988.28
866.668	8019.92
866.989	7975.17
867.309	7946.7
867.63	7966.58
867.95	7951.44
868.27	7881.16
868.59	7954.38
868.91	7899.69
869.23	7919.58
869.55	7868.51
869.87	7894.72
870.19	7894.95
870.51	7874.16
870.83	7874.61
871.15	7840.71
871.469	7809.53
871.789	7792.8
872.109	7799.58
872.428	7716.65
872.748	7768.85
873.067	7710.32
873.386	7747.61
873.706	7710.32
874.025	7724.1
874.344	7703.77
874.663	7712.35
874.982	7626.25
875.301	7712.35
875.62	7637.78
875.939	7624.9
876.258	7608.4
876.577	7579.93
876.896	7590.32
877.214	7598.23
877.533	7629.42
877.852	7609.08
878.17	7609.31
878.489	7587.16
878.807	7574.05
879.125	7543.32
879.444	7534.05
879.762	7496.77
880.08	7468.52
880.398	7513.71
880.716	7464.45
881.034	7467.16
881.352	7477.33
881.67	7396.66
881.988	7468.52
882.306	7390.55
882.624	7457.45
882.941	7381.51
883.259	7308.75
883.577	7307.84
883.894	7319.37
884.212	7340.16
884.529	7303.55
884.846	7258.81
885.164	7245.7
885.481	7197.34
885.798	7197.79
886.115	7184.91
886.432	7164.8
886.75	7156.44
887.067	7186.04
887.383	7140.62
887.7	7169.32
888.017	7099.49
888.334	7079.83
888.651	7077.79
888.967	7061.52
889.284	7014.07
889.6	6988.08
889.917	6971.36
890.233	6972.94
890.55	6930
890.866	6948.76
891.182	6906.27
891.498	6892.71
891.815	6906.5
892.131	6866.27
892.447	6854.98
892.763	6796.22
893.079	6762.55
893.395	6790.8
893.71	6752.6
894.026	6746.73
894.342	6706.05
894.657	6683
894.973	6697.92
895.289	6719.16
895.604	6685.26
895.92	6617.69
896.235	6638.26
896.55	6594.42
896.865	6582.21
897.181	6493.4
897.496	6584.93
897.811	6500.18
898.126	6497.7
898.441	6463.8
898.756	6466.51
899.071	6416.34
899.386	6393.74
899.7	6352.84
900.015	6372.05
900.33	6287.31
900.644	6309.23
900.959	6308.1
901.273	6306.51
901.588	6220.42
901.902	6237.14
902.216	6201.88
902.531	6204.14
902.845	6176.8
903.159	6069.01
903.473	6109.23
903.787	6094.09
904.101	6019.52
904.415	6083.92
904.729	6000.53
905.042	5998.73
905.356	6020.19
905.67	5990.14
905.984	5979.97
906.297	5929.35
906.611	5915.11
906.924	5897.26
907.237	5907.43
907.551	5883.93
907.864	5864.04
908.177	5832.4
908.491	5820.65
908.804	5794.66
909.117	5790.37
909.43	5732.74
909.743	5709.92
910.056	5641.9
910.368	5660.88
910.681	5641.9
910.994	5608.23
911.307	5598.51
911.619	5567.33
911.932	5568.23
912.244	5545.18
912.557	5474.22
912.869	5479.42
913.181	5479.19
913.494	5458.4
913.806	5457.95
914.118	5357.39
914.43	5349.03
914.742	5401.68
915.054	5363.94
915.366	5349.03
915.678	5311.29
915.99	5335.02
916.302	5228.13
916.613	5235.36
916.925	5229.48
917.236	5220.22
917.548	5155.36
917.859	5158.52
918.171	5140.22
918.482	5122.59
918.794	5093.89
919.105	5021.8
919.416	5001.01
919.727	4965.53
920.038	4989.71
920.349	5010.05
920.66	4971.41
920.971	4998.53
921.282	4935.48
921.593	4895.03
921.903	4845.76
922.214	4895.7
922.525	4856.84
922.835	4788.59
923.146	4803.73
923.456	4749.27
923.767	4777.52
924.077	4750.85
924.387	4746.1
924.697	4728.03
925.008	4706.78
925.318	4641.93
925.628	4623.17
925.938	4618.65
926.248	4565.32
926.558	4622.27
926.867	4591.53
927.177	4542.72
927.487	4532.78
927.796	4533.91
928.106	4521.48
928.416	4516.05
928.725	4456.39
929.034	4394.93
929.344	4408.71
929.653	4444.42
929.962	4406.9
930.271	4410.29
930.581	4349.5
930.89	4335.72
931.199	4351.09
931.508	4288.94
931.817	4305.21
932.125	4293.91
932.434	4281.03
932.743	4242.61
933.051	4224.76
933.36	4187.47
933.669	4131.88
933.977	4154.03
934.286	4167.59
934.594	4121.71
934.902	4172.56
935.21	4111.09
935.519	4040.81
935.827	4007.14
936.135	4067.03
936.443	4015.95
936.751	4023.64
937.059	4020.02
937.367	3947.03
937.674	3962.17
937.982	3977.31
938.29	3942.06
938.597	3956.75
938.905	3897.99
939.213	3894.38
939.52	3850.99
939.827	3836.75
940.135	3803.3
940.442	3810.99
940.749	3803.98
941.056	3809.18
941.363	3763.31
941.67	3756.3
941.977	3739.12
942.284	3724.21
942.591	3672.69
942.898	3668.39
943.205	3728.73
943.511	3673.36
943.818	3642.4
944.125	3596.98
944.431	3621.61
944.738	3589.3
945.044	3606.7
945.35	3582.29
945.657	3573.48
945.963	3580.71
946.269	3538.45
946.575	3529.19
946.881	3486.7
947.187	3502.07
947.493	3457.32
947.799	3469.75
948.105	3419.81
948.41	3436.53
948.716	3455.29
949.022	3406.25
949.327	3428.17
949.633	3352.92
949.938	3333.26
950.244	3423.43
950.549	3325.8
950.854	3315.86
951.16	3275.63
951.465	3317.67
951.77	3291.9
952.075	3249.65
952.38	3274.5
952.685	3266.14
952.99	3243.77
953.294	3229.76
953.599	3190.44
953.904	3195.64
954.209	3186.37
954.513	3168.97
954.818	3132.14
955.122	3132.14
955.426	3133.04
955.731	3106.83
956.035	3106.6
956.339	3084
956.643	3084
956.948	3088.97
957.252	3041.29
957.556	3064.57
957.86	3022.31
958.163	3042.65
958.467	3011.91
958.771	2981.86
959.075	2989.54
959.378	2937.34
959.682	2970.78
959.985	2921.97
960.289	2900.95
960.592	2918.13
960.896	2912.03
961.199	2886.04
961.502	2888.3
961.805	2857.79
962.108	2859.83
962.411	2832.48
962.714	2805.14
963.017	2806.95
963.32	2848.07
963.623	2810.34
963.926	2803.78
964.228	2761.98
964.531	2752.71
964.833	2749.77
965.136	2743.67
965.438	2731.02
965.741	2742.31
966.043	2705.03
966.345	2702.99
966.648	2663.67
966.95	2693.05
967.252	2655.99
967.554	2645.37
967.856	2592.49
968.158	2602.88
968.46	2597.91
968.761	2580.29
969.063	2575.09
969.365	2564.24
969.666	2585.26
969.968	2542.09
970.269	2519.04
970.571	2549.55
970.872	2531.7
971.174	2533.96
971.475	2502.32
971.776	2487.86
972.077	2508.42
972.378	2483.34
972.679	2458.48
972.98	2457.35
973.281	2464.58
973.582	2440.4
973.883	2414.41
974.183	2430.91
974.484	2399.27
974.785	2406.96
975.085	2411.7
975.386	2426.62
975.686	2354.98
975.986	2352.72
976.287	2350.23
976.587	2347.07
976.887	2322.66
977.187	2309.56
977.487	2304.13
977.787	2289.22
978.087	2298.48
978.387	2275.21
978.687	2250.58
978.987	2251.71
979.286	2253.06
979.586	2276.56
979.885	2235.21
980.185	2249.45
980.484	2198.37
980.784	2200.41
981.083	2223.68
981.382	2182.33
981.682	2184.14
981.981	2160.64
982.28	2164.93
982.579	2152.5
982.878	2110.24
983.177	2165.15
983.475	2103.24
983.774	2097.59
984.073	2118.38
984.372	2109.34
984.67	2099.17
984.969	2090.81
985.267	2070.24
985.566	2083.35
985.864	2089
986.162	2072.5
986.461	2026.85
986.759	2044.25
987.057	2018.04
987.355	2005.39
987.653	2015.78
987.951	2035.89
988.249	2009
988.547	1987.08
988.844	1982.11
989.142	2008.55
989.44	1987.53
989.737	1908.44
990.035	1952.05
990.332	1918.61
990.63	1927.42
990.927	1898.5
991.224	1892.17
991.521	1911.38
991.819	1892.17
992.116	1846.75
992.413	1855.78
992.71	1869.8
993.006	1854.88
993.303	1846.75
993.6	1851.04
993.897	1808.1
994.193	1854.88
994.49	1808.55
994.787	1816.01
995.083	1801.32
995.379	1789.8
995.676	1783.02
995.972	1769.46
996.268	1750.93
996.565	1773.98
996.861	1728.1
997.157	1712.96
997.453	1755.67
997.749	1731.27
998.044	1720.42
998.34	1722.45
998.636	1734.88
998.932	1689.46
999.227	1663.93
999.523	1679.07
999.818	1670.03
1000.114	1662.57
1000.409	1661.67
1000.704	1630.25
1001	1627.09
1001.295	1639.07
1001.59	1626.86
1001.885	1620.54
1002.18	1619.41
1002.475	1606.53
1002.77	1607.2
1003.065	1609.46
1003.359	1612.85
1003.654	1559.75
1003.949	1571.72
1004.243	1537.15
1004.538	1542.35
1004.832	1544.15
1005.127	1548.45
1005.421	1554.55
1005.715	1518.39
1006.009	1504.83
1006.304	1495.57
1006.598	1462.12
1006.892	1477.26
1007.186	1465.74
1007.48	1474.1
1007.773	1472.07
1008.067	1437.04
1008.361	1447.89
1008.655	1432.97
1008.948	1434.1
1009.242	1423.93
1009.535	1414.67
1009.829	1405.17
1010.122	1424.61
1010.415	1396.36
1010.708	1385.97
1011.001	1366.08
1011.295	1358.17
1011.588	1354.1
1011.881	1362.24
1012.173	1355.01
1012.466	1358.85
1012.759	1284.27
1013.052	1293.77
1013.344	1309.36
1013.637	1336.93
1013.93	1317.72
1014.222	1304.61
1014.514	1325.85
1014.807	1300.32
1015.099	1294.22
1015.391	1296.48
1015.683	1259.64
1015.976	1270.26
1016.268	1238.85
1016.56	1232.75
1016.851	1243.6
1017.143	1263.94
1017.435	1207.89
1017.727	1214.22
1018.018	1208.8
1018.31	1188.01
1018.602	1223.48
1018.893	1181.68
1019.185	1191.17
1019.476	1175.35
1019.767	1187.1
1020.058	1166.31
1020.35	1125.41
1020.641	1168.12
1020.932	1150.94
1021.223	1136.03
1021.514	1149.81
1021.804	1145.75
1022.095	1109.14
1022.386	1096.48
1022.677	1105.3
1022.967	1095.35
1023.258	1100.1
1023.548	1087.67
1023.839	1069.36
1024.129	1073.88
1024.419	1070.72
1024.709	1055.35
1025	1075.47
1025.29	1042.7
1025.58	1056.26
1025.87	1037.05
1026.16	1033.66
1026.449	1023.26
1026.739	1036.15
1027.029	1007.45
1027.319	1021.46
1027.608	1014.9
1027.898	992.3
1028.187	984.17
1028.477	1002.7
1028.766	985.3
1029.055	965.19
1029.344	975.58
1029.634	951.85
1029.923	952.76
1030.212	951.63
1030.501	948.24
1030.79	944.85
1031.078	929.71
1031.367	894.23
1031.656	917.05
1031.945	922.93
1032.233	923.83
1032.522	900.33
1032.81	912.53
1033.099	896.26
1033.387	870.05
1033.675	874.12
1033.963	876.83
1034.251	864.85
1034.54	883.83
1034.828	861.01
1035.116	862.14
1035.403	864.62
1035.691	847.9
1035.979	845.64
1036.267	825.53
1036.554	828.92
1036.842	836.6
1037.129	829.6
1037.417	815.13
1037.704	802.48
1037.992	803.38
1038.279	810.84
1038.566	795.25
1038.853	795.25
1039.14	795.25
