Data from breadboard_white_FLMS001491_00061.txt Node
Date: Wed Feb 08 10:48:05 GMT 2017
User: dcchb
Spectrometer: FLMS00149
Trigger mode: 0
Integration Time (sec): 2.000000E-2
Scans to average: 10
Electric dark correction enabled: true
Nonlinearity correction enabled: false
Boxcar width: 0
XAxis mode: Wavelengths
Number of Pixels in Spectrum: 2048
>>>>>Begin Spectral Data<<<<<
341.393	13.32
341.776	13.32
342.16	13.32
342.543	-73.68
342.927	-65.1
343.31	-70.97
343.693	-72.33
344.077	-51.99
344.46	-89.73
344.843	-45.44
345.226	-20.13
345.61	-49.5
345.993	-18.54
346.376	-7.02
346.759	4.51
347.142	28.91
347.525	43.6
347.908	79.53
348.291	55.35
348.674	97.61
349.057	116.14
349.44	137.16
349.823	139.19
350.206	162.69
350.588	196.36
350.971	209.92
351.354	251.96
351.737	246.53
352.119	253.09
352.502	247.66
352.884	293.09
353.267	278.62
353.65	293.99
354.032	310.94
354.414	311.16
354.797	318.62
355.179	340.09
355.562	340.32
355.944	326.3
356.326	329.92
356.709	341.9
357.091	337.83
357.473	360.65
357.855	364.72
358.238	377.83
358.62	360.65
359.002	352.52
359.384	371.28
359.766	362.24
360.148	366.08
360.53	332.86
360.912	343.25
361.294	343.93
361.676	345.06
362.057	331.5
362.439	358.62
362.821	362.46
363.203	362.69
363.584	344.61
363.966	346.42
364.348	362.91
364.729	340.99
365.111	350.49
365.493	349.13
365.874	338.06
366.256	323.37
366.637	338.73
367.019	338.06
367.4	349.36
367.781	340.09
368.163	347.77
368.544	352.97
368.925	350.71
369.306	341.22
369.688	336.25
370.069	346.64
370.45	370.6
370.831	370.82
371.212	340.09
371.593	340.32
371.974	340.77
372.355	339.19
372.736	358.62
373.117	329.47
373.498	350.26
373.879	363.59
374.26	358.62
374.641	341.22
375.021	345.74
375.402	355.23
375.783	355.91
376.163	362.01
376.544	376.7
376.925	360.65
377.305	359.98
377.686	352.74
378.066	362.46
378.447	354.33
378.827	386.87
379.208	361.33
379.588	377.6
379.968	398.62
380.349	404.27
380.729	405.4
381.109	366.76
381.489	394.55
381.87	390.71
382.25	408.56
382.63	401.11
383.01	395
383.39	422.35
383.77	398.39
384.15	392.07
384.53	401.33
384.91	397.49
385.29	421.44
385.67	396.13
386.049	446.08
386.429	428.9
386.809	442.23
387.189	453.53
387.568	443.14
387.948	446.75
388.328	462.35
388.707	433.87
389.087	453.99
389.466	458.5
389.846	471.61
390.225	466.19
390.605	476.58
390.984	474.32
391.363	468.9
391.743	493.31
392.122	487.66
392.501	491.95
392.881	488.33
393.26	517.03
393.639	526.07
394.018	505.51
394.397	519.52
394.776	527.2
395.155	545.96
395.534	512.29
395.913	517.26
396.292	549.12
396.671	546.64
397.05	543.93
397.429	554.55
397.808	581.44
398.186	581.44
398.565	578.5
398.944	596.13
399.323	604.26
399.701	623.7
400.08	600.2
400.458	600.87
400.837	634.09
401.215	646.75
401.594	640.87
401.972	656.01
402.351	653.53
402.729	681.32
403.107	689.91
403.486	706.18
403.864	710.48
404.242	695.11
404.62	731.27
404.999	739.85
405.377	746.18
405.755	740.76
406.133	775.56
406.511	763.36
406.889	813.07
407.267	809.68
407.645	803.35
408.023	854.65
408.401	865.95
408.779	853.07
409.156	867.76
409.534	884.93
409.912	868.89
410.29	910.47
410.667	945.5
411.045	980.98
411.422	962.22
411.8	981.88
412.178	1009.9
412.555	1045.16
412.933	1022.56
413.31	1077.47
413.687	1085.16
414.065	1103.69
414.442	1120.41
414.819	1151.14
415.197	1122.67
415.574	1179.84
415.951	1183.91
416.328	1218.03
416.705	1211.48
417.082	1239.28
417.46	1245.15
417.837	1280.86
418.214	1283.12
418.591	1302.78
418.967	1310.23
419.344	1298.48
419.721	1372.38
420.098	1351.59
420.475	1381.19
420.852	1358.37
421.228	1379.84
421.605	1401.76
421.982	1451.47
422.358	1408.54
422.735	1495.99
423.111	1486.05
423.488	1531.7
423.864	1528.76
424.241	1544.58
424.617	1562.88
424.994	1577.8
425.37	1597.01
425.746	1612.15
426.123	1637.68
426.499	1632.49
426.875	1654.41
427.251	1655.99
427.627	1710.68
428.003	1741.86
428.379	1769.2
428.756	1780.73
429.132	1799.26
429.507	1836.1
429.883	1855.08
430.259	1904.12
430.635	1930.56
431.011	1920.61
431.387	1997
431.763	1997
432.138	2056.65
432.514	2044.9
432.89	2048.75
433.265	2096.43
433.641	2147.27
434.016	2136.43
434.392	2186.37
434.767	2213.49
435.143	2240.15
435.518	2277.21
435.894	2275.63
436.269	2356.76
436.644	2376.65
437.02	2367.38
437.395	2371
437.77	2429.3
438.145	2449.41
438.52	2474.05
438.895	2489.41
439.271	2515.17
439.646	2620.26
440.021	2550.88
440.395	2592.91
440.77	2564.89
441.145	2620.26
441.52	2682.85
441.895	2685.79
442.27	2737.09
442.645	2718.11
443.019	2771.21
443.394	2753.13
443.769	2780.48
444.143	2774.83
444.518	2832.45
444.892	2821.15
445.267	2828.39
445.641	2918.1
446.016	2897.31
446.39	2956.07
446.764	2957.2
447.139	2921.49
447.513	2988.16
447.887	2992.22
448.262	2966.69
448.636	3037.19
449.01	3092.11
449.384	3125.55
449.758	3140.24
450.132	3184.31
450.506	3182.95
450.88	3195.38
451.254	3206.23
451.628	3271.09
452.002	3260.47
452.376	3310.63
452.75	3348.37
453.123	3382.04
453.497	3408.94
453.871	3485.77
454.244	3556.28
454.618	3582.04
454.992	3603.73
455.365	3619.55
455.739	3701.58
456.112	3735.25
456.486	3765.76
456.859	3844.63
457.232	3926.21
457.606	3878.98
457.979	3928.02
458.352	4042.37
458.725	4062.25
459.099	4083.04
459.472	4174.57
459.845	4197.84
460.218	4278.29
460.591	4321.23
460.964	4321.23
461.337	4448.68
461.71	4510.83
462.083	4519.19
462.456	4573.2
462.829	4564.84
463.201	4646.64
463.574	4680.99
463.947	4784.27
464.32	4888.9
464.692	4897.71
465.065	4904.04
465.438	4973.19
465.81	5062.68
466.183	5165.73
466.555	5250.47
466.928	5234.88
467.3	5235.1
467.672	5402.56
468.045	5525.72
468.417	5526.17
468.789	5548.09
469.161	5625.15
469.534	5694.75
469.906	5837.35
470.278	5895.88
470.65	5948.53
471.022	6057.91
471.394	6193.27
471.766	6258.13
472.138	6365.24
472.51	6485.24
472.882	6578.57
473.253	6644.78
473.625	6686.14
473.997	6867.6
474.369	6934.04
474.74	7010.65
475.112	7089.07
475.484	7236.18
475.855	7376.74
476.227	7415.61
476.598	7646.34
476.97	7735.38
477.341	7844.75
477.713	7999.32
478.084	8062.6
478.455	8286.77
478.827	8350.27
479.198	8617.61
479.569	8660.1
479.94	8850.37
480.311	8919.53
480.682	9108.9
481.053	9322.23
481.424	9493.3
481.795	9525.84
482.166	9749.56
482.537	9946.39
482.908	10063.9
483.279	10209.43
483.65	10348.41
484.021	10546.15
484.391	10671.12
484.762	10770.55
485.133	10819.81
485.503	11037.21
485.874	11290.08
486.244	11379.57
486.615	11655.27
486.985	11723.75
487.356	11964.87
487.726	12122.15
488.097	12344.29
488.467	12311.07
488.837	12677.62
489.207	12768.01
489.578	12942.7
489.948	13035.8
490.318	13300.2
490.688	13279.41
491.058	13590.81
491.428	13727.31
491.798	13824.93
492.168	14094.08
492.538	14181.99
492.908	14329.1
493.278	14511.92
493.648	14619.71
494.017	14735.19
494.387	14868.07
494.757	14986.94
495.126	15179.02
495.496	15219.02
495.866	15273.26
496.235	15564.32
496.605	15665.56
496.974	15775.84
497.344	15956.85
497.713	16081.6
498.082	16125.89
498.452	16305.77
498.821	16392.78
499.19	16585.31
499.559	16604.3
499.928	16897.62
500.298	16912.76
500.667	17025.07
501.036	17085.41
501.405	17276.14
501.774	17269.81
502.143	17447.44
502.512	17590.94
502.88	17688.33
503.249	17750.48
503.618	17922
503.987	18091.94
504.356	18202.67
504.724	18265.72
505.093	18349.79
505.462	18498.26
505.83	18613.06
506.199	18757.68
506.567	18997.45
506.936	18938.02
507.304	19197.45
507.672	19280.16
508.041	19410.55
508.409	19671.11
508.777	19718.79
509.145	19896.19
509.514	19942.06
509.882	20121.26
510.25	20160.81
510.618	20383.86
510.986	20478.54
511.354	20699.78
511.722	20839.89
512.09	21102.26
512.458	21085.31
512.826	21258.86
513.193	21353.32
513.561	21413.66
513.929	21597.84
514.297	21759.64
514.664	21987.88
515.032	22038.28
515.4	22266.07
515.767	22293.86
516.135	22549.68
516.502	22431.49
516.869	22890.91
517.237	22937.46
517.604	22915.32
517.972	23226.27
518.339	23427.39
518.706	23437.34
519.073	23753.26
519.44	23889.75
519.808	24021.05
520.175	24159.8
520.542	24432.34
520.909	24525.89
521.276	24672.11
521.643	24884.08
522.009	25144.64
522.376	25254.46
522.743	25437.74
523.11	25780.78
523.477	25967.89
523.843	26038.62
524.21	26408.11
524.577	26461.66
524.943	26773.07
525.31	26775.33
525.676	27035.43
526.043	27238.59
526.409	27316.78
526.776	27756.54
527.142	27813.94
527.508	27946.37
527.874	28219.58
528.241	28272.91
528.607	28393.14
528.973	28740.93
529.339	28790.42
529.705	28966.68
530.071	29281.48
530.437	29411.87
530.803	29672.43
531.169	29783.38
531.535	29683.5
531.901	29983.15
532.267	30145.63
532.632	30278.74
532.998	30356.25
533.364	30646.19
533.73	30730.7
534.095	31020.64
534.461	31052.73
534.826	31325.04
535.192	31367.75
535.557	31715.31
535.923	31559.16
536.288	31663.11
536.653	31781.07
537.019	31789.21
537.384	32057.45
537.749	32145.58
538.114	32249.53
538.479	32329.08
538.845	32547.15
539.21	32495.18
539.575	32613.82
539.94	32748.73
540.305	33052.45
540.67	33054.94
541.034	33169.06
541.399	33281.14
541.764	33461.25
542.129	33571.08
542.494	33565.43
542.858	33643.4
543.223	33880.22
543.587	34083.61
543.952	34016.72
544.316	34153.89
544.681	34266.88
545.045	34348.91
545.41	34630.26
545.774	34717.04
546.138	34628.45
546.503	34796.81
546.867	34802.91
547.231	35090.81
547.595	35199.96
547.959	35286.74
548.324	35347.31
548.688	35416
549.052	35715.2
549.416	35666.39
549.779	35807.86
550.143	35843.79
550.507	36141.41
550.871	36289.2
551.235	36292.36
551.599	36530.32
551.962	36620.49
552.326	36637.89
552.689	36874.27
553.053	36864.55
553.417	37043.53
553.78	37434.93
554.143	37347.48
554.507	37610.97
554.87	37666.79
555.234	37971.87
555.597	37729.62
555.96	37928.71
556.323	38188.13
556.686	38199.66
557.05	38393.55
557.413	38717.16
557.776	38630.83
558.139	39129.58
558.502	38958.51
558.865	39301.55
559.228	39447.31
559.59	39588.78
559.953	39700.18
560.316	40127.07
560.679	40129.1
561.041	40302.2
561.404	40349.43
561.767	40739.93
562.129	40550.56
562.492	40965.46
562.854	41023.99
563.217	41062.63
563.579	41289.97
563.941	41408.84
564.304	41691.77
564.666	41929.73
565.028	42037.98
565.39	42207.46
565.753	42446.78
566.115	42350.28
566.477	42557.96
566.839	42742.36
567.201	43137.83
567.563	43011.06
567.925	43424.83
568.287	43466.41
568.648	43447.21
569.01	43635.45
569.372	43861.43
569.734	43759.06
570.095	44160.86
570.457	44166.06
570.819	44428.42
571.18	44348.65
571.542	44598.14
571.903	44621.41
572.265	44831.35
572.626	44926.94
572.987	45107.95
573.349	45210.1
573.71	45321.28
574.071	45492.12
574.432	45666.81
574.794	45858.22
575.155	45784.32
575.516	45754.49
575.877	45767.82
576.238	46036.74
576.599	45998.32
576.96	46243.29
577.32	46154.7
577.681	46404.64
578.042	46391.76
578.403	46489.16
578.763	46575.03
579.124	46493
579.485	46653.22
579.845	46831.3
580.206	46769.83
580.566	46682.83
580.927	46686.44
581.287	46844.4
581.648	46822.48
582.008	46972.76
582.368	46909.71
582.728	46871.07
583.089	46851.41
583.449	46940.67
583.809	46868.36
584.169	47083.27
584.529	46957.17
584.889	47363.71
585.249	47058.64
585.609	47003.95
585.969	47156.94
586.329	46960.11
586.688	47090.73
587.048	47059.54
587.408	47045.08
587.768	47032.87
588.127	47142.48
588.487	47024.96
588.846	47240.55
589.206	46933.44
589.565	47072.65
589.925	47245.52
590.284	47079.2
590.643	47067.9
591.003	47195.36
591.362	47392.41
591.721	47343.37
592.08	47289.14
592.44	47459.75
592.799	47351.96
593.158	47186.32
593.517	47335.92
593.876	47399.64
594.235	47257.95
594.593	47238.07
594.952	47492.75
595.311	47356.03
595.67	47369.14
596.029	47567.77
596.387	47595.8
596.746	47639.64
597.104	47480.09
597.463	47450.72
597.822	47642.12
598.18	47507.21
598.538	47518.96
598.897	47624.04
599.255	47447.78
599.613	47912.17
599.972	47660.88
600.33	47731.16
600.688	47566.19
601.046	47735.45
601.404	47920.99
601.762	47866.52
602.12	48079.85
602.478	48051.83
602.836	47951.27
603.194	47908.33
603.552	47850.03
603.91	47886.64
604.268	48045.95
604.625	47865.17
604.983	48136.57
605.341	47963.47
605.698	48115.56
606.056	48254.54
606.413	48115.33
606.771	48310.58
607.128	48264.25
607.485	48147.87
607.843	48205.5
608.2	48499.95
608.557	48544.02
608.914	48330.01
609.272	48626.05
609.629	48640.29
609.986	48762.09
610.343	48553.06
610.7	48899.72
611.057	48784.47
611.414	48735.2
611.771	48844.8
612.127	48921.41
612.484	48980.17
612.841	49051.35
613.198	48825.14
613.554	48921.19
613.911	49055.87
614.267	49241.63
614.624	49135.19
614.98	49256.77
615.337	49432.81
615.693	49321.85
616.05	49192.14
616.406	49427.61
616.762	49268.97
617.118	49409.31
617.475	49323.43
617.831	49385.81
618.187	49469.19
618.543	49477.1
618.899	49693.37
619.255	49476.2
619.611	49542.86
619.967	49605.91
620.323	49711.67
620.678	49617.66
621.034	49358.24
621.39	49559.59
621.746	49481.62
622.101	49893.14
622.457	49588.96
622.812	49605.69
623.168	49805.68
623.523	49758.68
623.879	49736.08
624.234	49530.21
624.589	49754.16
624.945	49646.82
625.3	49790.54
625.655	49726.36
626.01	49621.96
626.365	49659.7
626.72	49712.8
627.075	49743.54
627.43	49549.19
627.785	49541.96
628.14	49577.44
628.495	49632.81
628.85	49623.09
629.205	49461.06
629.559	49645.23
629.914	49459.25
630.269	49595.07
630.623	49408.63
630.978	49364.34
631.332	49396.43
631.687	49450.21
632.041	49249.54
632.396	49404.34
632.75	49230.56
633.104	49348.74
633.459	49189.88
633.813	49230.78
634.167	49033.95
634.521	49017.45
634.875	49172.03
635.229	49070.56
635.583	48861.07
635.937	48788.08
636.291	48767.07
636.645	48803.9
636.999	48654.3
637.352	48819.27
637.706	48487.07
638.06	48752.38
638.413	48700.85
638.767	48521.2
639.121	48520.97
639.474	48427.19
639.828	48404.14
640.181	48395.32
640.534	48380.63
640.888	48300.41
641.241	48108.78
641.594	48184.71
641.947	48287.76
642.301	48120.08
642.654	48181.77
643.007	48122.11
643.36	48057.03
643.713	47990.81
644.066	48149.91
644.419	47839.86
644.771	47720.31
645.124	47373.88
645.477	47287.33
645.83	46979.54
646.182	46828.59
646.535	46571.64
646.888	46551.08
647.24	46539.1
647.593	46646.89
647.945	46572.32
648.298	46378.43
648.65	46285.55
649.002	46117.19
649.355	46266.57
649.707	46304.76
650.059	46502.27
650.411	46792.2
650.763	46954.01
651.115	47278.52
651.467	47146.54
651.819	47120.78
652.171	46868.58
652.523	46952.2
652.875	46994.46
653.227	46751.07
653.578	47012.08
653.93	46872.2
654.282	46684.63
654.633	46525.32
654.985	46745.65
655.337	46614.13
655.688	46682.15
656.039	46693.22
656.391	46437.86
656.742	46471.53
657.094	46472.21
657.445	46573.45
657.796	46454.81
658.147	46439.89
658.498	46412.1
658.849	46427.92
659.2	46214.82
659.551	46303.4
659.902	46453.45
660.253	46284.42
660.604	46302.27
660.955	46132.56
661.306	46314.02
661.656	46150.86
662.007	46176.85
662.358	46147.02
662.708	46239.22
663.059	46063.86
663.409	45828.84
663.76	46161.03
664.11	46017.76
664.461	46151.54
664.811	46085.55
665.161	46084.2
665.511	45981.6
665.862	45947.48
666.212	46014.14
666.562	45903.19
666.912	45888.95
667.262	45841.27
667.612	45787.93
667.962	45774.6
668.312	45729.18
668.662	45996.97
669.011	45825.9
669.361	45734.38
669.711	45815.73
670.06	45788.84
670.41	45733.25
670.76	45597.88
671.109	45777.77
671.459	45618.22
671.808	45609.63
672.157	45581.61
672.507	45364.22
672.856	45377.32
673.205	45441.5
673.554	45534.38
673.904	45208.29
674.253	45402.86
674.602	45498.22
674.951	44887.62
675.3	44676.78
675.649	45267.5
675.998	45184.33
676.346	45205.8
676.695	45322.41
677.044	44950.44
677.393	45073.6
677.741	45056.43
678.09	45055.3
678.438	44901.86
678.787	44975.3
679.135	44912.93
679.484	44602.65
679.832	44843.1
680.181	44620.73
680.529	44793.84
680.877	44497.35
681.225	44583.9
681.573	44828.64
681.922	44405.82
682.27	44301.65
682.618	44323.11
682.966	44298.26
683.314	44306.39
683.661	44270.23
684.009	43890.58
684.357	43926.74
684.705	43807.87
685.053	43899.62
685.4	43901.88
685.748	43655.79
686.095	43511.61
686.443	43591.38
686.79	43428.9
687.138	43482.23
687.485	43322.91
687.832	43256.48
688.18	43296.02
688.527	43022.13
688.874	43089.7
689.221	42988.69
689.568	42857.39
689.915	42823.49
690.262	42764.74
690.609	42593.22
690.956	42461.47
691.303	42489.26
691.65	42214.92
691.997	42094.7
692.344	41942.84
692.69	42015.15
693.037	42056.28
693.383	41567.93
693.73	41897.42
694.077	41480.03
694.423	41536.07
694.769	41321.84
695.116	41307.83
695.462	41113.26
695.808	41188.06
696.155	41296.75
696.501	40929.98
696.847	40941.73
697.193	40614.29
697.539	40657.9
697.885	40524.8
698.231	40270.34
698.577	40458.13
698.923	40306.5
699.269	39960.97
699.614	39870.35
699.96	39913.06
700.306	39834.42
700.651	39565.05
700.997	39594.65
701.342	39467.2
701.688	39347.2
702.033	39217.26
702.379	39148.56
702.724	39207.09
703.069	39211.38
703.415	38686.88
703.76	38704.73
704.105	38790.15
704.45	38656.6
704.795	38494.79
705.14	38387.23
705.485	38371.18
705.83	38180.22
706.175	38185.2
706.52	37947.01
706.865	37903.4
707.209	37977.52
707.554	37729.84
707.899	37871.53
708.243	37739.78
708.588	37591.99
708.932	37502.05
709.277	37371.66
709.621	37281.27
709.966	36991.1
710.31	37087.37
710.654	36843.31
710.998	36721.51
711.342	36885.12
711.687	36662.07
712.031	36643.54
712.375	36380.72
712.719	36660.49
713.063	36425.02
713.407	36556.31
713.75	36267.96
714.094	36235.64
714.438	36091.92
714.782	36046.72
715.125	35857.35
715.469	36124.01
715.812	35741.87
716.156	35532.61
716.499	35702.78
716.843	35646.28
717.186	35481.31
717.53	35510.69
717.873	35616.22
718.216	35443.57
718.559	35356.57
718.902	35090.81
719.246	35237.03
719.589	35155.45
719.932	34900.31
720.275	34911.84
720.617	34908.22
720.96	34734.21
721.303	34709.36
721.646	34857.83
721.989	34558.85
722.331	34738.73
722.674	34433.88
723.016	34473.2
723.359	34492.86
723.701	34387.1
724.044	34136.49
724.386	34012.42
724.729	34167.9
725.071	34028.47
725.413	33867.8
725.755	33925.65
726.097	33861.69
726.439	33655.82
726.782	33727.91
727.124	33876.16
727.465	33608.82
727.807	33630.06
728.149	33457.19
728.491	33261.26
728.833	33374.02
729.175	33354.82
729.516	33223.52
729.858	33225.78
730.199	33321.6
730.541	33043.86
730.882	33092.9
731.224	33136.97
731.565	32957.76
731.906	32988.5
732.248	32880.03
732.589	32875.05
732.93	32611.56
733.271	32778.79
733.612	32731.33
733.953	32638.22
734.294	32520.94
734.635	32389.19
734.976	32655.85
735.317	32354.62
735.658	32404.11
735.999	32374.73
736.339	32167.05
736.68	32214.96
737.021	32182.87
737.361	32022.19
737.702	32117.33
738.042	32060.39
738.383	31911.46
738.723	32029.65
739.063	31793.27
739.404	31935.42
739.744	31784.69
740.084	31635.76
740.424	31596.44
740.764	31628.53
741.104	31719.83
741.444	31451.36
741.784	31370.23
742.124	31582.43
742.464	31496.11
742.804	31467.63
743.143	31275.1
743.483	31281.88
743.823	31159.39
744.162	30979.28
744.502	31127.53
744.841	30991.04
745.181	31046.85
745.52	30852.06
745.86	30823.58
746.199	30745.39
746.538	30814.99
746.877	30792.4
747.216	30722.34
747.556	30652.06
747.895	30630.14
748.234	30309.02
748.573	30317.83
748.911	30386.08
749.25	30345.18
749.589	30122.58
749.928	30207.55
750.267	30309.92
750.605	30097.73
750.944	29979.76
751.283	29849.14
751.621	29909.48
751.96	29765.3
752.298	29694.35
752.636	29655.48
752.975	29631.52
753.313	29501.36
753.651	29666.1
753.989	29450.51
754.327	29264.75
754.666	29281.48
755.004	29272.21
755.342	29229.5
755.679	29083.74
756.017	29073.35
756.355	29006.23
756.693	28916.74
757.031	29002.16
757.368	28822.28
757.706	28763.52
758.044	28722.85
758.381	28594.94
758.719	28394.49
759.056	28497.09
759.394	28315.85
759.731	28216.87
760.068	28243.31
760.405	28075.63
760.743	27905.24
761.08	28197.89
761.417	27838.58
761.754	27815.53
762.091	27705.47
762.428	27618.92
762.765	27348.87
763.102	27539.83
763.438	27296.44
763.775	27228.65
764.112	27257.8
764.449	27249.21
764.785	26995.89
765.122	26872.05
765.458	26808.32
765.795	26786.63
766.131	26834.31
766.467	26620.53
766.804	26458.27
767.14	26365.39
767.476	26328.56
767.812	26078.62
768.148	26028.91
768.485	26061
768.821	25839.08
769.157	25802.02
769.492	25769.48
769.828	25802.25
770.164	25495.13
770.5	25463.95
770.836	25449.49
771.171	25209.72
771.507	25182.6
771.842	25034.13
772.178	25026.22
772.513	25100.57
772.849	24952.32
773.184	25006.33
773.519	24870.97
773.855	24727.7
774.19	24537.87
774.525	24499.91
774.86	24511.88
775.195	24300.36
775.53	24400.47
775.865	24106.02
776.2	23955.51
776.535	23828.96
776.87	23786.03
777.205	23771.34
777.539	23703.77
777.874	23682.98
778.209	23486.15
778.543	23477.11
778.878	23165.7
779.212	23329.09
779.547	23068.31
779.881	23144.91
780.215	22982.43
780.55	22983.34
780.884	22798.03
781.218	22708.09
781.552	22692.5
781.886	22532.27
782.22	22523.91
782.554	22390.13
782.888	22111.49
783.222	22120.53
783.556	22126.41
783.889	21955.34
784.223	21805.97
784.557	21796.7
784.89	21833.99
785.224	21661.34
785.557	21547.44
785.891	21526.43
786.224	21476.71
786.558	21370.5
786.891	21257.96
787.224	21172.76
787.557	21170.05
787.891	21132.99
788.224	21074.46
788.557	20945.42
788.89	20920.34
789.223	20882.6
789.556	20711.98
789.888	20619.1
790.221	20493.01
790.554	20448.94
790.887	20429.05
791.219	20412.33
791.552	20224.99
791.884	20232
792.217	20079.23
792.549	20170.3
792.882	19963.98
793.214	19902.97
793.546	19891.21
793.879	19809.41
794.211	19662.29
794.543	19741.16
794.875	19658.9
795.207	19651.67
795.539	19557.21
795.871	19538.46
796.203	19297.33
796.535	19189.31
796.867	19168.52
797.198	19124.68
797.53	19115.87
797.862	18993.84
798.193	19069.54
798.525	18915.42
798.856	18911.35
799.188	18693.28
799.519	18698.7
799.85	18547.75
800.182	18616.45
800.513	18573.96
800.844	18379.39
801.175	18541.42
801.506	18430.46
801.837	18442.89
802.168	18236.34
802.499	18223.01
802.83	18128.77
803.161	18039.51
803.491	18141.43
803.822	18092.17
804.153	17911.15
804.483	17779.41
804.814	17773.3
805.145	17764.26
805.475	17745.51
805.805	17604.72
806.136	17668
806.466	17776.47
806.796	17665.74
807.126	17375.57
807.457	17430.49
807.787	17355.46
808.117	17270.72
808.447	17242.02
808.777	17274.33
809.107	17298.74
809.436	17116.82
809.766	17062.59
810.096	16953.66
810.426	16879.77
810.755	16986.43
811.085	16974.45
811.414	16790.5
811.744	16668.02
812.073	16665.54
812.403	16753.9
812.732	16591.64
813.061	16650.85
813.39	16382.38
813.719	16443.62
814.049	16452.43
814.378	16489.04
814.707	16313.91
815.036	16322.04
815.365	16183.52
815.693	16043.41
816.022	16202.72
816.351	15995.95
816.68	15946.23
817.008	16132.22
817.337	15851.55
817.665	15867.82
817.994	15889.96
818.322	15967.02
818.651	15761.61
818.979	15741.27
819.307	15739.91
819.636	15587.82
819.964	15617.2
820.292	15698.33
820.62	15652.91
820.948	15621.04
821.276	15633.47
821.604	15499.24
821.932	15631.21
822.259	15614.26
822.587	15422.41
822.915	15510.31
823.243	15572.46
823.57	15543.53
823.898	15564.32
824.225	15461.27
824.553	15458.34
824.88	15475.06
825.207	15451.78
825.535	15453.36
825.862	15540.37
826.189	15379.92
826.516	15546.47
826.843	15542.4
827.17	15402.29
827.497	15477.09
827.824	15529.97
828.151	15531.1
828.478	15494.95
828.805	15520.93
829.131	15500.82
829.458	15404.55
829.785	15307.15
830.111	15325.46
830.438	15434.38
830.764	15427.83
831.09	15369.3
831.417	15317.1
831.743	15402.29
832.069	15351.67
832.395	15305.8
832.722	15350.54
833.048	15250.43
833.374	15286.82
833.7	15219.02
834.026	15295.63
834.351	15333.14
834.677	15222.86
835.003	15254.5
835.329	15320.26
835.654	15211.56
835.98	15113.26
836.306	15232.58
836.631	15133.6
836.956	15184.67
837.282	15114.62
837.607	15056.77
837.932	15069.42
838.258	15028.29
838.583	14966.15
838.908	14965.69
839.233	14897.22
839.558	14898.58
839.883	14887.5
840.208	14800.5
840.533	14862.42
840.858	14815.87
841.182	14751.24
841.507	14776.32
841.832	14586.04
842.156	14678.47
842.481	14638.47
842.805	14589.43
843.13	14524.12
843.454	14527.97
843.778	14508.76
844.103	14427.18
844.427	14331.81
844.751	14372.94
845.075	14405.03
845.399	14246.39
845.723	14173.4
846.047	14231.25
846.371	14043.01
846.695	14072.16
847.019	13997.81
847.343	13954.42
847.666	13922.33
847.99	13901.32
848.313	13860.41
848.637	13719.17
848.96	13771.15
849.284	13653.41
849.607	13631.27
849.931	13541.1
850.254	13434.89
850.577	13360.76
850.9	13306.98
851.223	13288.45
851.546	13165.74
851.869	13062.47
852.192	13156.25
852.515	13059.08
852.838	13011.4
853.161	12992.41
853.483	12948.35
853.806	12883.26
854.129	12884.84
854.451	12822.7
854.774	12724.4
855.096	12665.19
855.419	12680.78
855.741	12613.67
856.063	12605.76
856.385	12556.49
856.708	12519.66
857.03	12487.34
857.352	12460.9
857.674	12412.99
857.996	12334.58
858.318	12253.67
858.64	12318.08
858.961	12228.82
859.283	12261.58
859.605	12171.87
859.926	12227.01
860.248	12186.11
860.57	12075.6
860.891	12122.38
861.212	12029.95
861.534	11973.46
861.855	11918.54
862.176	12030.4
862.498	11977.98
862.819	11845.1
863.14	11926.23
863.461	11853.69
863.782	11825.66
864.103	11850.97
864.424	11728.72
864.745	11743.86
865.065	11737.53
865.386	11641.94
865.707	11714.48
866.027	11648.95
866.348	11544.32
866.668	11610.3
866.989	11541.83
867.309	11568.5
867.63	11544.54
867.95	11484.66
868.27	11402.85
868.59	11458.67
868.91	11405.34
869.23	11374.15
869.55	11341.16
869.87	11424.54
870.19	11328.28
870.51	11332.12
870.83	11274.27
871.15	11191.78
871.469	11199.92
871.789	11277.88
872.109	11270.65
872.428	11147.72
872.748	11122.41
873.067	11137.32
873.386	11126.47
873.706	11156.53
874.025	11047.83
874.344	11089.19
874.663	11078.34
874.982	11094.16
875.301	10990.66
875.62	10922.64
875.939	10954.05
876.258	10960.83
876.577	10942.97
876.896	10919.7
877.214	10840.15
877.533	10889.64
877.852	10812.13
878.17	10847.16
878.489	10832.47
878.807	10802.41
879.125	10800.83
879.444	10749.76
879.762	10778.91
880.08	10812.36
880.398	10641.51
880.716	10768.74
881.034	10641.97
881.352	10659.82
881.67	10616.2
881.988	10673.38
882.306	10602.19
882.624	10530.1
882.941	10521.74
883.259	10483.78
883.577	10577.33
883.894	10453.5
884.212	10385.25
884.529	10555.64
884.846	10386.61
885.164	10404.01
885.481	10336.21
885.798	10421.63
886.115	10302.31
886.432	10291.24
886.75	10328.3
887.067	10240.39
887.383	10158.59
887.7	10219.15
888.017	10196.78
888.334	10218.7
888.651	10112.49
888.967	10142.32
889.284	10104.35
889.6	10010.34
889.917	9926.73
890.233	9985.71
890.55	9894.19
890.866	9978.03
891.182	10012.83
891.498	9919.27
891.815	9831.14
892.131	9789.78
892.447	9792.04
892.763	9761.31
893.079	9710.92
893.395	9705.27
893.71	9718.37
894.026	9695.1
894.342	9603.12
894.657	9610.81
894.973	9556.12
895.289	9591.6
895.604	9580.75
895.92	9532.16
896.235	9443.81
896.55	9440.19
896.865	9446.52
897.181	9356.35
897.496	9286.52
897.811	9243.81
898.126	9209.24
898.441	9239.29
898.756	9180.76
899.071	9093.76
899.386	9086.07
899.7	9058.05
900.015	8969.47
900.33	8915.46
900.644	8928.11
900.959	8947.55
901.273	8887.89
901.588	8894.22
901.902	8780.09
902.216	8795.46
902.531	8771.96
902.845	8774.44
903.159	8743.26
903.473	8610.83
903.787	8668.01
904.101	8621.45
904.415	8574.22
904.729	8549.14
905.042	8476.83
905.356	8451.97
905.67	8414
905.984	8430.27
906.297	8441.35
906.611	8379.2
906.924	8338.3
907.237	8286.1
907.551	8263.05
907.864	8242.26
908.177	8254.68
908.491	8207.68
908.804	8163.61
909.117	8075.48
909.43	8004.97
909.743	8011.3
910.056	7989.61
910.368	7961.58
910.681	7900.57
910.994	7915.03
911.307	7880.91
911.619	7784.19
911.932	7813.11
912.244	7719.78
912.557	7735.83
912.869	7724.53
913.181	7669.16
913.494	7682.04
913.806	7596.85
914.118	7553.91
914.43	7530.64
914.742	7574.25
915.054	7469.85
915.366	7473.46
915.678	7427.14
915.99	7455.84
916.302	7355.95
916.613	7284.31
916.925	7223.75
917.236	7295.61
917.548	7222.39
917.859	7273.01
918.171	7179.68
918.482	7137.65
918.794	7130.87
919.105	7090.19
919.416	7060.14
919.727	7084.55
920.038	7016.3
920.349	6990.08
920.66	6894.95
920.971	6963.87
921.282	6873.48
921.593	6849.07
921.903	6801.16
922.214	6768.85
922.525	6740.83
922.835	6717.1
923.146	6758.68
923.456	6712.58
923.767	6580.83
924.077	6639.59
924.387	6650.21
924.697	6570.66
925.008	6539.25
925.318	6515.75
925.628	6457.44
925.938	6463.54
926.248	6407.28
926.558	6385.58
926.867	6320.05
927.177	6328.41
927.487	6297
927.796	6245.7
928.106	6260.16
928.416	6277.56
928.725	6278.69
929.034	6183.1
929.344	6159.15
929.653	6135.87
929.962	6062.88
930.271	6064.23
930.581	6096.77
930.89	6001.41
931.199	5960.06
931.508	5964.8
931.817	5966.83
932.125	5915.54
932.434	5888.42
932.743	5904.24
933.051	5784.69
933.36	5817.69
933.669	5790.34
933.977	5782.66
934.286	5748.54
934.594	5734.75
934.902	5689.33
935.21	5657.24
935.519	5638.71
935.827	5614.53
936.135	5605.71
936.443	5551.48
936.751	5493.63
937.059	5528.43
937.367	5453.63
937.674	5493.17
937.982	5456.79
938.29	5451.14
938.597	5429.67
938.905	5356.91
939.213	5344.48
939.52	5341.09
939.827	5291.37
940.135	5304.48
940.442	5244.14
940.749	5261.09
941.056	5261.32
941.363	5160.08
941.67	5170.7
941.977	5136.57
942.284	5052.28
942.591	5083.02
942.898	5057.03
943.205	5095.9
943.511	5050.47
943.818	4982.45
944.125	4982.23
944.431	4917.37
944.738	4987.65
945.044	4946.97
945.35	4957.82
945.657	4888.44
945.963	4883.93
946.269	4842.34
946.575	4822.91
946.881	4823.59
947.187	4803.7
947.493	4789.92
947.799	4798.73
948.105	4711.73
948.41	4683.7
948.716	4737.94
949.022	4715.57
949.327	4624.05
949.633	4583.82
949.938	4622.46
950.244	4613.65
950.549	4540.43
950.854	4574.55
951.16	4497.27
951.465	4528
951.77	4515.57
952.075	4470.6
952.38	4429.47
952.685	4443.03
952.99	4420.89
953.294	4371.85
953.599	4367.1
953.904	4359.87
954.209	4285.52
954.513	4254.79
954.818	4317.39
955.122	4232.64
955.426	4222.93
955.731	4223.38
956.035	4231.74
956.339	4171.63
956.643	4171.63
956.948	4133.66
957.252	4122.36
957.556	4103.38
957.86	4139.76
958.163	4105.41
958.467	4070.61
958.771	4064.96
959.075	4027.45
959.378	4000.11
959.682	3992.2
959.985	3954.01
960.289	3963.27
960.592	3953.78
960.896	3927.57
961.199	3887.12
961.502	3904.06
961.805	3899.09
962.108	3808.02
962.411	3842.6
962.714	3842.6
963.017	3805.76
963.32	3806.67
963.623	3808.25
963.926	3758.53
964.228	3722.37
964.531	3721.24
964.833	3727.12
965.136	3696.39
965.438	3685.54
965.741	3699.1
966.043	3660.45
966.345	3637.4
966.648	3612.32
966.95	3641.25
967.252	3581.36
967.554	3547.24
967.856	3523.74
968.158	3513.11
968.46	3509.95
968.761	3534.81
969.063	3493.68
969.365	3432.66
969.666	3481.02
969.968	3453.23
970.269	3415.94
970.571	3437.41
970.872	3383.17
971.174	3378.65
971.475	3358.32
971.776	3375.49
972.077	3344.08
972.378	3316.06
972.679	3345.66
972.98	3324.87
973.281	3297.07
973.582	3272.89
973.883	3240.13
974.183	3240.13
974.484	3236.96
974.785	3193.12
975.085	3220.47
975.386	3201.48
975.686	3174.14
975.986	3132.11
976.287	3103.63
976.587	3121.49
976.887	3111.77
977.187	3089.4
977.487	3115.84
977.787	3098.89
978.087	3049.4
978.387	3034.48
978.687	3030.64
978.987	3014.82
979.286	2950.42
979.586	3018.44
979.885	3001.04
980.185	2959
980.484	2939.34
980.784	2933.24
981.083	2903.19
981.382	2897.99
981.682	2878.78
981.981	2914.94
982.28	2844.66
982.579	2839.91
982.878	2844.88
983.177	2858.89
983.475	2835.62
983.774	2800.14
984.073	2782.51
984.372	2784.32
984.67	2777.54
984.969	2791.78
985.267	2733.47
985.566	2750.42
985.864	2698.22
986.162	2702.74
986.461	2666.36
986.759	2694.15
987.057	2675.62
987.355	2675.62
987.653	2637.88
987.951	2619.35
988.249	2635.62
988.547	2595.62
988.844	2606.47
989.142	2574.38
989.44	2572.12
989.737	2575.96
990.035	2543.42
990.332	2535.06
990.63	2526.47
990.927	2545.23
991.224	2521.5
991.521	2498.68
991.819	2473.37
992.116	2457.77
992.413	2470.88
992.71	2432.92
993.006	2422.52
993.303	2418.45
993.6	2400.37
993.897	2398.79
994.193	2376.19
994.49	2395.18
994.787	2354.95
995.083	2366.25
995.379	2366.25
995.676	2371.67
995.972	2305.46
996.268	2329.64
996.565	2306.14
996.861	2271.56
997.157	2248.29
997.453	2248.97
997.749	2242.19
998.044	2239.7
998.34	2233.6
998.636	2207.39
998.932	2203.54
999.227	2183.21
999.523	2174.39
999.818	2178.91
1000.114	2171.68
1000.409	2128.52
1000.704	2143.88
1001	2130.78
1001.295	2116.99
1001.59	2115.64
1001.885	2116.99
1002.18	2046.49
1002.475	2055.3
1002.77	2055.98
1003.065	2051.46
1003.359	2040.16
1003.654	2022.53
1003.949	2019.14
1004.243	2000.84
1004.538	1996.32
1004.832	2004.45
1005.127	1969.2
1005.421	1964.68
1005.715	1931.91
1006.009	1942.53
1006.304	1916.55
1006.598	1968.07
1006.892	1903.44
1007.186	1888.98
1007.48	1890.78
1007.773	1894.85
1008.067	1896.66
1008.361	1865.93
1008.655	1851.24
1008.948	1839.71
1009.242	1825.93
1009.535	1812.82
1009.829	1795.42
1010.122	1799.71
1010.415	1786.83
1010.708	1771.69
1011.001	1761.3
1011.295	1753.84
1011.588	1757.68
1011.881	1726.95
1012.173	1755.19
1012.466	1703.9
1012.759	1706.38
1013.052	1682.2
1013.344	1667.51
1013.637	1651.02
1013.93	1632.94
1014.222	1636.55
1014.514	1653.28
1014.807	1645.14
1015.099	1625.03
1015.391	1601.75
1015.683	1630.9
1015.976	1604.46
1016.268	1582.77
1016.56	1558.81
1016.851	1578.02
1017.143	1533.73
1017.435	1516.33
1017.727	1526.73
1018.018	1504.58
1018.31	1547.52
1018.602	1509.55
1018.893	1473.39
1019.185	1478.59
1019.476	1482.66
1019.767	1491.25
1020.058	1461.87
1020.35	1450.8
1020.641	1452.83
1020.932	1422.32
1021.223	1399.72
1021.514	1432.94
1021.804	1424.13
1022.095	1380.06
1022.386	1367.41
1022.677	1399.72
1022.967	1370.12
1023.258	1340.29
1023.548	1328.09
1023.839	1329.67
1024.129	1344.36
1024.419	1334.41
1024.709	1299.39
1025	1304.36
1025.29	1301.19
1025.58	1270.23
1025.87	1277.92
1026.16	1263.91
1026.449	1255.09
1026.739	1233.17
1027.029	1256
1027.319	1216.45
1027.608	1220.74
1027.898	1208.99
1028.187	1220.74
1028.477	1215.1
1028.766	1174.64
1029.055	1204.93
1029.344	1192.72
1029.634	1167.41
1029.923	1154.53
1030.212	1163.57
1030.501	1160.63
1030.79	1136.68
1031.078	1168.32
1031.367	1129.67
1031.656	1124.7
1031.945	1113.4
1032.233	1132.39
1032.522	1127.41
1032.81	1088.54
1033.099	1097.81
1033.387	1100.3
1033.675	1060.52
1033.963	1056.91
1034.251	1052.61
1034.54	1057.81
1034.828	1038.38
1035.116	1030.02
1035.403	1029.56
1035.691	1025.72
1035.979	1051.26
1036.267	1029.34
1036.554	994.54
1036.842	1017.36
1037.129	993.63
1037.417	994.99
1037.704	982.78
1037.992	965.61
1038.279	963.35
1038.566	951.37
1038.853	951.37
1039.14	951.37
