Data from breadboard_white_FLMS001491_00010.txt Node
Date: Wed Feb 08 10:47:10 GMT 2017
User: dcchb
Spectrometer: FLMS00149
Trigger mode: 0
Integration Time (sec): 2.000000E-2
Scans to average: 10
Electric dark correction enabled: true
Nonlinearity correction enabled: false
Boxcar width: 0
XAxis mode: Wavelengths
Number of Pixels in Spectrum: 2048
>>>>>Begin Spectral Data<<<<<
341.393	-17.22
341.776	-17.22
342.16	-17.22
342.543	-55.18
342.927	-67.61
343.31	-68.97
343.693	-73.26
344.077	-76.2
344.46	-26.71
344.843	-51.34
345.226	-39.82
345.61	-24
345.993	-9.99
346.376	-14.51
346.759	5.38
347.142	52.61
347.525	27.75
347.908	47.19
348.291	59.39
348.674	93.29
349.057	99.16
349.44	119.28
349.823	136
350.206	165.83
350.588	221.42
350.971	229.78
351.354	256
351.737	256.9
352.119	254.19
352.502	274.98
352.884	291.48
353.267	296.45
353.65	304.58
354.032	312.49
354.414	327.18
354.797	324.69
355.179	328.31
355.562	332.15
355.944	329.44
356.326	341.64
356.709	351.36
357.091	376.22
357.473	373.06
357.855	365.6
358.238	356.56
358.62	350.68
359.002	348.65
359.384	362.43
359.766	358.82
360.148	358.82
360.53	357.69
360.912	365.37
361.294	333.06
361.676	351.59
362.057	357.01
362.439	351.59
362.821	363.56
363.203	359.72
363.584	361.3
363.966	362.66
364.348	352.49
364.729	357.46
365.111	362.43
365.493	346.16
365.874	353.85
366.256	365.15
366.637	341.19
367.019	325.37
367.4	338.93
367.781	362.66
368.163	355.88
368.544	371.93
368.925	352.49
369.306	347.97
369.688	359.95
370.069	349.78
370.45	366.95
370.831	340.06
371.212	334.41
371.593	356.33
371.974	357.91
372.355	370.8
372.736	354.98
373.117	363.79
373.498	350.68
373.879	368.99
374.26	349.55
374.641	350.46
375.021	354.52
375.402	379.83
375.783	387.52
376.163	376.9
376.544	336.22
376.925	352.72
377.305	379.16
377.686	354.75
378.066	377.8
378.447	373.06
378.827	383.9
379.208	387.07
379.588	395.65
379.968	379.61
380.349	398.14
380.729	416.22
381.109	390.68
381.489	408.76
381.87	374.19
382.25	410.57
382.63	390.46
383.01	386.39
383.39	421.87
383.77	414.18
384.15	425.03
384.53	420.74
384.91	420.74
385.29	398.82
385.67	427.74
386.049	427.74
386.429	425.26
386.809	435.65
387.189	437.46
387.568	429.32
387.948	446.73
388.328	460.51
388.707	462.32
389.087	461.87
389.466	488.53
389.846	467.74
390.225	485.59
390.605	482.43
390.984	493.5
391.363	499.15
391.743	490.11
392.122	494.41
392.501	510.68
392.881	513.84
393.26	519.27
393.639	528.98
394.018	529.21
394.397	537.8
394.776	553.16
395.155	566.72
395.534	554.97
395.913	575.08
396.292	563.11
396.671	589.09
397.05	600.39
397.429	603.33
397.808	604.91
398.186	624.35
398.565	633.16
398.944	618.25
399.323	646.49
399.701	651.92
400.08	675.42
400.458	663.67
400.837	695.53
401.215	677.45
401.594	703.89
401.972	703.22
402.351	708.41
402.729	724.68
403.107	727.62
403.486	757.68
403.864	749.99
404.242	764.68
404.62	815.53
404.999	818.47
405.377	803.33
405.755	838.58
406.133	843.55
406.511	849.43
406.889	892.82
407.267	908.86
407.645	918.58
408.023	933.72
408.401	955.86
408.779	961.51
409.156	1006.03
409.534	1015.98
409.912	1042.87
410.29	1040.61
410.667	1085.13
411.045	1079.48
411.422	1125.58
411.8	1122.87
412.178	1154.5
412.555	1182.98
412.933	1182.98
413.31	1219.36
413.687	1249.64
414.065	1275.18
414.442	1302.52
414.819	1280.6
415.197	1304.1
415.574	1340.04
415.951	1374.16
416.328	1386.14
416.705	1429.75
417.082	1435.63
417.46	1452.8
417.837	1490.77
418.214	1472.69
418.591	1504.55
418.967	1525.12
419.344	1550.88
419.721	1587.49
420.098	1572.8
420.475	1606.47
420.852	1625.45
421.228	1647.15
421.605	1656.41
421.982	1677.2
422.358	1673.81
422.735	1729.4
423.111	1730.53
423.488	1782.28
423.864	1803.07
424.241	1795.84
424.617	1834.03
424.994	1842.62
425.37	1872.22
425.746	1869.74
426.123	1930.53
426.499	1924.65
426.875	1963.75
427.251	1985.67
427.627	2055.72
428.003	2043.75
428.379	2094.82
428.756	2108.15
429.132	2184.08
429.507	2153.57
429.883	2205.55
430.259	2243.51
430.635	2244.19
431.011	2277.86
431.387	2347.69
431.763	2375.26
432.138	2404.64
432.514	2443.28
432.89	2469.05
433.265	2490.74
433.641	2542.04
434.016	2557.86
434.392	2623.17
434.767	2662.71
435.143	2668.14
435.518	2685.31
435.894	2729.6
436.269	2754.91
436.644	2814.35
437.02	2794.69
437.395	2858.19
437.77	2885.08
438.145	2942.25
438.52	2982.93
438.895	2997.84
439.271	2995.81
439.646	3060.67
440.021	3099.31
440.395	3105.86
440.77	3114.9
441.145	3157.84
441.52	3163.72
441.895	3196.71
442.27	3200.78
442.645	3234.9
443.019	3293.66
443.394	3276.93
443.769	3298.4
444.143	3299.98
444.518	3364.16
444.892	3421.79
445.267	3417.04
445.641	3437.16
446.016	3452.97
446.39	3465.63
446.764	3509.24
447.139	3501.79
447.513	3543.82
447.887	3546.76
448.262	3582.69
448.636	3597.15
449.01	3678.73
449.384	3684.38
449.758	3742.01
450.132	3779.97
450.506	3798.5
450.88	3819.07
451.254	3833.53
451.628	3878.73
452.002	3950.14
452.376	3949.46
452.75	4015.9
453.123	4001.43
453.497	4114.43
453.871	4137.7
454.244	4215.67
454.618	4232.61
454.992	4313.97
455.365	4286.62
455.739	4419.95
456.112	4498.14
456.486	4504.47
456.859	4499.95
457.232	4640.51
457.606	4650.91
457.979	4665.6
458.352	4793.28
458.725	4890.22
459.099	4857.68
459.472	4975.65
459.845	4982.43
460.218	5054.06
460.591	5150.1
460.964	5135.64
461.337	5282.98
461.71	5336.54
462.083	5468.74
462.456	5416.99
462.829	5438.91
463.201	5623.09
463.574	5594.61
463.947	5668.96
464.32	5828.5
464.692	5805.68
465.065	5925.45
465.438	5967.48
465.81	6023.98
466.183	6145.33
466.555	6282.05
466.928	6304.88
467.3	6287.48
467.672	6407.92
468.045	6578.54
468.417	6590.07
468.789	6578.99
469.161	6745.32
469.534	6817.41
469.906	6988.7
470.278	7024.63
470.65	7188.92
471.022	7258.98
471.394	7450.61
471.766	7514.11
472.138	7604.05
472.51	7744.39
472.882	7881.11
473.253	7903.03
473.625	8076.13
473.997	8275.22
474.369	8304.37
474.74	8352.05
475.112	8621.2
475.484	8721.54
475.855	8817.8
476.227	8918.14
476.598	9182.09
476.97	9242.2
477.341	9496.88
477.713	9576.88
478.084	9642.19
478.455	9939.81
478.827	10046.93
479.198	10262.96
479.569	10269.07
479.94	10601.71
480.311	10672.22
480.682	10927.81
481.053	11124.86
481.424	11370.96
481.795	11507.23
482.166	11591.29
482.537	11733.66
482.908	12099.07
483.279	12212.52
483.65	12431.04
484.021	12636.01
484.391	12762.79
484.762	12862.22
485.133	13083.68
485.503	13215.43
485.874	13516.89
486.244	13628.75
486.615	13885.47
486.985	14029.65
487.356	14260.37
487.726	14524.77
488.097	14637.31
488.467	14800.02
488.837	15077.08
489.207	15253.79
489.578	15430.29
489.948	15627.8
490.318	15781.46
490.688	15826.43
491.058	16172.64
491.428	16387.32
491.798	16459.41
492.168	16827.31
492.538	16907.54
492.908	17116.57
493.278	17324.7
493.648	17385.72
494.017	17532.6
494.387	17744.35
494.757	17982.31
495.126	18068.64
495.496	18192.93
495.866	18374.16
496.235	18616.87
496.605	18678.11
496.974	18777.09
497.344	18965.56
497.713	19103.64
498.082	19202.62
498.452	19503.17
498.821	19607.58
499.19	19647.8
499.559	19793.34
499.928	19963.73
500.298	20129.6
500.667	20276.26
501.036	20224.28
501.405	20501.11
501.774	20521.68
502.143	20787.21
502.512	20812.97
502.88	21059.52
503.249	21123.7
503.618	21268.55
503.987	21501.09
504.356	21581.54
504.724	21580.41
505.093	21790.12
505.462	21723.68
505.83	22045.93
506.199	22158.92
506.567	22426.03
506.936	22384.68
507.304	22810.43
507.672	22938.34
508.041	22989.41
508.409	23227.14
508.777	23375.16
509.145	23447.48
509.514	23637.08
509.882	23719.33
510.25	23895.37
510.618	24007.69
510.986	24136.05
511.354	24392.08
511.722	24594.34
512.09	24863.71
512.458	24713.66
512.826	25052.63
513.193	25113.87
513.561	25252.18
513.929	25474.32
514.297	25643.35
514.664	25867.53
515.032	26005.6
515.4	26305.71
515.767	26314.75
516.135	26526.49
516.502	26463.22
516.869	26886.03
517.237	26958.34
517.604	27072.92
517.972	27372.35
518.339	27453.93
518.706	27677.2
519.073	27735.95
519.44	28060.91
519.808	28368.25
520.175	28295.94
520.542	28706.1
520.909	28857.73
521.276	28821.8
521.643	29202.81
522.009	29446.64
522.376	29539.07
522.743	29763.24
523.11	30115.78
523.477	30409.55
523.843	30497.23
524.21	30900.39
524.577	31111.91
524.943	31260.38
525.31	31350.09
525.676	31667.6
526.043	31960.47
526.409	32075.5
526.776	32374.02
527.142	32480.46
527.508	32765.42
527.874	32799.32
528.241	33193.89
528.607	33154.79
528.973	33598.4
529.339	33506.87
529.705	33851.5
530.071	34054.88
530.437	34258.72
530.803	34378.04
531.169	34738.48
531.535	34673.17
531.901	34710.23
532.267	34956.55
532.632	35189.77
532.998	35398.8
533.364	35524.67
533.73	35619.36
534.095	35977.54
534.461	36041.27
534.826	36254.6
535.192	36318.55
535.557	36680.12
535.923	36531.2
536.288	36871.76
536.653	36910.17
537.019	36944.75
537.384	36985.2
537.749	37238.75
538.114	37325.3
538.479	37480.1
538.845	37686.42
539.21	37528.46
539.575	37896.59
539.94	37950.82
540.305	38185.62
540.67	38101.78
541.034	38378.16
541.399	38353.53
541.764	38555.33
542.129	38661.09
542.494	38797.36
542.858	38924.13
543.223	39022.21
543.587	39332.26
543.952	39298.13
544.316	39366.83
544.681	39437.34
545.045	39698.12
545.41	39799.36
545.774	39926.37
546.138	39895.18
546.503	40052.46
546.867	40043.2
547.231	40489.74
547.595	40558.44
547.959	40457.88
548.324	40628.72
548.688	40721.82
549.052	40833.23
549.416	40843.63
549.779	40997.75
550.143	41116.84
550.507	41487.45
550.871	41477.51
551.235	41596.83
551.599	41824.85
551.962	41934.67
552.326	42058.51
552.689	42125.86
553.053	42130.15
553.417	42339.41
553.78	42928.77
554.143	42707.31
554.507	42862.79
554.87	43014.42
555.234	43351.13
555.597	43300.06
555.96	43293.28
556.323	43503.9
556.686	43638.58
557.05	43902.08
557.413	44090.55
557.776	44148.85
558.139	44371.67
558.502	44413.25
558.865	44491.9
559.228	44808.95
559.59	44970.07
559.953	45115.61
560.316	45511.08
560.679	45481.02
561.041	45878.53
561.404	45856.38
561.767	46127.56
562.129	46019.31
562.492	46515.12
562.854	46389.7
563.217	46567.32
563.579	46665.4
563.941	46960.3
564.304	47184.93
564.666	47239.17
565.028	47353.97
565.39	47637.35
565.753	47760.74
566.115	47972.71
566.477	47997.11
566.839	48159.82
567.201	48368.86
567.563	48470.32
567.925	48666.93
568.287	48707.83
568.648	48819.92
569.01	48957.09
569.372	49202.05
569.734	49053.58
570.095	49316.18
570.457	49438.66
570.819	49562.72
571.18	49647.92
571.542	49839.1
571.903	49778.99
572.265	50111.18
572.626	50090.39
572.987	50063.95
573.349	50244.29
573.71	50375.36
574.071	50491.96
574.432	50503.26
574.794	50726.99
575.155	50809.47
575.516	50676.82
575.877	50891.95
576.238	50826.42
576.599	50968.56
576.96	51070.03
577.32	50952.74
577.681	51243.13
578.042	51262.34
578.403	51287.2
578.763	51361.32
579.124	51330.81
579.485	51451.03
579.845	51597.7
580.206	51511.15
580.566	51576.23
580.927	51504.14
581.287	51731.93
581.648	51573.29
582.008	51736.22
582.368	51562.22
582.728	51764.25
583.089	51697.58
583.449	51613.74
583.809	51738.94
584.169	51690.8
584.529	51734.19
584.889	51926.05
585.249	51673.63
585.609	51683.57
585.969	51782.1
586.329	51710.01
586.688	51783.91
587.048	51720.63
587.408	51698.49
587.768	51779.61
588.127	51730.35
588.487	51651.25
588.846	51867.29
589.206	51612.16
589.565	51624.36
589.925	51907.75
590.284	51698.03
590.643	51794.3
591.003	51811.93
591.362	51861.42
591.721	51732.61
592.08	51831.59
592.44	51901.42
592.799	51865.03
593.158	51744.36
593.517	51841.08
593.876	51848.99
594.235	51781.65
594.593	51828.43
594.952	51845.15
595.311	51843.57
595.67	51855.77
596.029	52030.68
596.387	52082.2
596.746	52153.39
597.104	51886.95
597.463	51975.99
597.822	52015.77
598.18	51860.51
598.538	51937.35
598.897	52125.37
599.255	51890.57
599.613	52297.79
599.972	52168.08
600.33	52123.33
600.688	52042.21
601.046	52228.41
601.404	52313.61
601.762	52202.43
602.12	52357.9
602.478	52339.15
602.836	52301.86
603.194	52247.4
603.552	52313.16
603.91	52230.45
604.268	52328.3
604.625	52232.71
604.983	52481.97
605.341	52299.83
605.698	52434.74
606.056	52488.52
606.413	52411.23
606.771	52513.83
607.128	52622.75
607.485	52418.92
607.843	52389.09
608.2	52685.35
608.557	52709.08
608.914	52559.48
609.272	52777.1
609.629	52816.65
609.986	52863.65
610.343	52811.22
610.7	52943.88
611.057	52966.7
611.414	52812.58
611.771	52873.37
612.127	52920.37
612.484	52969.19
612.841	53058.45
613.198	52954.72
613.554	53042.86
613.911	53220.71
614.267	53208.5
614.624	53121.05
614.98	53206.02
615.337	53284.21
615.693	53257.09
616.05	53167.83
616.406	53319.01
616.762	53253.02
617.118	53295.96
617.475	53154.49
617.831	53319.01
618.187	53272.23
618.543	53406.91
618.899	53539.57
619.255	53418.89
619.611	53347.48
619.967	53557.87
620.323	53565.1
620.678	53504.09
621.034	53415.73
621.39	53380.93
621.746	53325.34
622.101	53698.88
622.457	53405.33
622.812	53540.7
623.168	53585.44
623.523	53576.63
623.879	53574.59
624.234	53373.24
624.589	53523.75
624.945	53558.32
625.3	53603.29
625.655	53503.86
626.01	53522.17
626.365	53547.02
626.72	53437.87
627.075	53481.04
627.43	53431.32
627.785	53422.28
628.14	53468.38
628.495	53445.78
628.85	53401.94
629.205	53299.35
629.559	53496.4
629.914	53219.8
630.269	53258.9
630.623	53159.69
630.978	53166.24
631.332	53196.98
631.687	53345.22
632.041	53071.1
632.396	53219.12
632.75	53058.68
633.104	53082.18
633.459	52926.7
633.813	52960.6
634.167	52893.93
634.521	52870.21
634.875	52950.2
635.229	52882.41
635.583	52695.97
635.937	52689.42
636.291	52716.99
636.645	52667.73
636.999	52603.09
637.352	52589.54
637.706	52446.71
638.06	52580.27
638.413	52524.45
638.767	52347.96
639.121	52411.46
639.474	52206.04
639.828	52243.56
640.181	52198.59
640.534	52321.97
640.888	52197.46
641.241	51969.89
641.594	52105.48
641.947	52211.92
642.301	52092.37
642.654	52046.72
643.007	52032.94
643.36	51956.56
643.713	51904.81
644.066	51984.81
644.419	51779.84
644.771	51589.79
645.124	51173.53
645.477	51093.53
645.83	50997.03
646.182	50864.38
646.535	50738.96
646.888	50738.06
647.24	50616.03
647.593	50705.74
647.945	50643.82
648.298	50516.14
648.65	50357.73
649.002	50243.83
649.355	50443.15
649.707	50290.39
650.059	50495.13
650.411	50888.34
650.763	50806.08
651.115	51213.53
651.467	51103.02
651.819	51133.53
652.171	50905.96
652.523	50866.64
652.875	50795.23
653.227	50710.94
653.578	51019.63
653.93	50855.8
654.282	50713.65
654.633	50620.77
654.985	50620.1
655.337	50579.42
655.688	50682.92
656.039	50744.16
656.391	50515.92
656.742	50513.21
657.094	50454.68
657.445	50676.37
657.796	50418.74
658.147	50383.04
658.498	50353.21
658.849	50449.7
659.2	50383.94
659.551	50239.54
659.902	50379.65
660.253	50397.05
660.604	50348.46
660.955	50215.13
661.306	50195.7
661.656	50328.8
662.007	50228.92
662.358	50151.86
662.708	50134.68
663.059	50113.67
663.409	49884.3
663.76	50169.94
664.11	50105.31
664.461	49985.08
664.811	50071.41
665.161	50011.98
665.511	49903.5
665.862	49968.36
666.212	50004.29
666.562	49933.56
666.912	49857.4
667.262	49801.59
667.612	49895.37
667.962	49800
668.312	49901.7
668.662	49958.19
669.011	49764.07
669.361	49783.06
669.711	49745.09
670.06	49704.64
670.41	49644.75
670.76	49608.82
671.109	49807.69
671.459	49681.14
671.808	49513.68
672.157	49570.41
672.507	49392.33
672.856	49405.21
673.205	49472.1
673.554	49658.54
673.904	49330.41
674.253	49512.78
674.602	49343.29
674.951	48891.78
675.3	48655.85
675.649	49352.56
675.998	49072.57
676.346	49170.87
676.695	49319.34
677.044	48984.88
677.393	49092.45
677.741	49169.29
678.09	49017.65
678.438	48828.5
678.787	48983.75
679.135	48928.39
679.484	48661.73
679.832	48785.79
680.181	48549.42
680.529	48760.94
680.877	48472.36
681.225	48631.22
681.573	48742.18
681.922	48475.29
682.27	48217.45
682.618	48448.4
682.966	48259.71
683.314	48214.28
683.661	48085.7
684.009	47844.58
684.357	47865.37
684.705	47847.51
685.053	47953.5
685.4	47793.73
685.748	47559.39
686.095	47570.91
686.443	47519.61
686.79	47282.33
687.138	47439.39
687.485	47425.38
687.832	47211.82
688.18	47297.7
688.527	47101.54
688.874	47017.7
689.221	46880.53
689.568	46791.04
689.915	46818.61
690.262	46624.49
690.609	46530.94
690.956	46421.56
691.303	46314.67
691.65	46289.81
691.997	46224.05
692.344	45902.71
692.69	45942.93
693.037	45881.69
693.383	45483.51
693.73	45608.7
694.077	45323.51
694.423	45406.9
694.769	45170.07
695.116	45244.87
695.462	45165.55
695.808	45007.14
696.155	44994.03
696.501	44682.62
696.847	44707.26
697.193	44470.88
697.539	44482.4
697.885	44223.43
698.231	44144.79
698.577	44148.4
698.923	44044.9
699.269	43809.88
699.614	43651.47
699.96	43605.14
700.306	43542.77
700.651	43408.53
700.997	43149.56
701.342	43180.74
701.688	43029.56
702.033	42892.39
702.379	42906.4
702.724	42764.71
703.069	42804.03
703.415	42365.85
703.76	42369.69
704.105	42372.18
704.45	42294.44
704.795	42194.55
705.14	42041.56
705.485	41865.98
705.83	41800.44
706.175	41696.26
706.52	41619.43
706.865	41544.85
707.209	41460.56
707.554	41326.1
707.899	41425.08
708.243	41131.98
708.588	41087.46
708.932	40854.7
709.277	40694.48
709.621	40831.2
709.966	40558.21
710.31	40656.74
710.654	40238.45
710.998	40300.14
711.342	40216.08
711.687	40240.26
712.031	39941.28
712.375	39904.45
712.719	39881.39
713.063	39651.12
713.407	39801.17
713.75	39577.45
714.094	39584
714.438	39444.34
714.782	39494.06
715.125	39214.97
715.469	39359.15
715.812	39179.27
716.156	38969.1
716.499	39018.82
716.843	39047.74
717.186	38665.83
717.53	38870.57
717.873	38732.05
718.216	38655.21
718.559	38540.64
718.902	38356.24
719.246	38328.67
719.589	38241.89
719.932	38061.33
720.275	38172.29
720.617	38066.98
720.96	38029.24
721.303	38021.56
721.646	37952.41
721.989	37771.17
722.331	37810.94
722.674	37536.15
723.016	37634.67
723.359	37528.91
723.701	37532.76
724.044	37353.33
724.386	37119.21
724.729	37317.17
725.071	37144.52
725.413	37120.79
725.755	36977.97
726.097	36829.95
726.439	36653.46
726.782	36701.37
727.124	36910.85
727.465	36575.72
727.807	36551.09
728.149	36612.1
728.491	36400.58
728.833	36466.34
729.175	36242.17
729.516	36146.58
729.858	36213.47
730.199	36266.8
730.541	36105
730.882	36088.73
731.224	36121.49
731.565	35779.36
731.906	35908.62
732.248	35880.82
732.589	35655.74
732.93	35636.99
733.271	35663.2
733.612	35601.51
733.953	35651.22
734.294	35461.85
734.635	35349.31
734.976	35433.38
735.317	35183.67
735.658	35247.62
735.999	35133.05
736.339	35085.14
736.68	35195.42
737.021	34986.83
737.361	34766.05
737.702	35028.64
738.042	34967.85
738.383	34783.45
738.723	34797.23
739.063	34589.78
739.404	34502.55
739.744	34488.99
740.084	34462.33
740.424	34443.57
740.764	34317.7
741.104	34525.38
741.444	34096.69
741.784	34173.97
742.124	34216.23
742.464	33998.39
742.804	34005.39
743.143	33926.98
743.483	33798.84
743.823	33719.07
744.162	33674.1
744.502	33727.88
744.841	33494.44
745.181	33658.51
745.52	33389.59
745.86	33505.07
746.199	33466.42
746.538	33330.61
746.877	33314.79
747.216	33355.24
747.556	33102.14
747.895	33225.3
748.234	32960.67
748.573	32968.58
748.911	32837.96
749.25	32756.38
749.589	32649.27
749.928	32713.67
750.267	32638.42
750.605	32635.71
750.944	32386
751.283	32270.75
751.621	32484.98
751.96	32190.98
752.298	32234.82
752.636	32246.34
752.975	31889.29
753.313	31917.31
753.651	31973.58
753.989	31842.74
754.327	31755.28
754.666	31616.98
755.004	31738.33
755.342	31637.32
755.679	31476.42
756.017	31286.82
756.355	31338.12
756.693	31182.19
757.031	31228.52
757.368	31101.29
757.706	31058.8
758.044	30973.83
758.381	30909.2
758.719	30828.53
759.056	30735.42
759.394	30488.2
759.731	30534.75
760.068	30515.99
760.405	30442.55
760.743	30229.67
761.08	30285.26
761.417	30069.9
761.754	30042.56
762.091	29862
762.428	29772.96
762.765	29629.24
763.102	29640.08
763.438	29515.79
763.775	29369.81
764.112	29243.71
764.449	29273.09
764.785	29188.57
765.122	28983.83
765.458	28855.24
765.795	28784.06
766.131	28837.17
766.467	28648.24
766.804	28519.89
767.14	28375.93
767.476	28360.79
767.812	28111.08
768.148	28309.04
768.485	28039.9
768.821	27902.05
769.157	27836.29
769.492	27856.4
769.828	27740.47
770.164	27461.38
770.5	27366.24
770.836	27409.63
771.171	27260.94
771.507	27168.28
771.842	26921.06
772.178	26916.54
772.513	26921.51
772.849	26817.78
773.184	26642.19
773.519	26688.97
773.855	26460.96
774.19	26358.59
774.525	26268.19
774.86	26285.59
775.195	26326.95
775.53	25998.14
775.865	25858.49
776.2	25737.59
776.535	25524.03
776.87	25571.04
777.205	25503.47
777.539	25433.87
777.874	25410.36
778.209	25143.93
778.543	25163.59
778.878	24931.05
779.212	24981.22
779.547	24940.54
779.881	24886.31
780.215	24601.34
780.55	24722.7
780.884	24560.67
781.218	24435.02
781.552	24471.63
781.886	24240
782.22	24058.76
782.554	24036.16
782.888	23766.56
783.222	23769.05
783.556	23673.69
783.889	23616.74
784.223	23466.23
784.557	23414.26
784.89	23429.4
785.224	23281.61
785.557	23242.74
785.891	23063.98
786.224	23013.59
786.558	23094.72
786.891	22819.24
787.224	22711.9
787.557	22665.12
787.891	22664.45
788.224	22503.32
788.557	22461.97
788.89	22347.39
789.223	22347.84
789.556	22206.83
789.888	22130.45
790.221	22035.99
790.554	21888.87
790.887	21981.53
791.219	21787.41
791.552	21721.19
791.884	21617.69
792.217	21570.01
792.549	21491.82
792.882	21304.71
793.214	21194.88
793.546	21272.84
793.879	21241.43
794.211	21110.36
794.543	21077.37
794.875	21005.06
795.207	20922.35
795.539	20791.28
795.871	20864.04
796.203	20664.73
796.535	20618.4
796.867	20453.66
797.198	20391.06
797.53	20459.31
797.862	20258.86
798.193	20288.69
798.525	20196.26
798.856	20120.33
799.188	20017.74
799.519	19992.88
799.85	19833.11
800.182	19842.15
800.513	19833.33
800.844	19554.7
801.175	19672.89
801.506	19625.43
801.837	19592.21
802.168	19396.74
802.499	19374.14
802.83	19278.32
803.161	19241.71
803.491	19193.35
803.822	19293.46
804.153	19050.08
804.483	18971.66
804.814	18876.07
805.145	18817.32
805.475	18850.08
805.805	18696.64
806.136	18699.58
806.466	18710.88
806.796	18679.01
807.126	18543.65
807.457	18540.49
807.787	18493.71
808.117	18339.14
808.447	18247.61
808.777	18371.68
809.107	18312.92
809.436	18167.84
809.766	18066.6
810.096	18093.04
810.426	18084.68
810.755	18081.97
811.085	18013.04
811.414	17887.62
811.744	17751.36
812.073	17708.87
812.403	17769.21
812.732	17696.44
813.061	17647.18
813.39	17566.05
813.719	17518.82
814.049	17642.66
814.378	17525.15
814.707	17357.92
815.036	17300.07
815.365	17254.19
815.693	17084.48
816.022	17182.56
816.351	17067.31
816.68	16979.4
817.008	17042.9
817.337	16923.81
817.665	16882.45
817.994	16929
818.322	16859.85
818.651	16797.03
818.979	16742.12
819.307	16758.16
819.636	16743.25
819.964	16644.04
820.292	16683.36
820.62	16586.19
820.948	16634.77
821.276	16538.05
821.604	16554.55
821.932	16596.81
822.259	16505.51
822.587	16440.2
822.915	16449.02
823.243	16470.71
823.57	16430.71
823.898	16355.69
824.225	16429.13
824.553	16449.69
824.88	16358.85
825.207	16415.57
825.535	16355.23
825.862	16453.54
826.189	16364.73
826.516	16462.58
826.843	16512.29
827.17	16377.15
827.497	16413.99
827.824	16409.47
828.151	16445.17
828.478	16306.42
828.805	16447.21
829.131	16340.09
829.458	16241.11
829.785	16265.97
830.111	16312.07
830.438	16386.65
830.764	16305.74
831.09	16346.65
831.417	16201.34
831.743	16263.71
832.069	16254.67
832.395	16270.94
832.722	16192.75
833.048	16206.99
833.374	16220.1
833.7	16165.86
834.026	16136.71
834.351	16206.09
834.677	16118.86
835.003	16032.98
835.329	16164.96
835.654	16107.78
835.98	16000.89
836.306	16029.37
836.631	16009.93
836.956	16025.52
837.282	15922.93
837.607	15866.89
837.932	15776.94
838.258	15818.3
838.583	15748.92
838.908	15716.83
839.233	15831.86
839.558	15712.76
839.883	15637.74
840.208	15686.32
840.533	15643.39
840.858	15648.81
841.182	15548.02
841.507	15581.24
841.832	15504.86
842.156	15427.8
842.481	15438.87
842.805	15383.06
843.13	15359.78
843.454	15257.64
843.778	15168.82
844.103	15198.65
844.427	15121.82
844.751	15130.41
845.075	15190.74
845.399	15130.41
845.723	14937.64
846.047	14990.07
846.371	14895.16
846.695	14884.76
847.019	14754.15
847.343	14744.2
847.666	14607.03
847.99	14581.27
848.313	14568.39
848.637	14408.62
848.96	14455.17
849.284	14369.52
849.607	14269.64
849.931	14187.61
850.254	14110.77
850.577	14106.48
850.9	13937.9
851.223	13935.86
851.546	13906.03
851.869	13735.87
852.192	13779.93
852.515	13769.77
852.838	13625.81
853.161	13659.03
853.483	13573.39
853.806	13462.88
854.129	13427.63
854.451	13436.67
854.774	13393.5
855.096	13320.74
855.419	13330.91
855.741	13158.26
856.063	13159.61
856.385	13154.19
856.708	13130.46
857.03	13051.59
857.352	13042.33
857.674	12977.02
857.996	12916.23
858.318	12848.21
858.64	12865.16
858.961	12868.09
859.283	12778.15
859.605	12710.13
859.926	12834.42
860.248	12706.06
860.57	12600.76
860.891	12702.45
861.212	12577.48
861.534	12530.25
861.855	12489.57
862.176	12517.59
862.498	12498.84
862.819	12406.41
863.14	12383.36
863.461	12383.13
863.782	12311.5
864.103	12331.61
864.424	12243.25
864.745	12272.18
865.065	12254.55
865.386	12136.59
865.707	12224.72
866.027	12229.24
866.348	12148.56
866.668	12133.2
866.989	12108.57
867.309	11974.33
867.63	11995.35
867.95	11937.95
868.27	11876.26
868.59	11921.23
868.91	11888.68
869.23	11987.44
869.55	11805.75
869.87	11877.84
870.19	11903.15
870.51	11813.66
870.83	11834.45
871.15	11659.31
871.469	11686.43
871.789	11808.69
872.109	11746.09
872.428	11624.74
872.748	11612.99
873.067	11646.43
873.386	11662.48
873.706	11588.35
874.025	11524.4
874.344	11502.03
874.663	11438.53
874.982	11427.91
875.301	11447.57
875.62	11389.26
875.939	11416.38
876.258	11333.67
876.577	11319.89
876.896	11325.99
877.214	11251.19
877.533	11307.68
877.852	11182.71
878.17	11266.55
878.489	11223.62
878.807	11239.21
879.125	11220.23
879.444	11197.86
879.762	11148.37
880.08	11135.48
880.398	11122.38
880.716	11132.77
881.034	11109.5
881.352	11120.34
881.67	11031.98
881.988	11019.78
882.306	10990.4
882.624	11004.19
882.941	10922.16
883.259	10897.52
883.577	10923.96
883.894	10851.88
884.212	10844.87
884.529	10829.73
884.846	10850.97
885.164	10751.54
885.481	10644.88
885.798	10727.59
886.115	10654.14
886.432	10709.51
886.75	10642.62
887.067	10621.15
887.383	10653.01
887.7	10618.44
888.017	10544.31
888.334	10558.78
888.651	10479.91
888.967	10504.54
889.284	10374.83
889.6	10420.47
889.917	10290.08
890.233	10355.84
890.55	10312.91
890.866	10306.13
891.182	10227.94
891.498	10202.63
891.815	10196.53
892.131	10211.67
892.447	10066.36
892.763	10072.69
893.079	10011.45
893.395	10013.03
893.71	9992.69
894.026	9925.8
894.342	9891.9
894.657	9789.98
894.973	9874.27
895.289	9783.2
895.604	9752.02
895.92	9706.14
896.235	9700.72
896.55	9674.28
896.865	9654.39
897.181	9621.63
897.496	9657.33
897.811	9512.93
898.126	9541.18
898.441	9477.45
898.756	9484.91
899.071	9405.59
899.386	9357.9
899.7	9366.72
900.015	9352.25
900.33	9238.81
900.644	9264.12
900.959	9255.31
901.273	9178.25
901.588	9149.1
901.902	9071.13
902.216	9044.24
902.531	9043.11
902.845	9034.07
903.159	8993.62
903.473	8883.57
903.787	8876.11
904.101	8820.74
904.415	8858.93
904.729	8775.55
905.042	8738.94
905.356	8686.96
905.67	8737.13
905.984	8737.58
906.297	8650.58
906.611	8572.84
906.924	8599.28
907.237	8499.62
907.551	8498.49
907.864	8423.24
908.177	8458.27
908.491	8337.82
908.804	8367.65
909.117	8294.43
909.43	8248.78
909.743	8285.62
910.056	8183.47
910.368	8152.74
910.681	8120.87
910.994	8049.92
911.307	8036.36
911.619	8023.25
911.932	7983.25
912.244	7982.57
912.557	7980.99
912.869	7889.24
913.181	7835.68
913.494	7820.77
913.806	7791.17
914.118	7741
914.43	7693.77
914.742	7684.73
915.054	7643.15
915.366	7620.1
915.678	7611.28
915.99	7502.59
916.302	7496.48
916.613	7473.66
916.925	7457.84
917.236	7423.94
917.548	7383.27
917.859	7345.3
918.171	7319.54
918.482	7337.84
918.794	7264.4
919.105	7219.43
919.416	7196.15
919.727	7192.31
920.038	7110.51
920.349	7097.62
920.66	7072.09
920.971	7065.08
921.282	7034.12
921.593	6922.71
921.903	6903.73
922.214	6903.05
922.525	6843.62
922.835	6847.91
923.146	6769.5
923.456	6757.75
923.767	6706
924.077	6750.97
924.387	6701.48
924.697	6635.49
925.008	6620.12
925.318	6612.21
925.628	6590.29
925.938	6593.23
926.248	6484.31
926.558	6471.65
926.867	6508.49
927.177	6453.8
927.487	6391.88
927.796	6339.23
928.106	6355.04
928.416	6294.93
928.725	6317.31
929.034	6299.23
929.344	6296.97
929.653	6226.23
929.962	6189.63
930.271	6125.22
930.581	6090.42
930.89	6098.55
931.199	6041.83
931.508	6027.14
931.817	6024.21
932.125	6040.93
932.434	5959.8
932.743	5895.4
933.051	5840.48
933.36	5841.16
933.669	5809.97
933.977	5833.48
934.286	5839.35
934.594	5806.36
934.902	5750.77
935.21	5697.89
935.519	5700.6
935.827	5670.32
936.135	5612.01
936.443	5615.18
936.751	5639.13
937.059	5603.65
937.367	5549.19
937.674	5558.23
937.982	5516.65
938.29	5448.63
938.597	5525.69
938.905	5432.81
939.213	5425.58
939.52	5391.68
939.827	5429.87
940.135	5381.06
940.442	5373.6
940.749	5274.4
941.056	5331.57
941.363	5216.32
941.67	5235.75
941.977	5188.75
942.284	5170.67
942.591	5134.51
942.898	5151.23
943.205	5116.43
943.511	5094.74
943.818	5076.43
944.125	5035.98
944.431	5053.16
944.738	5031.69
945.044	4963.44
945.35	4963.67
945.657	4932.26
945.963	4917.12
946.269	4882.54
946.575	4882.54
946.881	4862.2
947.187	4822.2
947.493	4828.98
947.799	4788.08
948.105	4767.52
948.41	4705.37
948.716	4689.33
949.022	4702.43
949.327	4676.22
949.633	4643.68
949.938	4658.59
950.244	4632.83
950.549	4548.09
950.854	4559.61
951.16	4563.68
951.465	4546.96
951.77	4544.02
952.075	4478.71
952.38	4474.19
952.685	4454.98
952.99	4419.73
953.294	4413.63
953.599	4385.83
953.904	4370.46
954.209	4374.98
954.513	4340.86
954.818	4335.89
955.122	4271.03
955.426	4296.79
955.731	4279.39
956.035	4235.78
956.339	4205.27
956.643	4205.27
956.948	4182.22
957.252	4175.67
957.556	4128.44
957.86	4113.52
958.163	4105.61
958.467	4094.31
958.771	4054.77
959.075	4047.99
959.378	4026.29
959.682	4056.8
959.985	3994.2
960.289	3982
960.592	3951.27
960.896	3985.84
961.199	3897.26
961.502	3913.53
961.805	3868.56
962.108	3880.53
962.411	3823.36
962.714	3830.59
963.017	3773.42
963.32	3822
963.623	3783.36
963.926	3803.7
964.228	3744.27
964.531	3684.61
964.833	3717.6
965.136	3684.83
965.438	3660.2
965.741	3673.08
966.043	3666.3
966.345	3610.26
966.648	3638.51
966.95	3629.92
967.252	3567.77
967.554	3587.21
967.856	3490.94
968.158	3589.92
968.46	3522.12
968.761	3494.33
969.063	3521.67
969.365	3475.8
969.666	3486.65
969.968	3436.48
970.269	3378.4
970.571	3434.22
970.872	3410.72
971.174	3390.15
971.475	3350.38
971.776	3399.19
972.077	3361.45
972.378	3358.51
972.679	3330.27
972.98	3346.31
973.281	3301.57
973.582	3243.71
973.883	3249.82
974.183	3238.74
974.484	3231.96
974.785	3189.7
975.085	3190.61
975.386	3209.36
975.686	3207.78
975.986	3151.51
976.287	3158.97
976.587	3123.04
976.887	3082.36
977.187	3121.91
977.487	3086.2
977.787	3032.87
978.087	3035.36
978.387	3065.19
978.687	3052.98
978.987	3008.01
979.286	2998.75
979.586	2979.77
979.885	2985.42
980.185	2962.59
980.484	2942.25
980.784	2931.63
981.083	2933.44
981.382	2903.16
981.682	2897.51
981.981	2882.37
982.28	2859.32
982.579	2817.06
982.878	2829.26
983.177	2817.51
983.475	2796.04
983.774	2816.38
984.073	2805.76
984.372	2778.19
984.67	2747.46
984.969	2740.22
985.267	2723.95
985.566	2681.92
985.864	2709.72
986.162	2678.98
986.461	2655.48
986.759	2691.64
987.057	2667.68
987.355	2660
987.653	2635.82
987.951	2607.8
988.249	2593.79
988.547	2607.57
988.844	2556.95
989.142	2552.43
989.44	2590.62
989.737	2531.87
990.035	2536.39
990.332	2495.71
990.63	2504.07
990.927	2468.59
991.224	2519.67
991.521	2470.63
991.819	2468.37
992.116	2441.25
992.413	2443.74
992.71	2413
993.006	2406.67
993.303	2409.16
993.6	2386.11
993.897	2375.71
994.193	2366.9
994.49	2343.85
994.787	2313.12
995.083	2309.5
995.379	2333
995.676	2308.15
995.972	2270.18
996.268	2269.73
996.565	2245.32
996.861	2284.42
997.157	2231.76
997.453	2223.85
997.749	2220.69
998.044	2205.32
998.34	2212.78
998.636	2206.45
998.932	2173.91
999.227	2173.01
999.523	2210.97
999.818	2171.2
1000.114	2123.29
1000.409	2118.77
1000.704	2098.89
1001	2097.08
1001.295	2118.32
1001.59	2042.62
1001.885	2071.09
1002.18	2063.41
1002.475	2039.45
1002.77	2033.58
1003.065	2028.15
1003.359	1996.29
1003.654	1984.76
1003.949	1967.36
1004.243	1955.39
1004.538	1947.48
1004.832	1959.68
1005.127	1973.24
1005.421	1933.47
1005.715	1911.55
1006.009	1904.77
1006.304	1891.66
1006.598	1869.51
1006.892	1867.71
1007.186	1885.33
1007.48	1843.75
1007.773	1869.96
1008.067	1824.54
1008.361	1821.38
1008.655	1836.75
1008.948	1803.53
1009.242	1802.17
1009.535	1775.96
1009.829	1768.05
1010.122	1770.53
1010.415	1754.04
1010.708	1708.84
1011.001	1693.92
1011.295	1724.88
1011.588	1710.2
1011.881	1690.99
1012.173	1658.22
1012.466	1680.82
1012.759	1676.75
1013.052	1656.64
1013.344	1659.35
1013.637	1654.83
1013.93	1612.8
1014.222	1632.68
1014.514	1596.75
1014.807	1599.92
1015.099	1607.6
1015.391	1572.8
1015.683	1564.21
1015.976	1554.27
1016.268	1546.58
1016.56	1510.2
1016.851	1530.76
1017.143	1532.8
1017.435	1489.64
1017.727	1493.25
1018.018	1490.31
1018.31	1495.51
1018.602	1453.93
1018.893	1463.65
1019.185	1473.37
1019.476	1442.63
1019.767	1426.81
1020.058	1439.92
1020.35	1436.08
1020.641	1386.81
1020.932	1395.18
1021.223	1396.08
1021.514	1414.61
1021.804	1349.3
1022.095	1352.92
1022.386	1345.68
1022.677	1337.1
1022.967	1323.76
1023.258	1348.4
1023.548	1335.06
1023.839	1325.57
1024.129	1295.97
1024.419	1286.48
1024.709	1290.09
1025	1278.79
1025.29	1305.01
1025.58	1250.77
1025.87	1228.63
1026.16	1244.22
1026.449	1267.04
1026.739	1223.88
1027.029	1225.24
1027.319	1215.52
1027.608	1173.26
1027.898	1202.64
1028.187	1178.68
1028.477	1197.21
1028.766	1186.82
1029.055	1173.94
1029.344	1173.26
1029.634	1158.12
1029.923	1124.45
1030.212	1145.46
1030.501	1146.37
1030.79	1108.63
1031.078	1114.96
1031.367	1114.28
1031.656	1097.1
1031.945	1080.38
1032.233	1093.04
1032.522	1087.84
1032.81	1060.49
1033.099	1053.49
1033.387	1061.85
1033.675	1076.77
1033.963	1047.39
1034.251	1018.01
1034.54	1012.36
1034.828	1011.23
1035.116	1016.2
1035.403	995.19
1035.691	987.28
1035.979	1003.32
1036.267	986.15
1036.554	966.71
1036.842	973.72
1037.129	989.54
1037.417	978.01
1037.704	987.73
1037.992	941.4
1038.279	964.45
1038.566	928.07
1038.853	928.07
1039.14	928.07
