Data from breadboard_white_FLMS001491_00040.txt Node
Date: Wed Feb 08 10:47:39 GMT 2017
User: dcchb
Spectrometer: FLMS00149
Trigger mode: 0
Integration Time (sec): 2.000000E-2
Scans to average: 10
Electric dark correction enabled: true
Nonlinearity correction enabled: false
Boxcar width: 0
XAxis mode: Wavelengths
Number of Pixels in Spectrum: 2048
>>>>>Begin Spectral Data<<<<<
341.393	-20.58
341.776	-20.58
342.16	-20.58
342.543	-72.55
342.927	-54.48
343.31	-82.5
343.693	-70.52
344.077	-57.19
344.46	-64.87
344.843	-56.74
345.226	-36.17
345.61	-46.79
345.993	-22.39
346.376	0.89
346.759	28.01
347.142	27.56
347.525	66.42
347.908	51.06
348.291	69.36
348.674	79.76
349.057	114.11
349.44	112.3
349.823	162.47
350.206	149.13
350.588	205.86
350.971	210.15
351.354	235.01
351.737	230.26
352.119	229.81
352.502	276.14
352.884	264.84
353.267	279.53
353.65	316.14
354.032	305.51
354.414	309.58
354.797	317.72
355.179	314.33
355.562	326.98
355.944	333.08
356.326	338.06
356.709	341.9
357.091	360.88
357.473	338.73
357.855	354.78
358.238	360.65
358.62	362.24
359.002	357.49
359.384	354.1
359.766	350.26
360.148	341.67
360.53	384.38
360.912	337.15
361.294	358.17
361.676	356.13
362.057	350.49
362.439	334.44
362.821	332.86
363.203	355.91
363.584	345.51
363.966	330.15
364.348	316.36
364.729	333.76
365.111	330.82
365.493	336.02
365.874	316.14
366.256	340.09
366.637	343.71
367.019	330.37
367.4	314.1
367.781	332.86
368.163	330.15
368.544	335.8
368.925	330.82
369.306	342.58
369.688	328.79
370.069	329.24
370.45	329.24
370.831	340.09
371.212	332.41
371.593	331.28
371.974	326.08
372.355	357.04
372.736	338.28
373.117	318.17
373.498	338.28
373.879	360.88
374.26	347.1
374.641	339.64
375.021	342.58
375.402	359.98
375.783	359.07
376.163	344.84
376.544	355.91
376.925	360.65
377.305	344.61
377.686	345.97
378.066	335.12
378.447	364.5
378.827	356.81
379.208	361.56
379.588	349.36
379.968	363.59
380.349	358.39
380.729	355
381.109	369.02
381.489	374.44
381.87	373.54
382.25	381.9
382.63	380.99
383.01	388.68
383.39	384.38
383.77	387.09
384.15	380.99
384.53	378.73
384.91	396.81
385.29	415.57
385.67	407.88
386.049	397.26
386.429	381.22
386.809	423.03
387.189	427.55
387.568	416.47
387.948	403.82
388.328	404.95
388.707	443.36
389.087	419.18
389.466	423.48
389.846	424.16
390.225	451.5
390.605	431.84
390.984	463.93
391.363	425.51
391.743	437.71
392.122	441.78
392.501	464.61
392.881	480.65
393.26	486.07
393.639	487.43
394.018	465.74
394.397	492.18
394.776	498.5
395.155	493.76
395.534	491.72
395.913	501.67
396.292	507.32
396.671	507.09
397.05	530.37
397.429	535.11
397.808	545.51
398.186	532.63
398.565	526.75
398.944	549.8
399.323	561.33
399.701	559.75
400.08	585.73
400.458	568.11
400.837	592.29
401.215	616.92
401.594	602
401.972	604.49
402.351	603.36
402.729	646.07
403.107	658.27
403.486	651.27
403.864	656.69
404.242	641.32
404.62	673.87
404.999	681.55
405.377	703.02
405.755	703.92
406.133	714.09
406.511	728.1
406.889	733.75
407.267	758.61
407.645	779.85
408.023	771.49
408.401	797.03
408.779	805.84
409.156	846.52
409.534	833.41
409.912	860.08
410.29	888.55
410.667	909.34
411.045	922.67
411.422	901.66
411.8	948.66
412.178	951.6
412.555	989.11
412.933	992.95
413.31	1014.65
413.687	1027.98
414.065	1018.94
414.442	1031.37
414.819	1067.3
415.197	1087.87
415.574	1115.21
415.951	1120.63
416.328	1127.41
416.705	1143.01
417.082	1168.54
417.46	1185.49
417.837	1215.55
418.214	1197.24
418.591	1246.05
418.967	1256
419.344	1259.84
419.721	1250.12
420.098	1290.35
420.475	1308.88
420.852	1302.32
421.228	1334.64
421.605	1342.1
421.982	1358.59
422.358	1411.7
422.735	1400.18
423.111	1411.93
423.488	1418.48
423.864	1448.76
424.241	1452.6
424.617	1453.28
424.994	1495.31
425.37	1524.47
425.746	1518.82
426.123	1550.91
426.499	1515.2
426.875	1600.85
427.251	1595.2
427.627	1641.3
428.003	1661.41
428.379	1642.88
428.756	1681.52
429.132	1720.84
429.507	1752.26
429.883	1741.63
430.259	1794.06
430.635	1795.42
431.011	1830.22
431.387	1888.3
431.763	1904.12
432.138	1898.47
432.514	1927.17
432.89	1949.77
433.265	1991.35
433.641	2025.24
434.016	2031.57
434.392	2063.21
434.767	2136.2
435.143	2114.51
435.518	2144.11
435.894	2142.3
436.269	2197.89
436.644	2249.19
437.02	2254.84
437.395	2281.28
437.77	2297.78
438.145	2318.57
438.52	2347.04
438.895	2368.06
439.271	2355.63
439.646	2405.12
440.021	2461.16
440.395	2452.8
440.77	2449.19
441.145	2498.45
441.52	2528.51
441.895	2566.25
442.27	2586.13
442.645	2534.16
443.019	2576.87
443.394	2632.01
443.769	2611.44
444.143	2612.12
444.518	2670.42
444.892	2720.14
445.267	2709.07
445.641	2698.9
446.016	2750.42
446.39	2800.82
446.764	2796.07
447.139	2769.4
447.513	2845.56
447.887	2823.64
448.262	2855.5
448.636	2903.86
449.01	2890.53
449.384	2948.83
449.758	2946.58
450.132	2991.09
450.506	3029.06
450.88	3058.21
451.254	3026.57
451.628	3061.83
452.002	3182.73
452.376	3134.37
452.75	3178.66
453.123	3203.74
453.497	3227.25
453.871	3292.55
454.244	3331.88
454.618	3379.78
454.992	3422.27
455.365	3420.01
455.739	3531.64
456.112	3518.99
456.486	3511.08
456.859	3607.12
457.232	3668.59
457.606	3713.56
457.979	3704.52
458.352	3752.88
458.725	3838.3
459.099	3820
459.472	3935.48
459.845	3940.9
460.218	3976.6
460.591	4037.17
460.964	4114.91
461.337	4161.46
461.71	4253.66
462.083	4270.61
462.456	4303.38
462.829	4311.51
463.201	4387.22
463.574	4370.94
463.947	4523.71
464.32	4559.41
464.692	4648.68
465.065	4638.96
465.438	4695
465.81	4846.41
466.183	4843.02
466.555	4941.1
466.928	4981.55
467.3	4982.68
467.672	5063.81
468.045	5198.49
468.417	5228.1
468.789	5238.27
469.161	5291.6
469.534	5386.06
469.906	5522.55
470.278	5536.79
470.65	5598.93
471.022	5739.95
471.394	5807.29
471.766	5912.82
472.138	5934.97
472.51	6086.61
472.882	6202.08
473.253	6224.45
473.625	6325.7
473.997	6496.76
474.369	6514.84
474.74	6588.51
475.112	6683.65
475.484	6830.99
475.855	6949.18
476.227	7037.54
476.598	7244.09
476.97	7213.36
477.341	7449.73
477.713	7488.38
478.084	7549.62
478.455	7825.09
478.827	7825.77
479.198	8071.64
479.569	8101.24
479.94	8329.94
480.311	8369.26
480.682	8627.1
481.053	8791.62
481.424	8920.2
481.795	8963.82
482.166	9126.98
482.537	9264.15
482.908	9446.29
483.279	9549.79
483.65	9713.4
484.021	9870.91
484.391	10029.55
484.762	10208.08
485.133	10256.21
485.503	10325.59
485.874	10634.06
486.244	10677.22
486.615	10904.33
486.985	10970.77
487.356	11229.07
487.726	11341.61
488.097	11521.26
488.467	11520.81
488.837	11822.27
489.207	12038.31
489.578	12155.15
489.948	12282.15
490.318	12468.36
490.688	12542.03
491.058	12669.26
491.428	12959.87
491.798	12994.9
492.168	13217.04
492.538	13255.91
492.908	13413.19
493.278	13650.47
493.648	13556.24
494.017	13838.94
494.387	13971.37
494.757	14084.36
495.126	14245.04
495.496	14209.33
495.866	14444.13
496.235	14593.95
496.605	14653.39
496.974	14784.46
497.344	14904.45
497.713	15053.83
498.082	15220.15
498.452	15315.52
498.821	15366.81
499.19	15501.73
499.559	15660.82
499.928	15809.74
500.298	15839.57
500.667	15986.91
501.036	16054.93
501.405	16220.58
501.774	16193.23
502.143	16456.5
502.512	16426.67
502.88	16681.81
503.249	16731.52
503.618	16778.53
503.987	16870.5
504.356	17065.3
504.724	17174.9
505.093	17204.51
505.462	17334.67
505.83	17414.22
506.199	17613.08
506.567	17764.26
506.936	17766.98
507.304	18009.46
507.672	18083.13
508.041	18140.07
508.409	18309.33
508.777	18512.27
509.145	18613.06
509.514	18646.73
509.882	18819.6
510.25	18945.25
510.618	19113.61
510.986	19242.87
511.354	19332.58
511.722	19447.38
512.09	19621.84
512.458	19698.68
512.826	19808.73
513.193	19976.86
513.561	20049.18
513.929	20190.87
514.297	20408.94
514.664	20590.86
515.032	20659.56
515.4	20859.55
515.767	20977.74
516.135	21095.7
516.502	20969.15
516.869	21455.47
517.237	21476.26
517.604	21492.53
517.972	21825.4
518.339	21902.23
518.706	21943.82
519.073	22118.05
519.44	22232.17
519.808	22577.7
520.175	22549.68
520.542	22845.03
520.909	22929.33
521.276	23031.47
521.643	23308.98
522.009	23509.65
522.376	23587.61
522.743	23773.15
523.11	23961.84
523.477	24186.02
523.843	24360.93
524.21	24730.64
524.577	24766.57
524.943	24887.47
525.31	25057.86
525.676	25484.06
526.043	25477.06
526.409	25577.84
526.776	25889.25
527.142	26032.97
527.508	26171.95
527.874	26324.49
528.241	26451.72
528.607	26507.31
528.973	26879.28
529.339	26805.61
529.705	27077.47
530.071	27359.27
530.437	27506.38
530.803	27507.06
531.169	27820.05
531.535	27808.07
531.901	27897.78
532.267	28119.47
532.632	28212.35
532.998	28387.04
533.364	28560.14
533.73	28591.55
534.095	28866.35
534.461	28841.04
534.826	29056.62
535.192	29249.84
535.557	29397.4
535.923	29442.83
536.288	29526.22
536.653	29632.65
537.019	29627
537.384	29741.58
537.749	29971.4
538.114	30056.6
538.479	30217.72
538.845	30328.45
539.21	30350.15
539.575	30543.59
539.94	30691.83
540.305	30670.59
540.67	30708.56
541.034	30923.69
541.399	30966.4
541.764	31080.3
542.129	31324.13
542.494	31284.81
542.858	31393.96
543.223	31445.71
543.587	31756.89
543.952	31684.35
544.316	31806.83
544.681	31774.74
545.045	31951.91
545.41	32231.23
545.774	32324.33
546.138	32252.02
546.503	32331.57
546.867	32474.16
547.231	32608.62
547.595	32757.99
547.959	32950.08
548.324	32803.64
548.688	32943.75
549.052	33107.82
549.416	33284.31
549.779	33350.75
550.143	33376.74
550.507	33615.6
550.871	33667.35
551.235	33701.7
551.599	33977.17
551.962	34011.97
552.326	34143.72
552.689	34341
553.053	34275.24
553.417	34407.22
553.78	34701.45
554.143	34702.8
554.507	34891.72
554.87	35038.84
555.234	35346.85
555.597	35146.86
555.96	35318.83
556.323	35605.6
556.686	35437.7
557.05	35745.03
557.413	35920.62
557.776	35922.43
558.139	36292.82
558.502	36338.01
558.865	36397.9
559.228	36679.7
559.59	36818.9
559.953	36973.25
560.316	37311.55
560.679	37364.88
561.041	37668.37
561.404	37601.71
561.767	37805.77
562.129	37645.55
562.492	38143.62
562.854	38180
563.217	38192.88
563.579	38505.87
563.941	38659.08
564.304	38771.62
564.666	38988.57
565.028	39134.32
565.39	38965.29
565.753	39403.47
566.115	39559.62
566.477	39790.35
566.839	39763.46
567.201	39947.41
567.563	40162.09
567.925	40298.14
568.287	40426.04
568.648	40444.57
569.01	40761.85
569.372	40923.66
569.734	40795.07
570.095	41110.54
570.457	41160.49
570.819	41427.15
571.18	41325.45
571.542	41625.33
571.903	41674.82
572.265	41810.19
572.626	41973.12
572.987	42019.45
573.349	42189.39
573.71	42203.17
574.071	42472.54
574.432	42447.01
574.794	42667.56
575.155	42699.88
575.516	42691.52
575.877	42773.1
576.238	42971.51
576.599	42978.29
576.96	43072.3
577.32	43046.99
577.681	43178.29
578.042	43364.95
578.403	43305.06
578.763	43271.39
579.124	43411.05
579.485	43538.5
579.845	43650.82
580.206	43554.32
580.566	43578.73
580.927	43704.37
581.287	43867.76
581.648	43536.92
582.008	43933.07
582.368	43808.1
582.728	43904.14
583.089	43838.38
583.449	43729.46
583.809	43836.35
584.169	43958.6
584.529	43677.26
584.889	44276.79
585.249	43763.81
585.609	43741.89
585.969	44127.41
586.329	43858.27
586.688	43982.11
587.048	43924.25
587.408	43995.44
587.768	44002.22
588.127	44034.99
588.487	43856.01
588.846	44183.91
589.206	43923.58
589.565	43874.76
589.925	44071.6
590.284	44093.29
590.643	44016.23
591.003	44014.87
591.362	44104.59
591.721	44223.91
592.08	44088.32
592.44	44343.45
592.799	44189.78
593.158	44129.9
593.517	44113.18
593.876	44281.99
594.235	44155.21
594.593	44261.19
594.952	44168.09
595.311	44144.14
595.67	44161.76
596.029	44372.15
596.387	44352.94
596.746	44515.88
597.104	44225.04
597.463	44311.82
597.822	44354.75
598.18	44283.34
598.538	44180.07
598.897	44590.68
599.255	44230.69
599.613	44766.04
599.972	44495.31
600.33	44641.75
600.688	44456.9
601.046	44563.33
601.404	44888.98
601.762	44651.92
602.12	44808.75
602.478	44801.29
602.836	44788.86
603.194	44615.08
603.552	44670.9
603.91	44625.03
604.268	44827.73
604.625	44766.49
604.983	44976.66
605.341	44732.37
605.698	44928.75
606.056	45130.1
606.413	45031.34
606.771	45163.09
607.128	45132.58
607.485	45050.33
607.843	45080.38
608.2	45389.75
608.557	45517.43
608.914	45301.17
609.272	45469.52
609.629	45556.53
609.986	45576.19
610.343	45455.97
610.7	45813.92
611.057	45633.36
611.414	45728.73
611.771	45616.64
612.127	45750.42
612.484	45843.07
612.841	45762.4
613.198	45693.7
613.554	45770.99
613.911	46025.22
614.267	46025.22
614.624	45907.71
614.98	45963.75
615.337	46070.64
615.693	46088.27
616.05	46111.77
616.406	46338.88
616.762	46083.07
617.118	46265.66
617.475	46135.04
617.831	46313.12
618.187	46398.77
618.543	46387.24
618.899	46648.48
619.255	46554.92
619.611	46378.65
619.967	46537.97
620.323	46607.57
620.678	46544.52
621.034	46315.38
621.39	46352.89
621.746	46424.3
622.101	46808.92
622.457	46526.45
622.812	46608.48
623.168	46654.8
623.523	46579.78
623.879	46576.61
624.234	46413.45
624.589	46547.24
624.945	46557.63
625.3	46624.75
625.655	46580.91
626.01	46595.14
626.365	46618.87
626.72	46416.39
627.075	46534.58
627.43	46518.99
627.785	46379.56
628.14	46515.15
628.495	46439.44
628.85	46492.55
629.205	46343.85
629.559	46580.91
629.914	46196.29
630.269	46299.79
630.623	46275.61
630.978	46156.51
631.332	46319.67
631.687	46398.99
632.041	46126.23
632.396	46099.11
632.75	46073.8
633.104	46102.95
633.459	46036.06
633.813	45811.21
634.167	45851.89
634.521	45805.34
634.875	45935.05
635.229	45938.21
635.583	45699.35
635.937	45672.46
636.291	45615.96
636.645	45675.62
636.999	45490.32
637.352	45521.05
637.706	45251.45
638.06	45453.03
638.413	45380.71
638.767	45228.18
639.121	45257.55
639.474	45051.91
639.828	45005.36
640.181	45115.64
640.534	45125.35
640.888	44939.6
641.241	44825.7
641.594	44886.94
641.947	44982.53
642.301	44939.14
642.654	44950.22
643.007	44802.42
643.36	44724.91
643.713	44589.1
644.066	44772.14
644.419	44584.8
644.771	44290.35
645.124	43914.31
645.477	43908.66
645.83	43512.74
646.182	43398.84
646.535	43250.6
646.888	43399.3
647.24	43203.14
647.593	43230.04
647.945	43207.44
648.298	42973.55
648.65	42931.06
649.002	42834.34
649.355	43028.23
649.707	42972.87
650.059	42950.27
650.411	43534.21
650.763	43528.56
651.115	43856.01
651.467	43691.94
651.819	43721.32
652.171	43503.02
652.523	43408.56
652.875	43447.88
653.227	43318.17
653.578	43525.85
653.93	43306.64
654.282	43134.67
654.633	43152.75
654.985	43124.28
655.337	43190.49
655.688	43306.19
656.039	43424.38
656.391	42974.9
656.742	43081.11
657.094	43033.43
657.445	43202.69
657.796	43094.22
658.147	43019.19
658.498	43014.67
658.849	42929.03
659.2	42919.54
659.551	42840.22
659.902	42960.21
660.253	42772.19
660.604	43017.16
660.955	42699.43
661.306	42897.61
661.656	42700.11
662.007	42846.77
662.358	42711.41
662.708	42669.37
663.059	42744.4
663.409	42440.68
663.76	42778.07
664.11	42646.1
664.461	42718.86
664.811	42622.59
665.161	42668.69
665.511	42633.89
665.862	42498.98
666.212	42674.57
666.562	42666.66
666.912	42578.98
667.262	42434.12
667.612	42436.84
667.962	42477.51
668.312	42364.3
668.662	42422.83
669.011	42342.6
669.361	42369.72
669.711	42271.87
670.06	42208.59
670.41	42364.97
670.76	42219.67
671.109	42298.53
671.459	42240.91
671.808	42088.6
672.157	42182.61
672.507	41875.95
672.856	41992.55
673.205	41979.45
673.554	42002.72
673.904	41786.01
674.253	42019.9
674.602	41945.55
674.951	41394.6
675.3	41192.35
675.649	41696.74
675.998	41624.88
676.346	41607.03
676.695	42009.5
677.044	41480.48
677.393	41585.33
677.741	41664.2
678.09	41603.64
678.438	41457.65
678.787	41585.33
679.135	41499.23
679.484	41207.94
679.832	41392.57
680.181	41092.46
680.529	41155.74
680.877	41086.59
681.225	41128.62
681.573	41292.01
681.922	40964.56
682.27	40826.71
682.618	40930.89
682.966	40744.68
683.314	40930.66
683.661	40649.09
684.009	40575.42
684.357	40468.98
684.705	40452.03
685.053	40379.04
685.4	40435.98
685.748	40188.08
686.095	40141.08
686.443	40092.27
686.79	39984.92
687.138	39977.47
687.485	40138.37
687.832	39937.92
688.18	39883.91
688.527	39664.03
688.874	39539.29
689.221	39456.35
689.568	39304.72
689.915	39341.78
690.262	39384.26
690.609	39220.42
690.956	39156.47
691.303	39113.31
691.65	38770.72
691.997	39008
692.344	38576.6
692.69	38659.53
693.037	38524.62
693.383	38276.04
693.73	38496.37
694.077	38086.89
694.423	38176.38
694.769	38000.34
695.116	37930.29
695.462	38012.09
695.808	37771.65
696.155	37752.89
696.501	37444.43
696.847	37577.75
697.193	37269.06
697.539	37508.15
697.885	37165.79
698.231	37004.89
698.577	37081.5
698.923	36926.25
699.269	36833.82
699.614	36567.39
699.96	36571.45
700.306	36490.33
700.651	36336.43
700.997	36193.84
701.342	36135.98
701.688	36130.79
702.033	35906.61
702.379	35868.2
702.724	35903.45
703.069	35957.23
703.415	35526.28
703.76	35434.31
704.105	35466.62
704.45	35416
704.795	35227.76
705.14	35068.89
705.485	35241.77
705.83	34910.48
706.175	34970.37
706.52	34871.84
706.865	34826.87
707.209	34676.81
707.554	34644.5
707.899	34645.4
708.243	34409.48
708.588	34499.64
708.932	34131.07
709.277	34051.07
709.621	34212.65
709.966	33949.15
710.31	33936.27
710.654	33613.11
710.998	33893.56
711.342	33845.42
711.687	33603.85
712.031	33506
712.375	33389.39
712.719	33457.64
713.063	33342.16
713.407	33299
713.75	33222.16
714.094	33098.1
714.438	33034.6
714.782	32993.24
715.125	32933.36
715.469	32961.15
715.812	32749.18
716.156	32540.83
716.499	32612.01
716.843	32619.24
717.186	32458.34
717.53	32641.16
717.873	32438.45
718.216	32424.22
718.559	32353.49
718.902	32097.22
719.246	32175.19
719.589	31961.86
719.932	31894.29
720.275	31965.02
720.617	31885.48
720.96	31796.66
721.303	31870.79
721.646	31904.23
721.989	31560.29
722.331	31690.23
722.674	31509.89
723.016	31474.64
723.359	31503.34
723.701	31481.42
724.044	31313.74
724.386	31098.15
724.729	31313.29
725.071	31154.19
725.413	31014.76
725.755	31156
726.097	30992.39
726.439	30821.77
726.782	30789.68
727.124	30886.18
727.465	30690.25
727.807	30584.49
728.149	30637.82
728.491	30488.68
728.833	30549.01
729.175	30359.19
729.516	30447.55
729.858	30283.71
730.199	30439.19
730.541	30335.23
730.882	30229.02
731.224	30286.2
731.565	29991.51
731.906	30036.03
732.248	30044.39
732.589	29893.44
732.93	29719.2
733.271	29822.03
733.612	29885.75
733.953	29801.69
734.294	29640.11
734.635	29714.91
734.976	29715.81
735.317	29634.91
735.658	29419.1
735.999	29485.31
736.339	29395.6
736.68	29575.93
737.021	29348.82
737.361	29185.66
737.702	29433.34
738.042	29277.18
738.383	29150.41
738.723	29180.01
739.063	29063.4
739.404	28923.07
739.744	28898.21
740.084	28813.24
740.424	28987.7
740.764	28754.03
741.104	28897.76
741.444	28755.16
741.784	28714.03
742.124	28555.17
742.464	28443.08
742.804	28526.92
743.143	28450.54
743.483	28463.87
743.823	28215.97
744.162	28283.54
744.502	28173.71
744.841	28160.38
745.181	28343.42
745.52	27971.91
745.86	28168.74
746.199	28135.52
746.538	27987.05
746.877	28076.54
747.216	28023.43
747.556	27887.84
747.895	27894.85
748.234	27832.02
748.573	27664.34
748.911	27657.79
749.25	27598.13
749.589	27414.86
749.928	27485.59
750.267	27516.1
750.605	27349.1
750.944	27325.82
751.283	27189.78
751.621	27261.87
751.96	27112.95
752.298	26980.97
752.636	27180.51
752.975	26875.44
753.313	26865.49
753.651	27000.41
753.989	26781.88
754.327	26672.28
754.666	26557.93
755.004	26545.95
755.342	26585.5
755.679	26470.93
756.017	26314.1
756.355	26253.08
756.693	26241.78
757.031	26303.93
757.368	26158.39
757.706	26118.4
758.044	25888.8
758.381	26064.61
758.719	25789.59
759.056	25945.07
759.394	25746.2
759.731	25550.95
760.068	25607.9
760.405	25466.21
760.743	25430.96
761.08	25455.36
761.417	25233.67
761.754	25251.98
762.091	25188.02
762.428	25180.34
762.765	24823.29
763.102	25038.2
763.438	24934.47
763.775	24614.71
764.112	24527.7
764.449	24697.87
764.785	24626.46
765.122	24396.63
765.458	24209.29
765.795	24303.3
766.131	24338.1
766.467	24124.78
766.804	24080.48
767.14	23924.78
767.476	23928.85
767.812	23836.87
768.148	23812.02
768.485	23678.69
768.821	23468.07
769.157	23473.72
769.492	23462.65
769.828	23324.12
770.164	23196.44
770.5	23050.91
770.836	23121.64
771.171	23034.18
771.507	22974.07
771.842	22668.09
772.178	22849.1
772.513	22716.22
772.849	22599.62
773.184	22405.72
773.519	22453.86
773.855	22250.7
774.19	22303.58
774.525	22259.97
774.86	22093.19
775.195	22076.69
775.53	21939.07
775.865	21917.83
776.2	21703.82
776.535	21543.6
776.87	21586.76
777.205	21620.89
777.539	21318.52
777.874	21382.02
778.209	21230.16
778.543	21171.86
778.878	21169.15
779.212	21115.59
779.547	20982.26
779.881	20951.07
780.215	20905.88
780.55	20789.04
780.884	20741.81
781.218	20635.83
781.552	20597.41
781.886	20442.39
782.22	20286.23
782.554	20258.89
782.888	20046.01
783.222	20065
783.556	19953.36
783.889	19916.3
784.223	19902.51
784.557	19795.4
784.89	19762.63
785.224	19712.46
785.557	19527.83
785.891	19596.53
786.224	19493.71
786.558	19447.84
786.891	19238.58
787.224	19229.99
787.557	19141.63
787.891	19158.58
788.224	19072.48
788.557	19022.99
788.89	18967.62
789.223	18857.12
789.556	18795.65
789.888	18784.12
790.221	18685.14
790.554	18537.13
790.887	18533.74
791.219	18548.65
791.552	18431.37
791.884	18341.42
792.217	18196.12
792.549	18222.56
792.882	18013.98
793.214	18091.49
793.546	17932.17
793.879	17948.89
794.211	17819.18
794.543	17848.33
794.875	17827.09
795.207	17723.81
795.539	17695.11
795.871	17648.56
796.203	17560.88
796.535	17338.51
796.867	17356.37
797.198	17362.24
797.53	17307.33
797.862	17136.26
798.193	17268.23
798.525	17063.49
798.856	17171.06
799.188	16901.91
799.519	16910.28
799.85	16828.02
800.182	16807.91
800.513	16792.99
800.844	16620.34
801.175	16747.57
801.506	16704.86
801.837	16576.05
802.168	16529.04
802.499	16396.84
802.83	16350.29
803.161	16345.32
803.491	16236.17
803.822	16379.67
804.153	16214.02
804.483	16073.91
804.814	16035.27
805.145	16008.15
805.475	16019.45
805.805	15872.34
806.136	15979.23
806.466	15840.25
806.796	15900.58
807.126	15708.05
807.457	15660.14
807.787	15607.49
808.117	15579.46
808.447	15510.76
808.777	15556.19
809.107	15543.08
809.436	15446.59
809.766	15430.77
810.096	15412.69
810.426	15273.48
810.755	15310.54
811.085	15268.74
811.414	15254.95
811.744	15064.45
812.073	15120.94
812.403	15153.26
812.732	14975.64
813.061	15024.45
813.39	14867.39
813.719	14845.02
814.049	14903.77
814.378	14806.83
814.707	14786.26
815.036	14723.44
815.365	14644.35
815.693	14549.89
816.022	14624.91
816.351	14508.76
816.68	14391.92
817.008	14475.76
817.337	14423.79
817.665	14353.96
817.994	14407.74
818.322	14322.55
818.651	14248.65
818.979	14164.81
819.307	14306.05
819.636	14226.5
819.964	14083.91
820.292	14249.78
820.62	14100.63
820.948	14040.75
821.276	14096.34
821.604	14052.5
821.932	14095.43
822.259	14092.27
822.587	14022.89
822.915	14018.15
823.243	14110.8
823.57	13995.1
823.898	14019.73
824.225	14002.78
824.553	14026.28
824.88	14009.11
825.207	14047.3
825.535	13986.96
825.862	14099.5
826.189	13980.86
826.516	14021.09
826.843	14081.88
827.17	14092.27
827.497	14043.23
827.824	14081.2
828.151	14080.75
828.478	13986.74
828.805	14059.5
829.131	13978.38
829.458	13925.04
829.785	13998.49
830.111	13887.98
830.438	13962.1
830.764	13882.78
831.09	13970.47
831.417	13919.17
831.743	13984.25
832.069	13926.63
832.395	13799.17
832.722	13886.63
833.048	13825.16
833.374	13850.02
833.7	13749.45
834.026	13832.84
834.351	13788.78
834.677	13842.33
835.003	13800.53
835.329	13741.32
835.654	13705.84
835.98	13625.84
836.306	13692.96
836.631	13641.44
836.956	13602.79
837.282	13530.03
837.607	13555.79
837.932	13596.01
838.258	13555.56
838.583	13544.04
838.908	13461.1
839.233	13480.31
839.558	13471.95
839.883	13373.19
840.208	13375.68
840.533	13384.27
840.858	13358.5
841.182	13323.93
841.507	13325.96
841.832	13157.38
842.156	13202.12
842.481	13212.29
842.805	13212.29
843.13	13073.31
843.454	13150.83
843.778	13080.09
844.103	13055.46
844.427	12997.84
844.751	13024.5
845.075	12972.75
845.399	12877.16
845.723	12830.83
846.047	12892.98
846.371	12746.54
846.695	12714
847.019	12634.91
847.343	12626.77
847.666	12555.14
847.99	12521.92
848.313	12435.59
848.637	12369.38
848.96	12353.56
849.284	12393.11
849.607	12202.83
849.931	12221.36
850.254	12124.41
850.577	11996.51
850.9	11929.84
851.223	11978.2
851.546	11943.85
851.869	11802.61
852.192	11894.36
852.515	11763.29
852.838	11734.14
853.161	11627.02
853.483	11643.52
853.806	11589.06
854.129	11596.97
854.451	11538.67
854.774	11483.75
855.096	11438.78
855.419	11438.33
855.741	11474.94
856.063	11260.48
856.385	11316.75
856.708	11234.72
857.03	11187.26
857.352	11260.03
857.674	11188.17
857.996	11088.96
858.318	11026.36
858.64	11088.28
858.961	11019.58
859.283	10944.56
859.605	10938.68
859.926	10989.75
860.248	10966.25
860.57	10890.55
860.891	10894.61
861.212	10847.38
861.534	10761.74
861.855	10786.59
862.176	10780.27
862.498	10754.96
862.819	10728.52
863.14	10735.75
863.461	10750.89
863.782	10616.43
864.103	10617.56
864.424	10565.81
864.745	10613.94
865.065	10533.27
865.386	10533.49
865.707	10553.38
866.027	10504.34
866.348	10503.21
866.668	10447.17
866.989	10420.95
867.309	10354.97
867.63	10330.79
867.95	10325.36
868.27	10297.57
868.59	10305.7
868.91	10254.18
869.23	10281.98
869.55	10233.39
869.87	10248.98
870.19	10189.77
870.51	10170.11
870.83	10189.1
871.15	10107.06
871.469	10103.9
871.789	10165.37
872.109	10039.27
872.428	10068.65
872.748	10125.37
873.067	10025.94
873.386	10073.85
873.706	10053.51
874.025	9971.48
874.344	9892.61
874.663	9989.55
874.982	9927.18
875.301	9956.79
875.62	9909.1
875.939	9855.32
876.258	9841.31
876.577	9803.57
876.896	9767.64
877.214	9795.89
877.533	9802.67
877.852	9724.25
878.17	9792.27
878.489	9703.91
878.807	9753.63
879.125	9735.32
879.444	9747.98
879.762	9690.35
880.08	9696.23
880.398	9588.66
880.716	9598.38
881.034	9590.02
881.352	9567.19
881.67	9602.67
881.988	9526.97
882.306	9444.71
882.624	9475.89
882.941	9449.68
883.259	9400.64
883.577	9393.41
883.894	9454.65
884.212	9415.11
884.529	9427.99
884.846	9304.6
885.164	9341.21
885.481	9296.24
885.798	9367.88
886.115	9220.53
886.432	9213.98
886.75	9189.8
887.067	9274.54
887.383	9226.18
887.7	9197.26
888.017	9170.37
888.334	9080.65
888.651	9133.53
888.967	9139.86
889.284	9018.96
889.6	8985.74
889.917	8941.67
890.233	8962.69
890.55	8888.57
890.866	8925.4
891.182	8846.31
891.498	8816.25
891.815	8863.03
892.131	8785.07
892.447	8789.59
892.763	8762.69
893.079	8698.97
893.395	8714.33
893.71	8662.36
894.026	8654.45
894.342	8622.58
894.657	8509.82
894.973	8531.96
895.289	8511.85
895.604	8548.01
895.92	8411.74
896.235	8369.71
896.55	8406.54
896.865	8395.92
897.181	8395.47
897.496	8387.11
897.811	8344.63
898.126	8338.98
898.441	8342.82
898.756	8246.55
899.071	8175.36
899.386	8148.02
899.7	8108.25
900.015	8116.16
900.33	8107.57
900.644	8039.55
900.959	8010.4
901.273	8009.27
901.588	7952.09
901.902	7921.13
902.216	7906.67
902.531	7877.07
902.845	7882.26
903.159	7868.03
903.473	7842.04
903.787	7799.1
904.101	7713.68
904.415	7764.3
904.729	7653.34
905.042	7614.25
905.356	7635.49
905.67	7522.05
905.984	7592.1
906.297	7550.07
906.611	7436.17
906.924	7466
907.237	7469.39
907.551	7410.86
907.864	7409.51
908.177	7328.38
908.491	7341.94
908.804	7283.64
909.117	7265.78
909.43	7233.24
909.743	7193.47
910.056	7164.32
910.368	7175.62
910.681	7089.97
910.994	7087.48
911.307	7095.84
911.619	7009.75
911.932	7028.95
912.244	6899.24
912.557	6918
912.869	6878.45
913.181	6876.19
913.494	6852.69
913.806	6840.94
914.118	6863.31
914.43	6775.4
914.742	6767.27
915.054	6693.6
915.366	6671.67
915.678	6657.21
915.99	6628.29
916.302	6561.4
916.613	6515.75
916.925	6551.45
917.236	6479.59
917.548	6456.31
917.859	6492.02
918.171	6460.15
918.482	6389.65
918.794	6342.19
919.105	6420.61
919.416	6303.1
919.727	6275.08
920.038	6295.41
920.349	6215.19
920.66	6214.06
920.971	6188.98
921.282	6153.04
921.593	6093.84
921.903	6101.75
922.214	6053.84
922.525	6022.65
922.835	6010
923.146	6037.79
923.456	6056.78
923.767	5962.77
924.077	5922.99
924.387	5893.39
924.697	5932.26
925.008	5867.85
925.318	5826.5
925.628	5850.45
925.938	5826.05
926.248	5739.72
926.558	5759.61
926.867	5706.95
927.177	5686.39
927.487	5682.55
927.796	5576.11
928.106	5581.99
928.416	5612.49
928.725	5576.79
929.034	5534.53
929.344	5553.96
929.653	5486.4
929.962	5448.2
930.271	5434.19
930.581	5393.97
930.89	5379.73
931.199	5365.95
931.508	5310.81
931.817	5323.69
932.125	5356.68
932.434	5322.78
932.743	5282.78
933.051	5245.95
933.36	5259.51
933.669	5137.7
933.977	5188.1
934.286	5205.05
934.594	5151.26
934.902	5123.02
935.21	5115.33
935.519	5047.31
935.827	5074.65
936.135	5029.23
936.443	4993.75
936.751	4989.23
937.059	4960.31
937.367	4890.48
937.674	4896.35
937.982	4887.54
938.29	4864.94
938.597	4887.09
938.905	4824.04
939.213	4826.3
939.52	4727.77
939.827	4754.66
940.135	4732.06
940.442	4732.97
940.749	4740.65
941.056	4749.01
941.363	4673.31
941.67	4640.32
941.977	4597.15
942.284	4584.72
942.591	4603.71
942.898	4550.6
943.205	4538.85
943.511	4525.52
943.818	4473.77
944.125	4481.45
944.431	4479.19
944.738	4494.33
945.044	4440.32
945.35	4418.17
945.657	4386.54
945.963	4392.86
946.269	4356.71
946.575	4315.58
946.881	4293.88
947.187	4358.97
947.493	4263.38
947.799	4245.52
948.105	4237.61
948.41	4211.4
948.716	4238.52
949.022	4177.96
949.327	4221.8
949.633	4180.67
949.938	4164.17
950.244	4131.4
950.549	4043.72
950.854	4070.39
951.16	4043.95
951.465	4044.85
951.77	4072.65
952.075	4042.37
952.38	3992.42
952.685	4022.03
952.99	3958.3
953.294	3930.28
953.599	3888.7
953.904	3909.49
954.209	3866.32
954.513	3876.49
954.818	3823.84
955.122	3837.63
955.426	3822.03
955.731	3776.61
956.035	3831.3
956.339	3750.4
956.643	3774.58
956.948	3744.07
957.252	3682.15
957.556	3664.3
957.86	3673.34
958.163	3669.27
958.467	3656.39
958.771	3632.66
959.075	3613
959.378	3562.38
959.682	3596.73
959.985	3594.24
960.289	3551.98
960.592	3530.29
960.896	3540.91
961.199	3503.62
961.502	3531.87
961.805	3507.46
962.108	3454.13
962.411	3422.95
962.714	3409.61
963.017	3447.35
963.32	3417.98
963.623	3398.77
963.926	3382.04
964.228	3346.34
964.531	3331.65
964.833	3320.8
965.136	3322.61
965.438	3259.56
965.741	3295.04
966.043	3321.03
966.345	3281.93
966.648	3275.15
966.95	3265.89
967.252	3215.27
967.554	3218.43
967.856	3216.62
968.158	3177.53
968.46	3173.69
968.761	3137.3
969.063	3164.65
969.365	3117.42
969.666	3124.88
969.968	3081.03
970.269	3053.01
970.571	3036.06
970.872	3013.47
971.174	3026.57
971.475	3049.62
971.776	3029.74
972.077	3020.25
972.378	2983.41
972.679	2993.58
972.98	2969.17
973.281	2921.04
973.582	2935.95
973.883	2911.77
974.183	2903.19
974.484	2917.88
974.785	2908.61
975.085	2891.21
975.386	2874.26
975.686	2893.7
975.986	2846.24
976.287	2809.63
976.587	2843.3
976.887	2832.23
977.187	2794.26
977.487	2792.91
977.787	2778.9
978.087	2738.9
978.387	2757.43
978.687	2731.21
978.987	2712.46
979.286	2711.78
979.586	2705
979.885	2686.02
980.185	2661.38
980.484	2641.27
980.784	2647.37
981.083	2622.74
981.382	2632.69
981.682	2660.03
981.981	2594.95
982.28	2567.15
982.579	2548.39
982.878	2555.85
983.177	2552.91
983.475	2537.77
983.774	2543.65
984.073	2536.19
984.372	2492.58
984.67	2486.02
984.969	2522.63
985.267	2481.5
985.566	2461.16
985.864	2444.22
986.162	2431.11
986.461	2404.22
986.759	2431.79
987.057	2399.47
987.355	2406.02
987.653	2376.19
987.951	2347.95
988.249	2391.34
988.547	2378.45
988.844	2328.96
989.142	2348.85
989.44	2301.62
989.737	2308.85
990.035	2303.88
990.332	2283.77
990.63	2287.38
990.927	2277.89
991.224	2292.13
991.521	2235.86
991.819	2232.92
992.116	2240.83
992.413	2217.55
992.71	2192.7
993.006	2186.14
993.303	2206.71
993.6	2178.46
993.897	2170.78
994.193	2133.26
994.49	2123.77
994.787	2109.08
995.083	2107.05
995.379	2084.45
995.676	2080.84
995.972	2090.33
996.268	2094.62
996.565	2048.07
996.861	2069.31
997.157	2034.51
997.453	2036.32
997.749	2003.77
998.044	2015.3
998.34	1989.76
998.636	1978.92
998.932	1999.71
999.227	1965.13
999.523	1964.23
999.818	1962.42
1000.114	1951.8
1000.409	1912.7
1000.704	1926.94
1001	1910.44
1001.295	1885.81
1001.59	1900.95
1001.885	1892.37
1002.18	1881.74
1002.475	1860.28
1002.77	1845.14
1003.065	1839.71
1003.359	1841.07
1003.654	1861.63
1003.949	1811.46
1004.243	1822.31
1004.538	1796.77
1004.832	1806.04
1005.127	1802.42
1005.421	1775.98
1005.715	1779.15
1006.009	1757.91
1006.304	1750.67
1006.598	1719.49
1006.892	1728.75
1007.186	1700.05
1007.48	1695.53
1007.773	1707.29
1008.067	1717.68
1008.361	1639.26
1008.655	1656.44
1008.948	1651.92
1009.242	1647.17
1009.535	1662.32
1009.829	1649.89
1010.122	1619.6
1010.415	1604.24
1010.708	1580.28
1011.001	1579.83
1011.295	1587.29
1011.588	1577.35
1011.881	1558.81
1012.173	1542.77
1012.466	1533.28
1012.759	1526.27
1013.052	1533.96
1013.344	1546.39
1013.637	1494.18
1013.93	1509.1
1014.222	1502.09
1014.514	1501.87
1014.807	1484.01
1015.099	1459.16
1015.391	1450.12
1015.683	1455.99
1015.976	1441.3
1016.268	1443.34
1016.56	1466.61
1016.851	1419.38
1017.143	1432.72
1017.435	1405.15
1017.727	1375.54
1018.018	1366.05
1018.31	1380.97
1018.602	1362.44
1018.893	1372.83
1019.185	1349.55
1019.476	1342.1
1019.767	1361.31
1020.058	1321.99
1020.35	1311.59
1020.641	1296.67
1020.932	1286.28
1021.223	1275.66
1021.514	1308.43
1021.804	1258.94
1022.095	1278.6
1022.386	1271.14
1022.677	1276.79
1022.967	1209.22
1023.258	1248.09
1023.548	1202.89
1023.839	1205.38
1024.129	1192.27
1024.419	1207.86
1024.709	1196.11
1025	1174.19
1025.29	1161.99
1025.58	1158.15
1025.87	1156.57
1026.16	1164.93
1026.449	1139.84
1026.739	1156.34
1027.029	1141.2
1027.319	1125.83
1027.608	1140.52
1027.898	1133.97
1028.187	1084.03
1028.477	1103.46
1028.766	1093.97
1029.055	1076.79
1029.344	1068.66
1029.634	1067.08
1029.923	1038.83
1030.212	1054.2
1030.501	1073.63
1030.79	1035.44
1031.078	1033.41
1031.367	1048.09
1031.656	1030.69
1031.945	1004.25
1032.233	1008.77
1032.522	1026.63
1032.81	980.98
1033.099	969.23
1033.387	988.66
1033.675	979.85
1033.963	983.46
1034.251	971.71
1034.54	986.85
1034.828	968.55
1035.116	952.96
1035.403	941.43
1035.691	943.24
1035.979	948.44
1036.267	945.05
1036.554	927.87
1036.842	915.89
1037.129	916.8
1037.417	905.27
1037.704	904.14
1037.992	891.49
1038.279	910.02
1038.566	894.88
1038.853	894.88
1039.14	894.88
