Data from breadboard_black_back_FLMS001491_00077.txt Node
Date: Wed Feb 08 10:50:54 GMT 2017
User: dcchb
Spectrometer: FLMS00149
Trigger mode: 0
Integration Time (sec): 2.000000E-2
Scans to average: 10
Electric dark correction enabled: true
Nonlinearity correction enabled: false
Boxcar width: 0
XAxis mode: Wavelengths
Number of Pixels in Spectrum: 2048
>>>>>Begin Spectral Data<<<<<
341.393	-23.23
341.776	-23.23
342.16	-23.23
342.543	-60.75
342.927	-67.98
343.31	-73.85
343.693	-58.71
344.077	-63.01
344.46	-68.66
344.843	-55.32
345.226	-42.44
345.61	-23.23
345.993	-3.57
346.376	-19.84
346.759	5.01
347.142	28.74
347.525	48.63
347.908	70.1
348.291	71.23
348.674	71.45
349.057	113.49
349.44	143.09
349.823	125.69
350.206	141.06
350.588	190.09
350.971	228.96
351.354	227.38
351.737	241.62
352.119	255.4
352.502	259.24
352.884	269.87
353.267	275.29
353.65	280.71
354.032	330.88
354.414	310.54
354.797	327.04
355.179	335.4
355.562	327.27
355.944	333.14
356.326	348.28
356.709	341.05
357.091	327.27
357.473	356.42
357.855	358.68
358.238	333.82
358.62	372.24
359.002	339.69
359.384	329.07
359.766	329.75
360.148	350.09
360.53	355.74
360.912	351.67
361.294	351.67
361.676	327.49
362.057	343.08
362.439	345.12
362.821	330.2
363.203	333.14
363.584	343.31
363.966	318
364.348	340.82
364.729	329.98
365.111	338.56
365.493	343.31
365.874	343.31
366.256	322.07
366.637	353.03
367.019	333.37
367.4	345.57
367.781	330.43
368.163	370.88
368.544	328.4
368.925	334.72
369.306	339.02
369.688	364.78
370.069	348.96
370.45	340.15
370.831	338.56
371.212	342.86
371.593	360.48
371.974	374.5
372.355	340.6
372.736	350.99
373.117	356.19
373.498	348.96
373.879	353.03
374.26	345.8
374.641	341.28
375.021	342.18
375.402	349.19
375.783	343.31
376.163	381.73
376.544	391.22
376.925	377.66
377.305	381.05
377.686	377.43
378.066	385.57
378.447	371.56
378.827	400.03
379.208	391.22
379.588	373.82
379.968	389.86
380.349	394.61
380.729	390.77
381.109	382.63
381.489	395.51
381.87	402.29
382.25	414.95
382.63	419.69
383.01	407.49
383.39	419.24
383.77	385.12
384.15	418.11
384.53	413.14
384.91	431.44
385.29	407.94
385.67	428.05
386.049	445.23
386.429	448.84
386.809	430.09
387.189	447.71
387.568	445.68
387.948	445.45
388.328	433.93
388.707	451.56
389.087	451.56
389.466	465.34
389.846	466.24
390.225	444.78
390.605	455.17
390.984	481.84
391.363	479.13
391.743	472.8
392.122	485.91
392.501	506.24
392.881	480.03
393.26	492.68
393.639	494.94
394.018	501.05
394.397	516.19
394.776	509.41
395.155	501.72
395.534	501.27
395.913	532.23
396.292	536.75
396.671	536.53
397.05	534.49
397.429	532.46
397.808	550.08
398.186	527.03
398.565	537.2
398.944	549.18
399.323	566.36
399.701	569.74
400.08	569.74
400.458	563.87
400.837	576.52
401.215	582.4
401.594	577.43
401.972	601.38
402.351	576.75
402.729	591.44
403.107	596.86
403.486	612
403.864	611.33
404.242	603.42
404.62	597.99
404.999	641.61
405.377	609.07
405.755	628.27
406.133	633.92
406.511	644.55
406.889	642.29
407.267	637.54
407.645	661.49
408.023	702.62
408.401	687.48
408.779	711.89
409.156	724.32
409.534	723.87
409.912	696.3
410.29	738.78
410.667	751.66
411.045	729.74
411.422	763.19
411.8	741.49
412.178	759.57
412.555	790.08
412.933	787.59
413.31	792.56
413.687	826.69
414.065	802.96
414.442	801.6
414.819	839.79
415.197	832.79
415.574	859.45
415.951	870.08
416.328	859.23
416.705	859.23
417.082	867.36
417.46	871.66
417.837	880.02
418.214	859.68
418.591	895.16
418.967	914.82
419.344	912.33
419.721	928.15
420.098	935.16
420.475	959.79
420.852	968.6
421.228	960.24
421.605	971.09
421.982	964.31
422.358	990.07
422.735	999.11
423.111	1011.77
423.488	1040.24
423.864	1003.18
424.241	1045.66
424.617	1050.86
424.994	1051.77
425.37	1066
425.746	1063.07
426.123	1083.63
426.499	1080.01
426.875	1090.86
427.251	1130.63
427.627	1148.49
428.003	1166.34
428.379	1151.42
428.756	1158.2
429.132	1166.11
429.507	1193.23
429.883	1239.11
430.259	1257.41
430.635	1241.37
431.011	1254.02
431.387	1289.73
431.763	1314.13
432.138	1319.1
432.514	1335.37
432.89	1356.84
433.265	1338.31
433.641	1377.86
434.016	1389.61
434.392	1401.14
434.767	1466.9
435.143	1441.36
435.518	1442.49
435.894	1470.74
436.269	1498.08
436.644	1489.95
437.02	1501.47
437.395	1510.06
437.77	1541.24
438.145	1582.6
438.52	1575.37
438.895	1583.28
439.271	1603.39
439.646	1628.02
440.021	1654.01
440.395	1653.11
440.77	1658.98
441.145	1676.38
441.52	1699.43
441.895	1707.34
442.27	1702.6
442.645	1717.74
443.019	1759.32
443.394	1763.61
443.769	1797.06
444.143	1764.97
444.518	1790.73
444.892	1829.82
445.267	1809.94
445.641	1819.2
446.016	1841.8
446.39	1838.19
446.764	1874.34
447.139	1851.52
447.513	1849.71
447.887	1935.36
448.262	1905.98
448.636	1909.37
449.01	1952.53
449.384	1937.17
449.758	1968.35
450.132	2005.64
450.506	2006.54
450.88	2030.72
451.254	2007
451.628	2069.37
452.002	2040.67
452.376	2129.25
452.75	2104.62
453.123	2151.4
453.497	2147.78
453.871	2197.27
454.244	2232.75
454.618	2243.6
454.992	2264.62
455.365	2221.9
455.739	2306.42
456.112	2375.35
456.486	2407.21
456.859	2404.72
457.232	2427.32
457.606	2440.88
457.979	2460.09
458.352	2503.93
458.725	2551.84
459.099	2564.72
459.472	2624.83
459.845	2651.5
460.218	2689.92
460.591	2724.94
460.964	2690.82
461.337	2751.83
461.71	2828.67
462.083	2867.09
462.456	2896.92
462.829	2879.74
463.201	2953.86
463.574	2937.59
463.947	2967.42
464.32	3046.06
464.692	3121.99
465.065	3114.08
465.438	3111.6
465.81	3200.86
466.183	3214.42
466.555	3270.92
466.928	3294.87
467.3	3317.92
467.672	3403.34
468.045	3461.65
468.417	3501.65
468.789	3465.26
469.161	3540.51
469.534	3609.66
469.906	3663.67
470.278	3711.36
470.65	3785.48
471.022	3794.52
471.394	3868.19
471.766	3931.01
472.138	3962.65
472.51	4051.24
472.882	4103.21
473.253	4143.66
473.625	4184.11
473.997	4280.16
474.369	4304.34
474.74	4325.8
475.112	4478.79
475.484	4538.91
475.855	4614.84
476.227	4637.89
476.598	4756.53
476.97	4819.12
477.341	4874.94
477.713	4980.48
478.084	5016.63
478.455	5176.63
478.827	5210.07
479.198	5316.51
479.569	5328.04
479.94	5502.04
480.311	5579.78
480.682	5651.65
481.053	5776.39
481.424	5851.64
481.795	5997.4
482.166	6041.01
482.537	6131.86
482.908	6236.26
483.279	6291.85
483.65	6405.98
484.021	6531.4
484.391	6624.27
484.762	6648.91
485.133	6758.06
485.503	6813.87
485.874	6986.53
486.244	7035.56
486.615	7156.01
486.985	7251.15
487.356	7406.4
487.726	7439.62
488.097	7632.61
488.467	7676.22
488.837	7869.89
489.207	7874.86
489.578	8031.47
489.948	8096.78
490.318	8189.66
490.688	8258.13
491.058	8402.99
491.428	8514.85
491.798	8577.9
492.168	8764.33
492.538	8723.43
492.908	8892.46
493.278	9011.78
493.648	8949.41
494.017	9177.88
494.387	9218.11
494.757	9371.32
495.126	9444.77
495.496	9512.11
495.866	9499.91
496.235	9656.06
496.605	9733.8
496.974	9740.13
497.344	9923.62
497.713	10011.76
498.082	10046.11
498.452	10126.78
498.821	10175.14
499.19	10280.45
499.559	10343.73
499.928	10461.69
500.298	10526.32
500.667	10557.05
501.036	10578.97
501.405	10728.8
501.774	10788.23
502.143	10913.65
502.512	10891.06
502.88	11055.12
503.249	11017.61
503.618	11049.24
503.987	11234.1
504.356	11244.49
504.724	11300.54
505.093	11381.89
505.462	11456.24
505.83	11520.42
506.199	11632.96
506.567	11764.25
506.936	11816.23
507.304	11896.68
507.672	11941.65
508.041	12080.4
508.409	12138.25
508.777	12197.01
509.145	12274.97
509.514	12449.66
509.882	12516.32
510.25	12533.05
510.618	12673.83
510.986	12684.91
511.354	12893.94
511.722	13009.19
512.09	13087.83
512.458	13095.97
512.826	13194.05
513.193	13334.16
513.561	13367.83
513.929	13496.64
514.297	13550.87
514.664	13726.24
515.032	13726.69
515.4	13879.45
515.767	13912.44
516.135	14067.02
516.502	14004.65
516.869	14226.79
517.237	14287.12
517.604	14328.03
517.972	14484.18
518.339	14565.76
518.706	14637.62
519.073	14695.48
519.44	14861.12
519.808	14964.85
520.175	14950.16
520.542	15146.08
520.909	15379.75
521.276	15304.27
521.643	15575.23
522.009	15600.54
522.376	15775.9
522.743	15912.62
523.11	16017.02
523.477	16261.08
523.843	16422.89
524.21	16440.97
524.577	16638.47
524.943	16711.47
525.31	16844.12
525.676	16926.15
526.043	17039.14
526.409	17098.8
526.776	17317.78
527.142	17389.42
527.508	17504.67
527.874	17711.89
528.241	17732.46
528.607	17742.4
528.973	18029.62
529.339	17988.27
529.705	18196.63
530.071	18371.99
530.437	18389.62
530.803	18472.33
531.169	18627.35
531.535	18607.91
531.901	18808.36
532.267	18914.12
532.632	18999.99
532.998	19028.24
533.364	19079.09
533.73	19213.55
534.095	19417.16
534.461	19421
534.826	19498.29
535.192	19668.9
535.557	19829.8
535.923	19652.18
536.288	19877.26
536.653	20033.64
537.019	19945.96
537.384	20085.16
537.749	20137.14
538.114	20262.56
538.479	20367.64
538.845	20344.59
539.21	20512.27
539.575	20541.2
539.94	20570.8
540.305	20707.29
540.67	20804.92
541.034	20821.64
541.399	20895.99
541.764	20977.12
542.129	21072.48
542.494	21182.76
542.858	21251.69
543.223	21293.72
543.587	21443.09
543.952	21380.27
544.316	21491.68
544.681	21541.85
545.045	21645.35
545.41	21717.66
545.774	21848.28
546.138	21831.33
546.503	21903.42
546.867	21906.13
547.231	22166.24
547.595	22169.63
547.959	22331.21
548.324	22391.77
548.688	22487.13
549.052	22429.96
549.416	22496.63
549.779	22566.45
550.143	22648.26
550.507	22772.78
550.871	22842.38
551.235	22902.04
551.599	23099.32
551.962	23196.27
552.326	23347
552.689	23290.28
553.053	23260.9
553.417	23369.15
553.78	23704.05
554.143	23419.54
554.507	23602.36
554.87	23721.68
555.234	24007.77
555.597	23920.09
555.96	24080.77
556.323	24163.7
556.686	24209.58
557.05	24443.69
557.413	24443.02
557.776	24506.52
558.139	24743.12
558.502	24684.37
558.865	24676.46
559.228	24941.76
559.59	25014.98
559.953	25121.42
560.316	25483.67
560.679	25441.63
561.041	25618.13
561.404	25637.11
561.767	25700.16
562.129	25704.9
562.492	25967.95
562.854	25980.6
563.217	26113.25
563.579	26166.36
563.941	26398.9
564.304	26411.78
564.666	26667.36
565.028	26696.97
565.39	26875.49
565.753	26891.76
566.115	27078.2
566.477	27174.24
566.839	27161.14
567.201	27456.04
567.563	27481.35
567.925	27591.18
568.287	27623.95
568.648	27649.71
569.01	27858.97
569.372	28011.06
569.734	27990.94
570.095	28206.08
570.457	28301.45
570.819	28317.49
571.18	28293.08
571.542	28449.69
571.903	28466.19
572.265	28734.2
572.626	28764.94
572.987	28791.15
573.349	28833.41
573.71	28973.29
574.071	29049.67
574.432	29206.73
574.794	29374.41
575.155	29287.18
575.516	29286.05
575.877	29337.12
576.238	29559.49
576.599	29621.41
576.96	29615.08
577.32	29631.81
577.681	29618.02
578.042	29806.49
578.403	29825.7
578.763	29926.49
579.124	29956.32
579.485	30032.93
579.845	30101.62
580.206	30057.78
580.566	30088.74
580.927	30114.73
581.287	30295.29
581.648	30102.53
582.008	30323.09
582.368	30200.6
582.728	30301.62
583.089	30236.54
583.449	30244.22
583.809	30256.87
584.169	30279.02
584.529	30347.94
584.889	30659.35
585.249	30295.97
585.609	30353.14
585.969	30492.8
586.329	30452.35
586.688	30420.49
587.048	30495.96
587.408	30385.23
587.768	30511.33
588.127	30447.15
588.487	30382.07
588.846	30606.47
589.206	30456.64
589.565	30370.32
589.925	30599.69
590.284	30370.32
590.643	30581.84
591.003	30572.8
591.362	30621.61
591.721	30641.27
592.08	30602.4
592.44	30619.8
592.799	30729.18
593.158	30523.99
593.517	30622.97
593.876	30712.46
594.235	30644.89
594.593	30596.53
594.952	30802.62
595.311	30715.62
595.67	30720.82
596.029	30817.09
596.387	30870.42
596.746	31076.74
597.104	30856.41
597.463	30817.09
597.822	30969.4
598.18	30840.14
598.538	30901.15
598.897	31050.53
599.255	30846.46
599.613	31223.63
599.972	31083.52
600.33	31050.75
600.688	31025.67
601.046	31108.83
601.404	31220.24
601.762	31188.15
602.12	31370.52
602.478	31353.34
602.836	31389.05
603.194	31110.18
603.552	31302.95
603.91	31157.87
604.268	31398.54
604.625	31207.81
604.983	31382.95
605.341	31362.16
605.698	31501.59
606.056	31521.7
606.413	31479.67
606.771	31550.4
607.128	31617.52
607.485	31508.82
607.843	31498.65
608.2	31672.66
608.557	31861.13
608.914	32004.4
609.272	31895.47
609.629	31997.85
609.986	31887.34
610.343	31874.46
610.7	32029.48
611.057	32059.09
611.414	32018.64
611.771	32059.76
612.127	32196.03
612.484	32133.43
612.841	32312.64
613.198	32200.33
613.554	32067.22
613.911	32437.83
614.267	32290.49
614.624	32339.76
614.98	32320.77
615.337	32514.44
615.693	32549.24
616.05	32414.33
616.406	32620.65
616.762	32502.46
617.118	32521.9
617.475	32476.48
617.831	32634.89
618.187	32618.85
618.543	32699.52
618.899	32852.29
619.255	32879.86
619.611	32708.11
619.967	32837.82
620.323	32959.4
620.678	32727.32
621.034	32805.96
621.39	32655.45
621.746	32661.1
622.101	33109.23
622.457	32842.34
622.812	32933.64
623.168	33063.13
623.523	33001.21
623.879	33096.8
624.234	32887.54
624.589	33019.74
624.945	32883.92
625.3	33057.03
625.655	32953.53
626.01	32923.02
626.365	32985.39
626.72	32972.51
627.075	32939.74
627.43	32887.99
627.785	32838.73
628.14	32876.69
628.495	32929.8
628.85	32783.81
629.205	32778.84
629.559	32964.15
629.914	32697.71
630.269	32794.66
630.623	32769.12
630.978	32651.16
631.332	32846.18
631.687	32784.04
632.041	32636.02
632.396	32823.81
632.75	32686.41
633.104	32835.56
633.459	32531.62
633.813	32444.39
634.167	32618.85
634.521	32535.01
634.875	32482.58
635.229	32496.36
635.583	32308.57
635.937	32193.09
636.291	32248.69
636.645	32306.09
636.999	32109.03
637.352	32174.79
637.706	32122.14
638.06	32273.77
638.413	32169.14
638.767	32152.19
639.121	32180.21
639.474	31998.07
639.828	31888.92
640.181	32125.75
640.534	31878.3
640.888	31780.45
641.241	31601.92
641.594	31671.53
641.947	31921.01
642.301	31754.24
642.654	31707.68
643.007	31754.91
643.36	31652.32
643.713	31613.22
644.066	31671.75
644.419	31363.74
644.771	31374.81
645.124	31145.89
645.477	31066.57
645.83	30772.11
646.182	30556.98
646.535	30513.59
646.888	30599.24
647.24	30280.83
647.593	30524.89
647.945	30377.55
648.298	30236.31
648.65	30223.2
649.002	30179.81
649.355	30350.88
649.707	30202.86
650.059	30376.87
650.411	30756.97
650.763	30815.5
651.115	31038.77
651.467	30797.2
651.819	30952.22
652.171	30786.13
652.523	30744.54
652.875	30734.15
653.227	30586.81
653.578	30720.59
653.93	30747.03
654.282	30617.09
654.633	30486.02
654.985	30585.68
655.337	30583.42
655.688	30620.71
656.039	30666.35
656.391	30391.56
656.742	30405.12
657.094	30586.81
657.445	30534.61
657.796	30453.25
658.147	30390.2
658.498	30425.91
658.849	30303.88
659.2	30273.82
659.551	30331
659.902	30446.02
660.253	30282.64
660.604	30337.32
660.955	30211.9
661.306	30374.61
661.656	30219.81
662.007	30248.51
662.358	30233.15
662.708	30239.93
663.059	30160.61
663.409	30018.91
663.76	30199.47
664.11	30171.45
664.461	30301.39
664.811	30096.65
665.161	30126.71
665.511	30168.29
665.862	30146.82
666.212	30241.51
666.562	30137.1
666.912	30069.76
667.262	29934.85
667.612	29974.85
667.962	30079.25
668.312	29969.2
668.662	30056.88
669.011	29962.19
669.361	29967.84
669.711	30024.79
670.06	29925.81
670.41	29963.55
670.76	29797.22
671.109	29993.15
671.459	29928.29
671.808	29698.92
672.157	29991.8
672.507	29709.54
672.856	29649.21
673.205	29732.59
673.554	29757.68
673.904	29652.37
674.253	29740.96
674.602	29715.42
674.951	29207.41
675.3	29233.4
675.649	29557.01
675.998	29599.49
676.346	29544.12
676.695	29582.32
677.044	29244.7
677.393	29492.37
677.741	29524.24
678.09	29525.14
678.438	29334.41
678.787	29352.26
679.135	29444.01
679.484	29164.02
679.832	29272.72
680.181	29182.33
680.529	29168.31
680.877	29159.05
681.225	29128.77
681.573	29194.08
681.922	29046.51
682.27	29005.83
682.618	28880.19
682.966	28992.5
683.314	28924.48
683.661	28932.16
684.009	28685.84
684.357	28612.4
684.705	28701.89
685.053	28681.32
685.4	28604.49
685.748	28504.6
686.095	28518.61
686.443	28246.53
686.79	28208.57
687.138	28333.99
687.485	28330.37
687.832	28241.79
688.18	28292.63
688.527	28027.33
688.874	28102.81
689.221	28059.64
689.568	27859.87
689.915	27926.31
690.262	27891.29
690.609	27763.83
690.956	27736.49
691.303	27730.61
691.65	27505.76
691.997	27462.82
692.344	27299.21
692.69	27445.87
693.037	27235.48
693.383	27229.61
693.73	27228.48
694.077	27155.71
694.423	27009.28
694.769	26890.18
695.116	26946.23
695.462	26772.67
695.808	26742.84
696.155	26698.1
696.501	26560.7
696.847	26591.89
697.193	26472.57
697.539	26481.15
697.885	26235.74
698.231	26143.08
698.577	26203.87
698.923	26190.99
699.269	26042.07
699.614	25971.79
699.96	25984.9
700.306	26000.71
700.651	25744.68
700.997	25694.96
701.342	25722.08
701.688	25701.06
702.033	25506.72
702.379	25493.16
702.724	25461.52
703.069	25439.83
703.415	25218.59
703.76	25196.44
704.105	25175.65
704.45	25172.04
704.795	24970.01
705.14	24857.92
705.485	24868.77
705.83	24883.68
706.175	24791.25
706.52	24735.89
706.865	24680.98
707.209	24621.77
707.554	24596.68
707.899	24533.18
708.243	24355.11
708.588	24380.42
708.932	24203.25
709.277	24251.61
709.621	24256.13
709.966	24104.72
710.31	24225.17
710.654	24010.94
710.998	23946.98
711.342	24053.65
711.687	23924.84
712.031	23756.48
712.375	23641.23
712.719	23748.34
713.063	23686.88
713.407	23848.23
713.75	23597.16
714.094	23572.53
714.438	23486.88
714.782	23510.61
715.125	23281.46
715.469	23350.61
715.812	23239.88
716.156	23147.46
716.499	23202.37
716.843	23268.81
717.186	23103.84
717.53	23120.56
717.873	23097.29
718.216	23013.22
718.559	22961.02
718.902	22872.66
719.246	22919.21
719.589	22812.1
719.932	22691.42
720.275	22770.97
720.617	22577.3
720.96	22607.13
721.303	22786.79
721.646	22645.1
721.989	22467.7
722.331	22507.93
722.674	22514.03
723.016	22394.03
723.359	22429.96
723.701	22409.85
724.044	22334.14
724.386	22175.05
724.729	22165.79
725.071	22093.25
725.413	22191.1
725.755	22135.51
726.097	22036.75
726.439	22056.19
726.782	21911.56
727.124	22168.05
727.465	21955.4
727.807	21899.81
728.149	21721.96
728.491	21787.04
728.833	21835.63
729.175	21788.62
729.516	21774.39
729.858	21625.91
730.199	21781.84
730.541	21652.58
730.882	21634.28
731.224	21634.73
731.565	21372.59
731.906	21486.26
732.248	21532.36
732.589	21420.27
732.93	21397.45
733.271	21410.33
733.612	21448.74
733.953	21396.09
734.294	21291.69
734.635	21237.9
734.976	21318.58
735.317	21168.07
735.658	21184.8
735.999	21145.25
736.339	21100.73
736.68	21161.07
737.021	21035.65
737.361	20824.58
737.702	20901.41
738.042	20843.79
738.383	20897.12
738.723	20859.61
739.063	20834.3
739.404	20796.33
739.744	20833.39
740.084	20705.03
740.424	20653.06
740.764	20686.73
741.104	20666.84
741.444	20528.54
741.784	20466.4
742.124	20594.76
742.464	20506.62
742.804	20427.53
743.143	20398.15
743.483	20417.58
743.823	20332.39
744.162	20343.91
744.502	20389.11
744.841	20220.75
745.181	20391.37
745.52	20240.87
745.86	20207.42
746.199	20209.68
746.538	20119.97
746.877	20186.86
747.216	20232.96
747.556	19975.34
747.895	20052.62
748.234	19912.74
748.573	19944.83
748.911	19881.55
749.25	19947.54
749.589	19813.76
749.928	19791.16
750.267	19804.49
750.605	19687.89
750.944	19760.2
751.283	19597.27
751.621	19614.67
751.96	19534.67
752.298	19578.51
752.636	19530.6
752.975	19461.9
753.313	19356.82
753.651	19412.19
753.989	19252.42
754.327	19214.45
754.666	19119.99
755.004	19225.53
755.342	19282.02
755.679	19105.08
756.017	19110.5
756.355	19132.19
756.693	18905.08
757.031	19032.08
757.368	18896.04
757.706	18915.7
758.044	18752.54
758.381	18789.15
758.719	18712.32
759.056	18672.32
759.394	18766.78
759.731	18587.12
760.068	18550.29
760.405	18523.62
760.743	18404.08
761.08	18447.69
761.417	18236.4
761.754	18214.93
762.091	18201.15
762.428	18205.21
762.765	18099
763.102	18144.88
763.438	17950.3
763.775	17887.93
764.112	17902.4
764.449	18003.18
764.785	17806.58
765.122	17745.11
765.458	17649.3
765.795	17623.08
766.131	17550.54
766.467	17543.54
766.804	17381.73
767.14	17348.96
767.476	17369.76
767.812	17387.83
768.148	17310.55
768.485	17294.28
768.821	17071.23
769.157	17052.25
769.492	17033.27
769.828	16905.59
770.164	16860.16
770.5	16809.09
770.836	16831.46
771.171	16676.89
771.507	16630.57
771.842	16582.43
772.178	16490.68
772.513	16483.45
772.849	16395.77
773.184	16389.89
773.519	16377.01
773.855	16272.38
774.19	16295.89
774.525	16175.66
774.86	16104.48
775.195	16070.58
775.53	16081.65
775.865	15960.98
776.2	15802.11
776.535	15756.46
776.87	15743.36
777.205	15757.37
777.539	15645.96
777.874	15673.98
778.209	15486.41
778.543	15540.42
778.878	15311.05
779.212	15383.82
779.547	15190.38
779.881	15215.01
780.215	15211.62
780.55	15211.17
780.884	15146.31
781.218	15110.83
781.552	15126.2
781.886	14895.92
782.22	14905.41
782.554	14795.59
782.888	14799.88
783.222	14578.19
783.556	14646.21
783.889	14594.01
784.223	14447.57
784.557	14441.92
784.89	14474.24
785.224	14399.66
785.557	14312.43
785.891	14293
786.224	14261.59
786.558	14237.63
786.891	14082.38
787.224	14078.32
787.557	13993.57
787.891	14016.62
788.224	13991.76
788.557	13891.88
788.89	13883.75
789.223	13877.87
789.556	13791.77
789.888	13759.68
790.221	13695.5
790.554	13599.46
790.887	13603.75
791.219	13575.73
791.552	13496.41
791.884	13497.77
792.217	13428.16
792.549	13369.41
792.882	13265.23
793.214	13221.62
793.546	13275.63
793.879	13180.26
794.211	13152.01
794.543	13137.78
794.875	13001.51
795.207	13041.96
795.539	12989.53
795.871	12959.02
796.203	12862.76
796.535	12799.93
796.867	12774.4
797.198	12760.84
797.53	12773.49
797.862	12651.91
798.193	12601.97
798.525	12591.12
798.856	12589.77
799.188	12528.53
799.519	12442.65
799.85	12410.34
800.182	12377.12
800.513	12435.65
800.844	12208.08
801.175	12311.36
801.506	12315.42
801.837	12324.01
802.168	12237.46
802.499	12126.73
802.83	12113.4
803.161	12073.62
803.491	12106.84
803.822	12050.35
804.153	11960.41
804.483	11856.45
804.814	11869.56
805.145	11853.97
805.475	11930.12
805.805	11766.96
806.136	11769.22
806.466	11799.51
806.796	11686.51
807.126	11613.07
807.457	11672.28
807.787	11597.48
808.117	11607.87
808.447	11544.6
808.777	11533.98
809.107	11520.64
809.436	11420.76
809.766	11412.62
810.096	11409.23
810.426	11374.21
810.755	11333.76
811.085	11285.17
811.414	11317.26
811.744	11203.59
812.073	11211.72
812.403	11205.17
812.732	11151.61
813.061	11163.36
813.39	11062.8
813.719	11049.47
814.049	11126.3
814.378	11099.86
814.707	10990.04
815.036	11008.79
815.365	11014.44
815.693	10893.32
816.022	10843.15
816.351	10849.7
816.68	10771.96
817.008	10808.35
817.337	10685.86
817.665	10660.78
817.994	10714.79
818.322	10678.63
818.651	10597.05
818.979	10553.66
819.307	10685.41
819.636	10608.35
819.964	10508.47
820.292	10542.36
820.62	10555.47
820.948	10543.72
821.276	10545.08
821.604	10506.21
821.932	10530.39
822.259	10607
822.587	10557.28
822.915	10524.29
823.243	10492.42
823.57	10444.51
823.898	10526.77
824.225	10465.98
824.553	10483.83
824.88	10455.13
825.207	10516.6
825.535	10505.3
825.862	10499.43
826.189	10531.74
826.516	10489.94
826.843	10526.55
827.17	10541.01
827.497	10452.65
827.824	10527
828.151	10513.44
828.478	10456.49
828.805	10486.32
829.131	10448.13
829.458	10500.78
829.785	10388.7
830.111	10472.99
830.438	10479.31
830.764	10454.91
831.09	10483.38
831.417	10340.56
831.743	10434.8
832.069	10425.53
832.395	10433.89
832.722	10435.93
833.048	10414.91
833.374	10443.61
833.7	10390.5
834.026	10351.18
834.351	10374.46
834.677	10254.69
835.003	10301.01
835.329	10339.88
835.654	10328.81
835.98	10262.15
836.306	10366.32
836.631	10290.62
836.956	10332.2
837.282	10274.8
837.607	10202.71
837.932	10218.98
838.258	10160
838.583	10185.31
838.908	10090.17
839.233	10211.53
839.558	10095.6
839.883	10098.76
840.208	10079.33
840.533	10101.92
840.858	10046.78
841.182	10001.36
841.507	10103.05
841.832	9946.9
842.156	9941.25
842.481	9971.31
842.805	9852.66
843.13	9891.53
843.454	9799.11
843.778	9871.87
844.103	9859.44
844.427	9820.8
844.751	9870.52
845.075	9776.96
845.399	9760.92
845.723	9664.87
846.047	9686.79
846.371	9583.75
846.695	9587.59
847.019	9514.59
847.343	9530.64
847.666	9523.18
847.99	9500.58
848.313	9433.01
848.637	9348.95
848.96	9350.08
849.284	9293.58
849.607	9293.81
849.931	9240.48
850.254	9140.82
850.577	9134.49
850.9	9070.99
851.223	9083.87
851.546	9057.21
851.869	8948.28
852.192	9010.88
852.515	8953.03
852.838	8943.76
853.161	8892.01
853.483	8842.07
853.806	8791.45
854.129	8811.79
854.451	8794.84
854.774	8788.51
855.096	8712.36
855.419	8696.99
855.741	8638.91
856.063	8669.87
856.385	8536.32
856.708	8587.16
857.03	8466.71
857.352	8489.99
857.674	8503.32
857.996	8525.24
858.318	8415.87
858.64	8469.2
858.961	8362.31
859.283	8380.84
859.605	8333.83
859.926	8385.58
860.248	8322.31
860.57	8292.25
860.891	8336.32
861.212	8312.14
861.534	8238.47
861.855	8236.66
862.176	8214.29
862.498	8193.73
862.819	8131.58
863.14	8130.22
863.461	8174.74
863.782	8072.15
864.103	8148.53
864.424	8133.16
864.745	8103.78
865.065	8064.01
865.386	8099.94
865.707	8038.7
866.027	8014.75
866.348	8044.12
866.668	7992.15
866.989	7970.91
867.309	8012.04
867.63	7934.97
867.95	7924.58
868.27	7875.99
868.59	7918.7
868.91	7965.03
869.23	7951.92
869.55	7848.2
869.87	7882.32
870.19	7828.31
870.51	7829.67
870.83	7811.81
871.15	7811.81
871.469	7749.67
871.789	7851.81
872.109	7782.21
872.428	7803.68
872.748	7791.25
873.067	7792.61
873.386	7803.68
873.706	7792.15
874.025	7761.42
874.344	7662.44
874.663	7729.56
874.982	7734.53
875.301	7703.12
875.62	7592.39
875.939	7658.6
876.258	7610.46
876.577	7602.78
876.896	7599.16
877.214	7574.53
877.533	7581.54
877.852	7621.31
878.17	7556.45
878.489	7596
878.807	7581.76
879.125	7546.06
879.444	7550.13
879.762	7494.31
880.08	7530.01
880.398	7454.54
880.716	7446.85
881.034	7456.8
881.352	7465.61
881.67	7449.34
881.988	7460.64
882.306	7397.14
882.624	7397.81
882.941	7327.08
883.259	7332.5
883.577	7283.24
883.894	7331.83
884.212	7335.89
884.529	7311.26
884.846	7299.06
885.164	7308.55
885.481	7242.11
885.798	7183.13
886.115	7191.04
886.432	7158.27
886.75	7160.08
887.067	7154.2
887.383	7085.05
887.7	7115.11
888.017	7055.9
888.334	7100.42
888.651	7108.56
888.967	7071.95
889.284	7032.17
889.6	7016.58
889.917	6959.86
890.233	6975.9
890.55	6927.77
890.866	6978.39
891.182	6899.3
891.498	6882.35
891.815	6911.05
892.131	6869.47
892.447	6873.76
892.763	6822.91
893.079	6753.99
893.395	6740.66
893.71	6782.91
894.026	6800.77
894.342	6697.49
894.657	6703.59
894.973	6671.96
895.289	6685.29
895.604	6643.48
895.92	6605.97
896.235	6530.27
896.55	6604.16
896.865	6595.35
897.181	6531.4
897.496	6569.36
897.811	6528.46
898.126	6477.16
898.441	6503.37
898.756	6451.17
899.071	6412.76
899.386	6400.1
899.7	6380.67
900.015	6328.01
900.33	6282.36
900.644	6273.32
900.959	6259.76
901.273	6243.49
901.588	6240.33
901.902	6227.9
902.216	6259.54
902.531	6167.34
902.845	6166.43
903.159	6079.66
903.473	6090.5
903.787	6092.54
904.101	6084.85
904.415	6065.19
904.729	6012.31
905.042	6029.04
905.356	5977.51
905.67	5995.59
905.984	5956.95
906.297	5927.12
906.611	5884.86
906.924	5899.1
907.237	5837.18
907.551	5855.26
907.864	5804.86
908.177	5780
908.491	5821.58
908.804	5748.59
909.117	5759.89
909.43	5716.95
909.743	5683.73
910.056	5639.44
910.368	5659.33
910.681	5612.1
910.994	5574.13
911.307	5609.61
911.619	5559.67
911.932	5582.72
912.244	5514.25
912.557	5524.64
912.869	5469.73
913.181	5462.5
913.494	5456.85
913.806	5392.22
914.118	5438.77
914.43	5371.2
914.742	5344.08
915.054	5279
915.366	5329.17
915.678	5319.22
915.99	5275.84
916.302	5194.48
916.613	5183.18
916.925	5188.61
917.236	5151.09
917.548	5152
917.859	5152.9
918.171	5085.33
918.482	5082.17
918.794	5098.44
919.105	5086.24
919.416	5025.45
919.727	4996.75
920.038	4975.73
920.349	4966.01
920.66	4927.37
920.971	4982.96
921.282	4923.3
921.593	4951.78
921.903	4891.67
922.214	4857.54
922.525	4848.05
922.835	4817.77
923.146	4755.4
923.456	4810.99
923.767	4716.08
924.077	4783.87
924.387	4723.76
924.697	4698.45
925.008	4705
925.318	4640.37
925.628	4668.85
925.938	4656.87
926.248	4643.54
926.558	4576.42
926.867	4537.32
927.177	4560.37
927.487	4563.09
927.796	4503.65
928.106	4546.82
928.416	4426.82
928.725	4504.1
929.034	4422.98
929.344	4437.44
929.653	4437.89
929.962	4371.68
930.271	4367.16
930.581	4358.12
930.89	4345.01
931.199	4318.8
931.508	4295.3
931.817	4306.82
932.125	4319.48
932.434	4260.27
932.743	4218.24
933.051	4233.38
933.36	4241.29
933.669	4169.88
933.977	4143.89
934.286	4137.79
934.594	4140.5
934.902	4102.76
935.21	4093.95
935.519	4065.7
935.827	4104.12
936.135	4008.98
936.443	4000.84
936.751	4013.95
937.059	4003.1
937.367	4016.21
937.674	3964.01
937.982	3962.2
938.29	3884.91
938.597	3900.96
938.905	3893.73
939.213	3881.97
939.52	3898.92
939.827	3874.29
940.135	3839.72
940.442	3804.91
940.749	3812.6
941.056	3784.58
941.363	3770.56
941.67	3719.94
941.977	3726.27
942.284	3749.55
942.591	3691.92
942.898	3674.3
943.205	3655.54
943.511	3684.92
943.818	3666.16
944.125	3679.72
944.431	3623
944.738	3580.06
945.044	3567.41
945.35	3585.48
945.657	3533.51
945.963	3614.86
946.269	3512.72
946.575	3504.81
946.881	3476.11
947.187	3507.97
947.493	3484.24
947.799	3427.52
948.105	3472.27
948.41	3441.53
948.716	3432.49
949.022	3397.47
949.327	3413.96
949.633	3354.3
949.938	3348.88
950.244	3388.88
950.549	3343.46
950.854	3327.86
951.16	3319.5
951.465	3340.97
951.77	3283.57
952.075	3236.79
952.38	3233.18
952.685	3240.86
952.99	3235.44
953.294	3233.4
953.599	3204.7
953.904	3203.12
954.209	3202.67
954.513	3177.36
954.818	3168.55
955.122	3123.12
955.426	3126.51
955.731	3109.11
956.035	3131.03
956.339	3093.52
956.643	3091.94
956.948	3079.28
957.252	3042.9
957.556	3046.29
957.86	3039.96
958.163	3043.13
958.467	3008.55
958.771	2962.45
959.075	2987.08
959.378	2992.96
959.682	2974.2
959.985	2918.84
960.289	2919.97
960.592	2898.5
960.896	2904.6
961.199	2845.17
961.502	2873.19
961.805	2842.23
962.108	2872.28
962.411	2842
962.714	2802.23
963.017	2757.71
963.32	2826.41
963.623	2817.6
963.926	2776.24
964.228	2746.86
964.531	2736.47
964.833	2753.42
965.136	2765.62
965.438	2761.55
965.741	2707.09
966.043	2716.36
966.345	2745.51
966.648	2682.23
966.95	2696.92
967.252	2653.98
967.554	2635
967.856	2627.32
968.158	2622.57
968.46	2630.26
968.761	2614.44
969.063	2601.78
969.365	2609.24
969.666	2576.7
969.968	2532.86
970.269	2536.7
970.571	2522.69
970.872	2561.1
971.174	2544.16
971.475	2481.33
971.776	2529.24
972.077	2485.4
972.378	2453.31
972.679	2439.53
972.98	2469.13
973.281	2458.96
973.582	2402.92
973.883	2437.49
974.183	2416.25
974.484	2427.78
974.785	2408.57
975.085	2391.39
975.386	2413.09
975.686	2365.4
975.986	2355.23
976.287	2343.03
976.587	2285.18
976.887	2340.32
977.187	2316.37
977.487	2346.65
977.787	2279.76
978.087	2279.3
978.387	2297.84
978.687	2246.54
978.987	2219.87
979.286	2236.37
979.586	2274.56
979.885	2231.85
980.185	2189.59
980.484	2236.59
980.784	2198.85
981.083	2175.13
981.382	2197.27
981.682	2184.17
981.981	2172.64
982.28	2172.64
982.579	2125.41
982.878	2152.53
983.177	2137.39
983.475	2133.55
983.774	2136.71
984.073	2081.57
984.372	2082.47
984.67	2098.29
984.969	2088.8
985.267	2032.08
985.566	2076.82
985.864	2070.27
986.162	2048.58
986.461	2054.23
986.759	2043.83
987.057	2017.39
987.355	2015.58
987.653	1991.63
987.951	2041.34
988.249	1995.47
988.547	1996.83
988.844	2006.32
989.142	1978.97
989.44	1946.21
989.737	1936.49
990.035	1940.56
990.332	1949.6
990.63	1946.21
990.927	1921.57
991.224	1883.16
991.521	1911.63
991.819	1862.59
992.116	1891.52
992.413	1870.95
992.71	1833.21
993.006	1839.32
993.303	1849.49
993.6	1849.71
993.897	1869.37
994.193	1789.83
994.49	1781.46
994.787	1800.67
995.083	1799.32
995.379	1792.54
995.676	1786.21
995.972	1795.02
996.268	1754.12
996.565	1776.49
996.861	1752.76
997.157	1709.38
997.453	1743.95
997.749	1699.66
998.044	1720.22
998.34	1696.72
998.636	1707.57
998.932	1691.07
999.227	1684.74
999.523	1686.33
999.818	1662.37
1000.114	1622.15
1000.409	1658.3
1000.704	1650.39
1001	1661.24
1001.295	1625.54
1001.59	1607.01
1001.885	1618.53
1002.18	1610.17
1002.475	1598.19
1002.77	1608.81
1003.065	1570.62
1003.359	1568.81
1003.654	1567.68
1003.949	1565.42
1004.243	1545.31
1004.538	1558.19
1004.832	1553.45
1005.127	1529.49
1005.421	1539.89
1005.715	1497.4
1006.009	1477.74
1006.304	1519.1
1006.598	1478.87
1006.892	1493.11
1007.186	1472.09
1007.48	1462.6
1007.773	1454.47
1008.067	1459.21
1008.361	1405.66
1008.655	1443.85
1008.948	1409.72
1009.242	1399.78
1009.535	1404.75
1009.829	1371.98
1010.122	1378.31
1010.415	1397.52
1010.708	1365.66
1011.001	1367.92
1011.295	1374.47
1011.588	1351.65
1011.881	1379.89
1012.173	1341.7
1012.466	1344.19
1012.759	1341.25
1013.052	1346.22
1013.344	1326.34
1013.637	1324.98
1013.93	1309.61
1014.222	1285.88
1014.514	1276.84
1014.807	1282.95
1015.099	1266.45
1015.391	1284.08
1015.683	1275.26
1015.976	1262.38
1016.268	1253.79
1016.56	1222.61
1016.851	1221.48
1017.143	1230.97
1017.435	1217.86
1017.727	1210.63
1018.018	1220.12
1018.31	1195.49
1018.602	1179.22
1018.893	1185.1
1019.185	1180.58
1019.476	1176.73
1019.767	1170.63
1020.058	1168.6
1020.35	1146.9
1020.641	1140.8
1020.932	1140.8
1021.223	1117.98
1021.514	1124.76
1021.804	1133.35
1022.095	1113.46
1022.386	1090.86
1022.677	1138.32
1022.967	1106
1023.258	1099.67
1023.548	1067.13
1023.839	1091.99
1024.129	1060.13
1024.419	1051.99
1024.709	1037.76
1025	1028.72
1025.29	1040.02
1025.58	1047.02
1025.87	1045.89
1026.16	1019
1026.449	1011.09
1026.739	1012.67
1027.029	998.21
1027.319	1010.64
1027.608	1011.77
1027.898	985.33
1028.187	982.16
1028.477	979.68
1028.766	990.98
1029.055	972.45
1029.344	968.15
1029.634	972.67
1029.923	959.11
1030.212	961.15
1030.501	940.13
1030.79	917.08
1031.078	951.66
1031.367	949.62
1031.656	911.66
1031.945	930.64
1032.233	892.45
1032.522	884.54
1032.81	900.36
1033.099	891.32
1033.387	881.15
1033.675	883.86
1033.963	873.47
1034.251	881.83
1034.54	850.87
1034.828	880.25
1035.116	875.95
1035.403	850.64
1035.691	842.05
1035.979	839.79
1036.267	836.18
1036.554	819
1036.842	850.87
1037.129	804.32
1037.417	826.46
1037.704	792.56
1037.992	807.48
1038.279	795.5
1038.566	790.08
1038.853	790.08
1039.14	790.08
