Data from breadboard_black_back_FLMS001491_00090.txt Node
Date: Wed Feb 08 10:51:03 GMT 2017
User: dcchb
Spectrometer: FLMS00149
Trigger mode: 0
Integration Time (sec): 2.000000E-2
Scans to average: 10
Electric dark correction enabled: true
Nonlinearity correction enabled: false
Boxcar width: 0
XAxis mode: Wavelengths
Number of Pixels in Spectrum: 2048
>>>>>Begin Spectral Data<<<<<
341.393	-7.46
341.776	-7.46
342.16	-7.46
342.543	-68.47
342.927	-67.57
343.31	-68.25
343.693	-67.12
344.077	-72.31
344.46	-71.18
344.843	-47.68
345.226	-42.71
345.61	-20.56
345.993	-28.47
346.376	4.52
346.759	-2.03
347.142	13.11
347.525	53.33
347.908	62.15
348.291	70.05
348.674	112.31
349.057	104.86
349.44	135.59
349.823	126.55
350.206	159.09
350.588	186.44
350.971	214.46
351.354	236.38
351.737	242.48
352.119	244.29
352.502	288.81
352.884	264.85
353.267	270.05
353.65	298.75
354.032	303.49
354.414	316.83
354.797	315.92
355.179	331.97
355.562	333.78
355.944	332.87
356.326	351.4
356.709	351.86
357.091	360.22
357.473	333.1
357.855	339.65
358.238	372.87
358.62	355.02
359.002	360.22
359.384	340.33
359.766	323.38
360.148	346.43
360.53	342.36
360.912	341.01
361.294	326.32
361.676	342.82
362.057	347.79
362.439	351.63
362.821	337.62
363.203	343.72
363.584	336.04
363.966	329.03
364.348	331.74
364.729	338.3
365.111	319.77
365.493	315.92
365.874	341.23
366.256	351.4
366.637	334.23
367.019	320.44
367.4	347.11
367.781	339.65
368.163	335.13
368.544	327.68
368.925	343.04
369.306	336.94
369.688	312.31
370.069	343.27
370.45	331.06
370.831	343.27
371.212	318.64
371.593	329.71
371.974	340.78
372.355	372.19
372.736	333.55
373.117	355.47
373.498	336.71
373.879	354.57
374.26	378.3
374.641	350.5
375.021	361.12
375.402	359.54
375.783	362.02
376.163	362.25
376.544	370.61
376.925	373.55
377.305	366.09
377.686	362.7
378.066	394.79
378.447	374.23
378.827	376.26
379.208	347.11
379.588	381.46
379.968	380.33
380.349	372.42
380.729	400.44
381.109	366.54
381.489	392.31
381.87	403.61
382.25	404.06
382.63	401.35
383.01	407.22
383.39	399.09
383.77	415.81
384.15	418.97
384.53	388.69
384.91	405.41
385.29	416.71
385.67	415.36
386.049	446.54
386.429	431.85
386.809	445.41
387.189	419.65
387.568	432.53
387.948	444.06
388.328	429.14
388.707	434.56
389.087	465.3
389.466	476.37
389.846	438.63
390.225	455.36
390.605	463.49
390.984	477.95
391.363	480.67
391.743	464.85
392.122	477.5
392.501	484.28
392.881	486.99
393.26	502.81
393.639	494.68
394.018	510.95
394.397	511.4
394.776	498.52
395.155	517.95
395.534	498.07
395.913	513.43
396.292	518.18
396.671	538.52
397.05	523.38
397.429	525.41
397.808	534.68
398.186	557.95
398.565	544.84
398.944	542.81
399.323	559.31
399.701	575.58
400.08	546.65
400.458	552.98
400.837	551.17
401.215	564.73
401.594	562.02
401.972	612.19
402.351	588.23
402.729	595.01
403.107	593.43
403.486	602.47
403.864	602.47
404.242	612.19
404.62	620.55
404.999	633.2
405.377	622.13
405.755	627.55
406.133	653.09
406.511	651.28
406.889	632.98
407.267	672.3
407.645	656.93
408.023	679.53
408.401	697.83
408.779	675.91
409.156	685.86
409.534	714.33
409.912	722.47
410.29	735.57
410.667	738.29
411.045	756.36
411.422	733.09
411.8	773.31
412.178	738.06
412.555	780.09
412.933	799.75
413.31	797.95
413.687	767.66
414.065	807.21
414.442	819.64
414.819	846.53
415.197	816.02
415.574	851.5
415.951	866.42
416.328	863.93
416.705	869.58
417.082	867.1
417.46	879.75
417.837	913.87
418.214	921.78
418.591	905.06
418.967	913.65
419.344	929.02
419.721	953.2
420.098	922.91
420.475	944.61
420.852	950.26
421.228	961.78
421.605	996.13
421.982	1005.62
422.358	1014.66
422.735	995.91
423.111	1012.85
423.488	998.39
423.864	1027.32
424.241	1045.62
424.617	1049.24
424.994	1081.78
425.37	1064.83
425.746	1065.06
426.123	1104.38
426.499	1089.46
426.875	1108.45
427.251	1122.23
427.627	1148.22
428.003	1177.82
428.379	1179.63
428.756	1183.7
429.132	1188.67
429.507	1229.12
429.883	1221.89
430.259	1260.08
430.635	1253.98
431.011	1261.44
431.387	1307.31
431.763	1284.71
432.138	1312.51
432.514	1348.67
432.89	1352.73
433.265	1366.29
433.641	1394.77
434.016	1395.9
434.392	1418.49
434.767	1420.98
435.143	1453.75
435.518	1457.59
435.894	1470.02
436.269	1491.03
436.644	1503.92
437.02	1517.25
437.395	1526.51
437.77	1566.96
438.145	1575.55
438.52	1581.65
438.895	1641.31
439.271	1594.53
439.646	1651.48
440.021	1643.57
440.395	1661.65
440.77	1651.93
441.145	1652.84
441.52	1719.5
441.895	1699.62
442.27	1693.51
442.645	1737.81
443.019	1761.99
443.394	1731.71
443.769	1772.61
444.143	1785.26
444.518	1783.91
444.892	1791.59
445.267	1805.6
445.641	1835.43
446.016	1863
446.39	1881.76
446.764	1863.68
447.139	1806.96
447.513	1880.85
447.887	1867.97
448.262	1888.09
448.636	1894.64
449.01	1956.33
449.384	1959.72
449.758	1973.96
450.132	1989.55
450.506	1988.87
450.88	2023.45
451.254	2018.7
451.628	2035.2
452.002	2100.96
452.376	2099.38
452.75	2112.49
453.123	2122.2
453.497	2188.64
453.871	2166.5
454.244	2219.38
454.618	2261.64
454.992	2230.45
455.365	2292.14
455.739	2312.48
456.112	2350.22
456.486	2393.61
456.859	2395.87
457.232	2439.26
457.606	2431.57
457.979	2453.27
458.352	2484
458.725	2563.55
459.099	2559.48
459.472	2599.25
459.845	2637.67
460.218	2645.35
460.591	2683.77
460.964	2719.7
461.337	2778.01
461.71	2819.36
462.083	2866.82
462.456	2886.03
462.829	2871.34
463.201	2892.58
463.574	2914.5
463.947	2995.18
464.32	3051.45
464.692	3033.14
465.065	3120.82
465.438	3153.59
465.81	3172.12
466.183	3225.45
466.555	3303.64
466.928	3322.17
467.3	3305.45
467.672	3368.72
468.045	3437.42
468.417	3462.73
468.789	3470.87
469.161	3527.14
469.534	3579.11
469.906	3667.02
470.278	3704.76
470.65	3690.07
471.022	3822.5
471.394	3864.53
471.766	3905.21
472.138	3940.01
472.51	4001.7
472.882	4071.76
473.253	4182.71
473.625	4154.24
473.997	4318.53
474.369	4321.69
474.74	4372.54
475.112	4447.11
475.484	4508.58
475.855	4589.03
476.227	4654.57
476.598	4822.7
476.97	4781.57
477.341	4856.37
477.713	4954.9
478.084	5001.22
478.455	5147.66
478.827	5143.82
479.198	5307.66
479.569	5311.95
479.94	5487.54
480.311	5569.8
480.682	5658.16
481.053	5809.11
481.424	5831.03
481.795	5927.08
482.166	6021.76
482.537	6103.79
482.908	6233.73
483.279	6254.75
483.65	6371.36
484.021	6501.75
484.391	6608.87
484.762	6614.29
485.133	6676.21
485.503	6823.78
485.874	6932.25
486.244	7032.36
486.615	7188.51
486.985	7242.07
487.356	7393.93
487.726	7392.8
488.097	7614.26
488.467	7584.66
488.837	7772.68
489.207	7898.1
489.578	7988.72
489.948	8051.09
490.318	8136.28
490.688	8233.91
491.058	8374.92
491.428	8461.25
491.798	8516.16
492.168	8724.97
492.538	8753.67
492.908	8910.95
493.278	8985.75
493.648	8981.91
494.017	9164.05
494.387	9227.55
494.757	9254.22
495.126	9399.53
495.496	9423.26
495.866	9474.33
496.235	9583.02
496.605	9695.79
496.974	9714.55
497.344	9786.64
497.713	9867.09
498.082	9974.2
498.452	10116.12
498.821	10166.96
499.19	10171.03
499.559	10296.45
499.928	10350.91
500.298	10444.47
500.667	10494.87
501.036	10522.21
501.405	10686.95
501.774	10715.42
502.143	10753.39
502.512	10837.46
502.88	10910.9
503.249	10882.65
503.618	11058.92
503.987	11129.88
504.356	11232.47
504.724	11245.13
505.093	11278.8
505.462	11339.36
505.83	11397.89
506.199	11590.66
506.567	11668.17
506.936	11749.75
507.304	11905.68
507.672	11928.5
508.041	11931.21
508.409	12084.43
508.777	12195.16
509.145	12278.77
509.514	12205.33
509.882	12355.61
510.25	12470.63
510.618	12554.02
510.986	12650.06
511.354	12749.72
511.722	12902.94
512.09	12943.84
512.458	12947.23
512.826	13100.9
513.193	13180.22
513.561	13299.09
513.929	13391.06
514.297	13438.97
514.664	13588.34
515.032	13623.6
515.4	13793.31
515.767	13843.48
516.135	13965.73
516.502	13870.37
516.869	14218.16
517.237	14157.59
517.604	14149.23
517.972	14428.32
518.339	14454.76
518.706	14603.46
519.073	14711.03
519.44	14774.3
519.808	14939.04
520.175	14904.69
520.542	15070.56
520.909	15211.58
521.276	15205.7
521.643	15390.78
522.009	15553.26
522.376	15675.97
522.743	15758
523.11	15932.69
523.477	16067.15
523.843	16180.37
524.21	16396.18
524.577	16464.65
524.943	16541.26
525.31	16622.39
525.676	16771.76
526.043	16924.98
526.409	16946.9
526.776	17189.38
527.142	17231.19
527.508	17363.39
527.874	17519.09
528.241	17566.09
528.607	17676.37
528.973	17950.49
529.339	17815.8
529.705	18084.04
530.071	18192.29
530.437	18261.67
530.803	18401.78
531.169	18572.17
531.535	18493.07
531.901	18583.47
532.267	18684.25
532.632	18832.5
532.998	19022.78
533.364	18935.55
533.73	18971.7
534.095	19319.49
534.461	19331.7
534.826	19427.96
535.192	19503.22
535.557	19628.86
535.923	19510.9
536.288	19639.03
536.653	19833.6
537.019	19819.14
537.384	19919.02
537.749	20076.53
538.114	20121.28
538.479	20209.19
538.845	20240.6
539.21	20200.6
539.575	20361.27
539.94	20463.42
540.305	20640.59
540.67	20590.87
541.034	20726.01
541.399	20679.91
541.764	20820.92
542.129	20948.6
542.494	20948.6
542.858	21136.62
543.223	21116.73
543.587	21201.7
543.952	21141.14
544.316	21252.32
544.681	21258.42
545.045	21470.4
545.41	21570.51
545.774	21639.21
546.138	21635.59
546.503	21757.85
546.867	21749.71
547.231	22013.43
547.595	22095.24
547.959	22070.61
548.324	22125.52
548.688	22144.28
549.052	22212.52
549.416	22307.89
549.779	22409.58
550.143	22398.96
550.507	22501.56
550.871	22657.94
551.235	22669.01
551.599	22841.66
551.962	22913.52
552.326	23001.2
552.689	23151.48
553.053	23110.35
553.417	23112.84
553.78	23405.94
554.143	23312.38
554.507	23466.05
554.87	23533.84
555.234	23771.35
555.597	23528.87
555.96	23918.69
556.323	23787.62
556.686	23984
557.05	24174.96
557.413	24220.38
557.776	24341.28
558.139	24439.58
558.502	24410.21
558.865	24668.28
559.228	24867.59
559.59	24919.12
559.953	24912.79
560.316	25153.46
560.679	25140.13
561.041	25333.57
561.404	25532.21
561.767	25509.16
562.129	25524.98
562.492	25856.5
562.854	25815.14
563.217	25804.07
563.579	26063.27
563.941	26072.53
564.304	26260.33
564.666	26404.5
565.028	26475.46
565.39	26611.73
565.753	26660.54
566.115	26749.58
566.477	26960.87
566.839	27023.47
567.201	27154.31
567.563	27091.04
567.925	27376.68
568.287	27497.13
568.648	27334.2
569.01	27655.54
569.372	27675.88
569.734	27751.13
570.095	27980.73
570.457	28004.24
570.819	28175.76
571.18	28047.17
571.542	28202.65
571.903	28379.82
572.265	28414.62
572.626	28581.17
572.987	28468.4
573.349	28775.74
573.71	28743.2
574.071	28810.09
574.432	28870.65
574.794	29086.47
575.155	29133.7
575.516	29129.86
575.877	29149.06
576.238	29271.09
576.599	29376.18
576.96	29400.13
577.32	29472.67
577.681	29590.63
578.042	29505.21
578.403	29597.41
578.763	29631.31
579.124	29711.08
579.485	29768.48
579.845	29979.32
580.206	29848.03
580.566	29795.37
580.927	29872.89
581.287	30014.35
581.648	29885.32
582.008	30086.21
582.368	29946.56
582.728	30097.74
583.089	30020.23
583.449	29996.95
583.809	30165.99
584.169	30135.93
584.529	30124.18
584.889	30272.65
585.249	30045.99
585.609	30080.56
585.969	30212.09
586.329	30124.63
586.688	30165.76
587.048	30215.7
587.408	30088.7
587.768	30314.01
588.127	30158.98
588.487	30074.24
588.846	30403.72
589.206	30182.48
589.565	30222.26
589.925	30286.89
590.284	30115.59
590.643	30193.33
591.003	30342.48
591.362	30514.9
591.721	30440.1
592.08	30381.8
592.44	30335.47
592.799	30408.47
593.158	30308.58
593.517	30426.32
593.876	30424.74
594.235	30386.32
594.593	30416.38
594.952	30535.47
595.311	30374.34
595.67	30572.53
596.029	30655.92
596.387	30608.69
596.746	30731.4
597.104	30549.93
597.463	30611.62
597.822	30805.07
598.18	30558.52
598.538	30611.85
598.897	30829.7
599.255	30537.95
599.613	30956.7
599.972	30764.16
600.33	30960.32
600.688	30678.74
601.046	30827.44
601.404	31060.65
601.762	30931.84
602.12	31079.18
602.478	30977.49
602.836	31090.03
603.194	30952.41
603.552	31087.54
603.91	30880.09
604.268	31067.21
604.625	31008.45
604.983	31131.84
605.341	30992.18
605.698	31200.31
606.056	31273.08
606.413	31159.86
606.771	31363.24
607.128	31277.82
607.485	31285.28
607.843	31252.29
608.2	31386.29
608.557	31627.42
608.914	31419.06
609.272	31671.26
609.629	31622.45
609.986	31733.18
610.343	31588.55
610.7	31754.42
611.057	31884.81
611.414	31665.61
611.771	31734.76
612.127	31929.33
612.484	31808.66
612.841	31988.99
613.198	31904.47
613.554	31934.08
613.911	31995.99
614.267	32060.4
614.624	32002.32
614.98	32127.06
615.337	32222.43
615.693	32133.39
616.05	32154.41
616.406	32406.61
616.762	32224.46
617.118	32179.94
617.475	32271.47
617.831	32346.49
618.187	32326.61
618.543	32372.26
618.899	32510.33
619.255	32444.8
619.611	32464.23
619.967	32578.13
620.323	32596.66
620.678	32430.33
621.034	32379.49
621.39	32373.84
621.746	32442.54
622.101	32736.09
622.457	32406.61
622.812	32576.54
623.168	32642.31
623.523	32616.32
623.879	32711.46
624.234	32532.48
624.589	32673.94
624.945	32668.07
625.3	32772.7
625.655	32636.2
626.01	32628.75
626.365	32521.86
626.72	32523.44
627.075	32536.09
627.43	32627.84
627.785	32481.63
628.14	32581.97
628.495	32576.54
628.85	32538.81
629.205	32291.81
629.559	32635.75
629.914	32433.27
630.269	32462.42
630.623	32367.96
630.978	32325.93
631.332	32373.16
631.687	32465.14
632.041	32363.67
632.396	32403.22
632.75	32309.88
633.104	32286.16
633.459	32090.46
633.813	32054.07
634.167	32030.12
634.521	32019.05
634.875	32078.93
635.229	32140.17
635.583	31871.7
635.937	31923.23
636.291	31985.15
636.645	31871.25
636.999	31869.67
637.352	31804.14
637.706	31713.52
638.06	31905.15
638.413	31801.65
638.767	31666.96
639.121	31784.48
639.474	31580.86
639.828	31559.85
640.181	31586.06
640.534	31468.55
640.888	31416.58
641.241	31300.65
641.594	31433.07
641.947	31450.47
642.301	31260.87
642.654	31420.87
643.007	31338.84
643.36	31310.59
643.713	31280.99
644.066	31271.72
644.419	31087.32
644.771	30926.64
645.124	30654.11
645.477	30740.66
645.83	30404.17
646.182	30210.73
646.535	30093.45
646.888	30187.45
647.24	30029.49
647.593	30142.71
647.945	30150.39
648.298	29924.64
648.65	29867.01
649.002	29747.92
649.355	29873.56
649.707	29909.95
650.059	30060.45
650.411	30262.48
650.763	30496.15
651.115	30791.73
651.467	30483.27
651.819	30311.97
652.171	30457.73
652.523	30473.1
652.875	30377.05
653.227	30381.8
653.578	30474
653.93	30300.9
654.282	30313.55
654.633	30106.33
654.985	30231.3
655.337	30079.89
655.688	30146.33
656.039	30192.88
656.391	30036.05
656.742	30077.85
657.094	30128.7
657.445	30027.91
657.796	30170.96
658.147	29900.68
658.498	29963.73
658.849	30025.2
659.2	29917.86
659.551	29921.93
659.902	30085.31
660.253	29933.68
660.604	29925.31
660.955	29912.66
661.306	29914.47
661.656	29834.24
662.007	29896.39
662.358	29836.96
662.708	29872.89
663.059	29852.55
663.409	29546.79
663.76	29866.56
664.11	29770.29
664.461	29779.1
664.811	29688.03
665.161	29816.39
665.511	29713.79
665.862	29708.6
666.212	29753.12
666.562	29701.82
666.912	29763.96
667.262	29721.7
667.612	29681.25
667.962	29765.32
668.312	29539.56
668.662	29760.8
669.011	29641.71
669.361	29631.31
669.711	29632.44
670.06	29529.17
670.41	29483.52
670.76	29411.43
671.109	29687.13
671.459	29460.69
671.808	29355.39
672.157	29570.07
672.507	29331.88
672.856	29305.22
673.205	29296.4
673.554	29314.03
673.904	29404.65
674.253	29390.87
674.602	29237.65
674.951	28869.75
675.3	28840.82
675.649	29178.67
675.998	29197.2
676.346	29123.98
676.695	29236.75
677.044	29003.76
677.393	29109.97
677.741	29100.48
678.09	29071.1
678.438	29121.27
678.787	29072.23
679.135	29080.37
679.484	28810.32
679.832	28897.09
680.181	28736.65
680.529	28983.87
680.877	28749.53
681.225	28705.23
681.573	28929.18
681.922	28609.64
682.27	28574.39
682.618	28644.67
682.966	28452.36
683.314	28617.1
683.661	28420.95
684.009	28411
684.357	28336.88
684.705	28244.91
685.053	28317.22
685.4	28201.29
685.748	28094.85
686.095	28125.59
686.443	27932.82
686.79	27940.96
687.138	27944.35
687.485	27974.41
687.832	27735.77
688.18	27920.85
688.527	27629.1
688.874	27619.61
689.221	27610.8
689.568	27540.97
689.915	27566.73
690.262	27596.56
690.609	27435.89
690.956	27304.59
691.303	27310.69
691.65	27055.56
691.997	27085.16
692.344	26976.92
692.69	26956.13
693.037	27005.62
693.383	26723.14
693.73	26785.96
694.077	26584.84
694.423	26691.73
694.769	26479.53
695.116	26419.42
695.462	26497.61
695.808	26279.76
696.155	26434.79
696.501	26241.8
696.847	26160.89
697.193	26088.13
697.539	26064.17
697.885	25832.99
698.231	25944.63
698.577	25749.61
698.923	25818.98
699.269	25604.75
699.614	25513.45
699.96	25555.49
700.306	25557.07
700.651	25480.23
700.997	25396.85
701.342	25353.91
701.688	25276.4
702.033	25241.37
702.379	25204.54
702.724	25090.19
703.069	25136.06
703.415	24899.91
703.76	24928.38
704.105	24894.03
704.45	24722.74
704.795	24586.7
705.14	24629.18
705.485	24578.79
705.83	24496.53
706.175	24518.9
706.52	24358.91
706.865	24282.53
707.209	24306.71
707.554	24151.46
707.899	24255.63
708.243	24107.84
708.588	24093.15
708.932	23949.65
709.277	24047.5
709.621	23980.61
709.966	23797.79
710.31	23799.37
710.654	23561.64
710.998	23689.09
711.342	23716.66
711.687	23576.78
712.031	23459.04
712.375	23438.71
712.719	23392.15
713.063	23419.5
713.407	23433.51
713.75	23284.59
714.094	23214.76
714.438	23153.29
714.782	23154.65
715.125	23053.18
715.469	23053.86
715.812	22959.62
716.156	22957.81
716.499	22880.53
716.843	22948.1
717.186	22704.71
717.53	22902.67
717.873	22905.84
718.216	22839.85
718.559	22609.58
718.902	22589.91
719.246	22634.89
719.589	22453.87
719.932	22446.64
720.275	22549.01
720.617	22370.49
720.96	22312.63
721.303	22329.13
721.646	22350.82
721.989	22203.94
722.331	22310.83
722.674	22139.08
723.016	22165.97
723.359	22163.94
723.701	22129.36
724.044	21976.37
724.386	21739.99
724.729	21895.7
725.071	21884.4
725.413	21946.54
725.755	21829.26
726.097	21709.71
726.439	21680.11
726.782	21642.82
727.124	21799.65
727.465	21584.29
727.807	21558.53
728.149	21592.65
728.491	21470.17
728.833	21564.63
729.175	21380.23
729.516	21424.97
729.858	21412.77
730.199	21423.62
730.541	21324.41
730.882	21259.78
731.224	21246.45
731.565	21117.18
731.906	21169.84
732.248	21240.35
732.589	21114.47
732.93	21122.83
733.271	21118.31
733.612	21073.8
733.953	21007.81
734.294	20867.7
734.635	20891.88
734.976	20961.03
735.317	20773.24
735.658	20862.5
735.999	20820.24
736.339	20684.65
736.68	20746.35
737.021	20749.51
737.361	20480.14
737.702	20619.8
738.042	20642.17
738.383	20618.67
738.723	20650.53
739.063	20541.83
739.404	20508.16
739.744	20428.39
740.084	20444.89
740.424	20449.86
740.764	20436.3
741.104	20472
741.444	20245.8
741.784	20207.38
742.124	20232.69
742.464	20222.29
742.804	20122.63
743.143	20175.06
743.483	20206.93
743.823	20000.15
744.162	20082.41
744.502	20119.25
744.841	19947.05
745.181	20037.67
745.52	19968.74
745.86	20014.84
746.199	19876.31
746.538	19863.21
746.877	19817.33
747.216	19798.35
747.556	19739.14
747.895	19773.27
748.234	19641.52
748.573	19579.37
748.911	19480.62
749.25	19509.09
749.589	19519.03
749.928	19518.81
750.267	19538.02
750.605	19489.21
750.944	19384.12
751.283	19324.92
751.621	19361.52
751.96	19164.92
752.298	19156.56
752.636	19103.9
752.975	19074.98
753.313	19022.55
753.651	19123.34
753.989	19000.63
754.327	18990.91
754.666	18810.35
755.004	18920.18
755.342	18922.89
755.679	18843.57
756.017	18722.22
756.355	18768.32
756.693	18685.84
757.031	18771.03
757.368	18644.48
757.706	18568.78
758.044	18568.33
758.381	18572.84
758.719	18482.68
759.056	18429.8
759.394	18406.07
759.731	18249.01
760.068	18216.7
760.405	18181.44
760.743	18140.54
761.08	18171.05
761.417	17978.28
761.754	18039.07
762.091	17941.68
762.428	17942.81
762.765	17740.1
763.102	17867.1
763.438	17763.83
763.775	17699.65
764.112	17647.22
764.449	17693.32
764.785	17484.06
765.122	17418.07
765.458	17407.45
765.795	17296.72
766.131	17362.71
766.467	17289.94
766.804	17291.52
767.14	17161.36
767.476	17110.06
767.812	17016.28
768.148	17027.57
768.485	16925.88
768.821	16813.57
769.157	16737.19
769.492	16756.17
769.828	16719.56
770.164	16587.59
770.5	16508.27
770.836	16496.52
771.171	16470.53
771.507	16356.63
771.842	16345.56
772.178	16303.07
772.513	16165.22
772.849	16292.45
773.184	16117.09
773.519	16042.97
773.855	16063.08
774.19	15917.32
774.525	15863.09
774.86	15828.51
775.195	15847.49
775.53	15741.28
775.865	15740.6
776.2	15556.65
776.535	15517.78
776.87	15451.35
777.205	15375.64
777.539	15358.92
777.874	15308.52
778.209	15156.66
778.543	15235.98
778.878	15087.06
779.212	15173.16
779.547	15045.93
779.881	15040.06
780.215	14875.09
780.55	14978.59
780.884	14871.47
781.218	14827.18
781.552	14832.83
781.886	14732.04
782.22	14633.97
782.554	14612.05
782.888	14488.66
783.222	14419.51
783.556	14309.68
783.889	14388.77
784.223	14292.28
784.557	14270.81
784.89	14203.02
785.224	14104.71
785.557	14101.32
785.891	14025.62
786.224	14019.74
786.558	13999.63
786.891	13837.83
787.224	13858.39
787.557	13847.32
787.891	13756.7
788.224	13729.58
788.557	13698.85
788.89	13629.02
789.223	13620.88
789.556	13469.93
789.888	13478.06
790.221	13455.47
790.554	13390.38
790.887	13356.26
791.219	13329.14
791.552	13288.24
791.884	13245.53
792.217	13212.08
792.549	13184.51
792.882	13060.22
793.214	12993.56
793.546	12993.33
793.879	12942.71
794.211	12883.73
794.543	12924.63
794.875	12833.79
795.207	12841.7
795.539	12744.75
795.871	12768.03
796.203	12629.72
796.535	12632.89
796.867	12552.89
797.198	12563.51
797.53	12521.03
797.862	12399.45
798.193	12470.18
798.525	12357.64
798.856	12366
799.188	12312.22
799.519	12206.91
799.85	12155.16
800.182	12197.42
800.513	12242.39
800.844	12008.5
801.175	12149.96
801.506	12080.81
801.837	12055.5
802.168	11994.94
802.499	11970.53
802.83	11850.76
803.161	11813.47
803.491	11836.75
803.822	11846.02
804.153	11797.88
804.483	11644.89
804.814	11597.44
805.145	11692.8
805.475	11629.98
805.805	11570.32
806.136	11556.98
806.466	11580.26
806.796	11492.13
807.126	11399.02
807.457	11432.69
807.787	11423.88
808.117	11385.01
808.447	11269.99
808.777	11436.99
809.107	11313.83
809.436	11265.92
809.766	11241.51
810.096	11221.17
810.426	11074.51
810.755	11150.22
811.085	11052.82
811.414	11073.16
811.744	10972.82
812.073	11030.9
812.403	10976.89
812.732	11003.33
813.061	10942.31
813.39	10862.54
813.719	10869.09
814.049	10932.82
814.378	10782.99
814.707	10827.74
815.036	10798.13
815.365	10781.41
815.693	10641.75
816.022	10603.79
816.351	10608.08
816.68	10536.9
817.008	10540.74
817.337	10510.23
817.665	10443.12
817.994	10470.01
818.322	10535.77
818.651	10405.38
818.979	10370.8
819.307	10483.34
819.636	10429.78
819.964	10326.51
820.292	10337.13
820.62	10343.91
820.948	10356.56
821.276	10351.59
821.604	10335.32
821.932	10386.62
822.259	10280.63
822.587	10305.27
822.915	10327.41
823.243	10317.24
823.57	10282.67
823.898	10244.48
824.225	10228.43
824.553	10251.48
824.88	10276.34
825.207	10305.72
825.535	10245.15
825.862	10242.89
826.189	10238.83
826.516	10256.68
826.843	10353.85
827.17	10266.17
827.497	10249.22
827.824	10294.64
828.151	10314.76
828.478	10249.9
828.805	10375.55
829.131	10247.87
829.458	10254.87
829.785	10194.08
830.111	10229.11
830.438	10376.45
830.764	10257.58
831.09	10297.58
831.417	10143.46
831.743	10186.62
832.069	10231.6
832.395	10209.22
832.722	10251.26
833.048	10192.5
833.374	10241.76
833.7	10210.8
834.026	10201.77
834.351	10196.79
834.677	10182.33
835.003	10187.53
835.329	10124.48
835.654	10140.3
835.98	10105.27
836.306	10131.03
836.631	10110.69
836.956	10134.42
837.282	10112.28
837.607	10051.04
837.932	10015.56
838.258	10039.96
838.583	10008.78
838.908	9954.77
839.233	9972.39
839.558	9930.13
839.883	9851.72
840.208	9845.16
840.533	9854.43
840.858	9793.64
841.182	9918.84
841.507	9822.11
841.832	9772.17
842.156	9771.04
842.481	9765.84
842.805	9690.82
843.13	9692.63
843.454	9623.7
843.778	9635.45
844.103	9692.85
844.427	9595.68
844.751	9646.53
845.075	9574.21
845.399	9555.23
845.723	9457.83
846.047	9484.5
846.371	9460.54
846.695	9393.43
847.019	9388.91
847.343	9379.64
847.666	9302.35
847.99	9253.54
848.313	9289.02
848.637	9115.69
848.96	9149.14
849.284	9097.84
849.607	9100.78
849.931	9085.18
850.254	9008.12
850.577	8969.71
850.9	8887
851.223	8867.11
851.546	8855.59
851.869	8796.6
852.192	8825.53
852.515	8783.95
852.838	8774.01
853.161	8699.43
853.483	8633.45
853.806	8663.28
854.129	8605.88
854.451	8602.49
854.774	8591.41
855.096	8497.86
855.419	8514.13
855.741	8495.82
856.063	8420.8
856.385	8453.34
856.708	8405.88
857.03	8383.06
857.352	8333.34
857.674	8369.72
857.996	8240.69
858.318	8301.48
858.64	8327.92
858.961	8277.97
859.283	8201.14
859.605	8239.78
859.926	8262.16
860.248	8207.02
860.57	8136.06
860.891	8149.16
861.212	8086.34
861.534	8123.18
861.855	8047.47
862.176	8140.58
862.498	8109.62
862.819	8044.08
863.14	7971.32
863.461	7977.19
863.782	7950.75
864.103	7956.4
864.424	7926.12
864.745	7970.19
865.065	7902.84
865.386	7880.92
865.707	7903.07
866.027	7917.98
866.348	7864.43
866.668	7882.96
866.989	7800.25
867.309	7791.66
867.63	7810.42
867.95	7775.39
868.27	7793.02
868.59	7711.89
868.91	7765.45
869.23	7769.97
869.55	7701.72
869.87	7747.14
870.19	7656.3
870.51	7674.6
870.83	7627.82
871.15	7626.24
871.469	7708.5
871.789	7633.02
872.109	7617.88
872.428	7634.83
872.748	7593.02
873.067	7567.71
873.386	7628.73
873.706	7558.67
874.025	7517.99
874.344	7480.71
874.663	7571.33
874.982	7511.89
875.301	7519.58
875.62	7477.09
875.939	7502.85
876.258	7449.97
876.577	7488.16
876.896	7432.12
877.214	7404.1
877.533	7394.83
877.852	7455.85
878.17	7416.3
878.489	7396.19
878.807	7418.56
879.125	7388.28
879.444	7318.9
879.762	7365.23
880.08	7288.17
880.398	7300.6
880.716	7256.98
881.034	7261.05
881.352	7287.94
881.67	7258.79
881.988	7249.53
882.306	7232.58
882.624	7207.04
882.941	7165.69
883.259	7087.95
883.577	7171.34
883.894	7123.43
884.212	7136.54
884.529	7102.64
884.846	7055.63
885.164	7134.5
885.481	7016.99
885.798	7079.14
886.115	7009.76
886.432	7073.49
886.75	7010.21
887.067	7058.8
887.383	6945.81
887.7	6964.79
888.017	6946.94
888.334	6924.79
888.651	6957.33
888.967	6925.47
889.284	6849.99
889.6	6838.24
889.917	6767.73
890.233	6808.18
890.55	6786.94
890.866	6867.16
891.182	6786.71
891.498	6770.22
891.815	6721.86
892.131	6647.96
892.447	6649.32
892.763	6673.04
893.079	6645.47
893.395	6628.75
893.71	6586.49
894.026	6595.53
894.342	6598.24
894.657	6573.39
894.973	6538.13
895.289	6518.7
895.604	6484.8
895.92	6424.69
896.235	6422.88
896.55	6450.45
896.865	6466.04
897.181	6430.57
897.496	6439.6
897.811	6358.02
898.126	6407.06
898.441	6328.65
898.756	6247.97
899.071	6273.06
899.386	6324.81
899.7	6208.88
900.015	6176.56
900.33	6180.63
900.644	6112.83
900.959	6165.71
901.273	6120.07
901.588	6101.76
901.902	6038.03
902.216	6084.13
902.531	5982.89
902.845	6017.24
903.159	5989.67
903.473	5965.72
903.787	5956
904.101	5863.12
904.415	5892.5
904.729	5873.07
905.042	5863.57
905.356	5847.98
905.67	5844.82
905.984	5837.59
906.297	5821.77
906.611	5732.73
906.924	5789.68
907.237	5751.04
907.551	5725.5
907.864	5670.13
908.177	5652.05
908.491	5673.07
908.804	5634.2
909.117	5569.12
909.43	5538.61
909.743	5588.33
910.056	5565.73
910.368	5595.11
910.681	5495.9
910.994	5469.91
911.307	5403.93
911.619	5388.78
911.932	5402.57
912.244	5410.48
912.557	5361.21
912.869	5325.96
913.181	5323.48
913.494	5323.93
913.806	5299.52
914.118	5288
914.43	5252.52
914.742	5252.29
915.054	5226.3
915.366	5206.87
915.678	5165.51
915.99	5131.16
916.302	5091.84
916.613	5055.69
916.925	5072.41
917.236	5085.74
917.548	5078.28
917.859	5045.97
918.171	4993.09
918.482	5015.69
918.794	4911.28
919.105	4975.69
919.416	4919.42
919.727	4916.03
920.038	4866.76
920.349	4823.83
920.66	4845.07
920.971	4867.67
921.282	4820.44
921.593	4803.94
921.903	4733.43
922.214	4778.41
922.525	4725.07
922.835	4735.69
923.146	4658.86
923.456	4637.39
923.767	4650.5
924.077	4676.49
924.387	4608.01
924.697	4622.25
925.008	4585.87
925.318	4596.94
925.628	4556.94
925.938	4539.09
926.248	4476.04
926.558	4526.43
926.867	4474.23
927.177	4446.89
927.487	4410.05
927.796	4410.51
928.106	4415.7
928.416	4371.64
928.725	4380.68
929.034	4315.59
929.344	4321.69
929.653	4297.51
929.962	4319.43
930.271	4323.73
930.581	4246.22
930.89	4215.71
931.199	4156.05
931.508	4184.3
931.817	4209.15
932.125	4140
932.434	4162.15
932.743	4140
933.051	4139.55
933.36	4055.49
933.669	4070.4
933.977	4086.22
934.286	4021.14
934.594	4059.78
934.902	3992.89
935.21	3976.62
935.519	4018.2
935.827	3951.99
936.135	3973.23
936.443	3923.74
936.751	3915.83
937.059	3912.67
937.367	3894.59
937.674	3887.81
937.982	3893
938.29	3854.59
938.597	3869.28
938.905	3795.15
939.213	3808.04
939.52	3797.64
939.827	3763.74
940.135	3717.19
940.442	3727.13
940.749	3694.59
941.056	3709.06
941.363	3665.44
941.67	3684.87
941.977	3645.55
942.284	3592.9
942.591	3613.01
942.898	3614.82
943.205	3563.52
943.511	3613.24
943.818	3579.79
944.125	3565.1
944.431	3523.3
944.738	3512.22
945.044	3514.03
945.35	3498.44
945.657	3466.12
945.963	3446.01
946.269	3490.98
946.575	3431.77
946.881	3403.98
947.187	3447.37
947.493	3379.12
947.799	3380.93
948.105	3376.18
948.41	3325.11
948.716	3353.13
949.022	3310.2
949.327	3314.49
949.633	3281.5
949.938	3303.64
950.244	3316.97
950.549	3260.03
950.854	3257.77
951.16	3248.95
951.465	3192.68
951.77	3179.35
952.075	3236.3
952.38	3147.71
952.685	3182.29
952.99	3148.84
953.294	3171.22
953.599	3112.01
953.904	3091.9
954.209	3086.47
954.513	3087.15
954.818	3081.95
955.122	3075.17
955.426	3039.02
955.731	3059.58
956.035	3011.45
956.339	3023.2
956.643	2997.44
956.948	2990.66
957.252	2946.82
957.556	2972.13
957.86	2940.94
958.163	2917.66
958.467	2913.37
958.771	2922.18
959.075	2927.38
959.378	2874.5
959.682	2865.91
959.985	2861.17
960.289	2834.73
960.592	2816.42
960.896	2806.25
961.199	2829.53
961.502	2772.13
961.805	2795.63
962.108	2770.1
962.411	2795.41
962.714	2744.11
963.017	2772.58
963.32	2756.99
963.623	2745.01
963.926	2698.91
964.228	2699.82
964.531	2716.09
964.833	2736.2
965.136	2692.58
965.438	2662.53
965.741	2655.3
966.043	2634.28
966.345	2653.04
966.648	2601.51
966.95	2589.08
967.252	2589.76
967.554	2608.74
967.856	2541.4
968.158	2583.66
968.46	2564.9
968.761	2546.83
969.063	2516.09
969.365	2510.89
969.666	2479.93
969.968	2519.03
970.269	2505.92
970.571	2503.21
970.872	2445.59
971.174	2466.15
971.475	2422.99
971.776	2437.68
972.077	2408.98
972.378	2435.42
972.679	2423.21
972.98	2401.97
973.281	2393.38
973.582	2372.14
973.883	2376.21
974.183	2357.23
974.484	2351.12
974.785	2348.86
975.085	2336.89
975.386	2351.35
975.686	2317.23
975.986	2302.31
976.287	2318.36
976.587	2290.11
976.887	2257.79
977.187	2288.75
977.487	2306.83
977.787	2260.96
978.087	2235.42
978.387	2240.39
978.687	2214.18
978.987	2202.88
979.286	2186.38
979.586	2182.99
979.885	2182.32
980.185	2209.43
980.484	2182.77
980.784	2152.94
981.083	2152.71
981.382	2152.26
981.682	2139.38
981.981	2137.34
982.28	2128.53
982.579	2112.03
982.878	2081.53
983.177	2102.77
983.475	2080.85
983.774	2058.25
984.073	2047.63
984.372	2057.12
984.67	2068.87
984.969	2013.73
985.267	2003.11
985.566	2008.76
985.864	2027.07
986.162	2008.31
986.461	2006.73
986.759	1993.85
987.057	1954.3
987.355	2001.98
987.653	1994.07
987.951	1946.16
988.249	1932.83
988.547	1945.94
988.844	1921.76
989.142	1911.36
989.44	1908.2
989.737	1910.68
990.035	1918.82
990.332	1879.72
990.63	1893.96
990.927	1896.9
991.224	1873.85
991.521	1871.82
991.819	1847.64
992.116	1834.75
992.413	1824.58
992.71	1816.9
993.006	1835.88
993.303	1816
993.6	1806.51
993.897	1782.55
994.193	1784.36
994.49	1770.57
994.787	1762.89
995.083	1804.25
995.379	1751.59
995.676	1764.02
995.972	1739.16
996.268	1745.04
996.565	1707.53
996.861	1674.76
997.157	1714.53
997.453	1668.2
997.749	1679.28
998.044	1686.06
998.34	1670.69
998.636	1660.52
998.932	1628.88
999.227	1647.19
999.523	1640.18
999.818	1629.11
1000.114	1610.13
1000.409	1619.62
1000.704	1615.55
1001	1616.68
1001.295	1574.65
1001.59	1620.97
1001.885	1572.16
1002.18	1558.38
1002.475	1586.17
1002.77	1553.86
1003.065	1532.84
1003.359	1550.69
1003.654	1530.36
1003.949	1527.42
1004.243	1497.59
1004.538	1521.54
1004.832	1498.27
1005.127	1491.03
1005.421	1477.48
1005.715	1505.72
1006.009	1449.68
1006.304	1463.01
1006.598	1480.87
1006.892	1433.18
1007.186	1427.99
1007.48	1446.29
1007.773	1402.9
1008.067	1429.34
1008.361	1395.67
1008.655	1403.58
1008.948	1374.65
1009.242	1380.75
1009.535	1387.08
1009.829	1378.49
1010.122	1385.95
1010.415	1352.51
1010.708	1321.1
1011.001	1332.39
1011.295	1342.79
1011.588	1361.32
1011.881	1307.54
1012.173	1307.99
1012.466	1330.59
1012.759	1279.29
1013.052	1315.9
1013.344	1291.72
1013.637	1275.9
1013.93	1254.2
1014.222	1291.04
1014.514	1259.85
1014.807	1280.64
1015.099	1240.65
1015.391	1259.4
1015.683	1245.84
1015.976	1210.82
1016.268	1237.93
1016.56	1234.32
1016.851	1183.25
1017.143	1221.44
1017.435	1180.08
1017.727	1159.74
1018.018	1183.92
1018.31	1145.96
1018.602	1155.45
1018.893	1148.67
1019.185	1154.77
1019.476	1128.11
1019.767	1103.47
1020.058	1121.33
1020.35	1147.99
1020.641	1118.16
1020.932	1112.74
1021.223	1116.35
1021.514	1101.89
1021.804	1108.45
1022.095	1062.34
1022.386	1074.1
1022.677	1060.31
1022.967	1070.25
1023.258	1060.99
1023.548	1058.05
1023.839	1046.98
1024.129	1041.1
1024.419	1007.21
1024.709	1013.76
1025	1024.61
1025.29	1021.67
1025.58	1011.95
1025.87	1016.92
1026.16	1005.4
1026.449	1009.92
1026.739	969.24
1027.029	1009.24
1027.319	987.77
1027.608	976.47
1027.898	969.69
1028.187	970.82
1028.477	938.28
1028.766	946.87
1029.055	925.63
1029.344	943.7
1029.634	946.19
1029.923	902.8
1030.212	925.63
1030.501	920.88
1030.79	898.06
1031.078	885.4
1031.367	898.06
1031.656	891.95
1031.945	893.76
1032.233	896.47
1032.522	886.98
1032.81	870.03
1033.099	876.36
1033.387	845.18
1033.675	859.41
1033.963	850.37
1034.251	841.56
1034.54	843.37
1034.828	837.04
1035.116	835.68
1035.403	827.32
1035.691	822.8
1035.979	814.44
1036.267	820.32
1036.554	811.96
1036.842	796.59
1037.129	812.63
1037.417	821.45
1037.704	802.24
1037.992	767.89
1038.279	779.64
1038.566	785.52
1038.853	785.52
1039.14	785.52
