Data from breadboard_white_FLMS001491_00030.txt Node
Date: Wed Feb 08 10:47:30 GMT 2017
User: dcchb
Spectrometer: FLMS00149
Trigger mode: 0
Integration Time (sec): 2.000000E-2
Scans to average: 10
Electric dark correction enabled: true
Nonlinearity correction enabled: false
Boxcar width: 0
XAxis mode: Wavelengths
Number of Pixels in Spectrum: 2048
>>>>>Begin Spectral Data<<<<<
341.393	-14.99
341.776	-14.99
342.16	-14.99
342.543	-52.5
342.927	-78.49
343.31	-60.86
343.693	-95.21
344.077	-67.87
344.46	-56.34
344.843	-68.32
345.226	-45.04
345.61	-16.34
345.993	7.16
346.376	-5.49
346.759	12.81
347.142	24.79
347.525	44.45
347.908	60.04
348.291	59.14
348.674	99.81
349.057	107.27
349.44	119.25
349.823	137.78
350.206	165.35
350.588	193.6
350.971	245.8
351.354	239.92
351.737	274.05
352.119	288.06
352.502	294.84
352.884	303.2
353.267	307.04
353.65	314.27
354.032	341.39
354.414	324.89
354.797	339.13
355.179	330.99
355.562	355.63
355.944	356.76
356.326	356.76
356.709	345.68
357.091	386.59
357.473	363.08
357.855	394.95
358.238	384.55
358.62	359.47
359.002	369.41
359.384	382.74
359.766	363.31
360.148	353.82
360.53	391.56
360.912	363.08
361.294	385.23
361.676	360.6
362.057	363.76
362.439	382.52
362.821	375.29
363.203	354.27
363.584	384.1
363.966	374.16
364.348	369.19
364.729	364.67
365.111	376.42
365.493	385
365.874	358.34
366.256	377.32
366.637	349.07
367.019	351.11
367.4	377.55
367.781	362.41
368.163	343.65
368.544	364.89
368.925	349.07
369.306	359.47
369.688	366.25
370.069	349.98
370.45	373.03
370.831	404.89
371.212	363.08
371.593	364.21
371.974	373.03
372.355	377.09
372.736	373.7
373.117	382.29
373.498	370.09
373.879	369.19
374.26	373.25
374.641	372.8
375.021	368.96
375.402	355.63
375.783	408.73
376.163	408.28
376.544	386.59
376.925	401.73
377.305	404.21
377.686	397.21
378.066	412.12
378.447	399.01
378.827	405.79
379.208	430.88
379.588	424.78
379.968	421.84
380.349	397.89
380.729	419.35
381.109	427.94
381.489	416.87
381.87	425.45
382.25	425.23
382.63	442.86
383.01	440.6
383.39	427.71
383.77	461.39
384.15	457.54
384.53	458.22
384.91	437.21
385.29	463.87
385.67	471.78
386.049	455.74
386.429	493.48
386.809	493.7
387.189	469.52
387.568	490.99
387.948	493.48
388.328	494.61
388.707	501.61
389.087	489.41
389.466	514.04
389.846	519.24
390.225	505.45
390.605	542.29
390.984	532.12
391.363	545.68
391.743	552.91
392.122	543.64
392.501	565.11
392.881	585
393.26	577.77
393.639	577.54
394.018	573.47
394.397	624.55
394.776	596.3
395.155	608.95
395.534	612.57
395.913	618.44
396.292	629.74
396.671	635.62
397.05	649.63
397.429	658.44
397.808	669.29
398.186	680.14
398.565	683.98
398.944	681.72
399.323	700.25
399.701	728.5
400.08	720.59
400.458	752.68
400.837	739.34
401.215	772.79
401.594	779.8
401.972	770.76
402.351	814.6
402.729	814.15
403.107	828.61
403.486	836.74
403.864	849.4
404.242	867.25
404.62	890.3
404.999	903.41
405.377	922.84
405.755	920.81
406.133	923.07
406.511	944.76
406.889	966.91
407.267	1013.46
407.645	996.74
408.023	1016.17
408.401	1036.74
408.779	1060.69
409.156	1073.35
409.534	1126.45
409.912	1135.72
410.29	1147.7
410.667	1178.88
411.045	1213.46
411.422	1256.85
411.8	1217.98
412.178	1280.35
412.555	1290.52
412.933	1304.53
413.31	1343.4
413.687	1364.87
414.065	1385.43
414.442	1404.41
414.819	1436.05
415.197	1464.3
415.574	1505.88
415.951	1545.65
416.328	1535.26
416.705	1532.77
417.082	1572.54
417.46	1587.46
417.837	1615.03
418.214	1642.82
418.591	1675.59
418.967	1693.44
419.344	1711.52
419.721	1689.6
420.098	1729.83
420.475	1778.87
420.852	1774.12
421.228	1798.98
421.605	1855.47
421.982	1859.54
422.358	1881.46
422.735	1909.48
423.111	1943.16
423.488	1967.56
423.864	1949.03
424.241	1996.04
424.617	2034.68
424.994	2046.66
425.37	2074.68
425.746	2075.13
426.123	2111.06
426.499	2145.18
426.875	2148.12
427.251	2191.74
427.627	2246.65
428.003	2303.6
428.379	2290.72
428.756	2320.77
429.132	2407.1
429.507	2423.82
429.883	2443.48
430.259	2493.42
430.635	2511.28
431.011	2537.04
431.387	2617.71
431.763	2650.48
432.138	2674.89
432.514	2675.57
432.89	2716.92
433.265	2802.57
433.641	2806.18
434.016	2856.58
434.392	2909.01
434.767	2963.02
435.143	2986.29
435.518	3002.11
435.894	3050.92
436.269	3071.04
436.644	3138.83
437.02	3157.36
437.395	3203.46
437.77	3214.08
438.145	3280.07
438.52	3312.84
438.895	3354.19
439.271	3349.9
439.646	3470.12
440.021	3462.89
440.395	3458.37
440.77	3481.87
441.145	3542.89
441.52	3594.64
441.895	3598.03
442.27	3610.68
442.645	3635.31
443.019	3697.46
443.394	3673.05
443.769	3743.11
444.143	3733.39
444.518	3802.09
444.892	3824.69
445.267	3856.33
445.641	3892.26
446.016	3944.46
446.39	3934.52
446.764	3961.86
447.139	3956.89
447.513	3990.11
447.887	4024.68
448.262	4061.07
448.636	4028.3
449.01	4149.88
449.384	4202.3
449.758	4201.63
450.132	4275.07
450.506	4271.91
450.88	4371.34
451.254	4362.75
451.628	4413.82
452.002	4481.85
452.376	4483.2
452.75	4536.53
453.123	4583.99
453.497	4647.94
453.871	4715.51
454.244	4803.42
454.618	4797.09
454.992	4917.77
455.365	4889.52
455.739	5051.1
456.112	5048.84
456.486	5165.67
456.859	5173.8
457.232	5309.62
457.606	5258.77
457.979	5373.57
458.352	5477.3
458.725	5520.24
459.099	5564.3
459.472	5655.83
459.845	5762.94
460.218	5791.19
460.591	5837.74
460.964	5863.96
461.337	6060.79
461.71	6124.74
462.083	6216.26
462.456	6221.46
462.829	6261.46
463.201	6404.96
463.574	6392.76
463.947	6514.11
464.32	6706.65
464.692	6680.43
465.065	6802.69
465.438	6918.62
465.81	7030.25
466.183	7067.77
466.555	7192.96
466.928	7280.42
467.3	7265.28
467.672	7429.34
468.045	7602.89
468.417	7640.86
468.789	7718.82
469.161	7867.97
469.534	7946.61
469.906	8143.9
470.278	8152.71
470.65	8286.49
471.022	8431.12
471.394	8638.12
471.766	8736.87
472.138	8758.12
472.51	8961.28
472.882	9139.8
473.253	9222.96
473.625	9384.54
473.997	9566.23
474.369	9664.99
474.74	9759.67
475.112	9928.48
475.484	10078.76
475.855	10297.96
476.227	10401.24
476.598	10673.55
476.97	10800.78
477.341	10995.57
477.713	11182.23
478.084	11330.03
478.455	11611.83
478.827	11684.14
479.198	12031.93
479.569	11983.34
479.94	12441.86
480.311	12421.52
480.682	12807.73
481.053	13034.39
481.424	13309.18
481.795	13502.63
482.166	13621.49
482.537	13782.62
482.908	14159.11
483.279	14247.92
483.65	14484.29
484.021	14775.59
484.391	15010.16
484.762	15150.27
485.133	15271.62
485.503	15556.13
485.874	15833.86
486.244	16052.39
486.615	16331.93
486.985	16554.75
487.356	16824.8
487.726	16956.32
488.097	17294.62
488.467	17425.46
488.837	17760.82
489.207	17964.2
489.578	18155.84
489.948	18353.57
490.318	18684.18
490.688	18804.18
491.058	19084.85
491.428	19320.1
491.798	19433.32
492.168	19958.27
492.538	19965.73
492.908	20272.62
493.278	20561.42
493.648	20491.14
494.017	20853.39
494.387	21050.45
494.757	21186.04
495.126	21499.03
495.496	21504.45
495.866	21800.71
496.235	21932.91
496.605	22153.92
496.974	22275.05
497.344	22499.45
497.713	22600.47
498.082	22851.08
498.452	23084.52
498.821	23178.75
499.19	23266.66
499.559	23544.62
499.928	23687.44
500.298	23873.88
500.667	24009.92
501.036	24058.96
501.405	24336.24
501.774	24475.44
502.143	24607.19
502.512	24675.89
502.88	25067.52
503.249	25030.91
503.618	25339.15
503.987	25387.74
504.356	25531.01
504.724	25762.87
505.093	25875.63
505.462	26048.74
505.83	26283.98
506.199	26471.78
506.567	26874.93
506.936	26810.75
507.304	27059.78
507.672	27294.13
508.041	27346.78
508.409	27634.68
508.777	27887.78
509.145	28052.07
509.514	28103.15
509.882	28361.67
510.25	28424.49
510.618	28668.78
510.986	28800.98
511.354	29066.51
511.722	29448.42
512.09	29578.59
512.458	29565.93
512.826	29818.58
513.193	30083.43
513.561	30265.12
513.929	30438.45
514.297	30640.93
514.664	30955.95
515.032	31068.27
515.4	31373.57
515.767	31597.97
516.135	31815.59
516.502	31602.26
516.869	32263.71
517.237	32328.8
517.604	32362.24
517.972	32647.43
518.339	33041.77
518.706	33043.81
519.073	33340.52
519.44	33456.9
519.808	33811.92
520.175	33916.55
520.542	34430.21
520.909	34675.18
521.276	34586.14
521.643	35137.99
522.009	35259.34
522.376	35602.84
522.743	35858.65
523.11	36179.54
523.477	36480.78
523.843	36617.95
524.21	37073.98
524.577	37317.37
524.943	37412.28
525.31	37704.93
525.676	38006.84
526.043	38141.3
526.409	38378.36
526.776	38884.33
527.142	38899.92
527.508	39069.86
527.874	39455.84
528.241	39759.11
528.607	39851.31
528.973	40304.41
529.339	40319.55
529.705	40788.46
530.071	41102.8
530.437	41149.36
530.803	41339.18
531.169	41618.72
531.535	41752.28
531.901	41774.65
532.267	42016.45
532.632	42326.05
532.998	42511.13
533.364	42713.83
533.73	42983.43
534.095	43152.69
534.461	43323.08
534.826	43519.92
535.192	43581.38
535.557	43987.47
535.923	43913.58
536.288	44161.93
536.653	44383.4
537.019	44306.34
537.384	44659.09
537.749	44657.96
538.114	44764.18
538.479	44878.75
538.845	45249.59
539.21	45182.24
539.575	45416.59
539.94	45488.68
540.305	45725.73
540.67	45775.67
541.034	45916.69
541.399	46167.76
541.764	46310.8
542.129	46464.02
542.494	46550.57
542.858	46691.13
543.223	46713.5
543.587	47070.78
543.952	47041.4
544.316	47142.42
544.681	47237.11
545.045	47411.11
545.41	47670.09
545.774	47692.01
546.138	47772.23
546.503	47863.08
546.867	47903.75
547.231	48261.71
547.595	48230.07
547.959	48356.17
548.324	48489.28
548.688	48680.91
549.052	48800
549.416	48912.99
549.779	48874.58
550.143	49063.5
550.507	49255.58
550.871	49431.62
551.235	49381.23
551.599	49799.75
551.962	49857.6
552.326	49896.92
552.689	50132.85
553.053	50034.32
553.417	50177.82
553.78	50560.18
554.143	50472.73
554.507	50653.96
554.87	50750.01
555.234	51063.9
555.597	50945.93
555.96	51046.72
556.323	51274.29
556.686	51280.16
557.05	51615.75
557.413	51689.19
557.776	51768.74
558.139	51996.75
558.502	51929.86
558.865	52035.85
559.228	52424.31
559.59	52447.82
559.953	52528.49
560.316	52835.15
560.679	52830.63
561.041	52991.53
561.404	53091.64
561.767	53375.48
562.129	53294.35
562.492	53624.96
562.854	53671.29
563.217	53642.81
563.579	53791.96
563.941	54000.54
564.304	54170.03
564.666	54262.23
565.028	54340.65
565.39	54407.09
565.753	54538.16
566.115	54665.16
566.477	54830.35
566.839	54800.75
567.201	55072.83
567.563	55094.98
567.925	55309.66
568.287	55312.83
568.648	55338.14
569.01	55493.84
569.372	55619.94
569.734	55602.31
570.095	55747.16
570.457	55930.66
570.819	55986.03
571.18	55969.98
571.542	56126.14
571.903	56177.21
572.265	56301.95
572.626	56306.47
572.987	56415.4
573.349	56475.96
573.71	56627.82
574.071	56707.59
574.432	56704.65
574.794	56906.46
575.155	56929.96
575.516	56857.87
575.877	56978.77
576.238	57031.65
576.599	57110.74
576.96	57157.52
577.32	57187.35
577.681	57220.8
578.042	57349.61
578.403	57313
578.763	57318.2
579.124	57303.28
579.485	57461.24
579.845	57536.5
580.206	57482.49
580.566	57516.61
580.927	57521.13
581.287	57587.12
581.648	57430.28
582.008	57616.27
582.368	57541.47
582.728	57638.41
583.089	57622.37
583.449	57614.69
583.809	57635.48
584.169	57702.37
584.529	57637.51
584.889	57835.92
585.249	57651.07
585.609	57618.53
585.969	57794.12
586.329	57701.01
586.688	57775.36
587.048	57735.13
587.408	57625.98
587.768	57692.88
588.127	57715.7
588.487	57688.13
588.846	57820.33
589.206	57659.66
589.565	57706.89
589.925	57863.49
590.284	57765.19
590.643	57783.49
591.003	57848.58
591.362	57886.32
591.721	57812.42
592.08	57825.75
592.44	57906.88
592.799	57962.93
593.158	57918.63
593.517	57840.22
593.876	57922.25
594.235	57782.59
594.593	57876.83
594.952	57993.66
595.311	57805.87
595.67	57922.25
596.029	58030.95
596.387	58020.78
596.746	58120.89
597.104	57967.67
597.463	57912.3
597.822	58034.34
598.18	57940.33
598.538	57981
598.897	58124.95
599.255	57906.66
599.613	58335.57
599.972	58075.46
600.33	58192.07
600.688	58018.29
601.046	58188
601.404	58268
601.762	58197.72
602.12	58348.23
602.478	58242.92
602.836	58310.26
603.194	58211.05
603.552	58280.2
603.91	58185.29
604.268	58355.23
604.625	58255.8
604.983	58350.49
605.341	58258.74
605.698	58440.2
606.056	58440.2
606.413	58451.73
606.771	58545.96
607.128	58557.71
607.485	58475.91
607.843	58412.18
608.2	58597.03
608.557	58701.21
608.914	58519.52
609.272	58707.09
609.629	58720.65
609.986	58798.61
610.343	58699.63
610.7	58871.15
611.057	58763.81
611.414	58762.45
611.771	58788.67
612.127	58895.56
612.484	58863.92
612.841	58915.67
613.198	58907.98
613.554	58923.58
613.911	59002.9
614.267	58991.37
614.624	58956.12
614.98	59004.48
615.337	59174.64
615.693	59116.12
616.05	59138.71
616.406	59291.25
616.762	59129.45
617.118	59165.15
617.475	59182.1
617.831	59253.29
618.187	59244.25
618.543	59240.41
618.899	59393.62
619.255	59388.65
619.611	59286.73
619.967	59349.56
620.323	59382.55
620.678	59338.03
621.034	59321.08
621.39	59315.88
621.746	59304.58
622.101	59518.59
622.457	59284.7
622.812	59403.79
623.168	59436.78
623.523	59460.51
623.879	59489.89
624.234	59322.21
624.589	59491.47
624.945	59455.77
625.3	59421.87
625.655	59394.98
626.01	59424.81
626.365	59411.25
626.72	59361.76
627.075	59398.82
627.43	59469.33
627.785	59340.06
628.14	59277.69
628.495	59378.03
628.85	59328.99
629.205	59241.54
629.559	59359.72
629.914	59216.45
630.269	59290.12
630.623	59245.6
630.978	59152.27
631.332	59304.13
631.687	59268.2
632.041	59165.61
632.396	59187.3
632.75	59053.52
633.104	59195.44
633.459	59060.75
633.813	59054.87
634.167	58962.22
634.521	58950.47
634.875	59039.05
635.229	58935.55
635.583	58807.87
635.937	58858.04
636.291	58811.94
636.645	58837.03
636.999	58772.62
637.352	58786.41
637.706	58646.07
638.06	58805.84
638.413	58709.57
638.767	58592.29
639.121	58653.75
639.474	58564.27
639.828	58526.98
640.181	58489.01
640.534	58502.35
640.888	58420.09
641.241	58302.58
641.594	58420.99
641.947	58472.06
642.301	58355.46
642.654	58328.34
643.007	58412.86
643.36	58283.82
643.713	58192.07
644.066	58310.49
644.419	58156.82
644.771	58051.28
645.124	57815.13
645.477	57802.03
645.83	57565.2
646.182	57477.29
646.535	57373.79
646.888	57384.86
647.24	57316.61
647.593	57398.42
647.945	57223.96
648.298	57196.17
648.65	57176.96
649.002	57023.29
649.355	57200.23
649.707	57093.12
650.059	57227.8
650.411	57477.74
650.763	57578.08
651.115	57830.5
651.467	57704.4
651.819	57638.87
652.171	57585.31
652.523	57550.28
652.875	57560.45
653.227	57400.45
653.578	57575.59
653.93	57520.45
654.282	57344.64
654.633	57359.33
654.985	57402.94
655.337	57407.91
655.688	57379.21
656.039	57424.18
656.391	57230.06
656.742	57310.51
657.094	57207.92
657.445	57402.94
657.796	57389.38
658.147	57237.29
658.498	57164.08
658.849	57282.27
659.2	57187.35
659.551	57148.03
659.902	57179.22
660.253	57169.5
660.604	57201.36
660.955	57019
661.306	57131.53
661.656	57037.75
662.007	57102.83
662.358	57033.68
662.708	57009.96
663.059	56999.11
663.409	56865.33
663.76	57064.19
664.11	56992.56
664.461	56974.7
664.811	56980.8
665.161	56969.05
665.511	56904.87
665.862	56904.65
666.212	57041.37
666.562	56977.41
666.912	56945.55
667.262	56815.84
667.612	56926.79
667.962	56915.72
668.312	56861.26
668.662	56908.04
669.011	56897.87
669.361	56821.03
669.711	56818.1
670.06	56833.92
670.41	56868.26
670.76	56695.16
671.109	56759.79
671.459	56700.36
671.808	56722.28
672.157	56702.17
672.507	56536.97
672.856	56476.64
673.205	56585.33
673.554	56559.12
673.904	56528.61
674.253	56668.04
674.602	56505.79
674.951	56121.39
675.3	56011.56
675.649	56413.81
675.998	56423.08
676.346	56428.05
676.695	56518.9
677.044	56292.69
677.393	56396.19
677.741	56363.87
678.09	56325
678.438	56222.18
678.787	56305.79
679.135	56177.66
679.484	56040.49
679.832	56212.46
680.181	56035.29
680.529	56114.84
680.877	56010.89
681.225	55997.55
681.573	56152.58
681.922	55875.97
682.27	55766.6
682.618	55824
682.966	55884.34
683.314	55827.84
683.661	55692.7
684.009	55662.87
684.357	55512.82
684.705	55517.79
685.053	55566.6
685.4	55501.29
685.748	55370.9
686.095	55252.26
686.443	55078.03
686.79	55150.57
687.138	55208.87
687.485	55186.95
687.832	55151.47
688.18	55128.65
688.527	54917.36
688.874	54965.94
689.221	54827.64
689.568	54789.22
689.915	54768.66
690.262	54821.09
690.609	54627.87
690.956	54580.87
691.303	54559.62
691.65	54346.52
691.997	54319.41
692.344	54244.83
692.69	54164.38
693.037	54145.17
693.383	53921.68
693.73	54043.03
694.077	53868.12
694.423	53801.68
694.769	53727.78
695.116	53603.94
695.462	53672.19
695.808	53448.24
696.155	53480.78
696.501	53309.94
696.847	53335.48
697.193	53001.25
697.539	53207.34
697.885	52944.3
698.231	52870.86
698.577	52862.95
698.923	52745.89
699.269	52662.73
699.614	52505.44
699.96	52448.49
700.306	52400.81
700.651	52382.05
700.997	52183.87
701.342	52120.37
701.688	52022.97
702.033	51967.6
702.379	51877.21
702.724	51864.1
703.069	51846.48
703.415	51487.62
703.76	51528.74
704.105	51493.04
704.45	51352.03
704.795	51268.19
705.14	51000.62
705.485	51114.74
705.83	50799.27
706.175	50975.31
706.52	50800.4
706.865	50713.85
707.209	50680.63
707.554	50513.4
707.899	50612.61
708.243	50303.24
708.588	50348.21
708.932	50060.31
709.277	50171.49
709.621	50212.62
709.966	49937.6
710.31	49965.4
710.654	49676.36
710.998	49698.06
711.342	49666.87
711.687	49666.87
712.031	49382.13
712.375	49268.92
712.719	49317.73
713.063	49262.36
713.407	49456.48
713.75	49165.19
714.094	49131.07
714.438	48946.44
714.782	49040
715.125	48856.95
715.469	48829.83
715.812	48633.23
716.156	48384.87
716.499	48443.85
716.843	48493.8
717.186	48323.18
717.53	48450.41
717.873	48395.95
718.216	48293.12
718.559	48174.48
718.902	47856.52
719.246	47960.25
719.589	47801.61
719.932	47627.83
720.275	47638.22
720.617	47645.68
720.96	47494.27
721.303	47513.48
721.646	47509.41
721.989	47457.89
722.331	47360.49
722.674	47204.34
723.016	47231.68
723.359	47022.42
723.701	47155.07
724.044	46761.19
724.386	46576.11
724.729	46775.87
725.071	46676.44
725.413	46542.21
725.755	46571.59
726.097	46432.83
726.439	46243.91
726.782	46279.62
727.124	46383.34
727.465	46243.69
727.807	46085.72
728.149	46045.27
728.491	45918.5
728.833	45977.48
729.175	45915.78
729.516	45651.38
729.858	45704.72
730.199	45749.69
730.541	45639.63
730.882	45357.83
731.224	45573.87
731.565	45324.84
731.906	45445.74
732.248	45388.57
732.589	45236.93
732.93	44989.03
733.271	44897.28
733.612	44972.76
733.953	44966.43
734.294	44747.23
734.635	44686.89
734.976	44793.1
735.317	44615.71
735.658	44759.43
735.999	44483.05
736.339	44347.01
736.68	44428.37
737.021	44258.65
737.361	43911.32
737.702	44340.68
738.042	44100.92
738.383	44179.33
738.723	44146.57
739.063	43915.38
739.404	43959.23
739.744	43885.78
740.084	43656.41
740.424	43711.55
740.764	43593.81
741.104	43721.49
741.444	43534.15
741.784	43337.55
742.124	43439.92
742.464	43318.79
742.804	43228.62
743.143	43304.78
743.483	43209.64
743.823	42926.03
744.162	42947.27
744.502	42944.11
744.841	42710.67
745.181	42905.02
745.52	42555.65
745.86	42692.59
746.199	42641.29
746.538	42551.35
746.877	42604.01
747.216	42420.51
747.556	42326.05
747.895	42403.33
748.234	42157.46
748.573	42019.16
748.911	41960.18
749.25	41995.21
749.589	41692.84
749.928	41815.55
750.267	41855.1
750.605	41607.87
750.944	41576.92
751.283	41456.69
751.621	41425.73
751.96	41187.32
752.298	41234.78
752.636	41150.71
752.975	40927.89
753.313	40806.09
753.651	40956.82
753.989	40712.76
754.327	40654.68
754.666	40546.43
755.004	40493.55
755.342	40483.84
755.679	40442.26
756.017	40115.03
756.355	40175.37
756.693	39988.48
757.031	40036.84
757.368	39739.45
757.706	39786.91
758.044	39465.56
758.381	39631.88
758.719	39436.41
759.056	39413.58
759.394	39209.75
759.731	38982.86
760.068	38963.2
760.405	38840.94
760.743	38765.24
761.08	38871.68
761.417	38558.92
761.754	38474.85
762.091	38281.86
762.428	38207.74
762.765	37977.69
763.102	38097.23
763.438	37886.16
763.775	37749.22
764.112	37877.8
764.449	37838.48
764.785	37431.49
765.122	37235.11
765.458	37074.21
765.795	37163.7
766.131	37050.93
766.467	36897.04
766.804	36845.97
767.14	36641.9
767.476	36505.41
767.812	36316.71
768.148	36372.08
768.485	36042.15
768.821	35904.97
769.157	35881.25
769.492	35890.51
769.828	35790.17
770.164	35426.79
770.5	35308.15
770.836	35308.61
771.171	35155.39
771.507	35001.72
771.842	34776.64
772.178	34888.5
772.513	34756.98
772.849	34617.78
773.184	34567.83
773.519	34389.31
773.855	34285.58
774.19	34038.81
774.525	33940.28
774.86	34045.81
775.195	33766.73
775.53	33723.34
775.865	33499.61
776.2	33229.34
776.535	33138.49
776.87	33037.48
777.205	32817.15
777.539	32749.58
777.874	32769.46
778.209	32605.85
778.543	32448.57
778.878	32347.55
779.212	32183.94
779.547	32031.4
779.881	32115.47
780.215	31958.19
780.55	32000.22
780.884	31786.44
781.218	31728.36
781.552	31668.02
781.886	31377.41
782.22	31179.45
782.554	31110.07
782.888	30893.13
783.222	30906.91
783.556	30701.5
783.889	30593.48
784.223	30494.72
784.557	30263.54
784.89	30343.76
785.224	30138.35
785.557	30142.64
785.891	29931.35
786.224	29842.08
786.558	29889.54
786.891	29543.11
787.224	29441.64
787.557	29410
787.891	29384.47
788.224	29273.74
788.557	29268.54
788.89	29189.67
789.223	29045.04
789.556	28826.06
789.888	28812.05
790.221	28599.63
790.554	28440.76
790.887	28648.22
791.219	28398.28
791.552	28297.49
791.884	28161.45
792.217	28073.09
792.549	28018.85
792.882	27800.55
793.214	27682.59
793.546	27782.02
793.879	27503.84
794.211	27272.88
794.543	27445.54
794.875	27315.37
795.207	27315.37
795.539	27114.02
795.871	27126.45
796.203	26801.03
796.535	26858.88
796.867	26670.87
797.198	26702.73
797.53	26655.73
797.862	26399.46
798.193	26389.97
798.525	26315.4
798.856	26132.12
799.188	25934.61
799.519	25960.15
799.85	25864.33
800.182	25911.34
800.513	25860.04
800.844	25646.71
801.175	25724.22
801.506	25547.05
801.837	25401.07
802.168	25428.87
802.499	25279.72
802.83	25090.12
803.161	25187.06
803.491	25234.97
803.822	25064.36
804.153	24989.1
804.483	24823.46
804.814	24713.18
805.145	24648.55
805.475	24663.24
805.805	24536.69
806.136	24578.94
806.466	24534.65
806.796	24395.67
807.126	24201.1
807.457	24174.89
807.787	24079.97
808.117	24077.26
808.447	23917.94
808.777	23985.51
809.107	23809.7
809.436	23768.12
809.766	23783.48
810.096	23675.24
810.426	23556.37
810.755	23663.49
811.085	23589.82
811.414	23501.68
811.744	23261.01
812.073	23115.71
812.403	23252.88
812.732	23082.49
813.061	23123.16
813.39	22905.09
813.719	22813.11
814.049	22919.1
814.378	22752.78
814.707	22704.42
815.036	22691.08
815.365	22521.82
815.693	22439.79
816.022	22464.88
816.351	22324.77
816.68	22310.53
817.008	22347.82
817.337	22090.42
817.665	22155.96
817.994	22142.4
818.322	22112.34
818.651	21971.78
818.979	21984.21
819.307	21998.45
819.636	21968.84
819.964	21889.07
820.292	21813.37
820.62	21862.18
820.948	21722.75
821.276	21827.38
821.604	21778.34
821.932	21694.95
822.259	21796.19
822.587	21683.43
822.915	21659.25
823.243	21722.97
823.57	21535.63
823.898	21599.36
824.225	21489.08
824.553	21572.02
824.88	21635.97
825.207	21672.81
825.535	21492.92
825.862	21584.22
826.189	21425.35
826.516	21644.56
826.843	21697.21
827.17	21541.74
827.497	21593.26
827.824	21586.25
828.151	21602.53
828.478	21559.59
828.805	21601.85
829.131	21489.31
829.458	21457.44
829.785	21364.34
830.111	21448.4
830.438	21541.06
830.764	21373.83
831.09	21437.33
831.417	21276.43
831.743	21478.46
832.069	21482.75
832.395	21327.96
832.722	21435.75
833.048	21204.57
833.374	21316.21
833.7	21158.92
834.026	21278.01
834.351	21359.14
834.677	21169.77
835.003	21257.45
835.329	21294.06
835.654	21142.2
835.98	21033.73
836.306	21031.01
836.631	21068.75
836.956	21084.8
837.282	21026.95
837.607	20916.44
837.932	20887.52
838.258	20888.65
838.583	20888.19
838.908	20855.65
839.233	20782.43
839.558	20694.98
839.883	20672.61
840.208	20594.42
840.533	20581.08
840.858	20644.58
841.182	20500.41
841.507	20571.59
841.832	20407.98
842.156	20384.7
842.481	20337.47
842.805	20308.55
843.13	20189.23
843.454	20199.17
843.778	20018.16
844.103	20095.22
844.427	19984.49
844.751	20027.88
845.075	19910.59
845.399	19849.8
845.723	19757.38
846.047	19761.9
846.371	19594.44
846.695	19607.78
847.019	19548.34
847.343	19396.03
847.666	19427.67
847.99	19232.87
848.313	19146.09
848.637	19086.43
848.96	18998.53
849.284	19005.08
849.607	18865.87
849.931	18837.4
850.254	18718.76
850.577	18596.95
850.9	18414.59
851.223	18509.73
851.546	18329.39
851.869	18210.3
852.192	18307.47
852.515	18139.57
852.838	18059.34
853.161	18007.14
853.483	18013.47
853.806	17892.34
854.129	17841.49
854.451	17767.6
854.774	17703.64
855.096	17585.91
855.419	17622.97
855.741	17505.91
856.063	17498.9
856.385	17378
856.708	17335.97
857.03	17300.49
857.352	17309.98
857.674	17170.1
857.996	17092.59
858.318	17118.35
858.64	17005.13
858.961	16949.54
859.283	16953.38
859.605	16884.46
859.926	16947.28
860.248	16786.15
860.57	16784.12
860.891	16829.09
861.212	16641.98
861.534	16549.55
861.855	16613.05
862.176	16608.08
862.498	16546.84
862.819	16478.82
863.14	16458.03
863.461	16336.67
863.782	16274.76
864.103	16326.73
864.424	16299.39
864.745	16292.38
865.065	16250.35
865.386	16111.14
865.707	16108.88
866.027	16137.13
866.348	16169.45
866.668	16035.21
866.989	16093.07
867.309	15900.08
867.63	16000.86
867.95	15908.89
868.27	15749.57
868.59	15754.54
868.91	15840.87
869.23	15786.18
869.55	15704.38
869.87	15802.9
870.19	15745.05
870.51	15614.89
870.83	15744.37
871.15	15655.79
871.469	15559.97
871.789	15605.85
872.109	15558.39
872.428	15526.98
872.748	15470.26
873.067	15455.12
873.386	15532.63
873.706	15363.59
874.025	15381.45
874.344	15260.09
874.663	15342.35
874.982	15301
875.301	15279.53
875.62	15266.87
875.939	15171.28
876.258	15243.37
876.577	15062.58
876.896	15036.37
877.214	15048.12
877.533	15116.37
877.852	15096.71
878.17	15098.52
878.489	15102.13
878.807	14980.55
879.125	14972.42
879.444	14963.6
879.762	14876.37
880.08	14866.21
880.398	14783.95
880.716	14829.37
881.034	14733.1
881.352	14773.78
881.67	14745.3
881.988	14668.47
882.306	14658.53
882.624	14692.42
882.941	14558.19
883.259	14583.5
883.577	14478.64
883.894	14498.31
884.212	14508.47
884.529	14459.21
884.846	14341.02
885.164	14401.13
885.481	14361.81
885.798	14305.99
886.115	14196.17
886.432	14223.51
886.75	14133.57
887.067	14269.38
887.383	14197.75
887.7	14212.44
888.017	14033.23
888.334	14051.31
888.651	14024.87
888.967	13981.93
889.284	13925.89
889.6	13874.37
889.917	13782.62
890.233	13817.87
890.55	13697.65
890.866	13759.79
891.182	13750.53
891.498	13619.01
891.815	13555.73
892.131	13572.68
892.447	13549.63
892.763	13484.55
893.079	13375.17
893.395	13418.33
893.71	13361.16
894.026	13312.12
894.342	13312.57
894.657	13243.65
894.973	13183.09
895.289	13126.82
895.604	13022.41
895.92	12915.07
896.235	12990.1
896.55	12950.1
896.865	12950.55
897.181	12898.57
897.496	12877.33
897.811	12797.56
898.126	12703.78
898.441	12635.98
898.756	12652.03
899.071	12612.71
899.386	12608.19
899.7	12521.86
900.015	12450.68
900.33	12373.16
900.644	12332.71
900.959	12340.17
901.273	12296.56
901.588	12294.75
901.902	12107.41
902.216	12132.04
902.531	12064.47
902.845	12038.93
903.159	11940.18
903.473	12000.97
903.787	11913.06
904.101	11838.94
904.415	11829.67
904.729	11801.88
905.042	11697.25
905.356	11674.65
905.67	11613.64
905.984	11700.64
906.297	11606.63
906.611	11502.45
906.924	11540.64
907.237	11433.3
907.551	11377.48
907.864	11359.4
908.177	11325.06
908.491	11308.56
908.804	11206.41
909.117	11117.38
909.43	11084.16
909.743	11032.18
910.056	10944.95
910.368	10982.92
910.681	10921.9
910.994	10877.84
911.307	10837.61
911.619	10731.4
911.932	10730.72
912.244	10699.31
912.557	10689.59
912.869	10559.88
913.181	10548.58
913.494	10534.79
913.806	10494.57
914.118	10395.81
914.43	10317.62
914.742	10316.49
915.054	10247.57
915.366	10236.27
915.678	10196.5
915.99	10105.65
916.302	10061.36
916.613	10004.86
916.925	10001.7
917.236	10013.68
917.548	9894.81
917.859	9972.77
918.171	9869.27
918.482	9779.79
918.794	9797.86
919.105	9749.28
919.416	9659.11
919.727	9611.88
920.038	9640.13
920.349	9534.37
920.66	9542.96
920.971	9494.82
921.282	9458.89
921.593	9414.82
921.903	9322.17
922.214	9302.74
922.525	9241.95
922.835	9238.1
923.146	9159.91
923.456	9137.32
923.767	9128.28
924.077	9058
924.387	9095.51
924.697	8977.32
925.008	8976.19
925.318	8968.06
925.628	8926.25
925.938	8866.36
926.248	8776.2
926.558	8734.84
926.867	8728.97
927.177	8704.79
927.487	8660.72
927.796	8566.71
928.106	8591.79
928.416	8517.45
928.725	8476.09
929.034	8428.86
929.344	8422.53
929.653	8429.54
929.962	8360.39
930.271	8277.45
930.581	8283.55
930.89	8238.13
931.199	8213.27
931.508	8172.82
931.817	8119.49
932.125	8049.89
932.434	8056.67
932.743	7996.56
933.051	7939.38
933.36	7953.84
933.669	7958.14
933.977	7824.81
934.286	7845.15
934.594	7831.14
934.902	7734.42
935.21	7694.64
935.519	7693.06
935.827	7670.46
936.135	7620.07
936.443	7555.89
936.751	7513.18
937.059	7543.69
937.367	7493.97
937.674	7440.86
937.982	7446.97
938.29	7412.62
938.597	7435.44
938.905	7348.66
939.213	7295.56
939.52	7267.08
939.827	7254.2
940.135	7225.28
940.442	7150.02
940.749	7167.42
941.056	7095.56
941.363	6991.38
941.67	7110.25
941.977	6967.88
942.284	6950.93
942.591	6997.49
942.898	6877.94
943.205	6880.88
943.511	6877.49
943.818	6848.56
944.125	6788.9
944.431	6786.19
944.738	6727.44
945.044	6675.91
945.35	6700.77
945.657	6670.26
945.963	6618.96
946.269	6600.21
946.575	6613.54
946.881	6526.54
947.187	6490.61
947.493	6512.75
947.799	6460.78
948.105	6424.62
948.41	6336.26
948.716	6404.05
949.022	6322.7
949.327	6292.42
949.633	6251.06
949.938	6260.56
950.244	6248.58
950.549	6187.79
950.854	6146.89
951.16	6121.35
951.465	6114.57
951.77	6089.71
952.075	6084.29
952.38	5967.46
952.685	6027.34
952.99	5979.21
953.294	5963.39
953.599	5917.74
953.904	5890.17
954.209	5853.79
954.513	5871.64
954.818	5792.77
955.122	5810.62
955.426	5768.59
955.731	5728.37
956.035	5673.9
956.339	5706.22
956.643	5680.01
956.948	5590.29
957.252	5605.66
957.556	5627.13
957.86	5579.67
958.163	5567.24
958.467	5535.83
958.771	5497.64
959.075	5509.16
959.378	5385.1
959.682	5466.23
959.985	5418.54
960.289	5382.16
960.592	5321.37
960.896	5272.33
961.199	5216.52
961.502	5250.19
961.805	5225.78
962.108	5219.23
962.411	5200.92
962.714	5160.25
963.017	5172.22
963.32	5135.61
963.623	5081.38
963.926	5095.61
964.228	5059.68
964.531	5007.93
964.833	4997.76
965.136	4962.06
965.438	4984.88
965.741	4917.54
966.043	4922.06
966.345	4928.39
966.648	4874.15
966.95	4861.95
967.252	4822.63
967.554	4834.38
967.856	4809.97
968.158	4788.28
968.46	4774.95
968.761	4710.31
969.063	4695.4
969.365	4669.64
969.666	4633.93
969.968	4602.07
970.269	4618.34
970.571	4583.54
970.872	4604.55
971.174	4554.16
971.475	4526.59
971.776	4531.34
972.077	4516.42
972.378	4494.95
972.679	4481.39
972.98	4438.23
973.281	4439.59
973.582	4412.47
973.883	4332.47
974.183	4387.16
974.484	4330.21
974.785	4325.24
975.085	4270.33
975.386	4295.64
975.686	4295.64
975.986	4233.04
976.287	4191.46
976.587	4171.35
976.887	4181.29
977.187	4187.62
977.487	4136.09
977.787	4092.03
978.087	4064.91
978.387	4103.32
978.687	4075.53
978.987	4038.24
979.286	4048.41
979.586	4059.03
979.885	3948.98
980.185	3981.52
980.484	3950.11
980.784	3954.18
981.083	3921.18
981.382	3906.72
981.682	3882.54
981.981	3848.64
982.28	3881.18
982.579	3808.87
982.878	3839.15
983.177	3764.35
983.475	3817.91
983.774	3716.22
984.073	3744.01
984.372	3737.91
984.67	3701.75
984.969	3717.12
985.267	3716.67
985.566	3654.52
985.864	3672.83
986.162	3642.09
986.461	3609.55
986.759	3581.76
987.057	3552.83
987.355	3519.61
987.653	3526.39
987.951	3546.05
988.249	3489.78
988.547	3515.09
988.844	3493.85
989.142	3451.59
989.44	3449.78
989.737	3382.21
990.035	3434.87
990.332	3386.96
990.63	3336.79
990.927	3374.76
991.224	3358.94
991.521	3310.8
991.819	3297.02
992.116	3294.08
992.413	3248.21
992.71	3232.39
993.006	3232.61
993.303	3235.78
993.6	3201.43
993.897	3191.71
994.193	3143.12
994.49	3179.51
994.787	3151.94
995.083	3113.97
995.379	3121.88
995.676	3112.39
995.972	3072.62
996.268	3075.1
996.565	3024.48
996.861	3071.04
997.157	3019.74
997.453	2982.9
997.749	2995.1
998.044	2953.3
998.34	2955.33
998.636	2938.84
998.932	2919.85
999.227	2920.53
999.523	2918.72
999.818	2895.9
1000.114	2866.52
1000.409	2873.75
1000.704	2842.34
1001	2816.8
1001.295	2806.64
1001.59	2760.31
1001.885	2762.12
1002.18	2788.33
1002.475	2735.45
1002.77	2733.64
1003.065	2683.93
1003.359	2695.23
1003.654	2697.49
1003.949	2700.42
1004.243	2634.89
1004.538	2609.13
1004.832	2588.34
1005.127	2593.99
1005.421	2559.41
1005.715	2545.4
1006.009	2536.13
1006.304	2521.45
1006.598	2478.28
1006.892	2483.71
1007.186	2510.37
1007.48	2468.11
1007.773	2488.68
1008.067	2415.46
1008.361	2434.67
1008.655	2403.26
1008.948	2400.77
1009.242	2377.72
1009.535	2362.35
1009.829	2338.85
1010.122	2359.19
1010.415	2325.97
1010.708	2318.74
1011.001	2306.54
1011.295	2311.73
1011.588	2243.26
1011.881	2260.66
1012.173	2249.36
1012.466	2263.37
1012.759	2220.89
1013.052	2231.51
1013.344	2192.87
1013.637	2137.95
1013.93	2144.28
1014.222	2162.58
1014.514	2149.48
1014.807	2142.25
1015.099	2099.76
1015.391	2081.91
1015.683	2070.84
1015.976	2059.31
1016.268	2032.42
1016.56	2041.46
1016.851	2029.48
1017.143	2010.95
1017.435	2005.53
1017.727	2014.57
1018.018	1988.58
1018.31	1961.69
1018.602	1957.39
1018.893	1952.65
1019.185	1946.09
1019.476	1928.24
1019.767	1914
1020.058	1895.25
1020.35	1895.92
1020.641	1849.37
1020.932	1876.72
1021.223	1842.37
1021.514	1821.8
1021.804	1803.05
1022.095	1760.79
1022.386	1772.76
1022.677	1756.49
1022.967	1756.72
1023.258	1749.49
1023.548	1722.6
1023.839	1705.42
1024.129	1703.39
1024.419	1702.71
1024.709	1673.56
1025	1662.48
1025.29	1660.68
1025.58	1644.86
1025.87	1622.26
1026.16	1628.59
1026.449	1646.67
1026.739	1577.06
1027.029	1603.05
1027.319	1550.17
1027.608	1581.13
1027.898	1543.39
1028.187	1570.06
1028.477	1549.95
1028.766	1538.65
1029.055	1539.32
1029.344	1514.92
1029.634	1488.03
1029.923	1468.37
1030.212	1464.07
1030.501	1481.92
1030.79	1457.07
1031.078	1436.5
1031.367	1437.41
1031.656	1417.75
1031.945	1375.94
1032.233	1432.66
1032.522	1380.68
1032.81	1394.69
1033.099	1370.29
1033.387	1365.09
1033.675	1366.45
1033.963	1340.46
1034.251	1332.78
1034.54	1293
1034.828	1325.09
1035.116	1318.99
1035.403	1321.93
1035.691	1286.9
1035.979	1269.95
1036.267	1289.84
1036.554	1290.52
1036.842	1255.26
1037.129	1240.57
1037.417	1220.24
1037.704	1282.83
1037.992	1188.15
1038.279	1201.25
1038.566	1199.22
1038.853	1199.22
1039.14	1199.22
