Data from breadboard_white_FLMS001491_00047.txt Node
Date: Wed Feb 08 10:47:47 GMT 2017
User: dcchb
Spectrometer: FLMS00149
Trigger mode: 0
Integration Time (sec): 2.000000E-2
Scans to average: 10
Electric dark correction enabled: true
Nonlinearity correction enabled: false
Boxcar width: 0
XAxis mode: Wavelengths
Number of Pixels in Spectrum: 2048
>>>>>Begin Spectral Data<<<<<
341.393	2.1
341.776	2.1
342.16	2.1
342.543	-59.36
342.927	-44.45
343.31	-85.58
343.693	-75.41
344.077	-76.76
344.46	-57.55
344.843	-44.67
345.226	-49.87
345.61	-33.6
345.993	-17.1
346.376	-5.13
346.759	15.66
347.142	16.12
347.525	56.79
347.908	45.72
348.291	90.92
348.674	99.5
349.057	120.97
349.44	102.21
349.823	146.73
350.206	155.09
350.588	193.96
350.971	226.28
351.354	240.97
351.737	249.56
352.119	262.21
352.502	263.11
352.884	281.42
353.267	301.31
353.65	307.86
354.032	312.6
354.414	331.59
354.797	326.16
355.179	326.62
355.562	342.66
355.944	338.37
356.326	339.5
356.709	343.56
357.091	358.48
357.473	370.68
357.855	360.06
358.238	355.77
358.62	356.67
359.002	376.33
359.384	388.08
359.766	365.48
360.148	341.98
360.53	367.97
360.912	362.77
361.294	355.77
361.676	348.54
362.057	363.68
362.439	365.94
362.821	341.08
363.203	357.12
363.584	355.99
363.966	348.54
364.348	342.43
364.729	343.56
365.111	341.53
365.493	335.88
365.874	341.98
366.256	336.33
366.637	329.78
367.019	346.5
367.4	357.35
367.781	339.04
368.163	343.11
368.544	328.88
368.925	328.65
369.306	362.77
369.688	345.82
370.069	344.24
370.45	332.49
370.831	349.89
371.212	350.8
371.593	352.6
371.974	351.93
372.355	324.13
372.736	330.91
373.117	348.99
373.498	355.32
373.879	341.76
374.26	365.26
374.641	351.25
375.021	365.71
375.402	352.38
375.783	350.8
376.163	362.55
376.544	370.23
376.925	372.72
377.305	373.62
377.686	377.91
378.066	370.23
378.447	358.03
378.827	384.47
379.208	383.56
379.588	374.3
379.968	368.87
380.349	381.98
380.729	378.59
381.109	377.69
381.489	390.57
381.87	381.3
382.25	381.3
382.63	417.01
383.01	404.35
383.39	408.87
383.77	386.5
384.15	401.64
384.53	418.36
384.91	389.21
385.29	418.14
385.67	412.26
386.049	409.33
386.429	426.73
386.809	437.57
387.189	436.67
387.568	452.04
387.948	434.18
388.328	410.91
388.707	441.19
389.087	426.73
389.466	461.53
389.846	459.04
390.225	462.21
390.605	471.24
390.984	488.19
391.363	482.09
391.743	492.04
392.122	482.32
392.501	515.54
392.881	498.81
393.26	515.54
393.639	532.49
394.018	522.99
394.397	528.87
394.776	541.3
395.155	543.11
395.534	542.88
395.913	543.11
396.292	537.91
396.671	572.94
397.05	566.16
397.429	573.61
397.808	598.7
398.186	588.08
398.565	604.8
398.944	611.58
399.323	623.78
399.701	594.63
400.08	638.47
400.458	646.61
400.837	655.19
401.215	674.18
401.594	660.39
401.972	676.21
402.351	681.63
402.729	692.93
403.107	703.78
403.486	710.11
403.864	715.76
404.242	725.7
404.62	769.32
404.999	775.19
405.377	764.57
405.755	806.15
406.133	800.73
406.511	795.53
406.889	829.2
407.267	837.56
407.645	855.42
408.023	893.15
408.401	901.29
408.779	928.41
409.156	942.19
409.534	953.94
409.912	944.23
410.29	995.75
410.667	1019.25
411.045	1040.27
411.422	1024.45
411.8	1016.32
412.178	1080.27
412.555	1102.87
412.933	1136.09
413.31	1156.65
413.687	1153.71
414.065	1196.88
414.442	1210.43
414.819	1215.41
415.197	1230.09
415.574	1247.95
415.951	1261.96
416.328	1283.65
416.705	1291.11
417.082	1328.85
417.46	1338.34
417.837	1366.81
418.214	1392.35
418.591	1380.37
418.967	1417.43
419.344	1431.9
419.721	1468.05
420.098	1446.81
420.475	1508.28
420.852	1501.95
421.228	1499.01
421.605	1528.84
421.982	1603.19
422.358	1553.93
422.735	1586.7
423.111	1592.8
423.488	1647.03
423.864	1658.56
424.241	1687.94
424.617	1701.27
424.994	1735.17
425.37	1731.32
425.746	1748.5
426.123	1761.38
426.499	1776.75
426.875	1793.24
427.251	1862.85
427.627	1888.38
428.003	1911.66
428.379	1943.75
428.756	1960.02
429.132	2002.05
429.507	2032.11
429.883	2048.38
430.259	2073.46
430.635	2089.06
431.011	2119.11
431.387	2180.58
431.763	2190.97
432.138	2206.79
432.514	2223.74
432.89	2264.19
433.265	2333.57
433.641	2354.13
434.016	2363.85
434.392	2402.04
434.767	2457.86
435.143	2480.68
435.518	2535.6
435.894	2499.67
436.269	2557.52
436.644	2562.94
437.02	2631.41
437.395	2640.68
437.77	2691.53
438.145	2718.64
438.52	2743.73
438.895	2756.83
439.271	2762.03
439.646	2840.45
440.021	2863.72
440.395	2843.16
440.77	2908.47
441.145	2919.09
441.52	2987.56
441.895	2979.88
442.27	3038.63
442.645	3019.65
443.019	3064.85
443.394	3065.75
443.769	3084.74
444.143	3033.21
444.518	3171.74
444.892	3195.47
445.267	3174.22
445.641	3184.39
446.016	3222.13
446.39	3249.93
446.764	3280.21
447.139	3272.75
447.513	3317.27
447.887	3323.15
448.262	3331.51
448.636	3387.1
449.01	3404.73
449.384	3450.38
449.758	3463.03
450.132	3562.69
450.506	3543.93
450.88	3536.02
451.254	3562.69
451.628	3626.42
452.002	3663.93
452.376	3697.83
452.75	3753.64
453.123	3810.37
453.497	3884.04
453.871	3842.46
454.244	3980.3
454.618	3967.88
454.992	4035.44
455.365	4008.78
455.739	4122.22
456.112	4133.97
456.486	4227.08
456.859	4225.5
457.232	4341.65
457.606	4371.26
457.979	4372.16
458.352	4507.07
458.725	4552.95
459.099	4567.63
459.472	4708.87
459.845	4761.98
460.218	4767.18
460.591	4831.36
460.964	4807.63
461.337	4951.13
461.71	4987.28
462.083	5103.21
462.456	5100.28
462.829	5175.53
463.201	5259.37
463.574	5241.74
463.947	5370.78
464.32	5483.99
464.692	5528.29
465.065	5530.77
465.438	5602.64
465.81	5753.37
466.183	5769.86
466.555	5904.32
466.928	5989.74
467.3	5954.72
467.672	6050.98
468.045	6187.48
468.417	6242.62
468.789	6288.94
469.161	6341.82
469.534	6480.58
469.906	6604.87
470.278	6639.67
470.65	6754.92
471.022	6820.68
471.394	6967.12
471.766	7094.8
472.138	7165.76
472.51	7282.82
472.882	7481.23
473.253	7511.06
473.625	7607.55
473.997	7774.56
474.369	7851.84
474.74	7892.74
475.112	8062.01
475.484	8237.82
475.855	8397.14
476.227	8416.12
476.598	8703.34
476.97	8746.06
477.341	8934.07
477.713	9107.18
478.084	9154.41
478.455	9444.57
478.827	9466.26
479.198	9736.76
479.569	9790.1
479.94	10105.79
480.311	10129.07
480.682	10460.81
481.053	10589.4
481.424	10796.4
481.795	10863.06
482.166	11073.9
482.537	11236.16
482.908	11468.47
483.279	11578.75
483.65	11812.87
484.021	12058.74
484.391	12128.11
484.762	12354.32
485.133	12417.15
485.503	12639.51
485.874	12783.46
486.244	12958.83
486.615	13214.19
486.985	13302.32
487.356	13642.2
487.726	13791.35
488.097	14011.23
488.467	14108.4
488.837	14412.12
489.207	14572.57
489.578	14775.28
489.948	14864.54
490.318	15058.88
490.688	15187.69
491.058	15460
491.428	15734.57
491.798	15848.92
492.168	16128.23
492.538	16208.91
492.908	16431.05
493.278	16621.78
493.648	16678.95
494.017	16932.05
494.387	17011.15
494.757	17098.38
495.126	17388.77
495.496	17536.11
495.866	17570.46
496.235	17769.55
496.605	17998.69
496.974	18080.05
497.344	18273.26
497.713	18320.94
498.082	18537.21
498.452	18728.84
498.821	18815.4
499.19	18922.96
499.559	19084.99
499.928	19212.45
500.298	19349.17
500.667	19614.02
501.036	19612.44
501.405	19806.33
501.774	19799.1
502.143	20074.57
502.512	20049.26
502.88	20329.25
503.249	20328.12
503.618	20565.86
503.987	20786.87
504.356	20750.26
504.724	20941.44
505.093	21036.81
505.462	21091.49
505.83	21291.49
506.199	21439.05
506.567	21781.42
506.936	21728.99
507.304	22034.75
507.672	22165.14
508.041	22206.49
508.409	22483.32
508.777	22643.54
509.145	22716.08
509.514	22841.05
509.882	23091.44
510.25	23112.23
510.618	23306.58
510.986	23427.93
511.354	23604.65
511.722	23877.63
512.09	24116.05
512.458	24056.16
512.826	24460.67
513.193	24435.36
513.561	24536.15
513.929	24789.02
514.297	24977.72
514.664	25155.57
515.032	25229.01
515.4	25599.17
515.767	25754.65
516.135	25752.61
516.502	25789.67
516.869	26244.8
517.237	26343.33
517.604	26380.39
517.972	26702.42
518.339	26922.3
518.706	27007.5
519.073	27110.32
519.44	27361.16
519.808	27663.07
520.175	27637.76
520.542	28021.71
520.909	28211.98
521.276	28132.66
521.643	28581.69
522.009	28764.51
522.376	29041.34
522.743	29155.01
523.11	29512.06
523.477	29726.52
523.843	29834.77
524.21	30247.41
524.577	30513.62
524.943	30528.08
525.31	30752.48
525.676	30996.09
526.043	31228.18
526.409	31374.39
526.776	31841.04
527.142	31908.38
527.508	32116.51
527.874	32422.27
528.241	32499.78
528.607	32647.35
528.973	32905.87
529.339	32935.93
529.705	33281.68
530.071	33527.32
530.437	33718.05
530.803	33993.75
531.169	33981.78
531.535	34111.49
531.901	34342.44
532.267	34519.61
532.632	34805.94
532.998	34959.83
533.364	35084.35
533.73	35122.76
534.095	35447.05
534.461	35612.02
534.826	35849.07
535.192	35876.87
535.557	36125
535.923	36278.21
536.288	36259.46
536.653	36499
537.019	36393.01
537.384	36694.02
537.749	36815.37
538.114	36950.74
538.479	37125.42
538.845	37055.82
539.21	37369.94
539.575	37405.19
539.94	37663.26
540.305	37791.85
540.67	37802.01
541.034	37981.67
541.399	38155.45
541.764	38310.7
542.129	38364.49
542.494	38475.44
542.858	38558.83
543.223	38609.9
543.587	38958.37
543.952	38933.74
544.316	39017.35
544.681	39159.27
545.045	39286.5
545.41	39474.74
545.774	39603.78
546.138	39685.58
546.503	39716.09
546.867	39802.64
547.231	40276.53
547.595	40172.8
547.959	40374.83
548.324	40495.28
548.688	40388.84
549.052	40721.71
549.416	40783.63
549.779	40853.23
550.143	41053.23
550.507	41414.8
550.871	41211.42
551.235	41380.45
551.599	41657.28
551.962	41809.59
552.326	41909.03
552.689	42016.14
553.053	42055.46
553.417	42064.28
553.78	42620.87
554.143	42537.03
554.507	42714.65
554.87	42875.1
555.234	43242.32
555.597	43157.81
555.96	43248.88
556.323	43505.14
556.686	43544.46
557.05	43909.88
557.413	44022.19
557.776	44140.38
558.139	44426.02
558.502	44543.98
558.865	44544.89
559.228	44852.45
559.59	44897.42
559.953	45037.53
560.316	45393.23
560.679	45449.95
561.041	45646.1
561.404	45930.61
561.767	46028.92
562.129	46157.5
562.492	46382.35
562.854	46515.01
563.217	46416.03
563.579	46691.27
563.941	46955.9
564.304	47175.33
564.666	47311.82
565.028	47420.29
565.39	47483.34
565.753	47624.13
566.115	47990
566.477	48084.23
566.839	48145.92
567.201	48430.89
567.563	48516.99
567.925	48709.07
568.287	48822.29
568.648	48862.06
569.01	49071.77
569.372	49271.77
569.734	49220.25
570.095	49418.88
570.457	49435.15
570.819	49662.49
571.18	49729.16
571.542	49913.79
571.903	49966.67
572.265	50184.74
572.626	50242.59
572.987	50261.8
573.349	50287.11
573.71	50503.83
574.071	50508.57
574.432	50778.4
574.794	50938.84
575.155	50909.47
575.516	50762.58
575.877	51058.39
576.238	51078.73
576.599	51122.79
576.96	51149.91
577.32	51176.13
577.681	51410.7
578.042	51413.63
578.403	51444.14
578.763	51493.86
579.124	51482.56
579.485	51665.83
579.845	51635.55
580.206	51691.59
580.566	51756
580.927	51572.73
581.287	51836.45
581.648	51745.38
582.008	51857.01
582.368	51805.94
582.728	51916.9
583.089	51854.3
583.449	51828.09
583.809	51998.7
584.169	51866.73
584.529	51828.09
584.889	52109.43
585.249	51932.72
585.609	51876.45
585.969	52077.8
586.329	52048.65
586.688	52045.93
587.048	52046.61
587.408	51986.5
587.768	51986.05
588.127	52095.88
588.487	51840.06
588.846	52142.2
589.206	52013.62
589.565	52051.13
589.925	52130
590.284	51988.76
590.643	52156.89
591.003	52124.58
591.362	52252.93
591.721	52189.66
592.08	52089.55
592.44	52208.19
592.799	52180.62
593.158	52251.13
593.517	52197.34
593.876	52317.11
594.235	52145.14
594.593	52251.58
594.952	52215.87
595.311	52175.42
595.67	52245.48
596.029	52553.49
596.387	52421.52
596.746	52446.6
597.104	52294.97
597.463	52329.77
597.822	52375.42
598.18	52388.52
598.538	52368.64
598.897	52495.19
599.255	52247.74
599.613	52777.44
599.972	52540.16
600.33	52597.78
600.688	52493.38
601.046	52609.76
601.404	52684.11
601.762	52572.02
602.12	52766.14
602.478	52743.77
602.836	52721.62
603.194	52684.56
603.552	52714.62
603.91	52667.39
604.268	52771.11
604.625	52621.74
604.983	52887.95
605.341	52655.64
605.698	52931.11
606.056	52986.93
606.413	52922.29
606.771	53038
607.128	53018.34
607.485	52848.85
607.843	52998
608.2	53135.4
608.557	53315.73
608.914	53115.74
609.272	53284.32
609.629	53334.49
609.986	53403.19
610.343	53295.17
610.7	53538.32
611.057	53425.56
611.414	53368.61
611.771	53448.38
612.127	53542.17
612.484	53490.19
612.841	53634.59
613.198	53416.97
613.554	53496.97
613.911	53684.76
614.267	53711.88
614.624	53645.21
614.98	53715.27
615.337	53853.57
615.693	53797.07
616.05	53710.52
616.406	53992.55
616.762	53804.76
617.118	53823.29
617.475	53880.24
617.831	53933.34
618.187	53916.17
618.543	54001.14
618.899	54147.35
619.255	54074.13
619.611	54104.18
619.967	54117.29
620.323	54146.67
620.678	54077.97
621.034	54132.21
621.39	54090.63
621.746	54015.15
622.101	54365.65
622.457	54148.93
622.812	54171.75
623.168	54213.79
623.523	54238.87
623.879	54324.07
624.234	54103.05
624.589	54279.55
624.945	54183.5
625.3	54240
625.655	54200.68
626.01	54212.88
626.365	54143.28
626.72	54215.14
627.075	54203.84
627.43	54060.8
627.785	54120.68
628.14	54129.27
628.495	54143.96
628.85	54117.74
629.205	53925.66
629.559	54149.38
629.914	53987.8
630.269	54035.03
630.623	53975.6
630.978	53851.99
631.332	53974.47
631.687	54029.16
632.041	53895.83
632.396	53904.87
632.75	53865.55
633.104	53822.61
633.459	53759.11
633.813	53805.89
634.167	53757.98
634.521	53676.63
634.875	53717.3
635.229	53612.22
635.583	53538.78
635.937	53527.93
636.291	53576.29
636.645	53424.65
636.999	53384.88
637.352	53486.35
637.706	53298.56
638.06	53442.51
638.413	53377.2
638.767	53277.77
639.121	53236.86
639.474	53124.55
639.828	53118
640.181	53086.36
640.534	53084.55
640.888	52967.94
641.241	52916.65
641.594	53055.62
641.947	53045.68
642.301	52997.55
642.654	52879.36
643.007	52913.93
643.36	52954.38
643.713	52834.61
644.066	52871.9
644.419	52795.97
644.771	52620.16
645.124	52356.43
645.477	52299.03
645.83	52001.87
646.182	51720.74
646.535	51671.71
646.888	51734.08
647.24	51532.5
647.593	51725.26
647.945	51600.3
648.298	51534.08
648.65	51348.55
649.002	51415.67
649.355	51361.21
649.707	51295.67
650.059	51578.6
650.411	51868.76
650.763	51920.97
651.115	52227.4
651.467	52127.29
651.819	52093.84
652.171	51972.94
652.523	51900.17
652.875	51928.2
653.227	51711.25
653.578	51946.05
653.93	51934.98
654.282	51809.1
654.633	51732.04
654.985	51664.25
655.337	51809.33
655.688	51782.44
656.039	51875.77
656.391	51559.39
656.742	51622.22
657.094	51693.17
657.445	51720.52
657.796	51614.98
658.147	51575.89
658.498	51594.19
658.849	51570.24
659.2	51584.48
659.551	51499.28
659.902	51578.15
660.253	51487.53
660.604	51562.1
660.955	51455.67
661.306	51529.11
661.656	51476.01
662.007	51342.9
662.358	51276.91
662.708	51372.51
663.059	51208.22
663.409	51158.05
663.76	51395.56
664.11	51247.31
664.461	51235.33
664.811	51357.14
665.161	51316.69
665.511	51147.43
665.862	51110.14
666.212	51201.44
666.562	51209.35
666.912	51184.04
667.262	51113.53
667.612	51125.51
667.962	51096.58
668.312	50995.11
668.662	51217.48
669.011	51132.51
669.361	51054.55
669.711	51015.23
670.06	51000.54
670.41	51020.88
670.76	50999.63
671.109	50951.73
671.459	50916.47
671.808	50783.82
672.157	50940.88
672.507	50706.31
672.856	50711.96
673.205	50805.97
673.554	50835.34
673.904	50740.21
674.253	50847.32
674.602	50848.45
674.951	50260.9
675.3	50005.99
675.649	50610.27
675.998	50600.1
676.346	50516.26
676.695	50684.84
677.044	50431.29
677.393	50451.17
677.741	50502.92
678.09	50392.42
678.438	50376.15
678.787	50388.58
679.135	50406.65
679.484	50066.55
679.832	50157.62
680.181	50057.29
680.529	50271.07
680.877	50047.12
681.225	50123.5
681.573	50206.66
681.922	49940.45
682.27	49748.14
682.618	49911.07
682.966	49795.82
683.314	49831.3
683.661	49674.24
684.009	49531.2
684.357	49463.85
684.705	49479.9
685.053	49400.13
685.4	49239.45
685.748	49166.01
686.095	49078.78
686.443	49053.02
686.79	48930.31
687.138	49108.61
687.485	48922.85
687.832	48901.61
688.18	48935.73
688.527	48605.8
688.874	48660.49
689.221	48564.67
689.568	48440.6
689.915	48265.02
690.262	48276.99
690.609	48144.12
690.956	48089.88
691.303	48026.6
691.65	47969.43
691.997	47783
692.344	47570.57
692.69	47569.67
693.037	47535.54
693.383	47383.23
693.73	47492.83
694.077	47215.55
694.423	47119.74
694.769	47065.27
695.116	46968.1
695.462	46882.45
695.808	46786.19
696.155	46850.36
696.501	46382.13
696.847	46470.94
697.193	46079.76
697.539	46361.56
697.885	45972.2
698.231	45854.01
698.577	45909.37
698.923	45806.55
699.269	45566.33
699.614	45464.86
699.96	45385.32
700.306	45408.14
700.651	45150.07
700.997	45037.08
701.342	44950.53
701.688	44798.21
702.033	44788.27
702.379	44750.31
702.724	44598.22
703.069	44794.15
703.415	44336.98
703.76	44367.72
704.105	44181.28
704.45	44156.2
704.795	43933.6
705.14	43789.2
705.485	43816.32
705.83	43621.07
706.175	43746.26
706.52	43574.52
706.865	43302.89
707.209	43383.34
707.554	43150.35
707.899	43177.01
708.243	43116.23
708.588	42968.43
708.932	42702.22
709.277	42772.28
709.621	42619.51
709.966	42431.27
710.31	42434.21
710.654	42259.07
710.998	42123.71
711.342	42268.11
711.687	42162.8
712.031	41825.19
712.375	41600.78
712.719	41884.17
713.063	41637.17
713.407	41974.56
713.75	41614.57
714.094	41559.88
714.438	41337.97
714.782	41455.48
715.125	41371.64
715.469	41312.43
715.812	41020.23
716.156	40764.2
716.499	40887.13
716.843	40961.93
717.186	40734.59
717.53	40913.35
717.873	40872.44
718.216	40674.71
718.559	40584.31
718.902	40267.03
719.246	40343.64
719.589	40342.96
719.932	40052.8
720.275	40130.99
720.617	40065.68
720.96	39894.84
721.303	39947.04
721.646	39978.91
721.989	39580.5
722.331	39790.44
722.674	39674.96
723.016	39599.93
723.359	39482.65
723.701	39528.3
724.044	39220.96
724.386	39082.21
724.729	39294.86
725.071	39131.92
725.413	39124.69
725.755	39063.45
726.097	38926.28
726.439	38710.47
726.782	38679.28
727.124	38879.73
727.465	38645.16
727.807	38628.21
728.149	38590.69
728.491	38462.79
728.833	38514.09
729.175	38326.97
729.516	38230.93
729.858	38245.84
730.199	38284.71
730.541	38168.33
730.882	37998.39
731.224	38061.44
731.565	37929.47
731.906	37892.18
732.248	37881.11
732.589	37803.6
732.93	37657.16
733.271	37558.18
733.612	37619.19
733.953	37566.99
734.294	37357.05
734.635	37211.07
734.976	37416.49
735.317	37138.3
735.658	37124.52
735.999	37171.97
736.339	36953.68
736.68	37263.72
737.021	37017.18
737.361	36753.91
737.702	36948.7
738.042	36797.3
738.383	36678.43
738.723	36837.75
739.063	36595.27
739.404	36715.72
739.744	36603.18
740.084	36516.17
740.424	36613.57
740.764	36268.95
741.104	36433.69
741.444	36206.12
741.784	36104.66
742.124	36080.25
742.464	36216.29
742.804	35989.86
743.143	36027.15
743.483	35888.17
743.823	35787.6
744.162	35724.56
744.502	35725.68
744.841	35507.16
745.181	35724.1
745.52	35632.13
745.86	35502.19
746.199	35445.01
746.538	35433.49
746.877	35457.22
747.216	35341.29
747.556	35291.57
747.895	35262.65
748.234	35044.12
748.573	35065.82
748.911	34918.02
749.25	34851.13
749.589	34680.51
749.928	34617.47
750.267	34823.79
750.605	34625.15
750.944	34537.69
751.283	34409.56
751.621	34588.09
751.96	34290.24
752.298	34202.11
752.636	34240.75
752.975	34146.74
753.313	33920.76
753.651	34069.23
753.989	33822.91
754.327	33746.98
754.666	33641.22
755.004	33561.9
755.342	33717.15
755.679	33484.39
756.017	33346.54
756.355	33343.37
756.693	33323.71
757.031	33314.9
757.368	33035.36
757.706	32898.64
758.044	32886.89
758.381	32939.77
758.719	32849.38
759.056	32790.85
759.394	32601.25
759.731	32565.32
760.068	32323.29
760.405	32312.89
760.743	32180.92
761.08	32280.35
761.417	31996.52
761.754	31905.22
762.091	31852.57
762.428	31822.96
762.765	31577.32
763.102	31665.45
763.438	31468.62
763.775	31411.9
764.112	31292.81
764.449	31365.35
764.785	31010.78
765.122	30952.48
765.458	30820.73
765.795	30827.73
766.131	30694.18
766.467	30664.58
766.804	30517.91
767.14	30375.32
767.476	30360.85
767.812	30256.68
768.148	30193.18
768.485	29980.07
768.821	29903.69
769.157	29863.01
769.492	29736.69
769.828	29732.4
770.164	29398.62
770.5	29410.6
770.836	29383.93
771.171	29225.29
771.507	29188.46
771.842	28969.25
772.178	29004.51
772.513	28830.72
772.849	28796.38
773.184	28562.71
773.519	28587.79
773.855	28436.39
774.19	28305.32
774.525	28204.98
774.86	28128.82
775.195	28131.53
775.53	27938.55
775.865	27858.32
776.2	27654.71
776.535	27414.49
776.87	27438.45
777.205	27357.77
777.539	27294.27
777.874	27141.96
778.209	27022.41
778.543	27001.39
778.878	26835.98
779.212	26793.49
779.547	26643.44
779.881	26710.33
780.215	26447.28
780.55	26554.4
780.884	26331.58
781.218	26230.79
781.552	26192.83
781.886	26094.53
782.22	25919.39
782.554	25810.92
782.888	25643.24
783.222	25581.77
783.556	25433.3
783.889	25394.21
784.223	25228.11
784.557	25249.35
784.89	25153.99
785.224	25092.07
785.557	24986.76
785.891	24837.61
786.224	24803.26
786.558	24766.88
786.891	24499.09
787.224	24457.05
787.557	24360.33
787.891	24366.21
788.224	24278.98
788.557	24237.4
788.89	24217.96
789.223	24054.13
789.556	23943.62
789.888	24052.55
790.221	23719.67
790.554	23628.15
790.887	23669.5
791.219	23512.45
791.552	23476.97
791.884	23290.98
792.217	23249.18
792.549	23192.46
792.882	23086.7
793.214	22897.77
793.546	23010.77
793.879	22877.66
794.211	22686.25
794.543	22819.58
794.875	22743.43
795.207	22759.47
795.539	22502.76
795.871	22545.69
796.203	22338.69
796.535	22234.06
796.867	22217.11
797.198	22013.28
797.53	22090.11
797.862	22004.24
798.193	21937.12
798.525	21840.4
798.856	21898.7
799.188	21588.66
799.519	21635.21
799.85	21431.82
800.182	21500.75
800.513	21451.26
800.844	21222.79
801.175	21428.66
801.506	21244.94
801.837	21120.65
802.168	21038.84
802.499	21097.59
802.83	20933.98
803.161	20780.99
803.491	20793.87
803.822	20825.74
804.153	20621.68
804.483	20512.3
804.814	20515.69
805.145	20467.56
805.475	20458.74
805.805	20302.36
806.136	20377.84
806.466	20417.84
806.796	20223.49
807.126	20082.93
807.457	20048.81
807.787	20097.4
808.117	19963.39
808.447	19859.44
808.777	19878.42
809.107	19775.14
809.436	19809.27
809.766	19721.36
810.096	19577.18
810.426	19636.16
810.755	19550.52
811.085	19573.79
811.414	19464.87
811.744	19376.51
812.073	19273.91
812.403	19326.79
812.732	19151.66
813.061	19164.09
813.39	19009.74
813.719	19036.86
814.049	19030.98
814.378	19007.93
814.707	18946.01
815.036	18869.86
815.365	18743.08
815.693	18659.24
816.022	18643.2
816.351	18595.74
816.68	18385.8
817.008	18484.1
817.337	18379.47
817.665	18285.01
817.994	18410.21
818.322	18322.3
818.651	18193.26
818.979	18176.54
819.307	18241.4
819.636	18233.26
819.964	18012.25
820.292	18103.78
820.62	18080.95
820.948	18047.73
821.276	17996.89
821.604	18057.22
821.932	18136.77
822.259	18073.72
822.587	18053.16
822.915	17972.93
823.243	18007.73
823.57	17869.66
823.898	18085.7
824.225	17870.56
824.553	17926.83
824.88	18003.89
825.207	17982.87
825.535	17926.83
825.862	17995.3
826.189	17991.24
826.516	17857
826.843	17970.67
827.17	17970.67
827.497	17948.07
827.824	17941.07
828.151	18009.99
828.478	17933.16
828.805	18015.42
829.131	17930.22
829.458	17885.02
829.785	17819.94
830.111	17830.11
830.438	17968.64
830.764	17849.77
831.09	17896.1
831.417	17685.48
831.743	17847.74
832.069	17800.51
832.395	17737.91
832.722	17797.34
833.048	17720.96
833.374	17808.42
833.7	17679.61
834.026	17698.59
834.351	17632.15
834.677	17728.87
835.003	17680.51
835.329	17673.96
835.654	17697.91
835.98	17530.91
836.306	17561.19
836.631	17548.99
836.956	17445.49
837.282	17459.95
837.607	17398.71
837.932	17312.84
838.258	17320.52
838.583	17284.14
838.908	17212.73
839.233	17278.71
839.558	17207.98
839.883	17132.73
840.208	17140.64
840.533	17053.86
840.858	17123.69
841.182	17122.78
841.507	17162.33
841.832	16981.55
842.156	17025.84
842.481	16892.28
842.805	16881.89
843.13	16842.79
843.454	16809.57
843.778	16721.89
844.103	16720.31
844.427	16713.08
844.751	16661.33
845.075	16632.85
845.399	16490.48
845.723	16459.3
846.047	16436.7
846.371	16278.96
846.695	16358.06
847.019	16168.01
847.343	16175.92
847.666	16078.07
847.99	15941.57
848.313	15991.06
848.637	15891.4
848.96	15759.66
849.284	15790.84
849.607	15712.65
849.931	15681.47
850.254	15485.54
850.577	15480.57
850.9	15332.32
851.223	15333.68
851.546	15244.87
851.869	15174.13
852.192	15209.61
852.515	15141.37
852.838	15113.57
853.161	15087.81
853.483	14955.84
853.806	14947.7
854.129	14800.59
854.451	14875.84
854.774	14786.57
855.096	14740.7
855.419	14655.28
855.741	14583.42
856.063	14491.89
856.385	14509.29
856.708	14453.48
857.03	14396.3
857.352	14412.35
857.674	14344.1
857.996	14238.34
858.318	14161.73
858.64	14222.97
858.961	14169.87
859.283	14163.77
859.605	14098.46
859.926	14084.45
860.248	14041.74
860.57	13957.67
860.891	14085.35
861.212	13950.89
861.534	13906.37
861.855	13852.36
862.176	13873.15
862.498	13756.32
862.819	13775.53
863.14	13646.72
863.461	13661.86
863.782	13587.06
864.103	13688.75
864.424	13495.76
864.745	13621.18
865.065	13569.88
865.386	13553.16
865.707	13461.64
866.027	13496.21
866.348	13452.37
866.668	13432.94
866.989	13396.1
867.309	13235.2
867.63	13316.33
867.95	13308.87
868.27	13119.95
868.59	13220.06
868.91	13205.15
869.23	13258.71
869.55	13131.25
869.87	13217.12
870.19	13220.29
870.51	13133.96
870.83	13072.5
871.15	12950.01
871.469	13017.13
871.789	13019.39
872.109	13009.67
872.428	12871.37
872.748	12882.67
873.067	12885.83
873.386	12959.05
873.706	12836.34
874.025	12794.76
874.344	12787.98
874.663	12716.8
874.982	12744.37
875.301	12787.31
875.62	12750.7
875.939	12660.08
876.258	12658.49
876.577	12614.43
876.896	12639.74
877.214	12625.05
877.533	12593.86
877.852	12538.72
878.17	12606.07
878.489	12517.26
878.807	12541.21
879.125	12499.4
879.444	12533.98
879.762	12431.83
880.08	12443.36
880.398	12325.85
880.716	12526.29
881.034	12402
881.352	12416.47
881.67	12282.23
881.988	12382.57
882.306	12284.49
882.624	12199.3
882.941	12166.53
883.259	12196.13
883.577	12145.29
883.894	12156.36
884.212	12075.91
884.529	12107.32
884.846	12014.67
885.164	12057.38
885.481	11949.13
885.798	12022.35
886.115	11859.87
886.432	11963.82
886.75	11881.11
887.067	11872.98
887.383	11886.76
887.7	11814.68
888.017	11838.4
888.334	11770.61
888.651	11764.51
888.967	11732.87
889.284	11661.91
889.6	11566.32
889.917	11460.33
890.233	11530.16
890.55	11481.8
890.866	11562.7
891.182	11502.37
891.498	11444.06
891.815	11384.63
892.131	11370.85
892.447	11307.12
892.763	11242.94
893.079	11169.72
893.395	11222.83
893.71	11160.46
894.026	11096.5
894.342	11154.58
894.657	11062.6
894.973	11017.63
895.289	11082.94
895.604	10980.35
895.92	10892.44
896.235	10930.4
896.55	10858.09
896.865	10900.35
897.181	10773.57
897.496	10789.62
897.811	10716.62
898.126	10747.81
898.441	10627.14
898.756	10525.67
899.071	10504.43
899.386	10527.03
899.7	10455.39
900.015	10429.4
900.33	10338.78
900.644	10360.93
900.959	10343.08
901.273	10348.5
901.588	10252.91
901.902	10131.78
902.216	10209.52
902.531	10120.26
902.845	10158.22
903.159	10049.52
903.473	10062.18
903.787	9954.61
904.101	9940.37
904.415	9862.86
904.729	9858.34
905.042	9883.88
905.356	9808.17
905.67	9790.55
905.984	9719.14
906.297	9682.08
906.611	9612.47
906.924	9590.55
907.237	9560.05
907.551	9490.67
907.864	9456.77
908.177	9450.67
908.491	9443.21
908.804	9375.64
909.117	9324.12
909.43	9363.89
909.743	9276.21
910.056	9213.16
910.368	9164.12
910.681	9214.74
910.994	9115.31
911.307	9051.36
911.619	9047.29
911.932	9021.53
912.244	8923
912.557	8889.1
912.869	8891.59
913.181	8894.98
913.494	8835.77
913.806	8799.84
914.118	8738.6
914.43	8654.31
914.742	8654.98
915.054	8623.35
915.366	8605.72
915.678	8585.16
915.99	8567.75
916.302	8430.58
916.613	8442.11
916.925	8427.87
917.236	8361.21
917.548	8297.48
917.859	8308.55
918.171	8233.07
918.482	8245.28
918.794	8161.21
919.105	8206.18
919.416	8096.81
919.727	8146.75
920.038	8077.82
920.349	7978.84
920.66	7990.59
920.971	7931.39
921.282	7999.86
921.593	7892.74
921.903	7821.56
922.214	7824.5
922.525	7763.48
922.835	7717.61
923.146	7730.94
923.456	7732.3
923.767	7643.71
924.077	7638.74
924.387	7577.95
924.697	7600.1
925.008	7561.91
925.318	7493.21
925.628	7465.86
925.938	7443.94
926.248	7369.82
926.558	7352.42
926.867	7354.68
927.177	7289.6
927.487	7258.18
927.796	7236.72
928.106	7164.18
928.416	7159.66
928.725	7105.19
929.034	7070.39
929.344	7069.04
929.653	7009.38
929.962	7010.28
930.271	7036.04
930.581	7001.47
930.89	6856.61
931.199	6882.15
931.508	6862.26
931.817	6879.21
932.125	6773.68
932.434	6833.56
932.743	6728.71
933.051	6737.29
933.36	6675.83
933.669	6641.25
933.977	6623.63
934.286	6572.55
934.594	6537.98
934.902	6488.04
935.21	6450.75
935.519	6478.32
935.827	6450.52
936.135	6410.3
936.443	6364.42
936.751	6363.97
937.059	6344.08
937.367	6337.53
937.674	6252.79
937.982	6187.03
938.29	6257.76
938.597	6217.08
938.905	6120.36
939.213	6160.36
939.52	6102.28
939.827	6086.24
940.135	6098.67
940.442	6017.99
940.749	6027.48
941.056	6084.88
941.363	5951.1
941.67	5942.74
941.977	5930.76
942.284	5828.84
942.591	5851.44
942.898	5822.74
943.205	5860.03
943.511	5759.47
943.818	5782.52
944.125	5748.17
944.431	5744.33
944.738	5688.06
945.044	5691.22
945.35	5662.97
945.657	5653.26
945.963	5575.07
946.269	5550.43
946.575	5559.25
946.881	5541.17
947.187	5519.47
947.493	5497.55
947.799	5493.71
948.105	5429.31
948.41	5396.99
948.716	5395.41
949.022	5347.73
949.327	5377.33
949.633	5277.9
949.938	5268.86
950.244	5279.03
950.549	5254.4
950.854	5194.51
951.16	5211.23
951.465	5140.5
951.77	5150.44
952.075	5089.43
952.38	5110.67
952.685	5121.97
952.99	5018.02
953.294	5061.41
953.599	5013.05
953.904	5004.23
954.209	4977.57
954.513	4926.72
954.818	4905.7
955.122	4897.57
955.426	4914.74
955.731	4862.32
956.035	4834.75
956.339	4770.79
956.643	4814.41
956.948	4755.2
957.252	4792.04
957.556	4735.31
957.86	4704.81
958.163	4701.19
958.467	4664.81
958.771	4622.32
959.075	4633.4
959.378	4596.79
959.682	4628.88
959.985	4596.79
960.289	4521.31
960.592	4506.62
960.896	4486.28
961.199	4467.07
961.502	4463
961.805	4417.81
962.108	4421.65
962.411	4410.12
962.714	4381.65
963.017	4379.16
963.32	4358.15
963.623	4347.3
963.926	4308.88
964.228	4310.24
964.531	4279.28
964.833	4302.56
965.136	4211.26
965.438	4208.77
965.741	4185.95
966.043	4205.16
966.345	4166.74
966.648	4163.35
966.95	4133.07
967.252	4104.82
967.554	4079.96
967.856	4076.12
968.158	4032.05
968.46	4036.57
968.761	4046.97
969.063	4013.3
969.365	3992.06
969.666	3992.51
969.968	3940.98
970.269	3898.5
970.571	3900.08
970.872	3879.52
971.174	3880.65
971.475	3858.73
971.776	3818.05
972.077	3800.42
972.378	3827.09
972.679	3796.58
972.98	3778.28
973.281	3764.27
973.582	3753.64
973.883	3757.03
974.183	3688.56
974.484	3723.59
974.785	3644.95
975.085	3669.35
975.386	3681.33
975.686	3614.44
975.986	3598.17
976.287	3580.09
976.587	3559.53
976.887	3568.11
977.187	3564.72
977.487	3520.66
977.787	3486.98
978.087	3477.04
978.387	3480.43
978.687	3482.01
978.987	3451.51
979.286	3436.82
979.586	3428.91
979.885	3421.68
980.185	3383.71
980.484	3348.91
980.784	3398.4
981.083	3346.42
981.382	3366.08
981.682	3297.16
981.981	3312.98
982.28	3258.29
982.579	3281.34
982.878	3296.93
983.177	3246.09
983.475	3245.18
983.774	3187.56
984.073	3174
984.372	3202.25
984.67	3127.9
984.969	3193.43
985.267	3159.99
985.566	3125.86
985.864	3125.86
986.162	3131.74
986.461	3083.61
986.759	3096.03
987.057	3030.27
987.355	3043.61
987.653	3027.79
987.951	3018.97
988.249	3009.93
988.547	2971.07
988.844	2954.12
989.142	2967.9
989.44	2935.59
989.737	2944.85
990.035	2925.87
990.332	2934.46
990.63	2907.11
990.927	2876.15
991.224	2846.32
991.521	2868.92
991.819	2852.88
992.116	2819.43
992.413	2787.34
992.71	2762.94
993.006	2758.42
993.303	2758.19
993.6	2766.1
993.897	2720
994.193	2727
994.49	2706.67
994.787	2691.98
995.083	2687.91
995.379	2662.15
995.676	2642.49
995.972	2633.67
996.268	2594.8
996.565	2608.59
996.861	2573.56
997.157	2575.37
997.453	2566.1
997.749	2565.2
998.044	2552.32
998.34	2544.64
998.636	2496.28
998.932	2498.08
999.227	2485.65
999.523	2507.35
999.818	2468.71
1000.114	2444.53
1000.409	2444.98
1000.704	2427.35
1001	2417.63
1001.295	2429.16
1001.59	2402.27
1001.885	2372.89
1002.18	2348.48
1002.475	2349.61
1002.77	2324.3
1003.065	2311.2
1003.359	2313.46
1003.654	2288.6
1003.949	2289.95
1004.243	2305.55
1004.538	2256.06
1004.832	2235.94
1005.127	2232.33
1005.421	2214.02
1005.715	2182.61
1006.009	2198.43
1006.304	2171.09
1006.598	2175.15
1006.892	2160.69
1007.186	2133.8
1007.48	2123.4
1007.773	2111.88
1008.067	2102.16
1008.361	2138.55
1008.655	2072.78
1008.948	2072.33
1009.242	2052.9
1009.535	2077.3
1009.829	2076.63
1010.122	1988.94
1010.415	2051.32
1010.708	2019.9
1011.001	2015.16
1011.295	1978.32
1011.588	1955.05
1011.881	1960.02
1012.173	1918.89
1012.466	1944.65
1012.759	1900.36
1013.052	1896.52
1013.344	1895.16
1013.637	1891.55
1013.93	1867.59
1014.222	1847.03
1014.514	1851.1
1014.807	1841.38
1015.099	1835.95
1015.391	1834.37
1015.683	1783.07
1015.976	1754.37
1016.268	1806.12
1016.56	1775.84
1016.851	1739.23
1017.143	1760.02
1017.435	1732.68
1017.727	1717.54
1018.018	1715.73
1018.31	1687.03
1018.602	1679.12
1018.893	1652.23
1019.185	1693.36
1019.476	1671.89
1019.767	1657.43
1020.058	1666.02
1020.35	1620.59
1020.641	1609.52
1020.932	1609.07
1021.223	1626.47
1021.514	1571.55
1021.804	1544.66
1022.095	1546.47
1022.386	1549.86
1022.677	1546.24
1022.967	1547.83
1023.258	1504.21
1023.548	1500.82
1023.839	1455.85
1024.129	1507.6
1024.419	1494.49
1024.709	1446.13
1025	1462.86
1025.29	1485.68
1025.58	1467.38
1025.87	1449.75
1026.16	1417.89
1026.449	1411.56
1026.739	1427.83
1027.029	1437.55
1027.319	1390.99
1027.608	1382.41
1027.898	1329.53
1028.187	1342.86
1028.477	1365.23
1028.766	1347.15
1029.055	1343.31
1029.344	1302.86
1029.634	1317.78
1029.923	1307.61
1030.212	1296.31
1030.501	1306.25
1030.79	1271.22
1031.078	1264.22
1031.367	1244.11
1031.656	1245.24
1031.945	1226.93
1032.233	1245.91
1032.522	1250.89
1032.81	1248.85
1033.099	1214.05
1033.387	1188.74
1033.675	1190.55
1033.963	1182.86
1034.251	1198.91
1034.54	1164.79
1034.828	1141.51
1035.116	1159.59
1035.403	1160.94
1035.691	1132.47
1035.979	1122.08
1036.267	1146.93
1036.554	1114.17
1036.842	1129.08
1037.129	1083.43
1037.417	1080.49
1037.704	1090.66
1037.992	1069.87
1038.279	1042.76
1038.566	1074.17
1038.853	1074.17
1039.14	1074.17
