Data from breadboard_black_back_FLMS001491_00025.txt Node
Date: Wed Feb 08 10:50:10 GMT 2017
User: dcchb
Spectrometer: FLMS00149
Trigger mode: 0
Integration Time (sec): 2.000000E-2
Scans to average: 10
Electric dark correction enabled: true
Nonlinearity correction enabled: false
Boxcar width: 0
XAxis mode: Wavelengths
Number of Pixels in Spectrum: 2048
>>>>>Begin Spectral Data<<<<<
341.393	-16.19
341.776	-16.19
342.16	-16.19
342.543	-69.97
342.927	-74.26
343.31	-76.07
343.693	-74.94
344.077	-54.38
344.46	-50.76
344.843	-52.34
345.226	-50.54
345.61	-20.03
345.993	-41.5
346.376	-13.47
346.759	17.26
347.142	31.95
347.525	46.64
347.908	55.22
348.291	84.15
348.674	98.84
349.057	99.97
349.44	104.94
349.823	132.28
350.206	179.29
350.588	203.7
350.971	217.48
351.354	212.73
351.737	238.5
352.119	258.61
352.502	260.87
352.884	272.17
353.267	287.08
353.65	296.8
354.032	292.51
354.414	310.59
354.797	330.92
355.179	342.9
355.562	335.67
355.944	323.69
356.326	331.83
356.709	326.18
357.091	365.95
357.473	330.47
357.855	343.13
358.238	363.92
358.62	333.86
359.002	346.06
359.384	360.08
359.766	356.69
360.148	369.79
360.53	341.77
360.912	365.5
361.294	354.65
361.676	362.11
362.057	332.96
362.439	349.91
362.821	349.91
363.203	332.51
363.584	348.32
363.966	336.12
364.348	325.95
364.729	337.48
365.111	349.45
365.493	332.96
365.874	324.14
366.256	345.16
366.637	322.11
367.019	357.82
367.4	335.22
367.781	312.62
368.163	362.34
368.544	330.25
368.925	339.28
369.306	351.04
369.688	344.71
370.069	365.27
370.45	333.64
370.831	351.49
371.212	352.62
371.593	378.38
371.974	347.42
372.355	372.28
372.736	342.45
373.117	347.19
373.498	364.59
373.879	355.56
374.26	366.4
374.641	358.72
375.021	357.59
375.402	357.82
375.783	346.74
376.163	371.6
376.544	375.67
376.925	365.72
377.305	358.49
377.686	354.88
378.066	373.41
378.447	389
378.827	412.05
379.208	367.08
379.588	375.67
379.968	393.75
380.349	393.75
380.729	385.84
381.109	384.93
381.489	385.84
381.87	390.13
382.25	400.07
382.63	408.44
383.01	396.91
383.39	432.39
383.77	426.74
384.15	430.58
384.53	425.38
384.91	423.8
385.29	418.15
385.67	433.97
386.049	422.67
386.429	445.72
386.809	430.58
387.189	429.68
387.568	451.6
387.948	433.75
388.328	462.67
388.707	450.24
389.087	442.78
389.466	469.9
389.846	473.52
390.225	474.87
390.605	463.58
390.984	479.17
391.363	476.91
391.743	484.37
392.122	492.5
392.501	482.11
392.881	488.43
393.26	512.84
393.639	494.31
394.018	517.13
394.397	508.77
394.776	519.85
395.155	513.74
395.534	534.08
395.913	503.12
396.292	520.3
396.671	555.1
397.05	512.61
397.429	535.21
397.808	552.84
398.186	541.31
398.565	576.34
398.944	553.29
399.323	558.04
399.701	570.24
400.08	587.19
400.458	572.05
400.837	568.88
401.215	587.64
401.594	585.83
401.972	589.9
402.351	591.48
402.729	617.02
403.107	605.04
403.486	626.28
403.864	598.49
404.242	614.76
404.62	632.61
404.999	652.95
405.377	651.37
405.755	646.85
406.133	624.25
406.511	657.02
406.889	652.72
407.267	667.19
407.645	693.4
408.023	686.85
408.401	681.2
408.779	703.8
409.156	699.73
409.534	716
409.912	740.63
410.29	758.71
410.667	754.64
411.045	753.06
411.422	777.69
411.8	772.49
412.178	777.92
412.555	793.06
412.933	770.23
413.31	800.29
413.687	792.83
414.065	820.63
414.442	810.68
414.819	849.1
415.197	850.68
415.574	841.19
415.951	847.29
416.328	880.74
416.705	898.59
417.082	912.15
417.46	895.65
417.837	904.47
418.214	891.13
418.591	932.26
418.967	907.41
419.344	922.32
419.721	953.28
420.098	961.64
420.475	970.91
420.852	948.76
421.228	985.82
421.605	992.83
421.982	999.61
422.358	1003.22
422.735	1037.8
423.111	1015.43
423.488	1048.42
423.864	1030.79
424.241	1073.95
424.617	1088.19
424.994	1076.67
425.37	1080.06
425.746	1082.99
426.123	1094.75
426.499	1107.17
426.875	1116.89
427.251	1134.74
427.627	1143.56
428.003	1166.38
428.379	1197.34
428.756	1194.4
429.132	1201.86
429.507	1221.97
429.883	1233.27
430.259	1267.62
430.635	1235.98
431.011	1251.8
431.387	1318.47
431.763	1349.2
432.138	1340.84
432.514	1348.98
432.89	1360.5
433.265	1377.9
433.641	1406.38
434.016	1400.95
434.392	1432.36
434.767	1447.28
435.143	1478.92
435.518	1485.02
435.894	1515.3
436.269	1492.7
436.644	1537.9
437.02	1535.64
437.395	1548.29
437.77	1591.68
438.145	1598.69
438.52	1637.33
438.895	1624.9
439.271	1623.09
439.646	1634.62
440.021	1662.64
440.395	1669.65
440.77	1691.57
441.145	1688.63
441.52	1708.51
441.895	1739.25
442.27	1758.46
442.645	1725.46
443.019	1748.97
443.394	1785.12
443.769	1764.33
444.143	1787.83
444.518	1846.59
444.892	1785.8
445.267	1833.71
445.641	1831.9
446.016	1854.95
446.39	1858.79
446.764	1877.1
447.139	1889.53
447.513	1887.49
447.887	1938.11
448.262	1931.11
448.636	1921.84
449.01	1994.61
449.384	1988.51
449.758	1973.37
450.132	2030.54
450.506	2040.48
450.88	2057.21
451.254	2076.64
451.628	2090.43
452.002	2074.61
452.376	2147.37
452.75	2137.88
453.123	2187.37
453.497	2179.69
453.871	2200.93
454.244	2225.56
454.618	2292.68
454.992	2320.48
455.365	2311.21
455.739	2383.52
456.112	2399.57
456.486	2401.83
456.859	2438.44
457.232	2439.34
457.606	2472.79
457.979	2498.55
458.352	2575.61
458.725	2609.28
459.099	2594.14
459.472	2678.43
459.845	2678.21
460.218	2677.75
460.591	2738.32
460.964	2745.78
461.337	2798.43
461.71	2854.47
462.083	2901.93
462.456	2899.22
462.829	2896.28
463.201	2951.65
463.574	2971.98
463.947	3025.54
464.32	3109.16
464.692	3122.49
465.065	3112.09
465.438	3215.37
465.81	3232.09
466.183	3266.44
466.555	3302.37
466.928	3368.13
467.3	3349.83
467.672	3392.31
468.045	3502.14
468.417	3507.79
468.789	3522.03
469.161	3545.08
469.534	3640.67
469.906	3701.68
470.278	3710.95
470.65	3763.6
471.022	3874.56
471.394	3919.98
471.766	3936.7
472.138	4045.18
472.51	4118.62
472.882	4103.48
473.253	4155.68
473.625	4266.64
473.997	4353.19
474.369	4390.25
474.74	4418.73
475.112	4481.32
475.484	4551.15
475.855	4667.53
476.227	4700.75
476.598	4804.25
476.97	4875.89
477.341	4911.59
477.713	5014.19
478.084	5095.32
478.455	5192.72
478.827	5260.51
479.198	5379.6
479.569	5422.99
479.94	5543.44
480.311	5622.31
480.682	5734.85
481.053	5794.28
481.424	5964
481.795	5994.28
482.166	6087.83
482.537	6205.57
482.908	6295.29
483.279	6349.97
483.65	6458.22
484.021	6602.17
484.391	6687.59
484.762	6782.73
485.133	6770.53
485.503	6975.49
485.874	7000.8
486.244	7137.75
486.615	7275.37
486.985	7315.6
487.356	7490.51
487.726	7567.57
488.097	7674.91
488.467	7687.57
488.837	7871.97
489.207	7955.13
489.578	8096.14
489.948	8162.13
490.318	8271.73
490.688	8277.16
491.058	8420.2
491.428	8571.61
491.798	8643.02
492.168	8815.67
492.538	8822
492.908	8981.54
493.278	9088.89
493.648	9073.29
494.017	9254.3
494.387	9331.59
494.757	9390.8
495.126	9547.63
495.496	9492.49
495.866	9687.29
496.235	9678.93
496.605	9790.11
496.974	9863.55
497.344	9989.88
497.713	10067.62
498.082	10073.49
498.452	10264.9
498.821	10307.38
499.19	10310.32
499.559	10379.7
499.928	10509.86
500.298	10540.37
500.667	10711.67
501.036	10672.35
501.405	10695.17
501.774	10764.55
502.143	10955.05
502.512	10980.14
502.88	11140.36
503.249	11099.45
503.618	11160.02
503.987	11309.62
504.356	11303.06
504.724	11409.28
505.093	11507.58
505.462	11522.49
505.83	11574.02
506.199	11708.48
506.567	11859.43
506.936	11904.63
507.304	11999.77
507.672	12059.88
508.041	12164.74
508.409	12190.05
508.777	12335.81
509.145	12445.63
509.514	12492.19
509.882	12525.41
510.25	12631.84
510.618	12697.83
510.986	12807.21
511.354	12942.8
511.722	13118.38
512.09	13153.86
512.458	13120.42
512.826	13252.84
513.193	13345.72
513.561	13421.88
513.929	13493.29
514.297	13619.84
514.664	13834.52
515.032	13889.21
515.4	13910.91
515.767	13997.23
516.135	14112.48
516.502	14074.29
516.869	14382.76
517.237	14384.11
517.604	14413.94
517.972	14628.63
518.339	14698.91
518.706	14735.52
519.073	14871.33
519.44	14966.02
519.808	15144.77
520.175	15139.12
520.542	15359.68
520.909	15387.93
521.276	15461.15
521.643	15557.19
522.009	15718.09
522.376	15841.7
522.743	16008.7
523.11	16144.74
523.477	16294.35
523.843	16363.5
524.21	16651.4
524.577	16688.23
524.943	16713.77
525.31	16887.78
525.676	17101.78
526.043	17113.76
526.409	17222.46
526.776	17413.19
527.142	17523.69
527.508	17596.01
527.874	17749.9
528.241	17853.4
528.607	17863.12
528.973	18105.82
529.339	18167.97
529.705	18283.45
530.071	18426.04
530.437	18559.14
530.803	18652.25
531.169	18748.07
531.535	18781.74
531.901	18824.45
532.267	18992.13
532.632	18992.81
532.998	19117.77
533.364	19248.39
533.73	19332.01
534.095	19542.17
534.461	19612
534.826	19657.87
535.192	19754.59
535.557	19872.78
535.923	19893.35
536.288	20021.03
536.653	20083.17
537.019	20091.99
537.384	20128.82
537.749	20310.06
538.114	20416.95
538.479	20360
538.845	20609.26
539.21	20569.26
539.575	20602.25
539.94	20635.93
540.305	20884.06
540.67	20836.15
541.034	20949.14
541.399	21080.66
541.764	21179.41
542.129	21221.67
542.494	21233.2
542.858	21381.67
543.223	21383.93
543.587	21524.49
543.952	21475.23
544.316	21554.55
544.681	21569.01
545.045	21760.64
545.41	21933.29
545.774	21881.54
546.138	21948.89
546.503	22026.4
546.867	22061.88
547.231	22200.18
547.595	22263.91
547.959	22286.5
548.324	22354.07
548.688	22463.45
549.052	22624.12
549.416	22628.19
549.779	22641.98
550.143	22643.56
550.507	22933.04
550.871	23037.9
551.235	23006.94
551.599	23095.3
551.962	23178.68
552.326	23335.29
552.689	23462.29
553.053	23374.16
553.417	23401.05
553.78	23726.24
554.143	23832
554.507	23743.19
554.87	23890.98
555.234	24038.32
555.597	24054.37
555.96	24170.75
556.323	24277.64
556.686	24361.7
557.05	24431.53
557.413	24522.15
557.776	24714.92
558.139	24714.01
558.502	24816.83
558.865	24893.89
559.228	25164.62
559.59	25196.71
559.953	25274.22
560.316	25469.02
560.679	25560.09
561.041	25608.68
561.404	25708.11
561.767	25994.88
562.129	25822.23
562.492	26064.94
562.854	26107.65
563.217	26184.48
563.579	26328.66
563.941	26497.02
564.304	26540.63
564.666	26793.96
565.028	26821.98
565.39	26808.87
565.753	26937.91
566.115	27153.72
566.477	27177.68
566.839	27365.69
567.201	27501.73
567.563	27493.83
567.925	27731.56
568.287	27807.04
568.648	27783.76
569.01	27987.15
569.372	28047.71
569.734	28038.22
570.095	28282.05
570.457	28398.66
570.819	28461.48
571.18	28538.77
571.542	28647.69
571.903	28671.65
572.265	28841.81
572.626	28784.19
572.987	28905.09
573.349	29015.59
573.71	29179.66
574.071	29164.52
574.432	29230.05
574.794	29546.2
575.155	29450.16
575.516	29322.48
575.877	29532.64
576.238	29591.85
576.599	29685.41
576.96	29772.64
577.32	29874.78
577.681	29930.6
578.042	29877.94
578.403	30046.07
578.763	29934.89
579.124	30041.78
579.485	30133.08
579.845	30183.25
580.206	30170.82
580.566	30153.87
580.927	30196.58
581.287	30479.06
581.648	30247.43
582.008	30463.46
582.368	30468.66
582.728	30485.61
583.089	30339.63
583.449	30398.61
583.809	30424.6
584.169	30517.93
584.529	30472.96
584.889	30695.77
585.249	30549.79
585.609	30429.79
585.969	30549.79
586.329	30518.15
586.688	30547.76
587.048	30507.98
587.408	30573.97
587.768	30535.55
588.127	30583.91
588.487	30480.19
588.846	30659.39
589.206	30593.63
589.565	30536.23
589.925	30698.71
590.284	30611.26
590.643	30714.76
591.003	30801.53
591.362	30868.88
591.721	30749.56
592.08	30832.04
592.44	30884.47
592.799	30829.1
593.158	30757.02
593.517	30837.01
593.876	30908.65
594.235	30758.15
594.593	30900.06
594.952	30742.1
595.311	30827.07
595.67	30877.01
596.029	31086.72
596.387	31057.12
596.746	31122.88
597.104	31032.72
597.463	30958.37
597.822	31032.04
598.18	30903.23
598.538	30974.64
598.897	31255.08
599.255	30972.38
599.613	31403.1
599.972	31196.33
600.33	31258.25
600.688	31159.49
601.046	31291.47
601.404	31378.24
601.762	31315.87
602.12	31482.87
602.478	31494.17
602.836	31309.32
603.194	31353.16
603.552	31372.37
603.91	31262.31
604.268	31519.26
604.625	31300.5
604.983	31488.75
605.341	31320.62
605.698	31566.71
606.056	31646.03
606.413	31539.14
606.771	31659.59
607.128	31691.91
607.485	31537.79
607.843	31693.71
608.2	31904.56
608.557	31945.01
608.914	31807.38
609.272	31989.98
609.629	32072.46
609.986	32140.48
610.343	32052.35
610.7	32308.61
611.057	32124.44
611.414	31989.53
611.771	32049.41
612.127	32267.48
612.484	32135.74
612.841	32390.65
613.198	32219.58
613.554	32278.56
613.911	32299.8
614.267	32431.55
614.624	32520.13
614.98	32551.32
615.337	32529.4
615.693	32521.94
616.05	32473.58
616.406	32669.06
616.762	32544.99
617.118	32637.87
617.475	32643.29
617.831	32806
618.187	32739.11
618.543	32662.5
618.899	32898.43
619.255	32947.02
619.611	32827.47
619.967	32963.06
620.323	33007.35
620.678	32894.14
621.034	32823.18
621.39	32774.82
621.746	32768.04
622.101	33184.3
622.457	32792.67
622.812	32958.09
623.168	33075.6
623.523	32927.58
623.879	33171.19
624.234	32848.94
624.589	33106.11
624.945	33049.39
625.3	33063.62
625.655	33038.54
626.01	33001.7
626.365	33101.81
626.72	32911.54
627.075	32980.91
627.43	33030.63
627.785	32887.81
628.14	32957.64
628.495	32967.58
628.85	32959.44
629.205	32842.84
629.559	32972.33
629.914	32750.41
630.269	32841.03
630.623	32867.7
630.978	32689.17
631.332	32952.66
631.687	32909.73
632.041	32778.66
632.396	32855.72
632.75	32597.87
633.104	32717.42
633.459	32448.27
633.813	32468.16
634.167	32455.5
634.521	32507.25
634.875	32638.32
635.229	32504.77
635.583	32341.61
635.937	32277.88
636.291	32355.17
636.645	32268.39
636.999	32259.12
637.352	32380.02
637.706	32105.23
638.06	32321.95
638.413	32165.79
638.767	32107.94
639.121	32180.93
639.474	32002.86
639.828	32014.61
640.181	32005.8
640.534	31911.11
640.888	31820.04
641.241	31771.23
641.594	31758.35
641.947	31913.6
642.301	31773.03
642.654	31848.96
643.007	31659.37
643.36	31680.83
643.713	31574.62
644.066	31627.73
644.419	31443.33
644.771	31399.26
645.124	31215.99
645.477	31074.07
645.83	30770.35
646.182	30668.66
646.535	30444.03
646.888	30609.9
647.24	30319.97
647.593	30460.53
647.945	30416.69
648.298	30257.82
648.65	30254.88
649.002	30275.45
649.355	30340.98
649.707	30389.79
650.059	30445.84
650.411	30848.31
650.763	30718.15
651.115	30997.24
651.467	30957.01
651.819	30991.81
652.171	30934.64
652.523	30742.78
652.875	30719.28
653.227	30604.93
653.578	30723.12
653.93	30912.27
654.282	30751.37
654.633	30646.51
654.985	30580.75
655.337	30620.07
655.688	30637.7
656.039	30648.09
656.391	30406.52
656.742	30412.62
657.094	30465.72
657.445	30649.45
657.796	30466.63
658.147	30427.53
658.498	30365.16
658.849	30452.17
659.2	30411.26
659.551	30324.94
659.902	30532.39
660.253	30448.55
660.604	30356.8
660.955	30204.26
661.306	30291.04
661.656	30260.53
662.007	30208.56
662.358	30153.64
662.708	30262.57
663.059	30247.2
663.409	30071.84
663.76	30204.94
664.11	30161.33
664.461	30146.64
664.811	30275.22
665.161	30252.17
665.511	30028.9
665.862	30068.67
666.212	30233.87
666.562	30157.48
666.912	30137.6
667.262	30087.88
667.612	30088.11
667.962	30086.75
668.312	30117.94
668.662	30120.87
669.011	30020.31
669.361	29964.49
669.711	29981.9
670.06	29840.2
670.41	29924.04
670.76	29871.16
671.109	29902.12
671.459	29921.78
671.808	29863.25
672.157	29863.48
672.507	29667.78
672.856	29630.04
673.205	29788
673.554	29677.5
673.904	29702.13
674.253	29877.04
674.602	29781.22
674.951	29365.19
675.3	29242.48
675.649	29568.8
675.998	29490.61
676.346	29554.79
676.695	29787.32
677.044	29274.12
677.393	29396.6
677.741	29446.77
678.09	29351.86
678.438	29302.82
678.787	29436.15
679.135	29375.13
679.484	29162.48
679.832	29303.5
680.181	29158.64
680.529	29312.76
680.877	29121.13
681.225	29132.65
681.573	29181.46
681.922	29124.74
682.27	28998.87
682.618	29034.12
682.966	28878.87
683.314	28936.73
683.661	28884.07
684.009	28664.19
684.357	28606.56
684.705	28656.05
685.053	28573.34
685.4	28539.67
685.748	28511.88
686.095	28463.29
686.443	28296.06
686.79	28244.99
687.138	28311.88
687.485	28354.37
687.832	28209.51
688.18	28253.13
688.527	28114.83
688.874	27943.98
689.221	28000.03
689.568	27922.51
689.915	27902.63
690.262	27928.84
690.609	27813.59
690.956	27742.86
691.303	27638.68
691.65	27540.15
691.997	27561.17
692.344	27374.96
692.69	27321.85
693.037	27407.73
693.383	27206.6
693.73	27184.23
694.077	27040.28
694.423	26982.65
694.769	26913.28
695.116	26912.37
695.462	26877.8
695.808	26792.6
696.155	26850.45
696.501	26543.79
696.847	26562.1
697.193	26324.59
697.539	26533.4
697.885	26210.7
698.231	26193.75
698.577	26241.88
698.923	26149.91
699.269	26137.25
699.614	25981.77
699.96	25907.88
700.306	25867.88
700.651	25754.66
700.997	25582.46
701.342	25648
701.688	25594.44
702.033	25575.68
702.379	25519.19
702.724	25386.99
703.069	25502.69
703.415	25232.87
703.76	25226.99
704.105	25156.03
704.45	25118.07
704.795	24924.85
705.14	24907.45
705.485	24835.36
705.83	24743.16
706.175	24841.01
706.52	24742.71
706.865	24685.54
707.209	24634.69
707.554	24593.56
707.899	24549.5
708.243	24415.04
708.588	24508.82
708.932	24228.37
709.277	24229.73
709.621	24220.01
709.966	24039.23
710.31	24159.9
710.654	23895.28
710.998	23943.18
711.342	23876.97
711.687	23875.16
712.031	23830.42
712.375	23672
712.719	23802.4
713.063	23701.38
713.407	23754.94
713.75	23486.02
714.094	23653.25
714.438	23501.16
714.782	23458.68
715.125	23402.41
715.469	23428.62
715.812	23247.38
716.156	23169.87
716.499	23170.77
716.843	23192.7
717.186	23034.06
717.53	23125.58
717.873	23041.06
718.216	23080.83
718.559	22996.77
718.902	22891.23
719.246	22919.03
719.589	22726.49
719.932	22680.39
720.275	22819.37
720.617	22644.24
720.96	22787.96
721.303	22658.47
721.646	22627.96
721.989	22436.33
722.331	22423.68
722.674	22367.86
723.016	22398.82
723.359	22375.32
723.701	22383.45
724.044	22203.12
724.386	22229.56
724.729	22287.63
725.071	22164.47
725.413	22088.32
725.755	22075.21
726.097	22030.24
726.439	21923.35
726.782	21980.98
727.124	22130.58
727.465	21817.59
727.807	21842.45
728.149	21727.42
728.491	21699.85
728.833	21817.82
729.175	21744.6
729.516	21691.27
729.858	21644.94
730.199	21700.98
730.541	21644.71
730.882	21646.52
731.224	21622.34
731.565	21404.27
731.906	21562.23
732.248	21482.91
732.589	21355.23
732.93	21221
733.271	21396.58
733.612	21416.92
733.953	21284.04
734.294	21212.86
734.635	21059.42
734.976	21165.63
735.317	21130.15
735.658	21115.46
735.999	21109.81
736.339	20992.75
736.68	20984.84
737.021	20914.34
737.361	20886.09
737.702	20995.92
738.042	20934.68
738.383	20784.85
738.723	20871.85
739.063	20781.01
739.404	20797.96
739.744	20665.08
740.084	20622.59
740.424	20711.4
740.764	20573.56
741.104	20740.56
741.444	20483.84
741.784	20531.75
742.124	20600.22
742.464	20499.88
742.804	20478.64
743.143	20431.64
743.483	20491.52
743.823	20367.91
744.162	20344.86
744.502	20351.41
744.841	20228.25
745.181	20289.95
745.52	20235.94
745.86	20311.87
746.199	20152.1
746.538	20127.01
746.877	20085.43
747.216	20062.61
747.556	20072.55
747.895	19969.96
748.234	19921.14
748.573	19918.66
748.911	19873.69
749.25	19808.6
749.589	19790.07
749.928	19775.16
750.267	19814.03
750.605	19714.37
750.944	19688.38
751.283	19581.04
751.621	19638.44
751.96	19464.43
752.298	19535.39
752.636	19389.18
752.975	19290.2
753.313	19313.48
753.651	19351.89
753.989	19273.25
754.327	19133.14
754.666	19134.04
755.004	19246.81
755.342	19185.79
755.679	19035.97
756.017	19044.33
756.355	19083.42
756.693	18922.98
757.031	18952.13
757.368	18791
757.706	18823.54
758.044	18746.94
758.381	18683.44
758.719	18675.07
759.056	18688.41
759.394	18585.58
759.731	18457.9
760.068	18428.3
760.405	18398.02
760.743	18374.29
761.08	18324.35
761.417	18297.68
761.754	18349.88
762.091	18248.64
762.428	18218.14
762.765	17984.47
763.102	18105.37
763.438	17950.8
763.775	17857.92
764.112	17836
764.449	17860.86
764.785	17768.21
765.122	17622.67
765.458	17589.23
765.795	17530.02
766.131	17485.95
766.467	17509.45
766.804	17438.04
767.14	17327.31
767.476	17316.92
767.812	17145.4
768.148	17222.68
768.485	17072.63
768.821	17041.44
769.157	17002.58
769.492	16993.31
769.828	16934.78
770.164	16772.75
770.5	16668.57
770.836	16806.2
771.171	16554.68
771.507	16556.03
771.842	16523.94
772.178	16473.1
772.513	16387.9
772.849	16331.41
773.184	16256.38
773.519	16213.22
773.855	16137.29
774.19	16166.21
774.525	16085.54
774.86	16025.88
775.195	16049.15
775.53	15909.95
775.865	15891.42
776.2	15756.51
776.535	15688.26
776.87	15744.53
777.205	15638.54
777.539	15561.48
777.874	15523.97
778.209	15459.79
778.543	15440.81
778.878	15337.08
779.212	15277.2
779.547	15285.33
779.881	15210.08
780.215	15234.49
780.55	15175.5
780.884	15085.11
781.218	14973.48
781.552	15044.89
781.886	14875.85
782.22	14744.33
782.554	14878.79
782.888	14683.31
783.222	14559.02
783.556	14593.37
783.889	14500.72
784.223	14427.73
784.557	14393.38
784.89	14407.62
785.224	14281.29
785.557	14230.9
785.891	14157.9
786.224	14152.26
786.558	14135.31
786.891	14090.11
787.224	14079.26
787.557	13953.84
787.891	13940.96
788.224	13839.04
788.557	13770.34
788.89	13816.67
789.223	13808.08
789.556	13629.56
789.888	13639.27
790.221	13627.75
790.554	13537.36
790.887	13573.74
791.219	13498.03
791.552	13369
791.884	13369.45
792.217	13355.67
792.549	13262.56
792.882	13195.44
793.214	13176.91
793.546	13181.89
793.879	13057.14
794.211	12980.08
794.543	13075.67
794.875	12935.11
795.207	12990.48
795.539	12970.37
795.871	12851.72
796.203	12753.2
796.535	12701.45
796.867	12685.17
797.198	12641.79
797.53	12675.46
797.862	12666.42
798.193	12625.74
798.525	12436.37
798.856	12541.45
799.188	12401.11
799.519	12406.54
799.85	12307.78
800.182	12370.83
800.513	12343.04
800.844	12147.79
801.175	12291.29
801.506	12303.26
801.837	12159.31
802.168	12179.2
802.499	12146.21
802.83	11997.06
803.161	11949.38
803.491	12025.08
803.822	12052.2
804.153	12000.45
804.483	11870.28
804.814	11772.66
805.145	11827.34
805.475	11777.18
805.805	11733.11
806.136	11792.09
806.466	11705.09
806.796	11715.93
807.126	11644.07
807.457	11683.39
807.787	11548.93
808.117	11504.42
808.447	11498.09
808.777	11533.79
809.107	11476.17
809.436	11356.17
809.766	11353.23
810.096	11262.61
810.426	11213.58
810.755	11308.26
811.085	11272.1
811.414	11244.53
811.744	11146.23
812.073	11180.58
812.403	11150.07
812.732	11018.1
813.061	11037.31
813.39	11021.72
813.719	11012.45
814.049	11065.56
814.378	10992.56
814.707	10919.57
815.036	10957.31
815.365	10826.47
815.693	10822.4
816.022	10780.14
816.351	10762.97
816.68	10692.68
817.008	10739.92
817.337	10648.17
817.665	10610.2
817.994	10650.43
818.322	10582.86
818.651	10583.08
818.979	10532.92
819.307	10527.49
819.636	10454.05
819.964	10450.21
820.292	10535.4
820.62	10472.13
820.948	10450.66
821.276	10493.14
821.604	10468.74
821.932	10462.86
822.259	10526.59
822.587	10503.54
822.915	10375.86
823.243	10429.64
823.57	10417.21
823.898	10460.83
824.225	10429.64
824.553	10396.65
824.88	10408.62
825.207	10454.05
825.535	10336.76
825.862	10465.35
826.189	10400.72
826.516	10391.9
826.843	10491.33
827.17	10486.59
827.497	10426.7
827.824	10435.52
828.151	10376.76
828.478	10428.51
828.805	10476.87
829.131	10426.03
829.458	10420.15
829.785	10407.04
830.111	10316.88
830.438	10444.78
830.764	10396.65
831.09	10405.69
831.417	10285.01
831.743	10385.12
832.069	10376.54
832.395	10286.82
832.722	10356.2
833.048	10320.04
833.374	10346.48
833.7	10322.53
834.026	10311.9
834.351	10302.64
834.677	10317.1
835.003	10316.88
835.329	10299.93
835.654	10305.8
835.98	10283.43
836.306	10200.95
836.631	10272.58
836.956	10211.57
837.282	10194.39
837.607	10150.55
837.932	10167.95
838.258	10103.55
838.583	10093.15
838.908	10054.28
839.233	10113.04
839.558	10063.1
839.883	10049.54
840.208	9945.59
840.533	9983.55
840.858	9969.31
841.182	10010.22
841.507	9902.2
841.832	9880.5
842.156	9917.56
842.481	9953.27
842.805	9841.63
843.13	9864.68
843.454	9812.26
843.778	9706.27
844.103	9738.13
844.427	9789.88
844.751	9775.65
845.075	9697.23
845.399	9701.52
845.723	9595.76
846.047	9632.15
846.371	9572.71
846.695	9625.37
847.019	9497.91
847.343	9506.05
847.666	9381.08
847.99	9393.96
848.313	9375.66
848.637	9330.01
848.96	9334.3
849.284	9249.11
849.607	9242.33
849.931	9134.76
850.254	9109
850.577	9127.98
850.9	9006.63
851.223	9052.05
851.546	8927.53
851.869	8890.47
852.192	8949.23
852.515	8896.35
852.838	8851.38
853.161	8878.95
853.483	8835.56
853.806	8803.24
854.129	8777.26
854.451	8700.65
854.774	8656.35
855.096	8684.6
855.419	8617.49
855.741	8588.79
856.063	8529.58
856.385	8577.94
856.708	8533.19
857.03	8476.47
857.352	8466.3
857.674	8508.34
857.996	8432.18
858.318	8345.18
858.64	8350.37
858.961	8364.61
859.283	8315.57
859.605	8323.93
859.926	8278.51
860.248	8270.83
860.57	8243.71
860.891	8238.29
861.212	8255.23
861.534	8169.14
861.855	8186.08
862.176	8146.31
862.498	8147.67
862.819	8094.56
863.14	8061.79
863.461	8096.82
863.782	8146.76
864.103	8112.19
864.424	8067.67
864.745	8080.32
865.065	7995.35
865.386	8031.51
865.707	7958.07
866.027	8046.2
866.348	8024.96
866.668	8005.52
866.989	7890.72
867.309	7906.77
867.63	7901.12
867.95	7919.88
868.27	7799.43
868.59	7903.61
868.91	7890.27
869.23	7857.05
869.55	7845.98
869.87	7907
870.19	7810.5
870.51	7883.95
870.83	7833.78
871.15	7759.2
871.469	7760.56
871.789	7781.58
872.109	7726.66
872.428	7677.17
872.748	7721.24
873.067	7717.17
873.386	7702.26
873.706	7736.83
874.025	7641.01
874.344	7635.36
874.663	7621.13
874.982	7651.63
875.301	7658.41
875.62	7600.56
875.939	7597.85
876.258	7560.79
876.577	7563.05
876.896	7602.14
877.214	7534.8
877.533	7525.31
877.852	7545.2
878.17	7477.18
878.489	7547.46
878.807	7483.96
879.125	7415.03
879.444	7474.46
879.762	7498.42
880.08	7423.62
880.398	7387.69
880.716	7383.17
881.034	7353.79
881.352	7347.69
881.67	7404.18
881.988	7382.72
882.306	7361.7
882.624	7350.17
882.941	7306.56
883.259	7274.92
883.577	7306.11
883.894	7242.15
884.212	7248.03
884.529	7288.71
884.846	7181.36
885.164	7207.8
885.481	7171.87
885.798	7156.73
886.115	7065.44
886.432	7104.76
886.75	7154.7
887.067	7102.72
887.383	7105.43
887.7	7068.83
888.017	7009.39
888.334	7025.66
888.651	7014.82
888.967	7010.97
889.284	6944.53
889.6	6887.81
889.917	6863.86
890.233	6880.81
890.55	6900.47
890.866	6947.47
891.182	6871.54
891.498	6893.24
891.815	6900.92
892.131	6792.67
892.447	6746.8
892.763	6743.64
893.079	6718.1
893.395	6710.64
893.71	6697.08
894.026	6694.82
894.342	6661.83
894.657	6674.26
894.973	6601.27
895.289	6612.57
895.604	6594.04
895.92	6572.79
896.235	6543.87
896.55	6543.64
896.865	6519.91
897.181	6512
897.496	6510.65
897.811	6443.31
898.126	6468.39
898.441	6420.25
898.756	6399.46
899.071	6325.12
899.386	6333.48
899.7	6274.27
900.015	6301.39
900.33	6269.3
900.644	6214.16
900.959	6187.27
901.273	6250.77
901.588	6156.99
901.902	6185.68
902.216	6165.35
902.531	6147.95
902.845	6096.65
903.159	6060.49
903.473	6009.64
903.787	6013.03
904.101	5946.37
904.415	5994.5
904.729	5986.59
905.042	5908.86
905.356	5948.85
905.67	5922.64
905.984	5892.81
906.297	5875.64
906.611	5885.58
906.924	5874.96
907.237	5791.57
907.551	5788.41
907.864	5758.8
908.177	5749.09
908.491	5730.78
908.804	5714.06
909.117	5667.28
909.43	5722.87
909.743	5625.25
910.056	5664.57
910.368	5554.74
910.681	5566.04
910.994	5564.01
911.307	5453.73
911.619	5515.65
911.932	5480.62
912.244	5447.17
912.557	5453.27
912.869	5431.13
913.181	5368.98
913.494	5432.71
913.806	5390
914.118	5356.33
914.43	5312.94
914.742	5329.66
915.054	5274.07
915.366	5230
915.678	5237.01
915.99	5203.56
916.302	5180.74
916.613	5189.33
916.925	5132.15
917.236	5108.65
917.548	5103.68
917.859	5074.53
918.171	5077.69
918.482	5083.57
918.794	5051.93
919.105	5043.79
919.416	4990.24
919.727	5002.67
920.038	4983
920.349	4911.37
920.66	4932.84
920.971	4931.93
921.282	4918.37
921.593	4863.46
921.903	4812.61
922.214	4811.03
922.525	4771.94
922.835	4789.56
923.146	4746.63
923.456	4750.02
923.767	4746.63
924.077	4693.97
924.387	4652.39
924.697	4619.4
925.008	4660.98
925.318	4633.86
925.628	4611.04
925.938	4558.61
926.248	4553.86
926.558	4551.83
926.867	4500.08
927.177	4514.99
927.487	4524.03
927.796	4479.51
928.106	4458.5
928.416	4489.68
928.725	4438.39
929.034	4381.21
929.344	4371.27
929.653	4386.41
929.962	4321.1
930.271	4331.04
930.581	4302.8
930.89	4280.42
931.199	4263.02
931.508	4254.66
931.817	4248.11
932.125	4225.06
932.434	4215.34
932.743	4203.59
933.051	4167.21
933.36	4179.41
933.669	4144.83
933.977	4150.94
934.286	4091.05
934.594	4103.71
934.902	4096.7
935.21	4046.08
935.519	4002.24
935.827	4048.34
936.135	4003.14
936.443	3997.27
936.751	3965.63
937.059	3959.75
937.367	3930.38
937.674	3934.9
937.982	3948.68
938.29	3917.95
938.597	3869.14
938.905	3839.53
939.213	3870.72
939.52	3826.65
939.827	3825.97
940.135	3802.7
940.442	3763.6
940.749	3771.74
941.056	3755.69
941.363	3718.41
941.67	3724.73
941.977	3696.03
942.284	3673.89
942.591	3662.81
942.898	3614.9
943.205	3666.43
943.511	3632.53
943.818	3643.38
944.125	3602.25
944.431	3573.78
944.738	3613.32
945.044	3578.97
945.35	3535.13
945.657	3517.51
945.963	3519.31
946.269	3512.31
946.575	3519.09
946.881	3448.36
947.187	3473.21
947.493	3391.63
947.799	3465.3
948.105	3390.73
948.41	3435.47
948.716	3360.45
949.022	3345.76
949.327	3336.95
949.633	3342.6
949.938	3332.2
950.244	3329.26
950.549	3303.95
950.854	3296.72
951.16	3278.64
951.465	3267.12
951.77	3238.19
952.075	3235.48
952.38	3238.42
952.685	3236.61
952.99	3197.51
953.294	3168.59
953.599	3155.26
953.904	3102.15
954.209	3128.14
954.513	3120.23
954.818	3122.49
955.122	3082.49
955.426	3110.96
955.731	3065.54
956.035	3090.17
956.339	3067.35
956.643	3063.51
956.948	3011.98
957.252	3008.14
957.556	3009.05
957.86	2964.53
958.163	2956.62
958.467	2940.35
958.771	2955.26
959.075	2965.2
959.378	2949.39
959.682	2909.84
959.985	2873.91
960.289	2867.35
960.592	2900.8
960.896	2863.96
961.199	2840.46
961.502	2851.54
961.805	2801.37
962.108	2804.3
962.411	2819.45
962.714	2789.16
963.017	2796.62
963.32	2791.65
963.623	2757.98
963.926	2776.06
964.228	2757.3
964.531	2734.93
964.833	2706.45
965.136	2670.75
965.438	2693.12
965.741	2671.65
966.043	2654.03
966.345	2672.78
966.648	2656.74
966.95	2651.09
967.252	2609.28
967.554	2632.78
967.856	2629.39
968.158	2606.12
968.46	2616.29
968.761	2567.7
969.063	2560.47
969.365	2528.38
969.666	2559.57
969.968	2533.13
970.269	2504.43
970.571	2496.52
970.872	2525.67
971.174	2502.62
971.475	2477.76
971.776	2415.16
972.077	2432.79
972.378	2426.69
972.679	2465.1
972.98	2433.92
973.281	2401.38
973.582	2425.11
973.883	2383.07
974.183	2401.83
974.484	2419.91
974.785	2364.32
975.085	2356.86
975.386	2390.76
975.686	2319.12
975.986	2340.14
976.287	2340.81
976.587	2302.62
976.887	2344.43
977.187	2334.71
977.487	2270.53
977.787	2268.05
978.087	2234.38
978.387	2261.95
978.687	2278.22
978.987	2222.85
979.286	2215.85
979.586	2239.35
979.885	2243.64
980.185	2213.59
980.484	2164.77
980.784	2161.84
981.083	2216.3
981.382	2186.92
981.682	2154.38
981.981	2111.89
982.28	2157.32
982.579	2136.07
982.878	2121.84
983.177	2095.17
983.475	2112.35
983.774	2097.43
984.073	2096.3
984.372	2049.75
984.67	2065.12
984.969	2056.08
985.267	2065.34
985.566	2048.62
985.864	2033.93
986.162	2027.6
986.461	2037.55
986.759	2011.78
987.057	1989.64
987.355	1975.17
987.653	2024.89
987.951	2001.39
988.249	2021.5
988.547	1973.37
988.844	1961.84
989.142	1943.31
989.44	1947.15
989.737	1932.92
990.035	1939.69
990.332	1911.45
990.63	1896.31
990.927	1882.3
991.224	1888.17
991.521	1889.75
991.819	1883.65
992.116	1864.67
992.413	1856.31
992.71	1842.07
993.006	1853.37
993.303	1821.05
993.6	1825.57
993.897	1830.55
994.193	1818.79
994.49	1808.4
994.787	1781.96
995.083	1794.39
995.379	1819.02
995.676	1735.18
995.972	1760.04
996.268	1739.7
996.565	1712.13
996.861	1725.24
997.157	1741.96
997.453	1702.64
997.749	1693.83
998.044	1677.55
998.34	1697.22
998.636	1674.62
998.932	1705.8
999.227	1664.67
999.523	1682.3
999.818	1642.08
1000.114	1630.55
1000.409	1656.31
1000.704	1618.57
1001	1615.41
1001.295	1607.5
1001.59	1605.01
1001.885	1578.12
1002.18	1593.49
1002.475	1614.96
1002.77	1571.34
1003.065	1548.07
1003.359	1559.37
1003.654	1567.05
1003.949	1546.71
1004.243	1546.48
1004.538	1521.63
1004.832	1522.3
1005.127	1508.52
1005.421	1493.6
1005.715	1503.32
1006.009	1510.55
1006.304	1504.23
1006.598	1483.21
1006.892	1498.12
1007.186	1473.04
1007.48	1469.2
1007.773	1441.85
1008.067	1425.13
1008.361	1408.64
1008.655	1425.13
1008.948	1422.87
1009.242	1412.48
1009.535	1403.66
1009.829	1404.34
1010.122	1381.07
1010.415	1371.8
1010.708	1383.78
1011.001	1382.87
1011.295	1351.01
1011.588	1357.34
1011.881	1348.3
1012.173	1302.2
1012.466	1311.46
1012.759	1323.21
1013.052	1309.2
1013.344	1307.4
1013.637	1313.5
1013.93	1299.94
1014.222	1283.44
1014.514	1292.25
1014.807	1277.34
1015.099	1276.89
1015.391	1218.58
1015.683	1246.38
1015.976	1232.82
1016.268	1259.26
1016.56	1240.96
1016.851	1241.41
1017.143	1217.91
1017.435	1228.08
1017.727	1193.73
1018.018	1198.47
1018.31	1190.79
1018.602	1181.52
1018.893	1188.08
1019.185	1175.87
1019.476	1168.19
1019.767	1139.04
1020.058	1129.32
1020.35	1141.52
1020.641	1119.15
1020.932	1134.07
1021.223	1110.11
1021.514	1142.88
1021.804	1113.28
1022.095	1079.6
1022.386	1111.69
1022.677	1095.65
1022.967	1082.09
1023.258	1069.44
1023.548	1084.58
1023.839	1081.41
1024.129	1043
1024.419	1046.38
1024.709	1028.98
1025	1071.24
1025.29	1017.01
1025.58	1037.35
1025.87	1017.23
1026.16	1023.56
1026.449	1005.71
1026.739	1001.19
1027.029	1016.56
1027.319	999.61
1027.608	972.04
1027.898	991.47
1028.187	963.22
1028.477	964.35
1028.766	967.29
1029.055	932.49
1029.344	965.71
1029.634	938.59
1029.923	948.08
1030.212	953.51
1030.501	910.57
1030.79	934.52
1031.078	921.19
1031.367	924.13
1031.656	899.95
1031.945	923.68
1032.233	901.08
1032.522	879.38
1032.81	887.75
1033.099	883
1033.387	876.22
1033.675	875.32
1033.963	875.77
1034.251	839.16
1034.54	868.08
1034.828	890.46
1035.116	849.55
1035.403	847.07
1035.691	820.4
1035.979	861.31
1036.267	840.97
1036.554	847.07
1036.842	842.55
1037.129	822.66
1037.417	812.94
1037.704	822.66
1037.992	801.19
1038.279	778.14
1038.566	794.64
1038.853	794.64
1039.14	794.64
