Data from breadboard_black_back_FLMS001491_00008.txt Node
Date: Wed Feb 08 10:49:52 GMT 2017
User: dcchb
Spectrometer: FLMS00149
Trigger mode: 0
Integration Time (sec): 2.000000E-2
Scans to average: 10
Electric dark correction enabled: true
Nonlinearity correction enabled: false
Boxcar width: 0
XAxis mode: Wavelengths
Number of Pixels in Spectrum: 2048
>>>>>Begin Spectral Data<<<<<
341.393	-5.93
341.776	-5.93
342.16	-5.93
342.543	-52.03
342.927	-55.2
343.31	-61.52
343.693	-73.27
344.077	-59.26
344.46	-64.24
344.843	-52.48
345.226	-30.56
345.61	-43.22
345.993	-5.71
346.376	5.14
346.759	7.17
347.142	41.07
347.525	37.68
347.908	44.01
348.291	56.21
348.674	90.79
349.057	108.19
349.44	116.32
349.823	147.74
350.206	158.13
350.588	208.3
350.971	199.49
351.354	235.42
351.737	240.39
352.119	274.06
352.502	265.93
352.884	261.41
353.267	281.74
353.65	310.44
354.032	303.66
354.414	335.3
354.797	312.93
355.179	329.88
355.562	346.6
355.944	345.92
356.326	330.78
356.709	328.97
357.091	357
357.473	336.43
357.855	327.39
358.238	347.28
358.62	352.93
359.002	350.22
359.384	360.16
359.766	358.13
360.148	366.26
360.53	354.06
360.912	339.37
361.294	365.13
361.676	330.56
362.057	370.56
362.439	341.63
362.821	338.92
363.203	349.76
363.584	331.01
363.966	319.26
364.348	328.75
364.729	351.8
365.111	340.05
365.493	333.04
365.874	335.75
366.256	342.08
366.637	334.85
367.019	327.62
367.4	352.02
367.781	331.23
368.163	357.9
368.544	346.6
368.925	324.45
369.306	358.8
369.688	334.85
370.069	332.82
370.45	352.7
370.831	339.14
371.212	348.41
371.593	356.32
371.974	361.06
372.355	357.9
372.736	358.8
373.117	364.91
373.498	349.99
373.879	333.95
374.26	349.76
374.641	360.16
375.021	325.13
375.402	354.06
375.783	375.75
376.163	381.63
376.544	370.78
376.925	370.78
377.305	368.52
377.686	372.14
378.066	376.66
378.447	366.94
378.827	402.64
379.208	382.76
379.588	388.18
379.968	393.38
380.349	417.56
380.729	390.22
381.109	413.94
381.489	408.07
381.87	405.36
382.25	402.42
382.63	396.32
383.01	404.9
383.39	424.34
383.77	410.33
384.15	432.47
384.53	413.72
384.91	420.95
385.29	428.18
385.67	435.86
386.049	443.55
386.429	420.05
386.809	433.83
387.189	444.68
387.568	446.03
387.948	451.23
388.328	432.93
388.707	449.42
389.087	437.9
389.466	461.85
389.846	465.24
390.225	486.71
390.605	487.16
390.984	477.45
391.363	462.53
391.743	483.09
392.122	471.12
392.501	495.07
392.881	511.57
393.26	485.35
393.639	497.11
394.018	509.99
394.397	531.23
394.776	511.79
395.155	523.77
395.534	526.48
395.913	545.01
396.292	537.78
396.671	544.34
397.05	536.88
397.429	556.77
397.808	548.4
398.186	558.8
398.565	547.05
398.944	570.55
399.323	551.12
399.701	541.85
400.08	565.58
400.458	577.33
400.837	574.62
401.215	592.24
401.594	597.89
401.972	601.51
402.351	601.06
402.729	601.06
403.107	621.4
403.486	616.88
403.864	612.81
404.242	608.29
404.62	612.58
404.999	627.72
405.377	651.9
405.755	642.41
406.133	643.32
406.511	662.52
406.889	672.92
407.267	679.02
407.645	668.63
408.023	705.46
408.401	702.52
408.779	721.51
409.156	697.78
409.534	732.35
409.912	750.66
410.29	765.57
410.667	745.69
411.045	775.74
411.422	776.19
411.8	768.06
412.178	801.96
412.555	796.98
412.933	801.28
413.31	792.92
413.687	818
414.065	821.84
414.442	816.19
414.819	866.36
415.197	837.44
415.574	881.95
415.951	873.14
416.328	864.33
416.705	838.11
417.082	878.79
417.46	909.07
417.837	922.63
418.214	922.86
418.591	925.34
418.967	917.89
419.344	942.29
419.721	936.87
420.098	949.52
420.475	968.73
420.852	954.72
421.228	960.37
421.605	964.21
421.982	1004.66
422.358	1017.32
422.735	998.34
423.111	1024.32
423.488	1015.96
423.864	1034.04
424.241	1080.82
424.617	1097.77
424.994	1083.08
425.37	1074.72
425.746	1092.12
426.123	1108.84
426.499	1088.73
426.875	1141.38
427.251	1148.39
427.627	1173.47
428.003	1159.69
428.379	1151.78
428.756	1199.91
429.132	1242.4
429.507	1248.95
429.883	1248.5
430.259	1280.36
430.635	1253.47
431.011	1270.87
431.387	1328.72
431.763	1347.93
432.138	1332.11
432.514	1356.07
432.89	1360.59
433.265	1413.69
433.641	1413.24
434.016	1424.99
434.392	1427.02
434.767	1467.7
435.143	1472.22
435.518	1464.76
435.894	1502.73
436.269	1514.48
436.644	1563.74
437.02	1549.73
437.395	1550.41
437.77	1615.95
438.145	1608.94
438.52	1609.62
438.895	1619.11
439.271	1602.61
439.646	1675.15
440.021	1662.5
440.395	1691.2
440.77	1674.93
441.145	1700.01
441.52	1717.41
441.895	1728.26
442.27	1739.56
442.645	1731.42
443.019	1776.17
443.394	1767.13
443.769	1830.4
444.143	1789.27
444.518	1792.89
444.892	1814.36
445.267	1831.53
445.641	1868.37
446.016	1890.97
446.39	1888.93
446.764	1931.42
447.139	1919.67
447.513	1921.93
447.887	1924.19
448.262	1912.89
448.636	1935.03
449.01	1980.91
449.384	1990.63
449.758	2012.77
450.132	2045.77
450.506	2049.16
450.88	2050.29
451.254	2038.08
451.628	2067.01
452.002	2079.66
452.376	2119.89
452.75	2140.68
453.123	2182.03
453.497	2200.56
453.871	2216.61
454.244	2267
454.618	2307.45
454.992	2311.3
455.365	2295.02
455.739	2354.01
456.112	2400.56
456.486	2415.02
456.859	2440.33
457.232	2495.25
457.606	2483.27
457.979	2519.43
458.352	2614.11
458.725	2617.73
459.099	2626.54
459.472	2654.56
459.845	2674.68
460.218	2742.7
460.591	2764.84
460.964	2764.39
461.337	2811.62
461.71	2855.91
462.083	2894.1
462.456	2909.02
462.829	2908.79
463.201	2983.37
463.574	2959.19
463.947	3059.98
464.32	3113.08
464.692	3091.84
465.065	3165.74
465.438	3227.88
465.81	3269.69
466.183	3281.44
466.555	3343.36
466.928	3390.14
467.3	3346.07
467.672	3380.19
468.045	3492.51
468.417	3538.16
468.789	3533.18
469.161	3609.79
469.534	3645.95
469.906	3695.21
470.278	3776.79
470.65	3824.93
471.022	3844.14
471.394	3918.94
471.766	3963
472.138	4017.46
472.51	4064.7
472.882	4187.4
473.253	4180.85
473.625	4250.91
473.997	4367.74
474.369	4376.55
474.74	4444.57
475.112	4529.54
475.484	4566.38
475.855	4684.11
476.227	4732.02
476.598	4809.08
476.97	4900.61
477.341	4985.58
477.713	5052.01
478.084	5068.74
478.455	5302.85
478.827	5301.27
479.198	5407.71
479.569	5403.64
479.94	5640.47
480.311	5621.49
480.682	5802.28
481.053	5887.25
481.424	5977.19
481.795	5996.4
482.166	6111.2
482.537	6156.84
482.908	6262.38
483.279	6347.12
483.65	6506.67
484.021	6635.48
484.391	6679.77
484.762	6799.99
485.133	6840.67
485.503	6909.37
485.874	7040.21
486.244	7124.5
486.615	7229.36
486.985	7382.8
487.356	7500.54
487.726	7623.92
488.097	7734.88
488.467	7769.91
488.837	7956.12
489.207	7990.92
489.578	8053.74
489.948	8228.88
490.318	8306.17
490.688	8396.11
491.058	8494.64
491.428	8622.32
491.798	8685.59
492.168	8892.37
492.538	8891.24
492.908	9019.14
493.278	9204.9
493.648	9131.23
494.017	9268.85
494.387	9388.4
494.757	9486.02
495.126	9562.86
495.496	9567.83
495.866	9709.74
496.235	9742.29
496.605	9835.39
496.974	9897.31
497.344	10039.91
497.713	10065.44
498.082	10130.75
498.452	10282.61
498.821	10336.85
499.19	10325.32
499.559	10478.76
499.928	10579.55
500.298	10675.14
500.667	10750.62
501.036	10670.17
501.405	10792.88
501.774	10901.58
502.143	10984.06
502.512	11003.72
502.88	11142.48
503.249	11121.01
503.618	11227.9
503.987	11334.56
504.356	11387.44
504.724	11403.26
505.093	11594.44
505.462	11497.49
505.83	11655.91
506.199	11846.86
506.567	11890.03
506.936	11927.77
507.304	12041.66
507.672	12098.83
508.041	12139.96
508.409	12322.56
508.777	12389.67
509.145	12527.52
509.514	12524.81
509.882	12642.1
510.25	12664.02
510.618	12829.89
510.986	12866.27
511.354	13024.46
511.722	13064.68
512.09	13170.44
512.458	13206.83
512.826	13348.97
513.193	13361.17
513.561	13476.2
513.929	13570.43
514.297	13749.64
514.664	13838.68
515.032	13893.36
515.4	13993.02
515.767	14115.5
516.135	14220.13
516.502	14181.27
516.869	14353.46
517.237	14481.37
517.604	14486.79
517.972	14660.35
518.339	14755.94
518.706	14777.63
519.073	14889.72
519.44	15015.14
519.808	15159.32
520.175	15230.05
520.542	15394.34
520.909	15560.44
521.276	15485.86
521.643	15786.42
522.009	15745.74
522.376	15949.81
522.743	16061.67
523.11	16265.73
523.477	16359.29
523.843	16465.05
524.21	16573.75
524.577	16850.57
524.943	16908.43
525.31	16862.55
525.676	17076.78
526.043	17241.75
526.409	17259.6
526.776	17542.53
527.142	17472.93
527.508	17664.11
527.874	17817.78
528.241	17836.08
528.607	17923.31
528.973	18201.05
529.339	18133.93
529.705	18432.45
530.071	18522.62
530.437	18576.18
530.803	18693.46
531.169	18802.16
531.535	18802.84
531.901	18947.24
532.267	19099.55
532.632	19231.3
532.998	19165.32
533.364	19383.16
533.73	19429.49
534.095	19530.73
534.461	19678.52
534.826	19789.71
535.192	19743.15
535.557	19960.77
535.923	20020.43
536.288	20082.58
536.653	20180.2
537.019	20126.19
537.384	20337.26
537.749	20381.33
538.114	20469.91
538.479	20601.89
538.845	20600.53
539.21	20613.64
539.575	20753.75
539.94	20889.34
540.305	20991.71
540.67	20847.98
541.034	21082.78
541.399	21074.64
541.764	21167.75
542.129	21301.08
542.494	21383.79
542.858	21404.8
543.223	21464.92
543.587	21623.33
543.952	21555.99
544.316	21736.55
544.681	21750.33
545.045	21860.84
545.41	21950.1
545.774	22066.48
546.138	22083.43
546.503	22177.44
546.867	22201.62
547.231	22403.65
547.595	22352.58
547.959	22443.87
548.324	22478.9
548.688	22597.77
549.052	22689.74
549.416	22718.44
549.779	22742.85
550.143	22883.18
550.507	22925.22
550.871	23085.89
551.235	23109.39
551.599	23284.98
551.962	23266.22
552.326	23384.87
552.689	23472.55
553.053	23437.07
553.417	23431.19
553.78	23884.97
554.143	23820.79
554.507	23940.78
554.87	23936.72
555.234	24138.97
555.597	24102.81
555.96	24145.07
556.323	24341.9
556.686	24378.96
557.05	24526.08
557.413	24550.48
557.776	24700.99
558.139	24957.25
558.502	24966.97
558.865	24998.83
559.228	25288.32
559.59	25303.01
559.953	25349.56
560.316	25355.21
560.679	25647.86
561.041	25709.78
561.404	25663.9
561.767	25904.8
562.129	25894.18
562.492	26237.45
562.854	26169.2
563.217	26329.42
563.579	26341.4
563.941	26556.31
564.304	26717.21
564.666	26814.38
565.028	26838.79
565.39	26942.06
565.753	27107.48
566.115	27266.35
566.477	27413.91
566.839	27401.48
567.201	27601.48
567.563	27594.7
567.925	27740.91
568.287	27843.96
568.648	27863.39
569.01	28012.09
569.372	28255.25
569.734	28227.45
570.095	28425.64
570.457	28442.36
570.819	28458.63
571.18	28574.33
571.542	28769.13
571.903	28679.42
572.265	28843.7
572.626	29030.14
572.987	29085.51
573.349	29136.35
573.71	29232.62
574.071	29269.46
574.432	29388.78
574.794	29669.67
575.155	29603.68
575.516	29586.74
575.877	29656.79
576.238	29707.64
576.599	29990.57
576.96	29854.3
577.32	29875.99
577.681	30008.19
578.042	30154.4
578.403	30119.6
578.763	30075.08
579.124	30122.32
579.485	30251.13
579.845	30361.63
580.206	30236.21
580.566	30274.4
580.927	30285.7
581.287	30379.26
581.648	30316.66
582.008	30519.59
582.368	30451.12
582.728	30545.36
583.089	30524.79
583.449	30549.87
583.809	30610.21
584.169	30606.37
584.529	30448.86
584.889	30800.72
585.249	30712.36
585.609	30534.51
585.969	30731.11
586.329	30557.56
586.688	30634.84
587.048	30566.15
587.408	30642.53
587.768	30680.49
588.127	30556.65
588.487	30551
588.846	30815.63
589.206	30589.42
589.565	30737.21
589.925	30746.71
590.284	30745.12
590.643	30694.5
591.003	30926.14
591.362	30949.64
591.721	30790.09
592.08	30776.99
592.44	30918
592.799	30805.01
593.158	30832.58
593.517	30885.46
593.876	30836.87
594.235	30819.02
594.593	30794.39
594.952	30995.96
595.311	30732.92
595.67	30907.38
596.029	31056.53
596.387	31129.52
596.746	31192.57
597.104	31062.63
597.463	31051.1
597.822	31090.2
598.18	31061.27
598.538	31067.6
598.897	31357.99
599.255	31021.05
599.613	31430.98
599.972	31250.87
600.33	31322.74
600.688	31185.79
601.046	31235.96
601.404	31452
601.762	31353.7
602.12	31550.07
602.478	31421.94
602.836	31698.32
603.194	31453.58
603.552	31506.69
603.91	31341.27
604.268	31583.29
604.625	31446.57
604.983	31633.01
605.341	31521.37
605.698	31581.94
606.056	31615.16
606.413	31623.97
606.771	31771.76
607.128	31812.21
607.485	31734.02
607.843	31746.68
608.2	31849.5
608.557	32171.75
608.914	31941.93
609.272	32128.14
609.629	32197.51
609.986	32144.41
610.343	32072.77
610.7	32246.78
611.057	32243.62
611.414	32249.49
611.771	32253.33
612.127	32383.95
612.484	32270.96
612.841	32322.26
613.198	32383.05
613.554	32359.77
613.911	32503.95
614.267	32485.19
614.624	32474.8
614.98	32589.14
615.337	32690.16
615.693	32604.74
616.05	32632.76
616.406	32830.27
616.762	32698.07
617.118	32656.26
617.475	32703.04
617.831	32759.99
618.187	32803.6
618.543	32749.14
618.899	32906.65
619.255	33014.44
619.611	32920.66
619.967	32938.74
620.323	33019.64
620.678	32995.23
621.034	32819.19
621.39	32838.4
621.746	32806.99
622.101	33271.16
622.457	32969.47
622.812	33009.7
623.168	33206.3
623.523	33105.97
623.879	33219.41
624.234	32946.2
624.589	33046.76
624.945	33119.75
625.3	33097.38
625.655	33014.89
626.01	33075.46
626.365	33144.16
626.72	33100.09
627.075	33042.69
627.43	33134.44
627.785	32986.87
628.14	33071.62
628.495	33060.54
628.85	32935.12
629.205	32946.65
629.559	32988
629.914	32954.33
630.269	33011.73
630.623	32888.12
630.978	32817.16
631.332	32952.52
631.687	32979.64
632.041	32864.16
632.396	32835.92
632.75	32767.9
633.104	32824.84
633.459	32602.02
633.813	32650.16
634.167	32623.72
634.521	32564.51
634.875	32642.25
635.229	32536.04
635.583	32427.11
635.937	32336.95
636.291	32333.1
636.645	32460.11
636.999	32280.22
637.352	32351.18
637.706	32253.11
638.06	32370.84
638.413	32315.7
638.767	32121.13
639.121	32253.33
639.474	32029.84
639.828	32150.74
640.181	32143.96
640.534	32076.39
640.888	31951.42
641.241	31773.57
641.594	31919.56
641.947	31984.87
642.301	31811.76
642.654	31801.59
643.007	31777.41
643.36	31693.35
643.713	31722.95
644.066	31706
644.419	31556.85
644.771	31422.85
645.124	31157.32
645.477	31096.3
645.83	30941.05
646.182	30717.78
646.535	30716.65
646.888	30705.35
647.24	30466.94
647.593	30505.36
647.945	30516.43
648.298	30371.8
648.65	30349.2
649.002	30193.05
649.355	30341.07
649.707	30376.77
650.059	30428.52
650.411	30816.99
650.763	30862.63
651.115	31146.92
651.467	31116.19
651.819	31037.09
652.171	30904.22
652.523	30899.7
652.875	30861.73
653.227	30843.2
653.578	30917.77
653.93	30946.47
654.282	30638.91
654.633	30619.25
654.985	30704.9
655.337	30657.22
655.688	30713.03
656.039	30803.2
656.391	30464.23
656.742	30499.03
657.094	30575.18
657.445	30567.95
657.796	30542.64
658.147	30516.43
658.498	30398.01
658.849	30483.66
659.2	30366.38
659.551	30409.31
659.902	30467.17
660.253	30435.08
660.604	30433.27
660.955	30248.41
661.306	30479.82
661.656	30254.97
662.007	30304.46
662.358	30374.74
662.708	30256.78
663.059	30388.3
663.409	30037.12
663.76	30245.93
664.11	30312.14
664.461	30230.11
664.811	30166.38
665.161	30182.2
665.511	30189.88
665.862	30224.46
666.212	30337
666.562	30301.52
666.912	30152.15
667.262	30101.98
667.612	30051.13
667.962	30112.37
668.312	29997.57
668.662	30312.59
669.011	30042.32
669.361	30136.55
669.711	29914.86
670.06	30078.7
670.41	29908.54
670.76	29837.8
671.109	30072.6
671.459	29904.92
671.808	29873.51
672.157	29864.24
672.507	29845.26
672.856	29747.41
673.205	29809.56
673.554	29894.75
673.904	29673.29
674.253	29847.97
674.602	29701.99
674.951	29244.15
675.3	29117.14
675.649	29688.43
675.998	29599.84
676.346	29539.05
676.695	29571.37
677.044	29421.54
677.393	29416.35
677.741	29561.2
678.09	29483.01
678.438	29400.3
678.787	29516.46
679.135	29327.76
679.484	29189.91
679.832	29288.44
680.181	29200.31
680.529	29297.93
680.877	29126.64
681.225	29088.9
681.573	29293.41
681.922	29155.11
682.27	29030.59
682.618	29075.34
682.966	28990.59
683.314	29029.01
683.661	29045.73
684.009	28750.37
684.357	28652.07
684.705	28725.06
685.053	28642.81
685.4	28690.26
685.748	28560.32
686.095	28628.8
686.443	28346.54
686.79	28199.88
687.138	28402.36
687.485	28310.16
687.832	28403.94
688.18	28246.66
688.527	28174.34
688.874	28091.41
689.221	28048.7
689.568	28021.13
689.915	27899.55
690.262	27923.28
690.609	27843.05
690.956	27827.46
691.303	27807.57
691.65	27624.98
691.997	27675.37
692.344	27400.35
692.69	27392.44
693.037	27437.87
693.383	27208.27
693.73	27313.8
694.077	27062.28
694.423	27173.47
694.769	26899.35
695.116	26999.91
695.462	26893.25
695.808	26749.97
696.155	26923.53
696.501	26666.81
696.847	26656.64
697.193	26557.21
697.539	26570.09
697.885	26394.73
698.231	26272.47
698.577	26291.68
698.923	26226.37
699.269	26204.45
699.614	25977.57
699.96	25886.49
700.306	26028.19
700.651	25837
700.997	25781.19
701.342	25724.69
701.688	25751.81
702.033	25652.83
702.379	25533.06
702.724	25481.99
703.069	25525.37
703.415	25142.79
703.76	25340.52
704.105	25161.09
704.45	25240.41
704.795	25058.72
705.14	24931.49
705.485	24985.05
705.83	24843.81
706.175	24847.43
706.52	24743.7
706.865	24625.28
707.209	24672.97
707.554	24476.36
707.899	24669.8
708.243	24520.65
708.588	24464.16
708.932	24315.24
709.277	24365.4
709.621	24289.7
709.966	24117.05
710.31	24202.02
710.654	23948.47
710.998	24046.32
711.342	24075.02
711.687	23928.58
712.031	23877.96
712.375	23760.22
712.719	23781.69
713.063	23801.13
713.407	23899.88
713.75	23677.74
714.094	23685.42
714.438	23584.86
714.782	23684.97
715.125	23372.89
715.469	23412.66
715.812	23304.42
716.156	23324.3
716.499	23188.49
716.843	23352.55
717.186	23072.56
717.53	23296.05
717.873	23255.83
718.216	23103.29
718.559	23054.7
718.902	22825.33
719.246	22931.09
719.589	22848.61
719.932	22753.24
720.275	22733.58
720.617	22856.97
720.96	22630.53
721.303	22803.19
721.646	22727.26
721.989	22561.84
722.331	22569.07
722.674	22460.37
723.016	22480.93
723.359	22458.34
723.701	22455.85
724.044	22315.97
724.386	22200.49
724.729	22339.02
725.071	22155.97
725.413	22228.29
725.755	22203.88
726.097	22195.29
726.439	22002.08
726.782	22014.96
727.124	22097.22
727.465	21896.77
727.807	22032.13
728.149	21865.13
728.491	21816.32
728.833	21852.7
729.175	21637.11
729.516	21717.56
729.858	21669.66
730.199	21780.16
730.541	21699.03
730.882	21633.95
731.224	21663.33
731.565	21478.93
731.906	21540.62
732.248	21544.69
732.589	21401.64
732.93	21437.12
733.271	21310.8
733.612	21373.17
733.953	21376.56
734.294	21314.41
734.635	21196.9
734.976	21264.7
735.317	21173.85
735.658	21256.33
735.999	21195.09
736.339	21034.19
736.68	21157.81
737.021	20936.79
737.361	20928.43
737.702	21012.72
738.042	20926.62
738.383	20914.87
738.723	20945.38
739.063	20777.02
739.404	20878.04
739.744	20811.15
740.084	20707.87
740.424	20775.67
740.764	20741.55
741.104	20691.6
741.444	20613.41
741.784	20628.78
742.124	20604.37
742.464	20503.36
742.804	20551.04
743.143	20587.88
743.483	20538.84
743.823	20334.1
744.162	20291.61
744.502	20406.19
744.841	20378.39
745.181	20362.57
745.52	20081.68
745.86	20263.14
746.199	20217.04
746.538	20161.45
746.877	20181.56
747.216	20247.32
747.556	20148.79
747.895	20233.54
748.234	20060.21
748.573	19883.49
748.911	19903.37
749.25	19772.98
749.589	19703.61
749.928	19811.4
750.267	19848.24
750.605	19715.58
750.944	19661.35
751.283	19617.28
751.621	19643.72
751.96	19461.13
752.298	19573.44
752.636	19590.61
752.975	19400.79
753.313	19358.3
753.651	19403.05
753.989	19234.69
754.327	19281.24
754.666	19159.89
755.004	19206.9
755.342	19325.76
755.679	19113.34
756.017	19055.49
756.355	19022.27
756.693	18980.69
757.031	19016.17
757.368	18811.2
757.706	18924.19
758.044	18847.36
758.381	18781.6
758.719	18775.72
759.056	18736.4
759.394	18659.57
759.731	18603.97
760.068	18564.88
760.405	18416.18
760.743	18360.82
761.08	18476.97
761.417	18321.27
761.754	18321.72
762.091	18227.03
762.428	18205.57
762.765	18009.87
763.102	18129.41
763.438	18056.64
763.775	18030.66
764.112	17947.49
764.449	17980.26
764.785	17822.07
765.122	17696.43
765.458	17646.94
765.795	17649.2
766.131	17668.63
766.467	17507.28
766.804	17329.88
767.14	17334.4
767.476	17355.87
767.812	17259.6
768.148	17412.14
768.485	17197.68
768.821	17045.15
769.157	17153.84
769.492	16957.92
769.828	17020.29
770.164	16900.52
770.5	16748.66
770.836	16801.76
771.171	16668.21
771.507	16726.28
771.842	16520.41
772.178	16513.86
772.513	16499.4
772.849	16352.51
773.184	16373.75
773.519	16308.67
773.855	16300.31
774.19	16197.03
774.525	16226.86
774.86	16180.54
775.195	16122.46
775.53	16101.44
775.865	15866.87
776.2	15768.57
776.535	15725.18
776.87	15713.43
777.205	15598.4
777.539	15614.9
777.874	15583.49
778.209	15512.3
778.543	15495.81
778.878	15397.5
779.212	15329.71
779.547	15317.96
779.881	15278.41
780.215	15142.6
780.55	15209.71
780.884	15110.28
781.218	15090.62
781.552	14994.58
781.886	15003.16
782.22	14898.31
782.554	14840.01
782.888	14710.52
783.222	14617.64
783.556	14595.49
783.889	14541.93
784.223	14480.01
784.557	14468.26
784.89	14508.26
785.224	14354.82
785.557	14350.3
785.891	14279.34
786.224	14241.83
786.558	14214.49
786.891	14103.53
787.224	14040.7
787.557	14010.2
787.891	13987.37
788.224	14013.81
788.557	13950.99
788.89	13892.23
789.223	13856.98
789.556	13759.58
789.888	13716.87
790.221	13694.5
790.554	13541.96
790.887	13569.98
791.219	13577.21
791.552	13478.91
791.884	13368.63
792.217	13403.43
792.549	13459.7
792.882	13179.48
793.214	13244.34
793.546	13196.21
793.879	13120.05
794.211	12999.15
794.543	13130.22
794.875	13015.87
795.207	13112.14
795.539	12976.78
795.871	12989.21
796.203	12861.98
796.535	12718.03
796.867	12806.84
797.198	12788.53
797.53	12700.17
797.862	12666.28
798.193	12680.51
798.525	12572.72
798.856	12609.33
799.188	12442.1
799.519	12423.12
799.85	12385.61
800.182	12408.2
800.513	12395.32
800.844	12255.67
801.175	12326.4
801.506	12221.54
801.837	12194.65
802.168	12133.41
802.499	12147.19
802.83	12082.34
803.161	12000.31
803.491	12075.11
803.822	12046.18
804.153	11935.9
804.483	11895.22
804.814	11866.75
805.145	11791.5
805.475	11828.56
805.805	11671.28
806.136	11788.33
806.466	11713.08
806.796	11673.99
807.126	11623.82
807.457	11582.69
807.787	11559.87
808.117	11592.86
808.447	11510.83
808.777	11507.44
809.107	11425.86
809.436	11422.24
809.766	11457.27
810.096	11367.78
810.426	11310.83
810.755	11328.91
811.085	11287.56
811.414	11318.97
811.744	11199.42
812.073	11181.8
812.403	11232.19
812.732	11182.02
813.061	11143.15
813.39	10974.34
813.719	11010.73
814.049	11060.67
814.378	11001.91
814.707	11034.68
815.036	10944.74
815.365	10910.39
815.693	10808.47
816.022	10850.05
816.351	10764.41
816.68	10732.09
817.008	10810.28
817.337	10653.22
817.665	10702.49
817.994	10671.08
818.322	10641.92
818.651	10639.44
818.979	10597.63
819.307	10602.38
819.636	10584.75
819.964	10534.36
820.292	10544.3
820.62	10555.6
820.948	10480.8
821.276	10490.52
821.604	10459.56
821.932	10544.98
822.259	10530.29
822.587	10523.96
822.915	10444.87
823.243	10542.94
823.57	10454.13
823.898	10541.36
824.225	10472.21
824.553	10417.97
824.88	10455.71
825.207	10503.85
825.535	10446.45
825.862	10509.5
826.189	10436.73
826.516	10481.93
826.843	10494.36
827.17	10479.44
827.497	10490.97
827.824	10494.58
828.151	10470.63
828.478	10548.59
828.805	10527.12
829.131	10497.97
829.458	10496.16
829.785	10344.08
830.111	10455.71
830.438	10393.57
830.764	10469.72
831.09	10396.05
831.417	10375.26
831.743	10412.1
832.069	10460.23
832.395	10346.56
832.722	10398.54
833.048	10315.38
833.374	10307.47
833.7	10390.63
834.026	10354.02
834.351	10436.28
834.677	10412.1
835.003	10389.27
835.329	10394.25
835.654	10276.28
835.98	10202.84
836.306	10274.93
836.631	10263.85
836.956	10326.23
837.282	10313.8
837.607	10182.05
837.932	10133.24
838.258	10141.82
838.583	10158.77
838.908	10120.36
839.233	10088.04
839.558	10122.62
839.883	10081.71
840.208	10053.92
840.533	10039
840.858	10037.65
841.182	10001.49
841.507	10037.42
841.832	9943.64
842.156	9956.07
842.481	9928.04
842.805	9858.22
843.13	9841.04
843.454	9881.04
843.778	9825.67
844.103	9792
844.427	9736.86
844.751	9755.85
845.075	9834.04
845.399	9733.92
845.723	9692.8
846.047	9751.1
846.371	9616.64
846.695	9609.41
847.019	9582.52
847.343	9534.61
847.666	9411
847.99	9393.14
848.313	9356.76
848.637	9331.68
848.96	9343.2
849.284	9296.87
849.607	9217.1
849.931	9222.07
850.254	9170.78
850.577	9143.88
850.9	9022.31
851.223	9061.4
851.546	9011.01
851.869	8913.61
852.192	8986.6
852.515	8883.33
852.838	8899.6
853.161	8908.18
853.483	8797
853.806	8778.02
854.129	8728.98
854.451	8742.31
854.774	8752.93
855.096	8660.73
855.419	8625.71
855.741	8661.86
856.063	8581.41
856.385	8567.4
856.708	8570.57
857.03	8516.1
857.352	8503.45
857.674	8494.86
857.996	8467.29
858.318	8380.97
858.64	8392.27
858.961	8331.48
859.283	8364.47
859.605	8336.45
859.926	8355.2
860.248	8278.14
860.57	8225.04
860.891	8318.14
861.212	8232.5
861.534	8233.63
861.855	8125.38
862.176	8195.66
862.498	8227.3
862.819	8207.19
863.14	8103.69
863.461	8108.88
863.782	8135.55
864.103	8119.96
864.424	8105.04
864.745	8097.81
865.065	8038.38
865.386	8032.05
865.707	8000.86
866.027	8057.58
866.348	8088.77
866.668	8004.7
866.989	7917.48
867.309	7908.21
867.63	7884.93
867.95	7947.98
868.27	7858.04
868.59	7898.27
868.91	7830.25
869.23	7889
869.55	7801.09
869.87	7872.5
870.19	7823.92
870.51	7820.53
870.83	7835.67
871.15	7729.68
871.469	7759.29
871.789	7791.38
872.109	7749.8
872.428	7682
872.748	7715.45
873.067	7714.99
873.386	7737.14
873.706	7720.42
874.025	7706.63
874.344	7686.52
874.663	7656.92
874.982	7629.57
875.301	7625.28
875.62	7630.48
875.939	7576.24
876.258	7649.91
876.577	7611.72
876.896	7531.95
877.214	7541.21
877.533	7604.04
877.852	7522.46
878.17	7587.99
878.489	7537.82
878.807	7528.11
879.125	7414.44
879.444	7461.67
879.762	7478.39
880.08	7469.35
880.398	7374.44
880.716	7429.13
881.034	7462.35
881.352	7449.92
881.67	7366.98
881.988	7391.84
882.306	7414.89
882.624	7377.38
882.941	7350.94
883.259	7242.69
883.577	7287.89
883.894	7277.27
884.212	7263.93
884.529	7241.11
884.846	7246.53
885.164	7260.32
885.481	7174.9
885.798	7230.94
886.115	7189.13
886.432	7176.7
886.75	7133.09
887.067	7100.77
887.383	7097.38
887.7	7054.45
888.017	7055.58
888.334	7039.98
888.651	7039.76
888.967	7017.39
889.284	6962.02
889.6	6993.88
889.917	6950.72
890.233	6991.17
890.55	6926.09
890.866	6935.13
891.182	6903.49
891.498	6860.78
891.815	6842.02
892.131	6838.41
892.447	6828.69
892.763	6788.92
893.079	6782.59
893.395	6738.52
893.71	6714.34
894.026	6735.59
894.342	6677.28
894.657	6649.94
894.973	6617.4
895.289	6670.73
895.604	6621.69
895.92	6566.55
896.235	6534.46
896.55	6538.98
896.865	6510.96
897.181	6487.46
897.496	6522.94
897.811	6451.75
898.126	6456.95
898.441	6426.89
898.756	6457.4
899.071	6387.35
899.386	6365.65
899.7	6306.67
900.015	6310.74
900.33	6289.95
900.644	6232.77
900.959	6272.55
901.273	6259.21
901.588	6237.07
901.902	6175.15
902.216	6154.81
902.531	6187.8
902.845	6106.9
903.159	6075.26
903.473	6059.22
903.787	6061.03
904.101	5998.2
904.415	6043.63
904.729	6005.44
905.042	5971.31
905.356	5985.32
905.67	5933.8
905.984	5951.65
906.297	5890.41
906.611	5868.26
906.924	5868.72
907.237	5851.09
907.551	5777.42
907.864	5770.19
908.177	5723.41
908.491	5763.41
908.804	5739.45
909.117	5722.05
909.43	5694.48
909.743	5639.8
910.056	5635.73
910.368	5610.64
910.681	5565.45
910.994	5531.55
911.307	5564.09
911.619	5545.33
911.932	5571.32
912.244	5435.05
912.557	5514.37
912.869	5442.96
913.181	5428.73
913.494	5443.19
913.806	5407.71
914.118	5357.32
914.43	5352.35
914.742	5318
915.054	5289.75
915.366	5287.71
915.678	5281.84
915.99	5246.13
916.302	5201.16
916.613	5170.88
916.925	5176.53
917.236	5128.85
917.548	5107.15
917.859	5130.66
918.171	5119.58
918.482	5094.05
918.794	5036.42
919.105	5078.68
919.416	5005.01
919.727	5041.84
920.038	4950.55
920.349	4925.46
920.66	4923.43
920.971	4919.36
921.282	4908.97
921.593	4895.63
921.903	4783.09
922.214	4811.34
922.525	4783.32
922.835	4780.83
923.146	4734.28
923.456	4717.11
923.767	4715.07
924.077	4685.24
924.387	4699.71
924.697	4657.45
925.008	4661.97
925.318	4686.15
925.628	4618.58
925.938	4657
926.248	4523.44
926.558	4579.94
926.867	4539.49
927.177	4556.89
927.487	4540.16
927.796	4474.63
928.106	4478.47
928.416	4459.49
928.725	4461.3
929.034	4394.18
929.344	4456.32
929.653	4366.16
929.962	4373.61
930.271	4365.93
930.581	4304.01
930.89	4314.41
931.199	4281.41
931.508	4277.8
931.817	4298.59
932.125	4283.9
932.434	4229.66
932.743	4186.27
933.051	4162.77
933.36	4118.25
933.669	4150.12
933.977	4115.77
934.286	4080.06
934.594	4098.37
934.902	4061.76
935.21	4120.06
935.519	4055.88
935.827	3996.67
936.135	4018.14
936.443	3998.03
936.751	3968.2
937.059	3960.29
937.367	3923.91
937.674	3932.27
937.982	3942.21
938.29	3871.25
938.597	3929.11
938.905	3858.83
939.213	3861.99
939.52	3860.63
939.827	3830.58
940.135	3809.56
940.442	3789.9
940.749	3775.89
941.056	3772.95
941.363	3775.66
941.67	3753.52
941.977	3709.22
942.284	3682.33
942.591	3704.93
942.898	3668.1
943.205	3707.19
943.511	3619.51
943.818	3623.13
944.125	3591.49
944.431	3603.46
944.738	3595.1
945.044	3589.91
945.35	3569.79
945.657	3553.75
945.963	3497.25
946.269	3542
946.575	3558.72
946.881	3470.81
947.187	3460.19
947.493	3457.71
947.799	3411.61
948.105	3424.94
948.41	3436.69
948.716	3370.02
949.022	3400.53
949.327	3391.04
949.633	3322.57
949.938	3360.99
950.244	3349.23
950.549	3241.89
950.854	3299.07
951.16	3277.6
951.465	3290.93
951.77	3260.42
952.075	3236.92
952.38	3269.46
952.685	3262.46
952.99	3196.24
953.294	3174.32
953.599	3184.04
953.904	3127.32
954.209	3153.76
954.513	3144.49
954.818	3108.34
955.122	3104.04
955.426	3111.95
955.731	3094.78
956.035	3059.98
956.339	3078.96
956.643	3057.94
956.948	3020.88
957.252	2996.47
957.556	3024.27
957.86	2946.31
958.163	2977.04
958.467	2970.26
958.771	2961
959.075	2943.59
959.378	2935.91
959.682	2928.91
959.985	2915.12
960.289	2890.26
960.592	2870.83
960.896	2857.72
961.199	2867.21
961.502	2850.26
961.805	2826.76
962.108	2844.84
962.411	2824.05
962.714	2802.13
963.017	2810.49
963.32	2781.34
963.623	2751.06
963.926	2745.63
964.228	2729.82
964.531	2726.43
964.833	2748.57
965.136	2683.26
965.438	2686.43
965.741	2717.39
966.043	2688.01
966.345	2673.55
966.648	2701.12
966.95	2639.2
967.252	2624.06
967.554	2632.87
967.856	2621.57
968.158	2624.06
968.46	2578.41
968.761	2593.77
969.063	2544.74
969.365	2565.75
969.666	2523.04
969.968	2568.92
970.269	2500.89
970.571	2517.84
970.872	2492.31
971.174	2489.37
971.475	2505.64
971.776	2480.1
972.077	2452.31
972.378	2452.08
972.679	2435.13
972.98	2437.39
973.281	2424.96
973.582	2392.42
973.883	2417.51
974.183	2400.56
974.484	2423.61
974.785	2389.26
975.085	2373.21
975.386	2375.93
975.686	2374.12
975.986	2332.31
976.287	2363.27
976.587	2328.92
976.887	2301.35
977.187	2315.81
977.487	2314.46
977.787	2276.49
978.087	2292.99
978.387	2263.16
978.687	2264.52
978.987	2236.27
979.286	2237.62
979.586	2221.58
979.885	2189.49
980.185	2209.15
980.484	2206.67
980.784	2176.38
981.083	2158.3
981.382	2160.34
981.682	2191.98
981.981	2184.29
982.28	2160.79
982.579	2152.66
982.878	2143.84
983.177	2101.81
983.475	2102.49
983.774	2118.53
984.073	2101.36
984.372	2070.17
984.67	2112.43
984.969	2037.4
985.267	2059.1
985.566	2075.82
985.864	2056.39
986.162	2059.32
986.461	2018.87
986.759	2023.62
987.057	2010.06
987.355	2002.83
987.653	1964.64
987.951	2013.9
988.249	1984.07
988.547	1981.81
988.844	1969.84
989.142	1954.02
989.44	1919.44
989.737	1945.2
990.035	1944.07
990.332	1917.41
990.63	1959.44
990.927	1887.8
991.224	1925.77
991.521	1868.37
991.819	1869.27
992.116	1836.05
992.413	1870.4
992.71	1828.6
993.006	1804.87
993.303	1823.62
993.6	1834.7
993.897	1829.5
994.193	1814.13
994.49	1818.2
994.787	1798.77
995.083	1798.09
995.379	1780.24
995.676	1800.57
995.972	1757.41
996.268	1777.07
996.565	1753.8
996.861	1738.2
997.157	1754.02
997.453	1730.07
997.749	1709.28
998.044	1667.7
998.34	1709.96
998.636	1702.5
998.932	1683.52
999.227	1682.84
999.523	1652.56
999.818	1658.66
1000.114	1662.72
1000.409	1642.39
1000.704	1621.82
1001	1637.87
1001.295	1604.65
1001.59	1625.66
1001.885	1597.42
1002.18	1599.22
1002.475	1591.54
1002.77	1581.14
1003.065	1562.39
1003.359	1567.81
1003.654	1547.7
1003.949	1548.38
1004.243	1557.19
1004.538	1543.63
1004.832	1513.12
1005.127	1538.66
1005.421	1517.87
1005.715	1511.99
1006.009	1525.78
1006.304	1469.51
1006.598	1472.9
1006.892	1454.82
1007.186	1459.79
1007.48	1437.87
1007.773	1439.91
1008.067	1435.39
1008.361	1444.88
1008.655	1448.72
1008.948	1402.39
1009.242	1434.71
1009.535	1399.68
1009.829	1381.15
1010.122	1401.71
1010.415	1385.44
1010.708	1357.2
1011.001	1355.16
1011.295	1360.13
1011.588	1372.79
1011.881	1349.29
1012.173	1340.02
1012.466	1337.76
1012.759	1327.14
1013.052	1300.25
1013.344	1318.1
1013.637	1313.36
1013.93	1306.58
1014.222	1288.72
1014.514	1297.31
1014.807	1269.06
1015.099	1268.61
1015.391	1275.62
1015.683	1246.01
1015.976	1263.64
1016.268	1256.18
1016.56	1241.72
1016.851	1226.58
1017.143	1245.33
1017.435	1220.93
1017.727	1202.4
1018.018	1183.19
1018.31	1212.79
1018.602	1197.65
1018.893	1185
1019.185	1151.33
1019.476	1148.16
1019.767	1152.91
1020.058	1160.59
1020.35	1176.18
1020.641	1133.7
1020.932	1122.17
1021.223	1118.78
1021.514	1123.53
1021.804	1109.74
1022.095	1085.79
1022.386	1104.77
1022.677	1087.6
1022.967	1100.93
1023.258	1063.19
1023.548	1057.77
1023.839	1054.15
1024.129	1074.72
1024.419	1065.68
1024.709	1064.1
1025	1039.46
1025.29	1048.73
1025.58	1042.85
1025.87	1024.55
1026.16	998.11
1026.449	1002.85
1026.739	1020.26
1027.029	992.91
1027.319	981.84
1027.608	979.58
1027.898	983.42
1028.187	970.77
1028.477	981.84
1028.766	1001.5
1029.055	973.25
1029.344	969.41
1029.634	944.78
1029.923	958.79
1030.212	935.51
1030.501	937.77
1030.79	933.25
1031.078	932.57
1031.367	908.17
1031.656	870.88
1031.945	905.46
1032.233	900.94
1032.522	871.56
1032.81	907.04
1033.099	886.7
1033.387	874.5
1033.675	882.63
1033.963	855.29
1034.251	855.29
1034.54	849.19
1034.828	870.2
1035.116	843.99
1035.403	844.22
1035.691	851.9
1035.979	832.92
1036.267	807.38
1036.554	824.1
1036.842	818.91
1037.129	830.66
1037.417	794.5
1037.704	813.48
1037.992	801.96
1038.279	821.39
1038.566	803.31
1038.853	803.31
1039.14	803.31
