Data from breadboard_white_FLMS001491_00053.txt Node
Date: Wed Feb 08 10:47:56 GMT 2017
User: dcchb
Spectrometer: FLMS00149
Trigger mode: 0
Integration Time (sec): 2.000000E-2
Scans to average: 10
Electric dark correction enabled: true
Nonlinearity correction enabled: false
Boxcar width: 0
XAxis mode: Wavelengths
Number of Pixels in Spectrum: 2048
>>>>>Begin Spectral Data<<<<<
341.393	-7.09
341.776	-7.09
342.16	-7.09
342.543	-71.04
342.927	-55.45
343.31	-60.42
343.693	-80.53
344.077	-63.13
344.46	-46.64
344.843	-49.8
345.226	-54.32
345.61	-44.15
345.993	-16.58
346.376	-7.32
346.759	17.77
347.142	20.93
347.525	28.84
347.908	66.81
348.291	74.72
348.674	90.76
349.057	123.08
349.44	135.5
349.823	163.75
350.206	174.15
350.588	218.67
350.971	228.16
351.354	257.31
351.737	277.42
352.119	269.06
352.502	276.74
352.884	290.08
353.267	317.42
353.65	316.29
354.032	335.27
354.414	344.76
354.797	324.65
355.179	351.32
355.562	343.64
355.944	354.48
356.326	355.61
356.709	351.32
357.091	367.59
357.473	354.26
357.855	376.85
358.238	357.87
358.62	381.6
359.002	375.72
359.384	390.41
359.766	361.26
360.148	372.56
360.53	380.47
360.912	392.9
361.294	377.98
361.676	364.88
362.057	362.39
362.439	365.33
362.821	369.62
363.203	366.01
363.584	352.45
363.966	371.43
364.348	357.65
364.729	367.36
365.111	334.14
365.493	373.01
365.874	365.33
366.256	369.17
366.637	366.46
367.019	368.72
367.4	361.94
367.781	354.48
368.163	368.04
368.544	344.09
368.925	337.31
369.306	357.19
369.688	341.38
370.069	354.26
370.45	366.46
370.831	382.5
371.212	361.49
371.593	359.45
371.974	342.96
372.355	358.1
372.736	358.78
373.117	366.23
373.498	390.87
373.879	402.84
374.26	359.23
374.641	357.42
375.021	386.8
375.402	394.03
375.783	370.3
376.163	391.32
376.544	407.14
376.925	387.25
377.305	377.08
377.686	406.91
378.066	403.75
378.447	406.23
378.827	421.15
379.208	403.75
379.588	415.95
379.968	390.41
380.349	419.34
380.729	397.64
381.109	426.57
381.489	428.83
381.87	432.9
382.25	405.33
382.63	440.13
383.01	433.58
383.39	426.12
383.77	446.68
384.15	451.43
384.53	435.38
384.91	458.43
385.29	450.07
385.67	458.66
386.049	476.29
386.429	467.25
386.809	491.65
387.189	468.15
387.568	463.86
387.948	479
388.328	482.84
388.707	489.85
389.087	503.4
389.466	494.59
389.846	495.95
390.225	510.41
390.605	512.67
390.984	529.39
391.363	511.54
391.743	500.47
392.122	548.15
392.501	557.19
392.881	578.88
393.26	549.28
393.639	549.28
394.018	559.45
394.397	589.73
394.776	592.67
395.155	584.98
395.534	604.87
395.913	603.74
396.292	610.75
396.671	620.01
397.05	629.96
397.429	613.46
397.808	625.66
398.186	646.68
398.565	667.02
398.944	671.76
399.323	673.12
399.701	689.61
400.08	702.04
400.458	714.47
400.837	716.96
401.215	735.72
401.594	737.97
401.972	733.46
402.351	758.09
402.729	775.04
403.107	777.07
403.486	801.7
403.864	822.94
404.242	791.76
404.62	836.73
404.999	844.64
405.377	869.72
405.755	890.06
406.133	888.03
406.511	897.29
406.889	912.43
407.267	928.03
407.645	944.98
408.023	957.86
408.401	1027.46
408.779	997.4
409.156	1041.7
409.534	1030.85
409.912	1084.41
410.29	1107.23
410.667	1093.67
411.045	1127.34
411.422	1141.13
411.8	1173.22
412.178	1211.86
412.555	1222.48
412.933	1227.91
413.31	1285.08
413.687	1268.58
414.065	1299.99
414.442	1332.54
414.819	1356.94
415.197	1388.81
415.574	1397.84
415.951	1429.03
416.328	1415.92
416.705	1452.76
417.082	1460.44
417.46	1472.87
417.837	1531.17
418.214	1551.06
418.591	1561.23
418.967	1591.96
419.344	1594.22
419.721	1605.97
420.098	1617.73
420.475	1679.65
420.852	1643.94
421.228	1678.29
421.605	1712.64
421.982	1746.08
422.358	1755.35
422.735	1776.37
423.111	1766.65
423.488	1833.99
423.864	1828.57
424.241	1906.76
424.617	1889.36
424.994	1913.54
425.37	1926.64
425.746	1947.21
426.123	1968.68
426.499	1972.29
426.875	2017.49
427.251	2074.44
427.627	2069.01
428.003	2105.4
428.379	2146.98
428.756	2184.04
429.132	2220.2
429.507	2256.35
429.883	2261.32
430.259	2310.59
430.635	2362.79
431.011	2371.6
431.387	2424.26
431.763	2468.78
432.138	2464.03
432.514	2526.18
432.89	2499.74
433.265	2590.81
433.641	2616.12
434.016	2657.7
434.392	2720.52
434.767	2747.19
435.143	2723.01
435.518	2816.34
435.894	2817.69
436.269	2891.59
436.644	2896.56
437.02	2953.51
437.395	2962.32
437.77	2984.92
438.145	3050
438.52	3079.38
438.895	3080.96
439.271	3155.76
439.646	3228.3
440.021	3177.68
440.395	3217.46
440.77	3225.14
441.145	3214.29
441.52	3316.89
441.895	3358.7
442.27	3382.43
442.645	3356.44
443.019	3390.33
443.394	3399.15
443.769	3489.77
444.143	3489.77
444.518	3580.61
444.892	3545.58
445.267	3556.43
445.641	3597.56
446.016	3590.33
446.39	3635.98
446.764	3700.38
447.139	3675.3
447.513	3733.83
447.887	3774.28
448.262	3771.79
448.636	3802.75
449.01	3884.78
449.384	3874.84
449.758	3906.03
450.132	3973.6
450.506	3991.9
450.88	4032.35
451.254	3996.87
451.628	4094.5
452.002	4156.42
452.376	4146.02
452.75	4222.63
453.123	4238
453.497	4339.24
453.871	4355.05
454.244	4436.18
454.618	4489.06
454.992	4562.51
455.365	4548.72
455.739	4676.4
456.112	4734.25
456.486	4790.3
456.859	4805.21
457.232	4902.84
457.606	4905.77
457.979	4954.36
458.352	5079.56
458.725	5154.36
459.099	5190.74
459.472	5349.38
459.845	5411.98
460.218	5367.91
460.591	5430.96
460.964	5491.3
461.337	5646.32
461.71	5682.93
462.083	5807.9
462.456	5780.1
462.829	5790.5
463.201	5948.01
463.574	5949.82
463.947	6046.76
464.32	6187.1
464.692	6248.79
465.065	6297.38
465.438	6422.12
465.81	6448.56
466.183	6573.98
466.555	6728.55
466.928	6708.21
467.3	6723.13
467.672	6875.44
468.045	7044.48
468.417	7104.59
468.789	7151.37
469.161	7223.23
469.534	7334.19
469.906	7490.34
470.278	7586.16
470.65	7675.42
471.022	7904.11
471.394	7971.01
471.766	8022.3
472.138	8134.16
472.51	8270.21
472.882	8437.66
473.253	8495.06
473.625	8681.95
473.997	8789.51
474.369	8936.86
474.74	9042.62
475.112	9194.7
475.484	9422.72
475.855	9568.25
476.227	9585.43
476.598	9931.18
476.97	9998.3
477.341	10240.55
477.713	10404.84
478.084	10437.38
478.455	10704.94
478.827	10837.37
479.198	11120.98
479.569	11124.14
479.94	11485.71
480.311	11570.01
480.682	11857.91
481.053	12090.22
481.424	12344
481.795	12451.34
482.166	12683.42
482.537	12860.59
482.908	13081.38
483.279	13182.85
483.65	13478.66
484.021	13763.85
484.391	13838.65
484.762	13964.97
485.133	14134.68
485.503	14319.09
485.874	14676.82
486.244	14799.98
486.615	15063.47
486.985	15234.09
487.356	15493.75
487.726	15688.99
488.097	16089.89
488.467	16130.11
488.837	16386.83
489.207	16601.51
489.578	16850.55
489.948	16975.06
490.318	17342.28
490.688	17370.53
491.058	17760.13
491.428	17944.53
491.798	18044.19
492.168	18477.4
492.538	18502.25
492.908	18712.42
493.278	19028.12
493.648	19051.84
494.017	19307.66
494.387	19382.23
494.757	19626.29
495.126	19897.92
495.496	19990.58
495.866	19968.43
496.235	20256.56
496.605	20433.5
496.974	20638.69
497.344	20867.84
497.713	20916.2
498.082	21204.33
498.452	21341.5
498.821	21495.4
499.19	21525
499.559	21779.23
499.928	21936.51
500.298	22122.95
500.667	22386.45
501.036	22400.23
501.405	22557.51
501.774	22577.63
502.143	22978.07
502.512	22966.99
502.88	23206.76
503.249	23214.9
503.618	23417.83
503.987	23524.04
504.356	23742.12
504.724	23917.25
505.093	24056.46
505.462	24201.31
505.83	24378.26
506.199	24670.9
506.567	24896.66
506.936	24856.66
507.304	25225.92
507.672	25282.41
508.041	25440.83
508.409	25628.39
508.777	25808.05
509.145	26030.64
509.514	26010.53
509.882	26369.17
510.25	26404.64
510.618	26712.21
510.986	26760.57
511.354	27147
511.722	27273.32
512.09	27486.88
512.458	27509.7
512.826	27789.24
513.193	27967.32
513.561	28068.56
513.929	28344.71
514.297	28593.06
514.664	28817.24
515.032	28927.06
515.4	29255.87
515.767	29429.2
516.135	29576.09
516.502	29402.98
516.869	29982.63
517.237	30175.62
517.604	29914.61
517.972	30531.54
518.339	30696.96
518.706	30687.92
519.073	31011.3
519.44	31303.95
519.808	31560.67
520.175	31591.63
520.542	32100.77
520.909	32239.97
521.276	32117.26
521.643	32639.06
522.009	32886.51
522.376	33039.5
522.743	33262.32
523.11	33666.83
523.477	33930.77
523.843	34069.75
524.21	34469.29
524.577	34728.49
524.943	34869.96
525.31	35036.73
525.676	35397.63
526.043	35559.66
526.409	35869.71
526.776	36287.55
527.142	36270.15
527.508	36469.24
527.874	36865.16
528.241	37191.48
528.607	37215.43
528.973	37631.69
529.339	37547.18
529.705	37913.72
530.071	38211.34
530.437	38436.42
530.803	38626.92
531.169	38763.64
531.535	38893.13
531.901	39019.91
532.267	39148.72
532.632	39545.32
532.998	39739.44
533.364	39799.09
533.73	39856.49
534.095	40381.9
534.461	40381
534.826	40621.45
535.192	40876.35
535.557	41108.89
535.923	41000.19
536.288	41249
536.653	41537.58
537.019	41460.29
537.384	41668.2
537.749	41786.16
538.114	42077.45
538.479	42144.34
538.845	42406.71
539.21	42271.57
539.575	42515.41
539.94	42598.57
540.305	43067.94
540.67	42936.41
541.034	43114.49
541.399	43288.49
541.764	43331.21
542.129	43584.76
542.494	43517.42
542.858	43841.02
543.223	43715.6
543.587	44139.77
543.952	44180.22
544.316	44302.48
544.681	44325.08
545.045	44690.49
545.41	44677.16
545.774	44910.15
546.138	44945.63
546.503	45106.98
546.867	45265.84
547.231	45503.8
547.595	45515.33
547.959	45546.29
548.324	45758.49
548.688	45722.1
549.052	45997.8
549.416	46037.35
549.779	46139.27
550.143	46209.77
550.507	46499.03
550.871	46706.26
551.235	46651.8
551.599	47184.44
551.962	47003.43
552.326	47180.6
552.689	47516.63
553.053	47414.04
553.417	47447.48
553.78	48085.88
554.143	47883.4
554.507	48022.38
554.87	48170.63
555.234	48602.71
555.597	48464.18
555.96	48510.73
556.323	48767.45
556.686	48754.34
557.05	49000.89
557.413	49093.54
557.776	49296.92
558.139	49517.03
558.502	49524.49
558.865	49681.32
559.228	49948.21
559.59	50186.62
559.953	50255.32
560.316	50568.76
560.679	50505.03
561.041	50724.01
561.404	50918.35
561.767	51114.96
562.129	51069.31
562.492	51274.27
562.854	51363.54
563.217	51339.13
563.579	51549.29
563.941	51750.42
564.304	51926.23
564.666	52057.53
565.028	52231.76
565.39	52262.04
565.753	52516.05
566.115	52547.46
566.477	52797.17
566.839	52783.16
567.201	53023.38
567.563	52991.29
567.925	53210.04
568.287	53230.83
568.648	53319.19
569.01	53556.7
569.372	53673.98
569.734	53599.41
570.095	53790.37
570.457	53901.32
570.819	54005.05
571.18	54044.37
571.542	54196
571.903	54228.32
572.265	54438.48
572.626	54367.75
572.987	54478.71
573.349	54627.41
573.71	54661.98
574.071	54715.31
574.432	54762.54
574.794	55033.72
575.155	55064.46
575.516	54996.89
575.877	55147.84
576.238	55132.25
576.599	55327.27
576.96	55325.69
577.32	55215.64
577.681	55406.59
578.042	55482.07
578.403	55483.88
578.763	55471.9
579.124	55548.06
579.485	55620.37
579.845	55661.5
580.206	55686.81
580.566	55609.53
580.927	55715.29
581.287	55729.75
581.648	55648.4
582.008	55749.86
582.368	55830.54
582.728	55759.35
583.089	55764.78
583.449	55774.72
583.809	55804.1
584.169	55878.9
584.529	55772.69
584.889	56003.41
585.249	55789.18
585.609	55713.25
585.969	55912.8
586.329	55833.48
586.688	55925.22
587.048	55867.15
587.408	55886.13
587.768	55903.53
588.127	55940.37
588.487	55835.51
588.846	56084.54
589.206	55924.09
589.565	55863.08
589.925	55971.32
590.284	55932.68
590.643	55971.78
591.003	56014.49
591.362	56052.23
591.721	56057.88
592.08	56089.74
592.44	56129.06
592.799	56087.71
593.158	56075.73
593.517	55967.26
593.876	56090.64
594.235	56081.83
594.593	56088.16
594.952	56124.32
595.311	56052.68
595.67	56139.23
596.029	56199.79
596.387	56299.68
596.746	56219.45
597.104	56152.34
597.463	56183.97
597.822	56270.53
598.18	56226.91
598.538	56172.45
598.897	56367.7
599.255	56093.81
599.613	56546.23
599.972	56324.76
600.33	56422.61
600.688	56320.47
601.046	56445.21
601.404	56503.51
601.762	56468.94
602.12	56579.67
602.478	56552.55
602.836	56633.91
603.194	56489.73
603.552	56520.24
603.91	56456.96
604.268	56557.07
604.625	56521.37
604.983	56600.23
605.341	56407.7
605.698	56660.35
606.056	56715.03
606.413	56636.62
606.771	56763.39
607.128	56816.05
607.485	56703.28
607.843	56692.44
608.2	56872.09
608.557	57004.07
608.914	56819.66
609.272	56960
609.629	56999.09
609.986	57070.05
610.343	56978.3
610.7	57121.8
611.057	57077.51
611.414	57092.65
611.771	57125.64
612.127	57230.27
612.484	57169.03
612.841	57357.73
613.198	57230.5
613.554	57183.5
613.911	57393.89
614.267	57283.83
614.624	57300.33
614.98	57366.54
615.337	57487.67
615.693	57393.43
616.05	57420.55
616.406	57631.39
616.762	57437.05
617.118	57433.89
617.475	57447.67
617.831	57560.21
618.187	57587.55
618.543	57653.54
618.899	57757.94
619.255	57690.83
619.611	57662.13
619.967	57749.58
620.323	57815.12
620.678	57633.2
621.034	57629.59
621.39	57668.23
621.746	57580.1
622.101	57880.65
622.457	57682.01
622.812	57677.04
623.168	57764.5
623.523	57770.37
623.879	57862.35
624.234	57665.97
624.589	57813.54
624.945	57718.17
625.3	57771.05
625.655	57741.22
626.01	57818.73
626.365	57804.05
626.72	57772.41
627.075	57763.82
627.43	57720.21
627.785	57704.61
628.14	57729.7
628.495	57760.43
628.85	57645.41
629.205	57554.33
629.559	57697.38
629.914	57630.04
630.269	57645.41
630.623	57553.2
630.978	57465.75
631.332	57616.93
631.687	57625.29
632.041	57534.9
632.396	57585.29
632.75	57404.73
633.104	57479.08
633.459	57346.88
633.813	57384.62
634.167	57339.65
634.521	57296.71
634.875	57324.96
635.229	57201.58
635.583	57176.49
635.937	57184.4
636.291	57171.07
636.645	57167
636.999	57116.38
637.352	57175.36
637.706	56997.96
638.06	57126.1
638.413	57053.1
638.767	57001.81
639.121	57019.66
639.474	56842.26
639.828	56822.6
640.181	56854.24
640.534	56885.43
640.888	56768.59
641.241	56659.22
641.594	56691.31
641.947	56831.87
642.301	56680.23
642.654	56597.07
643.007	56689.05
643.36	56616.96
643.713	56562.72
644.066	56661.02
644.419	56481.82
644.771	56344.2
645.124	56143.52
645.477	56163.64
645.83	55885
646.182	55753.93
646.535	55583.09
646.888	55593.03
647.24	55496.76
647.593	55614.27
647.945	55536.76
648.298	55371.11
648.65	55400.04
649.002	55358.46
649.355	55408.18
649.707	55328.4
650.059	55604.78
650.411	55824.44
650.763	55893.36
651.115	56093.13
651.467	55970.19
651.819	55920.03
652.171	55827.37
652.523	55809.52
652.875	55820.59
653.227	55720.26
653.578	55830.09
653.93	55796.19
654.282	55614.72
654.633	55664.21
654.985	55746.47
655.337	55678.68
655.688	55655.85
656.039	55785.79
656.391	55562.52
656.742	55536.99
657.094	55572.01
657.445	55689.75
657.796	55548.51
658.147	55513.71
658.498	55518.68
658.849	55552.8
659.2	55502.18
659.551	55464.45
659.902	55488.85
660.253	55512.58
660.604	55515.07
660.955	55359.14
661.306	55515.29
661.656	55384.9
662.007	55333.15
662.358	55315.75
662.708	55254.73
663.059	55347.16
663.409	55108.52
663.76	55401.17
664.11	55326.6
664.461	55400.72
664.811	55334.73
665.161	55247.73
665.511	55158.24
665.862	55231.68
666.212	55219.25
666.562	55310.1
666.912	55257.22
667.262	55114.17
667.612	55164.57
667.962	55196.88
668.312	55099.26
668.662	55200.95
669.011	55200.05
669.361	55086.15
669.711	55083.66
670.06	55096.77
670.41	55023.33
670.76	54973.16
671.109	55052.48
671.459	54972.71
671.808	55014.06
672.157	54986.04
672.507	54795.54
672.856	54888.42
673.205	54828.76
673.554	54922.99
673.904	54769.32
674.253	54867.85
674.602	54851.35
674.951	54463.12
675.3	54333.63
675.649	54764.13
675.998	54683
676.346	54688.19
676.695	54801.41
677.044	54552.38
677.393	54634.41
677.741	54671.02
678.09	54598.48
678.438	54552.15
678.787	54607.52
679.135	54535.66
679.484	54294.98
679.832	54456.56
680.181	54210.69
680.529	54293.85
680.877	54299.28
681.225	54154.65
681.573	54319.39
681.922	54102.9
682.27	54176.12
682.618	54109.68
682.966	54024.48
683.314	54159.17
683.661	53974.54
684.009	53856.13
684.357	53700.65
684.705	53706.3
685.053	53775.9
685.4	53715.11
685.748	53528.23
686.095	53553.99
686.443	53364.84
686.79	53367.78
687.138	53380.43
687.485	53440.09
687.832	53345.18
688.18	53420.43
688.527	53133.66
688.874	53123.26
689.221	53045.3
689.568	52927.34
689.915	52964.4
690.262	52869.71
690.609	52743.39
690.956	52652.54
691.303	52617.97
691.65	52510.17
691.997	52386.33
692.344	52248.94
692.69	52258.88
693.037	52241.93
693.383	51936.4
693.73	52254.59
694.077	51930.08
694.423	51835.16
694.769	51798.55
695.116	51644.66
695.462	51531.89
695.808	51497.32
696.155	51641.72
696.501	51327.15
696.847	51342.52
697.193	51065.69
697.539	51124.45
697.885	50880.84
698.231	50915.86
698.577	50837.22
698.923	50695.76
699.269	50634.74
699.614	50360.85
699.96	50435.65
700.306	50279.05
700.651	50188.43
700.997	50055.55
701.342	50065.49
701.688	50011.48
702.033	49883.12
702.379	49785.95
702.724	49747.31
703.069	49862.78
703.415	49411.5
703.76	49367.66
704.105	49432.06
704.45	49216.7
704.795	48959.08
705.14	48851.06
705.485	48967.67
705.83	48745.75
706.175	48747.56
706.52	48614.23
706.865	48428.25
707.209	48411.98
707.554	48206.56
707.899	48271.87
708.243	48160
708.588	48129.5
708.932	47911.42
709.277	47896.96
709.621	47814.25
709.966	47612.22
710.31	47723.86
710.654	47320.03
710.998	47282.74
711.342	47450.19
711.687	47263.53
712.031	47168.62
712.375	46876.2
712.719	47031.9
713.063	46971.56
713.407	47086.36
713.75	46779.93
714.094	46858.57
714.438	46418.58
714.782	46707.39
715.125	46337.45
715.469	46463.1
715.812	46184.46
716.156	46078.7
716.499	46043.9
716.843	46035.54
717.186	45897.47
717.53	46046.39
717.873	46009.78
718.216	45759.16
718.559	45590.81
718.902	45398.5
719.246	45395.56
719.589	45320.76
719.932	45310.14
720.275	45208.22
720.617	45337.71
720.96	45006.42
721.303	45063.59
721.646	45064.27
721.989	44797.83
722.331	44879.19
722.674	44782.24
723.016	44812.3
723.359	44654.79
723.701	44562.81
724.044	44380.67
724.386	44155.14
724.729	44336.15
725.071	44256.83
725.413	44180.22
725.755	44139.09
726.097	44013.9
726.439	43816.16
726.782	43713.57
727.124	44129.38
727.465	43698.65
727.807	43679.22
728.149	43629.5
728.491	43436.29
728.833	43550.63
729.175	43448.49
729.516	43199.68
729.858	43098.22
730.199	43378.44
730.541	43145.22
730.882	42969.18
731.224	43071.33
731.565	42785.91
731.906	42813.25
732.248	42982.29
732.589	42638.12
732.93	42537.1
733.271	42561.28
733.612	42643.31
733.953	42609.87
734.294	42301.63
734.635	42166.94
734.976	42425.24
735.317	42171.69
735.658	42106.6
735.999	42177.34
736.339	41972.14
736.68	42173.72
737.021	41924.24
737.361	41887.85
737.702	41830.45
738.042	41570.35
738.383	41734.41
738.723	41794.07
739.063	41485.6
739.404	41631.14
739.744	41400.63
740.084	41317.02
740.424	41386.17
740.764	41034.32
741.104	41349.34
741.444	41056.24
741.784	40899.18
742.124	41103.69
742.464	41037.93
742.804	40826.41
743.143	40806.53
743.483	40771.72
743.823	40529.02
744.162	40457.16
744.502	40673.42
744.841	40446.31
745.181	40538.06
745.52	40368.8
745.86	40405.18
746.199	40071.18
746.538	40199.99
746.877	40203.6
747.216	40017.39
747.556	40032.53
747.895	40084.96
748.234	39836.16
748.573	39815.82
748.911	39759.55
749.25	39690.4
749.589	39457.86
749.928	39381.48
750.267	39494.24
750.605	39305.1
750.944	39078.44
751.283	39031.88
751.621	39195.95
751.96	38953.47
752.298	38865.11
752.636	38812.23
752.975	38622.4
753.313	38541.5
753.651	38621.95
753.989	38446.36
754.327	38370.21
754.666	38237.33
755.004	38309.42
755.342	38216.31
755.679	38132.92
756.017	37808.19
756.355	37849.99
756.693	37809.99
757.031	37726.61
757.368	37611.13
757.706	37615.88
758.044	37405.26
758.381	37435.32
758.719	37238.03
759.056	37184.47
759.394	36995.55
759.731	36832.17
760.068	36819.06
760.405	36560.31
760.743	36615.68
761.08	36658.16
761.417	36425.17
761.754	36319.19
762.091	36231.5
762.428	36161.9
762.765	35832.65
763.102	36000.55
763.438	35931.85
763.775	35608.02
764.112	35750.39
764.449	35569.6
764.785	35386.56
765.122	35242.38
765.458	35138.65
765.795	34926.68
766.131	34912.67
766.467	34787.7
766.804	34668.61
767.14	34632.9
767.476	34466.35
767.812	34320.59
768.148	34298
768.485	34155.18
768.821	33882.19
769.157	33839.7
769.492	33929.19
769.828	33811
770.164	33368.98
770.5	33326.72
770.836	33315.42
771.171	33194.3
771.507	33007.41
771.842	32832.5
772.178	32819.62
772.513	32818.26
772.849	32665.27
773.184	32451.49
773.519	32526.07
773.855	32341.66
774.19	32213.53
774.525	31955.91
774.86	32080.65
775.195	31961.79
775.53	31821.23
775.865	31688.57
776.2	31377.85
776.535	31263.5
776.87	31219.21
777.205	31078.42
777.539	30979.89
777.874	30970.17
778.209	30789.61
778.543	30771.99
778.878	30556.4
779.212	30447.93
779.547	30416.97
779.881	30291.55
780.215	30240.7
780.55	30295.16
780.884	30009.52
781.218	29978.11
781.552	29879.36
781.886	29731.56
782.22	29566.6
782.554	29410.89
782.888	29193.05
783.222	29108.75
783.556	28898.36
783.889	28887.52
784.223	28664.92
784.557	28764.36
784.89	28884.13
785.224	28599.62
785.557	28322.56
785.891	28323.01
786.224	28304.26
786.558	28247.99
786.891	28042.12
787.224	27863.82
787.557	27763.71
787.891	27737.49
788.224	27689.81
788.557	27716.47
788.89	27481.9
789.223	27432.64
789.556	27335.24
789.888	27214.57
790.221	27135.47
790.554	26884.41
790.887	26879.43
791.219	26777.74
791.552	26748.36
791.884	26613
792.217	26569.61
792.549	26428.6
792.882	26183.63
793.214	26111.32
793.546	26159.68
793.879	25960.59
794.211	25815.73
794.543	25879.91
794.875	25797.66
795.207	25754.04
795.539	25594.5
795.871	25625.46
796.203	25394.5
796.535	25300.27
796.867	25112.48
797.198	25195.64
797.53	25179.37
797.862	24966.49
798.193	25055.53
798.525	24825.03
798.856	24874.52
799.188	24573.73
799.519	24575.54
799.85	24476.56
800.182	24525.15
800.513	24271.14
800.844	24115.21
801.175	24316.11
801.506	24092.62
801.837	24004.48
802.168	23978.49
802.499	23859.63
802.83	23738.95
803.161	23764.49
803.491	23657.6
803.822	23770.82
804.153	23515
804.483	23419.19
804.814	23294.22
805.145	23284.05
805.475	23273.2
805.805	23113.66
806.136	23098.52
806.466	23076.6
806.796	23030.5
807.126	22864.85
807.457	22788.47
807.787	22746.89
808.117	22684.97
808.447	22639.32
808.777	22625.08
809.107	22449.72
809.436	22486.78
809.766	22449.95
810.096	22241.59
810.426	22239.33
810.755	22297.41
811.085	22182.38
811.414	22146.9
811.744	22087.92
812.073	21954.59
812.403	21975.61
812.732	21790.3
813.061	21763.41
813.39	21584.43
813.719	21580.59
814.049	21631.66
814.378	21553.02
814.707	21486.81
815.036	21374.72
815.365	21319.81
815.693	21186.48
816.022	21206.14
816.351	21098.57
816.68	21014.96
817.008	21142.41
817.337	20885.69
817.665	20897.44
817.994	20850.89
818.322	20998.91
818.651	20854.51
818.979	20708.52
819.307	20726.38
819.636	20651.35
819.964	20552.6
820.292	20682.08
820.62	20583.33
820.948	20517.12
821.276	20592.82
821.604	20506.95
821.932	20599.6
822.259	20497.91
822.587	20414.97
822.915	20459.49
823.243	20486.83
823.57	20305.37
823.898	20539.49
824.225	20404.12
824.553	20369.78
824.88	20395.09
825.207	20461.07
825.535	20301.3
825.862	20434.41
826.189	20346.27
826.516	20364.35
826.843	20371.36
827.17	20414.52
827.497	20413.62
827.824	20410.23
828.151	20361.41
828.478	20406.61
828.805	20463.33
829.131	20305.37
829.458	20301.53
829.785	20231.7
830.111	20270.34
830.438	20398.47
830.764	20375.42
831.09	20266.73
831.417	20193.51
831.743	20285.03
832.069	20319.38
832.395	20220.63
832.722	20189.21
833.048	20151.93
833.374	20154.19
833.7	20052.27
834.026	20071.25
834.351	20156.45
834.677	20065.6
835.003	20125.71
835.329	20017.47
835.654	20064.47
835.98	19885.49
836.306	19906.51
836.631	19839.85
836.956	19894.99
837.282	19806.85
837.607	19720.98
837.932	19708.55
838.258	19819.28
838.583	19696.57
838.908	19552.62
839.233	19637.82
839.558	19542.68
839.883	19515.56
840.208	19534.77
840.533	19509.68
840.858	19473.08
841.182	19501.32
841.507	19404.38
841.832	19336.81
842.156	19270.37
842.481	19221.1
842.805	19153.31
843.13	19151.95
843.454	19103.59
843.778	19029.25
844.103	19004.39
844.427	18891.62
844.751	18898.63
845.075	18871.74
845.399	18746.54
845.723	18680.33
846.047	18818.63
846.371	18536.83
846.695	18572.99
847.019	18497.28
847.343	18368.92
847.666	18357.17
847.99	18258.19
848.313	18178.19
848.637	17993.34
848.96	18079.44
849.284	17958.54
849.607	17870.63
849.931	17780.01
850.254	17683.29
850.577	17632.22
850.9	17536.18
851.223	17455.28
851.546	17441.04
851.869	17345.22
852.192	17327.82
852.515	17106.58
852.838	17122.85
853.161	17096.41
853.483	17048.28
853.806	16866.36
854.129	16886.02
854.451	16815.74
854.774	16832.47
855.096	16681.74
855.419	16650.1
855.741	16653.26
856.063	16517.45
856.385	16520.38
856.708	16387.28
857.03	16324.91
857.352	16315.19
857.674	16314.51
857.996	16154.97
858.318	16146.38
858.64	16094.18
858.961	16106.61
859.283	16034.07
859.605	16033.62
859.926	15954.07
860.248	15921.08
860.57	15848.76
860.891	15955.2
861.212	15738.71
861.534	15785.71
861.855	15756.56
862.176	15724.02
862.498	15581.43
862.819	15685.38
863.14	15543.01
863.461	15521.99
863.782	15462.56
864.103	15415.33
864.424	15384.14
864.745	15470.92
865.065	15409.45
865.386	15326.07
865.707	15263.69
866.027	15282.9
866.348	15236.58
866.668	15243.13
866.989	15191.83
867.309	15170.82
867.63	15112.96
867.95	15038.62
868.27	14948.22
868.59	15023.25
868.91	14908.45
869.23	14969.01
869.55	14956.13
869.87	15012.4
870.19	15030.48
870.51	14957.26
870.83	14903.7
871.15	14733.54
871.469	14817.83
871.789	14820.32
872.109	14805.63
872.428	14664.39
872.748	14741.22
873.067	14712.52
873.386	14676.82
873.706	14719.98
874.025	14596.14
874.344	14504.84
874.663	14547.56
874.982	14518.18
875.301	14483.15
875.62	14414
875.939	14346.43
876.258	14402.47
876.577	14228.24
876.896	14425.07
877.214	14304.85
877.533	14356.6
877.852	14387.79
878.17	14277.28
878.489	14243.16
878.807	14289.71
879.125	14223.27
879.444	14155.48
879.762	14129.94
880.08	14156.15
880.398	14013.11
880.716	14089.26
881.034	14068.25
881.352	14059.21
881.67	13994.58
881.988	14046.55
882.306	13945.09
882.624	13967.46
882.941	13853.34
883.259	13787.12
883.577	13749.84
883.894	13829.83
884.212	13781.93
884.529	13746.67
884.846	13719.78
885.164	13760.68
885.481	13631.42
885.798	13608.82
886.115	13536.28
886.432	13574.47
886.75	13505.1
887.067	13474.36
887.383	13518.88
887.7	13487.24
888.017	13388.49
888.334	13401.37
888.651	13212.68
888.967	13351.2
889.284	13172.45
889.6	13179.91
889.917	13103.3
890.233	13157.99
890.55	13023.3
890.866	13084.54
891.182	12936.98
891.498	12978.33
891.815	12954.6
892.131	12834.61
892.447	12855.4
892.763	12795.51
893.079	12721.39
893.395	12730.65
893.71	12674.84
894.026	12638.9
894.342	12648.85
894.657	12499.47
894.973	12482.98
895.289	12545.8
895.604	12509.42
895.92	12378.8
896.235	12353.49
896.55	12337.22
896.865	12206.15
897.181	12274.62
897.496	12224.23
897.811	12118.01
898.126	12121.86
898.441	12086.83
898.756	11933.61
899.071	11916.89
899.386	11953.27
899.7	11863.33
900.015	11745.6
900.33	11673.96
900.644	11675.77
900.959	11766.39
901.273	11654.07
901.588	11598.48
901.902	11551.02
902.216	11523.45
902.531	11470.57
902.845	11404.36
903.159	11402.1
903.473	11380.18
903.787	11326.85
904.101	11289.11
904.415	11184.48
904.729	11193.52
905.042	11186.29
905.356	11070.58
905.67	11063.35
905.984	11058.16
906.297	10974.99
906.611	10982.23
906.924	10932.28
907.237	10847.77
907.551	10819.29
907.864	10663.82
908.177	10736.58
908.491	10638.05
908.804	10631.95
909.117	10587.89
909.43	10513.31
909.743	10449.81
910.056	10445.74
910.368	10371.85
910.681	10364.84
910.994	10307.21
911.307	10274.67
911.619	10233.54
911.932	10194.9
912.244	10121.91
912.557	10174.79
912.869	10057.96
913.181	10042.59
913.494	10034.45
913.806	9964.4
914.118	9991.06
914.43	9761.47
914.742	9769.38
915.054	9720.56
915.366	9736.83
915.678	9720.34
915.99	9640.11
916.302	9619.78
916.613	9591.75
916.925	9551.75
917.236	9521.25
917.548	9417.29
917.859	9413
918.171	9388.37
918.482	9342.95
918.794	9289.16
919.105	9251.88
919.416	9236.96
919.727	9233.8
920.038	9152.67
920.349	9076.29
920.66	9075.61
920.971	8954.93
921.282	8987.48
921.593	8932.11
921.903	8846.69
922.214	8890.53
922.525	8830.87
922.835	8775.05
923.146	8764.66
923.456	8708.84
923.767	8749.97
924.077	8673.36
924.387	8589.75
924.697	8568.96
925.008	8545
925.318	8528.5
925.628	8472.23
925.938	8482.63
926.248	8377.55
926.558	8399.24
926.867	8347.72
927.177	8284.9
927.487	8233.15
927.796	8196.31
928.106	8109.08
928.416	8121.74
928.725	8066.14
929.034	8094.62
929.344	8084.45
929.653	8049.87
929.962	7962.19
930.271	7959.71
930.581	7891.69
930.89	7807.39
931.199	7795.42
931.508	7784.12
931.817	7825.92
932.125	7706.83
932.434	7741.86
932.743	7621.64
933.051	7582.77
933.36	7605.14
933.669	7585.25
933.977	7501.86
934.286	7516.1
934.594	7517.23
934.902	7419.61
935.21	7372.38
935.519	7358.59
935.827	7293.06
936.135	7287.86
936.443	7231.14
936.751	7189.1
937.059	7218.03
937.367	7114.08
937.674	7145.94
937.982	7138.71
938.29	7080.18
938.597	7083.8
938.905	6986.17
939.213	6957.47
939.52	6933.29
939.827	6963.8
940.135	6943.46
940.442	6844.03
940.749	6808.1
941.056	6820.75
941.363	6712.06
941.67	6742.56
941.977	6699.17
942.284	6651.27
942.591	6632.74
942.898	6651.72
943.205	6622.34
943.511	6577.14
943.818	6530.37
944.125	6501.21
944.431	6466.64
944.738	6463.93
945.044	6412.18
945.35	6377.6
945.657	6329.69
945.963	6353.65
946.269	6255.8
946.575	6252.86
946.881	6284.27
947.187	6232.07
947.493	6153.88
947.799	6169.24
948.105	6134.67
948.41	6142.35
948.716	6044.28
949.022	6039.08
949.327	6066.87
949.633	5982.36
949.938	5997.72
950.244	5931.74
950.549	5928.8
950.854	5894.22
951.16	5825.75
951.465	5814.23
951.77	5804.28
952.075	5797.5
952.38	5744.62
952.685	5754.34
952.99	5705.98
953.294	5721.57
953.599	5688.81
953.904	5634.57
954.209	5576.04
954.513	5577.17
954.818	5548.24
955.122	5581.24
955.426	5493.1
955.731	5495.82
956.035	5458.08
956.339	5417.85
956.643	5458.75
956.948	5414.24
957.252	5371.07
957.556	5300.34
957.86	5281.13
958.163	5285.2
958.467	5259.21
958.771	5255.37
959.075	5233.9
959.378	5147.35
959.682	5136.96
959.985	5176.95
960.289	5110.06
960.592	5086.56
960.896	5073
961.199	5066.22
961.502	5086.56
961.805	5035.72
962.108	5007.47
962.411	4965.43
962.714	4938.99
963.017	4926.79
963.32	4960.91
963.623	4937.41
963.926	4878.88
964.228	4809.28
964.531	4781.26
964.833	4813.12
965.136	4733.58
965.438	4732.22
965.741	4745.55
966.043	4677.31
966.345	4689.28
966.648	4697.87
966.95	4630.75
967.252	4672.33
967.554	4575.84
967.856	4626.46
968.158	4531.1
968.46	4545.33
968.761	4498.55
969.063	4545.11
969.365	4468.72
969.666	4475.73
969.968	4415.84
970.269	4402.96
970.571	4387.37
970.872	4376.3
971.174	4339.24
971.475	4367.71
971.776	4352.8
972.077	4288.62
972.378	4308.05
972.679	4259.69
972.98	4314.15
973.281	4229.86
973.582	4203.42
973.883	4159.35
974.183	4167.26
974.484	4166.59
974.785	4136.3
975.085	4180.14
975.386	4088.17
975.686	4096.76
975.986	4095.17
976.287	4108.73
976.587	4058.34
976.887	4000.26
977.187	4016.98
977.487	4002.97
977.787	3931.34
978.087	3926.59
978.387	3891.56
978.687	3904.67
978.987	3921.85
979.286	3860.83
979.586	3847.95
979.885	3797.1
980.185	3807.72
980.484	3805.92
980.784	3756.2
981.083	3744.9
981.382	3765.92
981.682	3751.68
981.981	3710.55
982.28	3677.56
982.579	3668.29
982.878	3689.31
983.177	3657.45
983.475	3619.48
983.774	3609.54
984.073	3591.23
984.372	3567.73
984.67	3560.73
984.969	3563.66
985.267	3559.82
985.566	3511.69
985.864	3470.33
986.162	3488.19
986.461	3453.16
986.759	3455.19
987.057	3419.26
987.355	3373.39
987.653	3394.4
987.951	3368.87
988.249	3367.74
988.547	3355.99
988.844	3348.08
989.142	3327.74
989.44	3297.68
989.737	3280.73
990.035	3289.09
990.332	3267.17
990.63	3217.01
990.927	3201.64
991.224	3263.33
991.521	3195.09
991.819	3198.93
992.116	3156.44
992.413	3129.78
992.71	3148.76
993.006	3108.53
993.303	3130.23
993.6	3093.62
993.897	3090
994.193	3075.54
994.49	3078.25
994.787	3018.59
995.083	2999.84
995.379	3000.74
995.676	2981.08
995.972	2985.83
996.268	2907.18
996.565	2923.68
996.861	2935.88
997.157	2924.36
997.453	2906.05
997.749	2893.85
998.044	2868.09
998.34	2850.24
998.636	2877.13
998.932	2780.41
999.227	2790.12
999.523	2804.14
999.818	2784.7
1000.114	2731.37
1000.409	2760.29
1000.704	2736.34
1001	2706.51
1001.295	2686.62
1001.59	2699.05
1001.885	2653.4
1002.18	2637.36
1002.475	2651.82
1002.77	2633.29
1003.065	2603.01
1003.359	2564.37
1003.654	2556.91
1003.949	2575.89
1004.243	2535.22
1004.538	2558.94
1004.832	2506.06
1005.127	2479.62
1005.421	2469.23
1005.715	2443.47
1006.009	2452.73
1006.304	2441.43
1006.598	2414.09
1006.892	2376.58
1007.186	2396.01
1007.48	2367.54
1007.773	2352.17
1008.067	2376.35
1008.361	2327.54
1008.655	2323.24
1008.948	2349.68
1009.242	2293.64
1009.535	2272.62
1009.829	2278.73
1010.122	2251.38
1010.415	2233.75
1010.708	2215.9
1011.001	2201.44
1011.295	2194.21
1011.588	2161.44
1011.881	2182
1012.173	2168.9
1012.466	2161.21
1012.759	2164.83
1013.052	2129.35
1013.344	2116.92
1013.637	2141.78
1013.93	2073.76
1014.222	2070.6
1014.514	2040.09
1014.807	2062.69
1015.099	2025.85
1015.391	2039.41
1015.683	2008.22
1015.976	1989.69
1016.268	2006.87
1016.56	1975.91
1016.851	1949.47
1017.143	1942.24
1017.435	1954.21
1017.727	1950.15
1018.018	1888.68
1018.31	1917.38
1018.602	1880.32
1018.893	1853.43
1019.185	1858.62
1019.476	1833.09
1019.767	1823.37
1020.058	1826.08
1020.35	1816.59
1020.641	1811.39
1020.932	1775.91
1021.223	1798.29
1021.514	1774.56
1021.804	1758.51
1022.095	1711.51
1022.386	1713.09
1022.677	1728.46
1022.967	1691.17
1023.258	1677.84
1023.548	1665.63
1023.839	1676.93
1024.129	1645.97
1024.419	1645.52
1024.709	1632.87
1025	1647.33
1025.29	1610.49
1025.58	1587.9
1025.87	1593.55
1026.16	1597.16
1026.449	1561.23
1026.739	1546.09
1027.029	1539.76
1027.319	1530.04
1027.608	1496.37
1027.898	1532.98
1028.187	1524.39
1028.477	1492.98
1028.766	1478.97
1029.055	1472.87
1029.344	1442.36
1029.634	1461.8
1029.923	1455.47
1030.212	1452.08
1030.501	1414.12
1030.79	1394.23
1031.078	1379.77
1031.367	1357.39
1031.656	1393.32
1031.945	1373.89
1032.233	1358.3
1032.522	1346.77
1032.81	1324.4
1033.099	1332.08
1033.387	1353.78
1033.675	1316.26
1033.963	1297.73
1034.251	1315.81
1034.54	1288.02
1034.828	1276.72
1035.116	1250.96
1035.403	1264.29
1035.691	1248.02
1035.979	1261.13
1036.267	1242.82
1036.554	1241.01
1036.842	1236.04
1037.129	1215.25
1037.417	1221.8
1037.704	1199.88
1037.992	1187
1038.279	1173.9
1038.566	1171.18
1038.853	1171.18
1039.14	1171.18
