Data from breadboard_white_FLMS001491_00025.txt Node
Date: Wed Feb 08 10:47:29 GMT 2017
User: dcchb
Spectrometer: FLMS00149
Trigger mode: 0
Integration Time (sec): 2.000000E-2
Scans to average: 10
Electric dark correction enabled: true
Nonlinearity correction enabled: false
Boxcar width: 0
XAxis mode: Wavelengths
Number of Pixels in Spectrum: 2048
>>>>>Begin Spectral Data<<<<<
341.393	-20.13
341.776	-20.13
342.16	-20.13
342.543	-67.13
342.927	-59.22
343.31	-57.19
343.693	-65.32
344.077	-90.18
344.46	-51.31
344.843	-56.51
345.226	-39.56
345.61	-14.48
345.993	-26.68
346.376	-19.67
346.759	5.64
347.142	31.85
347.525	45.41
347.908	55.8
348.291	73.88
348.674	111.17
349.057	97.16
349.44	135.35
349.823	152.52
350.206	148.23
350.588	224.84
350.971	223.71
351.354	241.79
351.737	260.54
352.119	293.31
352.502	290.37
352.884	298.74
353.267	331.95
353.65	310.94
354.032	343.25
354.414	344.84
354.797	361.11
355.179	343.25
355.562	336.02
355.944	371.5
356.326	395.91
356.709	367.43
357.091	356.81
357.473	381.22
357.855	371.5
358.238	379.86
358.62	366.53
359.002	373.76
359.384	389.81
359.766	363.82
360.148	362.91
360.53	359.75
360.912	374.44
361.294	381.67
361.676	361.78
362.057	378.06
362.439	368.11
362.821	366.3
363.203	359.3
363.584	361.56
363.966	351.39
364.348	382.8
364.729	355.46
365.111	369.02
365.493	356.36
365.874	356.81
366.256	341.67
366.637	365.17
367.019	364.95
367.4	356.59
367.781	349.36
368.163	376.02
368.544	364.27
368.925	363.59
369.306	355
369.688	378.51
370.069	362.69
370.45	366.98
370.831	386.87
371.212	376.93
371.593	358.17
371.974	347.77
372.355	346.19
372.736	389.58
373.117	381.67
373.498	374.21
373.879	371.28
374.26	386.87
374.641	364.5
375.021	377.15
375.402	380.09
375.783	388.22
376.163	402.69
376.544	394.78
376.925	399.07
377.305	404.72
377.686	405.62
378.066	376.25
378.447	388.68
378.827	416.92
379.208	413.76
379.588	414.66
379.968	411.05
380.349	432.29
380.729	417.15
381.109	403.82
381.489	440.65
381.87	426.64
382.25	446.3
382.63	435.45
383.01	449.47
383.39	451.95
383.77	434.32
384.15	451.73
384.53	452.18
384.91	463.93
385.29	456.47
385.67	470.26
386.049	478.17
386.429	481.56
386.809	458.96
387.189	469.13
387.568	478.17
387.948	491.05
388.328	522.01
388.707	511.16
389.087	507.32
389.466	517.03
389.846	524.94
390.225	517.94
390.605	530.59
390.984	533.53
391.363	545.73
391.743	532.63
392.122	565.17
392.501	559.52
392.881	571.5
393.26	581.89
393.639	569.69
394.018	573.08
394.397	582.34
394.776	594.09
395.155	617.82
395.534	599.29
395.913	642.91
396.292	646.3
396.671	669.35
397.05	654.43
397.429	639.07
397.808	651.72
398.186	677.26
398.565	681.32
398.944	681.1
399.323	707.76
399.701	713.87
400.08	739.18
400.458	735.79
400.837	739.63
401.215	758.84
401.594	765.16
401.972	768.1
402.351	775.78
402.729	790.47
403.107	829.79
403.486	836.57
403.864	856.23
404.242	860.08
404.62	891.26
404.999	892.17
405.377	909.11
405.755	922.9
406.133	935.1
406.511	963.35
406.889	951.15
407.267	1015.55
407.645	1006.74
408.023	1057.13
408.401	1025.27
408.779	1062.56
409.156	1091.48
409.534	1103.91
409.912	1131.26
410.29	1113.18
410.667	1180.29
411.045	1189.11
411.422	1215.1
411.8	1244.47
412.178	1278.37
412.555	1298.03
412.933	1293.51
413.31	1375.99
413.687	1378.25
414.065	1381.64
414.442	1419.61
414.819	1449.44
415.197	1443.34
415.574	1510
415.951	1487.4
416.328	1533.73
416.705	1553.17
417.082	1563.11
417.46	1608.98
417.837	1622.09
418.214	1654.18
418.591	1659.6
418.967	1701.64
419.344	1676.33
419.721	1751.58
420.098	1740.05
420.475	1822.99
420.852	1795.42
421.228	1827.96
421.605	1843.55
421.982	1880.39
422.358	1840.84
422.735	1922.42
423.111	1924.68
423.488	1948.18
423.864	1994.96
424.241	2023.89
424.617	2019.82
424.994	2044.9
425.37	2031.34
425.746	2116.77
426.123	2114.51
426.499	2120.83
426.875	2167.61
427.251	2236.31
427.627	2246.25
428.003	2276.31
428.379	2304.56
428.756	2348.62
429.132	2357.44
429.507	2385.69
429.883	2438.57
430.259	2493.93
430.635	2495.51
431.011	2545.23
431.387	2596.98
431.763	2638.33
432.138	2668.16
432.514	2685.79
432.89	2715.17
433.265	2757.2
433.641	2829.97
434.016	2857.99
434.392	2914.71
434.767	2975.73
435.143	2970.98
435.518	3043.75
435.894	3036.52
436.269	3063.18
436.644	3137.08
437.02	3146.34
437.395	3187.02
437.77	3234.03
438.145	3284.42
438.52	3313.35
438.895	3329.62
439.271	3356.73
439.646	3485.54
440.021	3439.44
440.395	3476.05
440.77	3455.49
441.145	3507.69
441.52	3588.59
441.895	3560.57
442.27	3624.75
442.645	3618.65
443.019	3662.94
443.394	3690.74
443.769	3749.27
444.143	3742.03
444.518	3801.02
444.892	3788.13
445.267	3845.31
445.641	3870.17
446.016	3883.05
446.39	3921.92
446.764	3952.2
447.139	3968.92
447.513	3989.49
447.887	4054.12
448.262	4028.35
448.636	4061.8
449.01	4142.93
449.384	4183.38
449.758	4190.61
450.132	4281.23
450.506	4340.21
450.88	4336.37
451.254	4321
451.628	4459.98
452.002	4480.77
452.376	4491.62
452.75	4607.77
453.123	4572.97
453.497	4718.28
453.871	4679.64
454.244	4749.69
454.618	4845.28
454.992	4916.69
455.365	4944.04
455.739	5066.29
456.112	5074.43
456.486	5112.39
456.859	5134.77
457.232	5283.24
457.606	5280.3
457.979	5350.81
458.352	5461.99
458.725	5497.69
459.099	5578.82
459.472	5692.94
459.845	5774.3
460.218	5757.8
460.591	5886.16
460.964	5920.73
461.337	6044.12
461.71	6177.22
462.083	6226.26
462.456	6273.27
462.829	6288.18
463.201	6424.45
463.574	6445.92
463.947	6530.89
464.32	6704.89
464.692	6774.72
465.065	6834.83
465.438	6922.29
465.81	6958.67
466.183	7056.98
466.555	7179.68
466.928	7252.68
467.3	7266.01
467.672	7408.6
468.045	7637.3
468.417	7631.88
468.789	7712.1
469.161	7808.14
469.534	7934.01
469.906	8141.69
470.278	8188.7
470.65	8277.73
471.022	8402.7
471.394	8614.67
471.766	8668.68
472.138	8801.56
472.51	9002.01
472.882	9155.68
473.253	9181.44
473.625	9353.86
473.997	9572.16
474.369	9552.96
474.74	9717.92
475.112	9922.21
475.484	10095.77
475.855	10302.31
476.227	10391.58
476.598	10669.76
476.97	10766.03
477.341	11046.02
477.713	11195.4
478.084	11304.32
478.455	11549.51
478.827	11682.62
479.198	12020.69
479.569	12036.51
479.94	12454.8
480.311	12484.4
480.682	12751.74
481.053	13014.56
481.424	13296.59
481.795	13434.89
482.166	13619.74
482.537	13854.08
482.908	14153.06
483.279	14334.75
483.65	14550.56
484.021	14839.82
484.391	15027.61
484.762	15153.49
485.133	15250.21
485.503	15559.35
485.874	15854.94
486.244	15971.09
486.615	16282.5
486.985	16590.74
487.356	16801.8
487.726	17047
488.097	17430.71
488.467	17348.23
488.837	17806.3
489.207	18009.23
489.578	18272.05
489.948	18435.43
490.318	18666.61
490.688	18782.99
491.058	19093.27
491.428	19340.95
491.798	19486.03
492.168	19892.12
492.538	19903.64
492.908	20195.16
493.278	20474.93
493.648	20494.59
494.017	20786.78
494.387	20978.42
494.757	21227
495.126	21499.99
495.496	21510.83
495.866	21718.96
496.235	21876.7
496.605	22129.12
496.974	22285.05
497.344	22469.45
497.713	22546.29
498.082	22672.84
498.452	23112.82
498.821	23151.24
499.19	23284.57
499.559	23508.52
499.928	23709.87
500.298	23887.04
500.667	24106.47
501.036	24100.14
501.405	24404.09
501.774	24374.26
502.143	24578.32
502.512	24813.34
502.88	25016.96
503.249	25029.84
503.618	25221.92
503.987	25391.63
504.356	25654.23
504.724	25713.66
505.093	25949.36
505.462	26011.28
505.83	26319.75
506.199	26544.82
506.567	26781.43
506.936	26863.69
507.304	27075.66
507.672	27200.4
508.041	27413.95
508.409	27608.3
508.777	27789.54
509.145	28050.55
509.514	28158.34
509.882	28395.85
510.25	28468.84
510.618	28673.36
510.986	28795.16
511.354	29147.69
511.722	29365.99
512.09	29673.78
512.458	29660.9
512.826	29871.29
513.193	30045.75
513.561	30198.06
513.929	30417.72
514.297	30685.51
514.664	30973.18
515.032	31152.84
515.4	31451.14
515.767	31641.19
516.135	31773.84
516.502	31544.69
516.869	32110.55
517.237	32283.66
517.604	32386.93
517.972	32736.98
518.339	32859.91
518.706	33074.6
519.073	33235.95
519.44	33543.51
519.808	33917.06
520.175	33796.61
520.542	34311.63
520.909	34577.61
521.276	34561.34
521.643	34897.83
522.009	35256.01
522.376	35460.52
522.743	35707.52
523.11	36117.23
523.477	36272.93
523.843	36656.65
524.21	36942.29
524.577	37211.66
524.943	37529.62
525.31	37615.72
525.676	37937.29
526.043	38104.75
526.409	38588.35
526.776	38805.07
527.142	38978.4
527.508	39139.07
527.874	39518.95
528.241	39668.77
528.607	39803.01
528.973	40300.62
529.339	40209.1
529.705	40689.99
530.071	40958.91
530.437	41167.49
530.803	41460.82
531.169	41629.4
531.535	41661.04
531.901	41888.6
532.267	42068.26
532.632	42298.08
532.998	42475.48
533.364	42769.48
533.73	42799.54
534.095	43149.36
534.461	43171.28
534.826	43512.51
535.192	43650.82
535.557	43881.54
535.923	43823.24
536.288	44118.83
536.653	44255.09
537.019	44185.72
537.384	44470.45
537.749	44682.43
538.114	44811.69
538.479	44902.08
538.845	45233.82
539.21	45192.24
539.575	45341.17
539.94	45459.81
540.305	45834.26
540.67	45787.03
541.034	45987.7
541.399	46202.39
541.764	46230.86
542.129	46370.74
542.494	46411.87
542.858	46549.95
543.223	46616.39
543.587	46946.77
543.952	46924.63
544.316	47171.85
544.681	47099.99
545.045	47389.47
545.41	47630.82
545.774	47733.19
546.138	47733.42
546.503	47859.52
546.867	47847.77
547.231	48150.13
547.595	48310.35
547.959	48350.35
548.324	48407.53
548.688	48544.47
549.052	48777.91
549.416	48889.77
549.779	48964.57
550.143	49091.35
550.507	49315.53
550.871	49388.07
551.235	49331.34
551.599	49680.71
551.962	49682.75
552.326	49903.76
552.689	50061.95
553.053	50022.85
553.417	50101.04
553.78	50457.42
554.143	50496.29
554.507	50633.23
554.87	50706.68
555.234	51084.29
555.597	50879.78
555.96	51120.9
556.323	51195.25
556.686	51307.56
557.05	51500.55
557.413	51599.99
557.776	51730.38
558.139	51909.36
558.502	51904.61
558.865	52192.06
559.228	52329.91
559.59	52405.39
559.953	52439.29
560.316	52823.68
560.679	52767.19
561.041	53049.21
561.404	53182.09
561.767	53309.32
562.129	53303.22
562.492	53607.39
562.854	53508.86
563.217	53599.48
563.579	53742.53
563.941	53926.93
564.304	54071.11
564.666	54230.65
565.028	54263.87
565.39	54357.2
565.753	54595.84
566.115	54723.29
566.477	54842.84
566.839	54901.37
567.201	55128.25
567.563	55070.18
567.925	55265.43
568.287	55244.86
568.648	55328.47
569.01	55495.25
569.372	55686.66
569.734	55593.78
570.095	55742.25
570.457	55835.81
570.819	55948.57
571.18	55993.32
571.542	56146.31
571.903	56139.53
572.265	56241.9
572.626	56312.63
572.987	56402.8
573.349	56519.63
573.71	56590.14
574.071	56632.85
574.432	56771.15
574.794	56916
575.155	56844.14
575.516	56822.45
575.877	56948.32
576.238	56951.71
576.599	57124.59
576.96	57099.28
577.32	57166.62
577.681	57154.19
578.042	57323.9
578.403	57300.17
578.763	57208.88
579.124	57319.38
579.485	57407.74
579.845	57489.32
580.206	57383.79
580.566	57479.6
580.927	57482.54
581.287	57612.26
581.648	57496.78
582.008	57596.66
582.368	57579.71
582.728	57630.56
583.089	57667.85
583.449	57607.28
583.809	57671.46
584.169	57589.88
584.529	57584.69
584.889	57833.95
585.249	57668.75
585.609	57602.77
585.969	57752.14
586.329	57687.73
586.688	57745.36
587.048	57720.05
587.408	57645.02
587.768	57708.98
588.127	57634.4
588.487	57628.75
588.846	57847.5
589.206	57657.45
589.565	57720.05
589.925	57833.72
590.284	57687.96
590.643	57674.85
591.003	57829.2
591.362	57860.16
591.721	57849.54
592.08	57829.2
592.44	57908.97
592.799	57892.93
593.158	57863.55
593.517	57885.47
593.876	57852.93
594.235	57811.35
594.593	57864.45
594.952	57912.59
595.311	57835.08
595.67	57878.46
596.029	58030.78
596.387	58033.26
596.746	58034.84
597.104	57926.15
597.463	57955.07
597.822	58025.35
598.18	57958.01
598.538	58014.73
598.897	58058.57
599.255	57885.92
599.613	58212.92
599.972	58068.97
600.33	58150.77
600.688	58103.77
601.046	58147.61
601.404	58190.55
601.762	58264.89
602.12	58279.81
602.478	58263.54
602.836	58293.14
603.194	58161.85
603.552	58236.19
603.91	58191.22
604.268	58356.64
604.625	58266.93
604.983	58429.86
605.341	58257.44
605.698	58409.75
606.056	58520.26
606.413	58384.89
606.771	58514.38
607.128	58506.24
607.485	58407.26
607.843	58505.11
608.2	58561.16
608.557	58599.8
608.914	58510.09
609.272	58629.86
609.629	58780.59
609.986	58819.46
610.343	58613.36
610.7	58814.03
611.057	58770.87
611.414	58712.34
611.771	58782.85
612.127	58882.51
612.484	58848.61
612.841	58902.84
613.198	58870.98
613.554	58862.17
613.911	59030.3
614.267	59022.16
614.624	58977.64
614.98	58998.66
615.337	59108.26
615.693	59096.51
616.05	59115.95
616.406	59207.02
616.762	59172.22
617.118	59093.12
617.475	59169.05
617.831	59169.73
618.187	59214.47
618.543	59283.4
618.899	59361.81
619.255	59366.56
619.611	59321.36
619.967	59323.17
620.323	59340.12
620.678	59307.13
621.034	59267.81
621.39	59303.74
621.746	59266.68
622.101	59532.21
622.457	59299.9
622.812	59371.53
623.168	59451.3
623.523	59484.98
623.879	59492.88
624.234	59359.56
624.589	59434.13
624.945	59399.78
625.3	59430.74
625.655	59376.28
626.01	59379.44
626.365	59379.67
626.72	59399.55
627.075	59317.97
627.43	59334.02
627.785	59315.71
628.14	59353.68
628.495	59365.43
628.85	59293.57
629.205	59272.33
629.559	59406.11
629.914	59256.28
630.269	59276.39
630.623	59198.88
630.978	59141.93
631.332	59251.54
631.687	59284.08
632.041	59198.43
632.396	59234.81
632.75	59047.02
633.104	59155.27
633.459	59034.82
633.813	59014.48
634.167	58956.63
634.521	58986.68
634.875	58964.31
635.229	58946.68
635.583	58832.11
635.937	58823.75
636.291	58760.25
636.645	58849.96
636.999	58811.09
637.352	58809.74
637.706	58606.58
638.06	58783.07
638.413	58657.2
638.767	58614.49
639.121	58670.99
639.474	58520.26
639.828	58482.97
640.181	58529.07
640.534	58492.69
640.888	58419.47
641.241	58260.83
641.594	58351.45
641.947	58439.81
642.301	58290.2
642.654	58376.76
643.007	58398
643.36	58279.58
643.713	58210.88
644.066	58287.04
644.419	58122.98
644.771	58063.54
645.124	57808.86
645.477	57756.89
645.83	57576.78
646.182	57432.37
646.535	57332.04
646.888	57400.06
647.24	57231.48
647.593	57414.07
647.945	57293.39
648.298	57184.47
648.65	57086.62
649.002	57049.11
649.355	57156.22
649.707	57139.73
650.059	57204.36
650.411	57445.26
650.763	57507.4
651.115	57733.84
651.467	57656.77
651.819	57667.85
652.171	57562.54
652.523	57595.31
652.875	57497.68
653.227	57337.69
653.578	57629.66
653.93	57433.5
654.282	57366.61
654.633	57281.19
654.985	57393.96
655.337	57381.3
655.688	57340.4
656.039	57429.89
656.391	57242.1
656.742	57308.08
657.094	57270.12
657.445	57346.95
657.796	57307.18
658.147	57182.44
658.498	57153.06
658.849	57243.9
659.2	57179.05
659.551	57121.2
659.902	57212.04
660.253	57117.13
660.604	57146.73
660.955	57052.27
661.306	57123.46
661.656	56989.22
662.007	57078.71
662.358	57048.43
662.708	56993.97
663.059	57009.79
663.409	56852.73
663.76	57044.59
664.11	56945.83
664.461	57017.47
664.811	56966.85
665.161	56997.36
665.511	56919.62
665.862	56949
666.212	57012.27
666.562	56923.23
666.912	56877.36
667.262	56906.29
667.612	56829.9
667.962	56921.43
668.312	56808.21
668.662	56988.54
669.011	56847.76
669.361	56798.72
669.711	56796.46
670.06	56750.13
670.41	56784.71
670.76	56653.64
671.109	56778.15
671.459	56677.37
671.808	56623.81
672.157	56644.15
672.507	56542.23
672.856	56513.3
673.205	56600.76
673.554	56627.88
673.904	56474.89
674.253	56573.87
674.602	56553.75
674.951	56142.01
675.3	56049.36
675.649	56470.59
675.998	56342.46
676.346	56475.34
676.695	56497.94
677.044	56277.38
677.393	56352.85
677.741	56370.48
678.09	56224.04
678.438	56133.2
678.787	56290.03
679.135	56262.24
679.484	56096.14
679.832	56222.91
680.181	56014.78
680.529	56043.03
680.877	55958.29
681.225	55937.27
681.573	56077.61
681.922	55857.73
682.27	55791.51
682.618	55736.6
682.966	55745.64
683.314	55829.48
683.661	55727.11
684.009	55606.89
684.357	55503.84
684.705	55491.86
685.053	55466.55
685.4	55422.26
685.748	55359.43
686.095	55144.3
686.443	55095.49
686.79	55085.32
687.138	55140.23
687.485	55096.16
687.832	55055.94
688.18	55104.3
688.527	54917.19
688.874	54925.32
689.221	54839.9
689.568	54734.14
689.915	54699.34
690.262	54722.84
690.609	54654.37
690.956	54547.7
691.303	54466.8
691.65	54310.42
691.997	54356.75
692.344	54110.88
692.69	54165.57
693.037	54147.94
693.383	53863.43
693.73	53987.72
694.077	53792.02
694.423	53794.05
694.769	53752.7
695.116	53620.04
695.462	53609.88
695.808	53459.15
696.155	53465.25
696.501	53244.24
696.847	53265.03
697.193	52983.45
697.539	53157.91
697.885	52928.31
698.231	52859.39
698.577	52804.25
698.923	52747.75
699.269	52604.25
699.614	52353.64
699.96	52318.38
700.306	52501.43
700.651	52254.88
700.997	52177.37
701.342	52166.52
701.688	52035
702.033	51947.77
702.379	51840.43
702.724	51821.67
703.069	51812.18
703.415	51473.21
703.76	51528.8
704.105	51444.06
704.45	51481.34
704.795	51110.05
705.14	51059.43
705.485	51043.16
705.83	50844.98
706.175	50903.28
706.52	50686.79
706.865	50819.21
707.209	50642.27
707.554	50491.31
707.899	50557.53
708.243	50358.66
708.588	50320.47
708.932	50165.45
709.277	50094.26
709.621	50104.88
709.966	49864.21
710.31	49960.71
710.654	49602.3
710.998	49664.89
711.342	49644.78
711.687	49633.26
712.031	49374.96
712.375	49296.54
712.719	49359.14
713.063	49240.95
713.407	49453.83
713.75	49146.04
714.094	49167.73
714.438	48960.51
714.782	48927.29
715.125	48731.13
715.469	48805.48
715.812	48639.38
716.156	48416.34
716.499	48452.27
716.843	48442.55
717.186	48242.79
717.53	48441.42
717.873	48270.58
718.216	48252.73
718.559	48034.43
718.902	47739.3
719.246	47906.3
719.589	47811.38
719.932	47682.12
720.275	47619.3
720.617	47650.03
720.96	47519.19
721.303	47605.74
721.646	47505.18
721.989	47263.15
722.331	47367.33
722.674	47167.56
723.016	47240.33
723.359	47116.04
723.701	46998.75
724.044	46855.48
724.386	46695.03
724.729	46759.89
725.071	46716.95
725.413	46468.14
725.755	46486.9
726.097	46403.51
726.439	46134.14
726.782	46148.6
727.124	46327.13
727.465	46094.37
727.807	46074.25
728.149	45978.44
728.491	45980.02
728.833	45900.7
729.175	45710.65
729.516	45622.52
729.858	45617.54
730.199	45666.58
730.541	45401.5
730.882	45516.08
731.224	45508.62
731.565	45322.41
731.906	45298.46
732.248	45341.84
732.589	45178.68
732.93	44929.43
733.271	44888.3
733.612	44959.03
733.953	44929.88
734.294	44792.25
734.635	44541.64
734.976	44814.17
735.317	44571.24
735.658	44413.96
735.999	44425.48
736.339	44421.87
736.68	44458.25
737.021	44182.33
737.361	44056.45
737.702	44178.94
738.042	44038.6
738.383	44002.67
738.723	43985.95
739.063	43937.36
739.404	43972.84
739.744	43802.68
740.084	43635
740.424	43577.37
740.764	43484.72
741.104	43625.96
741.444	43550.03
741.784	43273.2
742.124	43334.67
742.464	43294.67
742.804	43209.7
743.143	43189.58
743.483	43207.44
743.823	42854.23
744.162	42758.18
744.502	42879.31
744.841	42697.39
745.181	42925.86
745.52	42698.07
745.86	42761.8
746.199	42496.5
746.538	42473.9
746.877	42427.8
747.216	42522.94
747.556	42286.78
747.895	42317.52
748.234	42138.31
748.573	42016.06
748.911	41979.22
749.25	41808.15
749.589	41788.04
749.928	41878.66
750.267	41712.56
750.605	41593.02
750.944	41551.44
751.283	41362.29
751.621	41388.05
751.96	41121.62
752.298	41141.05
752.636	41108.51
752.975	40841.85
753.313	40774.28
753.651	41021.73
753.989	40649.31
754.327	40616.32
754.666	40418.13
755.004	40476.66
755.342	40418.36
755.679	40237.57
756.017	40035.09
756.355	40139.72
756.693	39984.7
757.031	40066.5
757.368	39674.2
757.706	39687.3
758.044	39690.02
758.381	39655.89
758.719	39378.39
759.056	39451.83
759.394	39247.77
759.731	38960.09
760.068	38986.76
760.405	38811.17
760.743	38716.03
761.08	38661.12
761.417	38573.43
761.754	38464.29
762.091	38415.02
762.428	38215.93
762.765	38028.82
763.102	38181.35
763.438	37876.05
763.775	37818.88
764.112	37823.85
764.449	37686
764.785	37378.89
765.122	37204.43
765.458	37086.92
765.795	37078.11
766.131	37153.13
766.467	36907.04
766.804	36814.84
767.14	36488.74
767.476	36567.16
767.812	36324.45
768.148	36282.42
768.485	36197.23
768.821	35944.8
769.157	35877.01
769.492	35856.44
769.828	35664.58
770.164	35426.62
770.5	35252.39
770.836	35260.53
771.171	35043.81
771.507	35003.36
771.842	34738.28
772.178	34787.55
772.513	34744.16
772.849	34623.03
773.184	34429.14
773.519	34431.85
773.855	34126.55
774.19	34048.58
774.525	33878.42
774.86	33897.4
775.195	33838.64
775.53	33616.05
775.865	33388.71
776.2	33195.5
776.535	32972.23
776.87	32948.27
777.205	32859.69
777.539	32751.44
777.874	32840.93
778.209	32445.23
778.543	32473.26
778.878	32461.96
779.212	32213.6
779.547	32041.18
779.881	32161.63
780.215	31824.69
780.55	32061.97
780.884	31693.62
781.218	31597.12
781.552	31585.6
781.886	31411.82
782.22	31275.1
782.554	31055.67
782.888	30832.85
783.222	30775.45
783.556	30628.79
783.889	30714.43
784.223	30448.22
784.557	30353.54
784.89	30441.45
785.224	30181.11
785.557	30017.73
785.891	29895.92
786.224	29826.32
786.558	29824.51
786.891	29566.21
787.224	29519.89
787.557	29408.7
787.891	29342.94
788.224	29200.8
788.557	29133.91
788.89	29051.88
789.223	29024.53
789.556	28714.49
789.888	28766.01
790.221	28747.7
790.554	28452.8
790.887	28485.79
791.219	28313.82
791.552	28315.63
791.884	28072.47
792.217	28034.5
792.549	28031.34
792.882	27733.95
793.214	27716.32
793.546	27756.09
793.879	27569.2
794.211	27379.38
794.543	27461.86
794.875	27357.01
795.207	27243.11
795.539	27190.23
795.871	27113.4
796.203	26835.44
796.535	26747.76
796.867	26649.68
797.198	26727.64
797.53	26559.97
797.862	26328.33
798.193	26524.49
798.525	26213.99
798.856	26301.89
799.188	25954.33
799.519	25956.82
799.85	25810.38
800.182	25894.9
800.513	25865.97
800.844	25546.88
801.175	25661.91
801.506	25644.74
801.837	25488.58
802.168	25541.24
802.499	25296.27
802.83	25144.64
803.161	25081.36
803.491	25037.07
803.822	25097.18
804.153	24932.21
804.483	24790.07
804.814	24617.87
805.145	24678.66
805.475	24693.35
805.805	24509.4
806.136	24602.95
806.466	24491.77
806.796	24280.03
807.126	24199.8
807.457	24194.83
807.787	24214.04
808.117	24007.49
808.447	23969.3
808.777	24033.03
809.107	23720.04
809.436	23825.8
809.766	23798.23
810.096	23555.98
810.426	23576.54
810.755	23542.64
811.085	23676.65
811.414	23354.85
811.744	23268.3
812.073	23236.21
812.403	23142.43
812.732	23114.86
813.061	23127.97
813.39	22902.21
813.719	22825.15
814.049	22976.78
814.378	22906.95
814.707	22632.61
815.036	22654.31
815.365	22683.01
815.693	22455.89
816.022	22465.16
816.351	22398.04
816.68	22237.82
817.008	22282.56
817.337	22137.71
817.665	22169.57
817.994	22170.93
818.322	22120.08
818.651	21994.66
818.979	21815.46
819.307	21998.73
819.636	21989.01
819.964	21826.53
820.292	21842.35
820.62	21798.51
820.948	21704.27
821.276	21802.58
821.604	21724.39
821.932	21740.88
822.259	21644.84
822.587	21613.65
822.915	21688.46
823.243	21667.89
823.57	21485.3
823.898	21536.82
824.225	21508.57
824.553	21490.95
824.88	21515.8
825.207	21604.84
825.535	21536.14
825.862	21571.4
826.189	21489.82
826.516	21605.07
826.843	21634.45
827.17	21535.92
827.497	21650.04
827.824	21553.09
828.151	21570.27
828.478	21451.63
828.805	21548.8
829.131	21451.63
829.458	21349.03
829.785	21361.68
830.111	21380.21
830.438	21513.09
830.764	21440.33
831.09	21456.37
831.417	21337.5
831.743	21451.85
832.069	21431.51
832.395	21290.27
832.722	21359.88
833.048	21283.95
833.374	21326.66
833.7	21271.97
834.026	21209.15
834.351	21284.4
834.677	21209.15
835.003	21189.94
835.329	21135.25
835.654	21210.28
835.98	21077.62
836.306	21167.56
836.631	20939.55
836.956	21084.63
837.282	21050.28
837.607	20953.56
837.932	20907.46
838.258	20970.96
838.583	20815.03
838.908	20795.6
839.233	20623.62
839.558	20645.09
839.883	20598.54
840.208	20595.83
840.533	20595.83
840.858	20586.79
841.182	20574.59
841.507	20507.24
841.832	20402.61
842.156	20366.68
842.481	20384.99
842.805	20249.17
843.13	20266.35
843.454	20171.43
843.778	20137.31
844.103	20045.33
844.427	19933.7
844.751	19980.03
845.075	19935.28
845.399	19821.16
845.723	19719.02
846.047	19700.48
846.371	19648.06
846.695	19546.14
847.019	19443.09
847.343	19380.04
847.666	19231.57
847.99	19155.19
848.313	19187.28
848.637	19065.7
848.96	18993.61
849.284	18931.47
849.607	18909.55
849.931	18749.1
850.254	18667.07
850.577	18557.92
850.9	18451.25
851.223	18397.24
851.546	18314.08
851.869	18173.52
852.192	18209
852.515	18097.14
852.838	17929.68
853.161	17983.47
853.483	17957.93
853.806	17828.9
854.129	17854.66
854.451	17795.68
854.774	17657.83
855.096	17650.6
855.419	17544.16
855.741	17511.39
856.063	17397.72
856.385	17348.68
856.708	17392.3
857.03	17302.58
857.352	17268.68
857.674	17205.41
857.996	17082.02
858.318	17064.85
858.64	16988.69
858.961	17045.19
859.283	16932.2
859.605	16802.71
859.926	16951.18
860.248	16808.13
860.57	16761.58
860.891	16744.86
861.212	16701.47
861.534	16632.32
861.855	16607.23
862.176	16599.1
862.498	16467.12
862.819	16538.76
863.14	16458.08
863.461	16424.64
863.782	16314.36
864.103	16392.55
864.424	16138.77
864.745	16383.51
865.065	16197.07
865.386	16133.35
865.707	16237.07
866.027	16218.09
866.348	16053.12
866.668	16071.65
866.989	15970.64
867.309	15893.58
867.63	15893.35
867.95	15869.63
868.27	15761.83
868.59	15859.46
868.91	15881.83
869.23	15745.33
869.55	15706.01
869.87	15820.81
870.19	15693.58
870.51	15745.11
870.83	15728.61
871.15	15630.76
871.469	15582.18
871.789	15584.66
872.109	15634.6
872.428	15438.68
872.748	15468.05
873.067	15475.51
873.386	15422.63
873.706	15450.88
874.025	15333.14
874.344	15314.39
874.663	15327.27
874.982	15305.57
875.301	15256.76
875.62	15257.89
875.939	15165.69
876.258	15125.24
876.577	15033.94
876.896	15106.48
877.214	15062.41
877.533	15064.67
877.852	15123.66
878.17	15022.87
878.489	15067.84
878.807	14994.62
879.125	14986.03
879.444	14985.13
879.762	14869.2
880.08	14797.79
880.398	14819.26
880.716	14792.82
881.034	14795.08
881.352	14809.31
881.67	14791.69
881.988	14762.08
882.306	14699.03
882.624	14645.7
882.941	14505.14
883.259	14486.38
883.577	14426.5
883.894	14431.7
884.212	14381.53
884.529	14422.21
884.846	14369.33
885.164	14332.94
885.481	14282.1
885.798	14252.49
886.115	14225.83
886.432	14245.94
886.75	14163
887.067	14257.01
887.383	14156.9
887.7	14096.34
888.017	14015.44
888.334	13993.74
888.651	14055.44
888.967	13959.39
889.284	13876.68
889.6	13761.88
889.917	13807.31
890.233	13793.75
890.55	13663.36
890.866	13724.14
891.182	13681.43
891.498	13631.04
891.815	13541.32
892.131	13535.22
892.447	13547.2
892.763	13415.45
893.079	13381.33
893.395	13378.62
893.71	13266.08
894.026	13316.7
894.342	13317.6
894.657	13181.33
894.973	13135.23
895.289	13171.62
895.604	13099.98
895.92	13019.76
896.235	13008.91
896.55	12981.57
896.865	12916.03
897.181	12896.14
897.496	12883.26
897.811	12751.29
898.126	12733.44
898.441	12709.03
898.756	12539.54
899.071	12568.02
899.386	12528.24
899.7	12500.67
900.015	12434.69
900.33	12310.17
900.644	12330.28
900.959	12355.37
901.273	12227.91
901.588	12243.96
901.902	12153.56
902.216	12133.9
902.531	12032.21
902.845	12022.95
903.159	12013.23
903.473	11945.43
903.787	11821.82
904.101	11843.97
904.415	11771.2
904.729	11767.13
905.042	11705.89
905.356	11636.97
905.67	11622.05
905.984	11637.65
906.297	11579.34
906.611	11470.87
906.924	11483.53
907.237	11400.14
907.551	11425.22
907.864	11358.11
908.177	11295.06
908.491	11240.37
908.804	11154.72
909.117	11047.83
909.43	11068.85
909.743	10982.3
910.056	11004.44
910.368	10961.51
910.681	10889.64
910.994	10876.76
911.307	10788.18
911.619	10759.03
911.932	10747.5
912.244	10636.99
912.557	10695.75
912.869	10543.44
913.181	10507.51
913.494	10559.48
913.806	10496.43
914.118	10408.53
914.43	10263.67
914.742	10304.12
915.054	10296.44
915.366	10205.37
915.678	10194.07
915.99	10166.95
916.302	10001.3
916.613	10021.64
916.925	10030.46
917.236	9976.45
917.548	9868.2
917.859	9940.29
918.171	9880.18
918.482	9806.73
918.794	9804.02
919.105	9717.92
919.416	9654.42
919.727	9644.7
920.038	9621.65
920.349	9539.85
920.66	9498.04
920.971	9420.76
921.282	9446.74
921.593	9347.76
921.903	9325.39
922.214	9334.88
922.525	9311.15
922.835	9216.24
923.146	9201.33
923.456	9114.1
923.767	9068.67
924.077	9089.01
924.387	9073.42
924.697	8940.99
925.008	8966.53
925.318	8903.71
925.628	8944.16
925.938	8896.48
926.248	8738.29
926.558	8724.95
926.867	8717.04
927.177	8677.5
927.487	8672.98
927.796	8603.83
928.106	8543.94
928.416	8508.01
928.725	8472.98
929.034	8408.58
929.344	8472.53
929.653	8479.54
929.962	8389.6
930.271	8267.34
930.581	8230.96
930.89	8294.68
931.199	8229.37
931.508	8181.69
931.817	8117.29
932.125	8094.01
932.434	8039.1
932.743	7994.8
933.051	7971.3
933.36	7941.92
933.669	7892.21
933.977	7870.74
934.286	7845.2
934.594	7840.01
934.902	7716.17
935.21	7724.98
935.519	7660.12
935.827	7670.07
936.135	7622.61
936.443	7571.09
936.751	7507.13
937.059	7527.47
937.367	7427.59
937.674	7446.12
937.982	7413.12
938.29	7428.49
938.597	7379.9
938.905	7310.3
939.213	7220.36
939.52	7226.91
939.827	7272.79
940.135	7196.18
940.442	7182.17
940.749	7153.47
941.056	7123.41
941.363	7093.81
941.67	7069.18
941.977	6984.66
942.284	6956.19
942.591	6958
942.898	6940.14
943.205	6907.83
943.511	6887.71
943.818	6864.21
944.125	6833.03
944.431	6787.6
944.738	6793.48
945.044	6758.23
945.35	6637.33
945.657	6660.38
945.963	6631
946.269	6558.68
946.575	6583.32
946.881	6541.96
947.187	6485.24
947.493	6441.85
947.799	6431
948.105	6369.76
948.41	6336.77
948.716	6373.15
949.022	6340.38
949.327	6281.85
949.633	6221.97
949.938	6218.13
950.244	6201.63
950.549	6098.81
950.854	6119.37
951.16	6114.85
951.465	6049.77
951.77	6041.63
952.075	6051.13
952.38	6043.44
952.685	6021.75
952.99	5965.93
953.294	5934.97
953.599	5885.93
953.904	5858.14
954.209	5859.27
954.513	5794.86
954.818	5768.2
955.122	5808.42
955.426	5733.17
955.731	5706.05
956.035	5664.24
956.339	5643
956.643	5643
956.948	5592.83
957.252	5603.68
957.556	5572.95
957.86	5533.4
958.163	5520.07
958.467	5476
958.771	5476.45
959.075	5497.69
959.378	5417.7
959.682	5421.09
959.985	5376.57
960.289	5283.24
960.592	5302.67
960.896	5259.73
961.199	5256.12
961.502	5255.44
961.805	5217.25
962.108	5190.13
962.411	5191.04
962.714	5157.36
963.017	5144.48
963.32	5134.99
963.623	5099.51
963.926	5079.17
964.228	5065.16
964.531	5027.42
964.833	5038.5
965.136	4988.1
965.438	4961.21
965.741	4924.38
966.043	4916.92
966.345	4935.22
966.648	4868.56
966.95	4846.19
967.252	4830.59
967.554	4820.88
967.856	4763.7
968.158	4772.52
968.46	4724.83
968.761	4705.4
969.063	4691.16
969.365	4722.35
969.666	4676.02
969.968	4571.62
970.269	4592.41
970.571	4595.8
970.872	4589.47
971.174	4608
971.475	4522.8
971.776	4535.23
972.077	4482.81
972.378	4457.5
972.679	4419.98
972.98	4419.08
973.281	4417.72
973.582	4415.01
973.883	4370.72
974.183	4352.19
974.484	4351.28
974.785	4344.5
975.085	4302.47
975.386	4255.24
975.686	4252.98
975.986	4217.95
976.287	4242.59
976.587	4194.45
976.887	4198.97
977.187	4170.95
977.487	4122.59
977.787	4125.75
978.087	4091.4
978.387	4088.92
978.687	4050.95
978.987	4043.95
979.286	4029.26
979.586	4033.33
979.885	4005.3
980.185	3969.6
980.484	3970.5
980.784	3912.65
981.083	3893.22
981.382	3899.54
981.682	3901.35
981.981	3836.5
982.28	3822.03
982.579	3802.37
982.878	3787
983.177	3762.37
983.475	3785.65
983.774	3757.4
984.073	3737.29
984.372	3711.53
984.67	3714.24
984.969	3742.49
985.267	3690.06
985.566	3648.7
985.864	3626.11
986.162	3631.98
986.461	3568.93
986.759	3598.08
987.057	3570.51
987.355	3524.41
987.653	3540.23
987.951	3488.71
988.249	3494.58
988.547	3479.89
988.844	3478.99
989.142	3471.08
989.44	3451.42
989.737	3391.99
990.035	3406
990.332	3358.77
990.63	3343.85
990.927	3321.93
991.224	3342.5
991.521	3354.25
991.819	3303.63
992.116	3273.57
992.413	3229.51
992.71	3237.19
993.006	3243.97
993.303	3212.1
993.6	3210.3
993.897	3188.38
994.193	3166.91
994.49	3181.37
994.787	3145.67
995.083	3126.46
995.379	3123.75
995.676	3059.34
995.972	3093.69
996.268	3095.72
996.565	3027.25
996.861	3049.4
997.157	3009.4
997.453	2997.42
997.749	2946.35
998.044	2949.51
998.34	2984.54
998.636	2910.87
998.932	2910.19
999.227	2926.46
999.523	2867.93
999.818	2881.94
1000.114	2865.22
1000.409	2819.8
1000.704	2808.05
1001	2823.41
1001.295	2773.92
1001.59	2793.36
1001.885	2759.01
1002.18	2719.46
1002.475	2727.82
1002.77	2695.06
1003.065	2704.55
1003.359	2685.56
1003.654	2676.53
1003.949	2629.07
1004.243	2640.82
1004.538	2630.2
1004.832	2618
1005.127	2584.55
1005.421	2608.73
1005.715	2574.61
1006.009	2537.32
1006.304	2541.16
1006.598	2516.76
1006.892	2510.43
1007.186	2478.34
1007.48	2462.52
1007.773	2447.61
1008.067	2481.05
1008.361	2380.26
1008.655	2419.58
1008.948	2355.63
1009.242	2399.7
1009.535	2351.56
1009.829	2322.41
1010.122	2327.16
1010.415	2320.83
1010.708	2296.42
1011.001	2275.86
1011.295	2277.67
1011.588	2287.16
1011.881	2248.29
1012.173	2241.73
1012.466	2234.28
1012.759	2186.37
1013.052	2209.65
1013.344	2218.91
1013.637	2190.66
1013.93	2174.84
1014.222	2148.63
1014.514	2126.48
1014.807	2132.36
1015.099	2122.42
1015.391	2104.56
1015.683	2081.29
1015.976	2067.95
1016.268	2060.27
1016.56	2019.14
1016.851	2030.21
1017.143	2023.66
1017.435	1993.83
1017.727	1983.89
1018.018	1982.53
1018.31	1994.51
1018.602	1964
1018.893	1931.69
1019.185	1942.53
1019.476	1909.09
1019.767	1901.4
1020.058	1880.84
1020.35	1876.55
1020.641	1838.36
1020.932	1839.94
1021.223	1812.37
1021.514	1801.97
1021.804	1804.91
1022.095	1797
1022.386	1791.8
1022.677	1751.8
1022.967	1733.05
1023.258	1732.14
1023.548	1739.6
1023.839	1735.99
1024.129	1708.64
1024.419	1716.1
1024.709	1699.15
1025	1687.17
1025.29	1692.82
1025.58	1645.59
1025.87	1619.15
1026.16	1623.45
1026.449	1607.85
1026.739	1615.76
1027.029	1585.71
1027.319	1592.03
1027.608	1583.22
1027.898	1553.62
1028.187	1563.11
1028.477	1505.93
1028.766	1543.22
1029.055	1516.56
1029.344	1510.23
1029.634	1480.62
1029.923	1472.04
1030.212	1505.71
1030.501	1469.33
1030.79	1442.66
1031.078	1458.25
1031.367	1408.99
1031.656	1410.8
1031.945	1411.7
1032.233	1385.03
1032.522	1425.71
1032.81	1390.46
1033.099	1349.78
1033.387	1386.39
1033.675	1353.17
1033.963	1340.97
1034.251	1336.9
1034.54	1355.43
1034.828	1322.89
1035.116	1308.43
1035.403	1294.87
1035.691	1283.34
1035.979	1315.43
1036.267	1297.35
1036.554	1264.59
1036.842	1243.34
1037.129	1230.24
1037.417	1236.11
1037.704	1223.23
1037.992	1203.8
1038.279	1219.39
1038.566	1208.99
1038.853	1208.99
1039.14	1208.99
