Data from breadboard_white_FLMS001491_00089.txt Node
Date: Wed Feb 08 10:48:24 GMT 2017
User: dcchb
Spectrometer: FLMS00149
Trigger mode: 0
Integration Time (sec): 2.000000E-2
Scans to average: 10
Electric dark correction enabled: true
Nonlinearity correction enabled: false
Boxcar width: 0
XAxis mode: Wavelengths
Number of Pixels in Spectrum: 2048
>>>>>Begin Spectral Data<<<<<
341.393	-31.89
341.776	-31.89
342.16	-31.89
342.543	-51.78
342.927	-63.76
343.31	-73.25
343.693	-67.6
344.077	-64.43
344.46	-40.48
344.843	-61.27
345.226	-43.19
345.61	-11.78
345.993	-26.69
346.376	-21.72
346.759	6.07
347.142	35.68
347.525	32.29
347.908	48.78
348.291	72.29
348.674	108.67
349.057	106.64
349.44	113.64
349.823	128.56
350.206	173.53
350.588	198.84
350.971	234.54
351.354	239.29
351.737	243.13
352.119	263.47
352.502	278.61
352.884	285.39
353.267	294.2
353.65	314.54
354.032	312.51
354.414	331.49
354.797	321.55
355.179	353.63
355.562	320.87
355.944	335.56
356.326	336.91
356.709	343.47
357.091	346.63
357.473	367.42
357.855	363.13
358.238	359.28
358.62	358.83
359.002	367.19
359.384	349.12
359.766	354.99
360.148	377.36
360.53	363.8
360.912	348.89
361.294	355.89
361.676	349.79
362.057	341.43
362.439	346.18
362.821	359.51
363.203	336.46
363.584	355.67
363.966	360.87
364.348	359.28
364.729	346.18
365.111	371.94
365.493	355.44
365.874	369.45
366.256	349.12
366.637	351.6
367.019	348.89
367.4	327.19
367.781	343.24
368.163	348.21
368.544	337.82
368.925	326.97
369.306	370.81
369.688	357.7
370.069	341.66
370.45	334.65
370.831	360.87
371.212	365.39
371.593	338.04
371.974	363.35
372.355	362.9
372.736	343.69
373.117	352.05
373.498	348.21
373.879	361.32
374.26	346.4
374.641	352.73
375.021	359.06
375.402	370.81
375.783	380.75
376.163	398.83
376.544	404.71
376.925	374.88
377.305	371.49
377.686	366.06
378.066	391.83
378.447	397.02
378.827	386.85
379.208	386.4
379.588	390.7
379.968	386.18
380.349	404.71
380.729	411.94
381.109	421.88
381.489	409
381.87	425.05
382.25	404.93
382.63	413.29
383.01	421.66
383.39	421.66
383.77	416.68
384.15	399.51
384.53	426.63
384.91	431.15
385.29	439.73
385.67	432.73
386.049	451.26
386.429	440.41
386.809	467.08
387.189	449.23
387.568	446.97
387.948	455.55
388.328	441.77
388.707	464.82
389.087	466.4
389.466	475.89
389.846	490.58
390.225	470.47
390.605	500.07
390.984	489.68
391.363	496.46
391.743	513.86
392.122	511.82
392.501	528.32
392.881	525.16
393.26	536.45
393.639	520.64
394.018	513.18
394.397	539.39
394.776	552.5
395.155	564.02
395.534	548.88
395.913	551.14
396.292	571.93
396.671	578.26
397.05	575.1
397.429	587.98
397.808	609.9
398.186	589.33
398.565	611.93
398.944	615.77
399.323	626.85
399.701	616.23
400.08	632.95
400.458	634.98
400.837	666.39
401.215	670.24
401.594	663.23
401.972	678.37
402.351	688.54
402.729	698.48
403.107	726.05
403.486	732.38
403.864	744.81
404.242	742.1
404.62	785.26
404.999	778.71
405.377	801.31
405.755	791.59
406.133	808.09
406.511	827.29
406.889	856.45
407.267	840.18
407.645	863.68
408.023	891.47
408.401	902.55
408.779	923.34
409.156	912.49
409.534	964.69
409.912	967.4
410.29	972.83
410.667	1018.48
411.045	1014.63
411.422	1053.73
411.8	1068.42
412.178	1074.52
412.555	1101.64
412.933	1122.2
413.31	1141.18
413.687	1133.05
414.065	1179.6
414.442	1174.63
414.819	1206.04
415.197	1210.56
415.574	1233.39
415.951	1291.92
416.328	1297.79
416.705	1284.01
417.082	1340.5
417.46	1327.17
417.837	1330.78
418.214	1369.65
418.591	1385.02
418.967	1391.12
419.344	1413.95
419.721	1428.63
420.098	1451.91
420.475	1472.25
420.852	1486.94
421.228	1512.7
421.605	1512.02
421.982	1536.43
422.358	1566.48
422.735	1597.22
423.111	1578.46
423.488	1633.15
423.864	1612.58
424.241	1672.7
424.617	1661.4
424.994	1716.08
425.37	1715.86
425.746	1712.47
426.123	1739.81
426.499	1765.12
426.875	1776.2
427.251	1818.91
427.627	1838.12
428.003	1871.33
428.379	1896.65
428.756	1923.09
429.132	1942.97
429.507	1987.49
429.883	2028.84
430.259	2062.52
430.635	2046.47
431.011	2101.39
431.387	2107.94
431.763	2131.22
432.138	2191.55
432.514	2241.95
432.89	2244.66
433.265	2262.96
433.641	2308.84
434.016	2327.59
434.392	2406.01
434.767	2419.34
435.143	2426.12
435.518	2458.21
435.894	2490.53
436.269	2539.79
436.644	2541.37
437.02	2581.6
437.395	2576.85
437.77	2608.72
438.145	2651.65
438.52	2692.56
438.895	2735.04
439.271	2710.63
439.646	2803.29
440.021	2807.81
440.395	2827.24
440.77	2803.74
441.145	2835.15
441.52	2919.22
441.895	2902.95
442.27	2923.96
442.645	2920.8
443.019	2988.59
443.394	2989.72
443.769	3029.72
444.143	3001.7
444.518	3100.23
444.892	3099.1
445.267	3094.35
445.641	3146.1
446.016	3189.04
446.39	3222.03
446.764	3193.56
447.139	3220.45
447.513	3269.26
447.887	3275.37
448.262	3291.64
448.636	3287.57
449.01	3340.9
449.384	3403.05
449.758	3408.02
450.132	3467.68
450.506	3484.85
450.88	3483.04
451.254	3491.63
451.628	3546.32
452.002	3619.31
452.376	3627.45
452.75	3663.83
453.123	3672.87
453.497	3764.84
453.871	3766.43
454.244	3848.46
454.618	3896.59
454.992	3950.6
455.365	3915.12
455.739	4036.25
456.112	4127.32
456.486	4155.57
456.859	4155.12
457.232	4280.99
457.606	4272.18
457.979	4313.76
458.352	4385.62
458.725	4458.61
459.099	4520.98
459.472	4621.32
459.845	4596.46
460.218	4665.84
460.591	4716.46
460.964	4717.14
461.337	4846.62
461.71	4898.37
462.083	4987.41
462.456	4968.65
462.829	5084.36
463.201	5118.26
463.574	5159.84
463.947	5198.93
464.32	5337.23
464.692	5405.48
465.065	5427.63
465.438	5471.92
465.81	5558.24
466.183	5626.94
466.555	5753.72
466.928	5795.3
467.3	5800.72
467.672	5899.7
468.045	6064.9
468.417	6091.34
468.789	6126.59
469.161	6228.51
469.534	6317.55
469.906	6476.41
470.278	6481.61
470.65	6611.32
471.022	6742.17
471.394	6802.28
471.766	6885.67
472.138	6993.01
472.51	7153.91
472.882	7170.63
473.253	7294.7
473.625	7460.57
473.997	7587.12
474.369	7634.12
474.74	7695.36
475.112	7855.36
475.484	8003.15
475.855	8165.63
476.227	8228.23
476.598	8461.67
476.97	8480.65
477.341	8770.36
477.713	8818.04
478.084	8944.37
478.455	9164.93
478.827	9206.96
479.198	9515.65
479.569	9479.27
479.94	9770.11
480.311	9888.07
480.682	10120.38
481.053	10290.55
481.424	10521.5
481.795	10545.46
482.166	10761.95
482.537	10953.36
482.908	11116.74
483.279	11250.98
483.65	11478.77
484.021	11749.04
484.391	11831.07
484.762	11926.21
485.133	12040.79
485.503	12245.75
485.874	12515.57
486.244	12665.4
486.615	12885.96
486.985	13013.64
487.356	13295.44
487.726	13432.61
488.097	13659.27
488.467	13784.02
488.837	13919.83
489.207	14142.2
489.578	14327.5
489.948	14526.82
490.318	14656.31
490.688	14758.23
491.058	15019.69
491.428	15195.5
491.798	15388.72
492.168	15708.03
492.538	15715.94
492.908	16018.99
493.278	16136.27
493.648	16091.07
494.017	16356.15
494.387	16489.93
494.757	16713.88
495.126	16912.07
495.496	16965.4
495.866	17102.12
496.235	17180.31
496.605	17486.07
496.974	17547.53
497.344	17661.65
497.713	17898.94
498.082	18001.31
498.452	18222.54
498.821	18283.33
499.19	18423.67
499.559	18507.06
499.928	18724
500.298	18877.67
500.667	18941.62
501.036	18946.59
501.405	19206.92
501.774	19203.99
502.143	19466.13
502.512	19552.68
502.88	19778.43
503.249	19771.2
503.618	19900.92
503.987	20067.24
504.356	20120.8
504.724	20314.92
505.093	20423.62
505.462	20568.02
505.83	20744.06
506.199	20847.79
506.567	21084.16
506.936	21093.43
507.304	21474.44
507.672	21588.33
508.041	21553.76
508.409	21718.04
508.777	21934.99
509.145	22225.15
509.514	22199.39
509.882	22414.98
510.25	22429.44
510.618	22657.91
510.986	22736.1
511.354	22916.88
511.722	23187.84
512.09	23398.68
512.458	23320.71
512.826	23581.27
513.193	23759.57
513.561	23890.64
513.929	23986.46
514.297	24275.27
514.664	24395.71
515.032	24619.89
515.4	24798.64
515.767	24942.37
516.135	25035.47
516.502	24998.64
516.869	25415.35
517.237	25566.53
517.604	25562.24
517.972	25919.74
518.339	26064.82
518.706	26190.24
519.073	26276.12
519.44	26649.89
519.808	26857.34
520.175	26880.62
520.542	27321.06
520.909	27368.52
521.276	27438.12
521.643	27772.8
522.009	27996.3
522.376	28099.57
522.743	28345.22
523.11	28562.61
523.477	28859.78
523.843	28978.87
524.21	29321.46
524.577	29441.68
524.943	29758.96
525.31	29847.77
525.676	30255.9
526.043	30280.31
526.409	30459.06
526.776	30889.33
527.142	31040.29
527.508	31214.74
527.874	31455.42
528.241	31662.64
528.607	31722.53
528.973	31985.57
529.339	32081.61
529.705	32492.45
530.071	32607.48
530.437	32764.53
530.803	32962.49
531.169	33148.93
531.535	33123.17
531.901	33460.33
532.267	33558.86
532.632	33631.86
532.998	33757.28
533.364	34056.25
533.73	34206.76
534.095	34427.32
534.461	34595.45
534.826	34777.59
535.192	34937.58
535.557	35147.52
535.923	35370.12
536.288	35314.3
536.653	35432.49
537.019	35480.62
537.384	35726.04
537.749	35880.38
538.114	35966.03
538.479	36051.91
538.845	36274.72
539.21	36285.12
539.575	36311.56
539.94	36640.59
540.305	36748.84
540.67	36750.87
541.034	36959.9
541.399	37080.35
541.764	37198.54
542.129	37386.33
542.494	37308.82
542.858	37598.98
543.223	37654.12
543.587	37954.45
543.952	37991.29
544.316	37987
544.681	38081
545.045	38330.94
545.41	38537.72
545.774	38588.34
546.138	38635.79
546.503	38756.92
546.867	38849.35
547.231	39139.73
547.595	39088.44
547.959	39200.07
548.324	39465.6
548.688	39486.39
549.052	39605.03
549.416	39656.1
549.779	39888.41
550.143	39864.46
550.507	40209.31
550.871	40437.33
551.235	40426.25
551.599	40757.09
551.962	40667.83
552.326	40939.23
552.689	41122.05
553.053	41029.63
553.417	41138.55
553.78	41771.75
554.143	41659.67
554.507	41737.63
554.87	41933.56
555.234	42206.32
555.597	42021.69
555.96	42130.84
556.323	42341.01
556.686	42501.23
557.05	42845.85
557.413	42960.88
557.776	43074.77
558.139	43252.62
558.502	43379.17
558.865	43494.65
559.228	43879.5
559.59	43957.23
559.953	44034.97
560.316	44409.65
560.679	44382.31
561.041	44787.27
561.404	44837.66
561.767	45208.05
562.129	45014.83
562.492	45397.42
562.854	45546.34
563.217	45499.57
563.579	45708.83
563.941	45956.96
564.304	46192.2
564.666	46524.85
565.028	46593.1
565.39	46605.07
565.753	46935.69
566.115	47022.46
566.477	47249.58
566.839	47257.49
567.201	47599.17
567.563	47568.44
567.925	47838.04
568.287	47795.78
568.648	47862.89
569.01	48181.08
569.372	48422.2
569.734	48227.86
570.095	48587.85
570.457	48689.09
570.819	48835.52
571.18	48952.13
571.542	48946.03
571.903	49131.11
572.265	49204.78
572.626	49375.17
572.987	49360.26
573.349	49557.31
573.71	49625.33
574.071	49753.69
574.432	49823.29
574.794	50065.55
575.155	50075.04
575.516	50010.63
575.877	50271.87
576.238	50287.01
576.599	50403.84
576.96	50393.22
577.32	50474.58
577.681	50617.17
578.042	50634.12
578.403	50614.91
578.763	50611.75
579.124	50690.62
579.485	50897.39
579.845	50996.14
580.206	50800.9
580.566	50962.02
580.927	50986.2
581.287	51089.25
581.648	51053.77
582.008	51164.95
582.368	51064.17
582.728	51157.5
583.089	51115.01
583.449	51007.67
583.809	51067.33
584.169	51232.07
584.529	51049.02
584.889	51266.19
585.249	51144.84
585.609	51036.82
585.969	51349.58
586.329	51128.8
586.688	51269.58
587.048	51182.35
587.408	51216.7
587.768	51126.54
588.127	51347.32
588.487	51133.09
588.846	51517.71
589.206	51135.8
589.565	51249.7
589.925	51305.97
590.284	51268.91
590.643	51396.81
591.003	51457.38
591.362	51484.27
591.721	51351.62
592.08	51420.99
592.44	51497.6
592.799	51472.52
593.158	51489.24
593.517	51529.92
593.876	51629.57
594.235	51434.78
594.593	51477.49
594.952	51501.89
595.311	51441.56
595.67	51527.43
596.029	51717.48
596.387	51739.18
596.746	51776.92
597.104	51654.66
597.463	51661.44
597.822	51759.74
598.18	51720.42
598.538	51534.66
598.897	51843.13
599.255	51594.32
599.613	52037.47
599.972	51876.8
600.33	51916.12
600.688	51761.55
601.046	51994.99
601.404	52032.73
601.762	51935.1
602.12	52105.04
602.478	52096.23
602.836	52081.09
603.194	52042.45
603.552	52044.93
603.91	51976.01
604.268	52124.93
604.625	52154.53
604.983	52235.89
605.341	52013.07
605.698	52201.09
606.056	52219.39
606.413	52212.16
606.771	52271.82
607.128	52382.32
607.485	52284.47
607.843	52331.93
608.2	52522.43
608.557	52554.75
608.914	52382.1
609.272	52568.98
609.629	52601.98
609.986	52692.15
610.343	52622.09
610.7	52850.11
611.057	52735.99
611.414	52811.46
611.771	52759.49
612.127	52861.63
612.484	52840.84
612.841	52897.11
613.198	52815.08
613.554	52903.89
613.911	53018.46
614.267	53069.08
614.624	52986.83
614.98	53020.27
615.337	53133.49
615.693	53177.33
616.05	53155.18
616.406	53291.68
616.762	53113.6
617.118	53105.92
617.475	53182.08
617.831	53303.88
618.187	53335.29
618.543	53372.13
618.899	53500.94
619.255	53444.89
619.611	53457.78
619.967	53532.12
620.323	53575.51
620.678	53468.17
621.034	53394.73
621.39	53420.26
621.746	53290.55
622.101	53686.7
622.457	53446.48
622.812	53486.02
623.168	53609.64
623.523	53585.68
623.879	53709.97
624.234	53532.58
624.589	53504.55
624.945	53577.32
625.3	53594.72
625.655	53484.22
626.01	53558.56
626.365	53611.9
626.72	53564.67
627.075	53528.28
627.43	53519.69
627.785	53464.78
628.14	53575.51
628.495	53558.34
628.85	53456.65
629.205	53393.6
629.559	53558.79
629.914	53359.92
630.269	53478.79
630.623	53309.98
630.978	53270.21
631.332	53371.22
631.687	53412.58
632.041	53275.18
632.396	53304.11
632.75	53162.64
633.104	53246.26
633.459	53070.67
633.813	53130.55
634.167	53127.61
634.521	53053.04
634.875	53180.04
635.229	52978.47
635.583	52802.65
635.937	52952.48
636.291	52799.71
636.645	52861.86
636.999	52807.85
637.352	52850.11
637.706	52679.26
638.06	52867.96
638.413	52739.6
638.767	52597.23
639.121	52710.9
639.474	52531.92
639.828	52462.77
640.181	52541.64
640.534	52482.21
640.888	52424.36
641.241	52328.77
641.594	52412.15
641.947	52391.14
642.301	52368.31
642.654	52320.63
643.007	52324.92
643.36	52133.74
643.713	52185.49
644.066	52268.65
644.419	52030.69
644.771	51882
645.124	51597.49
645.477	51461.22
645.83	51341.9
646.182	51117.5
646.535	51008.57
646.888	51038.86
647.24	50920.44
647.593	51142.81
647.945	51021.23
648.298	50839.76
648.65	50734.46
649.002	50590.28
649.355	50795.02
649.707	50738.75
650.059	50767.22
650.411	51336.25
650.763	51238.62
651.115	51560.2
651.467	51436.36
651.819	51472.29
652.171	51251.05
652.523	51303.71
652.875	51303.48
653.227	51055.8
653.578	51383.93
653.93	51245.18
654.282	51151.4
654.633	50997.27
654.985	51069.36
655.337	51061.68
655.688	50979.87
656.039	51033.43
656.391	50909.14
656.742	50934
657.094	50889.48
657.445	51031.62
657.796	50896.49
658.147	50899.2
658.498	50950.95
658.849	50956.6
659.2	50786.66
659.551	50757.96
659.902	51013.77
660.253	50818.75
660.604	50901.46
660.955	50631.86
661.306	50868.01
661.656	50758.86
662.007	50747.79
662.358	50725.19
662.708	50623.73
663.059	50633.44
663.409	50440.45
663.76	50592.77
664.11	50688.13
664.461	50628.47
664.811	50533.11
665.161	50640.45
665.511	50539.66
665.862	50609.94
666.212	50684.51
666.562	50605.65
666.912	50467.8
667.262	50476.84
667.612	50435.48
667.962	50463.28
668.312	50341.92
668.662	50483.16
669.011	50431.64
669.361	50414.69
669.711	50371.75
670.06	50230.52
670.41	50274.36
670.76	50140.57
671.109	50353.45
671.459	50314.36
671.808	50197.97
672.157	50191.65
672.507	50001.37
672.856	49997.98
673.205	50072.1
673.554	50097.19
673.904	50100.12
674.253	50308.25
674.602	50043.18
674.951	49587.59
675.3	49320.48
675.649	49783.07
675.998	49887.25
676.346	49765.22
676.695	49903.29
677.044	49663.75
677.393	49828.04
677.741	49761.83
678.09	49679.8
678.438	49588.95
678.787	49696.74
679.135	49677.99
679.484	49390.76
679.832	49658.33
680.181	49423.98
680.529	49405.9
680.877	49386.47
681.225	49434.15
681.573	49633.02
681.922	49290.65
682.27	49060.15
682.618	49104.67
682.966	49089.98
683.314	49124.33
683.661	49008.85
684.009	48842.08
684.357	48711.01
684.705	48673.72
685.053	48729.54
685.4	48634.17
685.748	48419.72
686.095	48384.69
686.443	48259.04
686.79	48132.04
687.138	48324.8
687.485	48300.62
687.832	48093.62
688.18	48173.85
688.527	47954.64
688.874	47994.42
689.221	47883.23
689.568	47931.82
689.915	47644.59
690.262	47680.98
690.609	47525.05
690.956	47402.12
691.303	47391.72
691.65	47141.11
691.997	47067.43
692.344	46882.13
692.69	46886.87
693.037	46950.15
693.383	46511.29
693.73	46742.25
694.077	46488.24
694.423	46502.03
694.769	46376.38
695.116	46301.13
695.462	46153.79
695.808	46046.22
696.155	46102.94
696.501	45647.81
696.847	45827.92
697.193	45496.4
697.539	45597.87
697.885	45319.23
698.231	45262.06
698.577	45247.37
698.923	45263.87
699.269	45064.32
699.614	44772.35
699.96	44756.99
700.306	44694.16
700.651	44553.15
700.997	44304.12
701.342	44347.28
701.688	44243.33
702.033	44109.77
702.379	44209.66
702.724	43963.56
703.069	44129.66
703.415	43649.67
703.76	43582.78
704.105	43519.51
704.45	43465.04
704.795	43279.74
705.14	43028.67
705.485	43188.67
705.83	43059.86
706.175	43057.6
706.52	42811.73
706.865	42704.61
707.209	42596.82
707.554	42486.76
707.899	42565.63
708.243	42364.06
708.588	42329.71
708.932	42036.15
709.277	42051.97
709.621	42094.23
709.966	41872.09
710.31	41922.49
710.654	41586.67
710.998	41585.32
711.342	41636.62
711.687	41504.42
712.031	41314.37
712.375	41190.08
712.719	41324.08
713.063	41027.37
713.407	41236.63
713.75	40845
714.094	40816.07
714.438	40683.2
714.782	40912.12
715.125	40629.86
715.469	40630.54
715.812	40396.65
716.156	40166.83
716.499	40296.09
716.843	40228.74
717.186	40002.08
717.53	40198.69
717.873	40083.21
718.216	39947.85
718.559	39902.88
718.902	39699.04
719.246	39742.2
719.589	39658.36
719.932	39457.92
720.275	39430.8
720.617	39411.36
720.96	39370.69
721.303	39243.69
721.646	39318.94
721.989	39014.31
722.331	39176.57
722.674	39009.57
723.016	38895.9
723.359	38763.02
723.701	38842.57
724.044	38674.21
724.386	38380.66
724.729	38689.35
725.071	38423.59
725.413	38488
725.755	38433.76
726.097	38355.8
726.439	38031.97
726.782	38172.53
727.124	38354.22
727.465	38036.26
727.807	37998.97
728.149	37962.14
728.491	37816.83
728.833	37765.76
729.175	37751.52
729.516	37723.5
729.858	37650.73
730.199	37710.84
730.541	37394.69
730.882	37394.24
731.224	37449.61
731.565	37253
731.906	37241.03
732.248	37327.8
732.589	37182.95
732.93	37003.52
733.271	37161.71
733.612	37010.52
733.953	37020.02
734.294	36870.87
734.635	36806.91
734.976	36815.5
735.317	36638.56
735.658	36664.54
735.999	36566.47
736.339	36504.77
736.68	36534.15
737.021	36416.87
737.361	36264.1
737.702	36478.11
738.042	36237.44
738.383	36275.85
738.723	36209.64
739.063	36039.93
739.404	36130.55
739.744	36102.75
740.084	35898.24
740.424	36137.55
740.764	35747.51
741.104	35916.09
741.444	35720.84
741.784	35473.62
742.124	35613.27
742.464	35553.61
742.804	35635.19
743.143	35296.67
743.483	35425.48
743.823	35185.94
744.162	35292.83
744.502	35108.2
744.841	34994.08
745.181	35149.78
745.52	34930.13
745.86	35010.12
746.199	34860.07
746.538	34752.5
746.877	34891.48
747.216	34820.07
747.556	34853.07
747.895	34702.56
748.234	34614.2
748.573	34504.15
748.911	34465.51
749.25	34456.92
749.589	34155.01
749.928	34196.13
750.267	34260.09
750.605	34092.86
750.944	33895.35
751.283	33913.66
751.621	33931.51
751.96	33696.71
752.298	33743.04
752.636	33780.1
752.975	33554.34
753.313	33431.64
753.651	33579.2
753.989	33440
754.327	33277.06
754.666	33219.21
755.004	33191.64
755.342	33190.96
755.679	33194.81
756.017	32851.54
756.355	32912.33
756.693	32767.47
757.031	32818.77
757.368	32654.48
757.706	32528.16
758.044	32523.18
758.381	32504.65
758.719	32325.22
759.056	32342.62
759.394	32116.42
759.731	31876.42
760.068	31961.62
760.405	31841.39
760.743	31733.37
761.08	31836.65
761.417	31628.07
761.754	31569.31
762.091	31303.78
762.428	31278.47
762.765	31213.39
763.102	31284.57
763.438	31028.53
763.775	31014.98
764.112	30868.09
764.449	30994.64
764.785	30751.93
765.122	30472.16
765.458	30313.75
765.795	30415.22
766.131	30264.94
766.467	30194.21
766.804	29960.77
767.14	29903.82
767.476	29901.56
767.812	29800.54
768.148	29730.04
768.485	29489.14
768.821	29538.18
769.157	29439.2
769.492	29394
769.828	29327.34
770.164	28937.29
770.5	28984.75
770.836	28970.06
771.171	28707.92
771.507	28635.38
771.842	28513.57
772.178	28461.6
772.513	28419.56
772.849	28370.07
773.184	28188.61
773.519	28126.46
773.855	27933.02
774.19	27914.49
774.525	27665.68
774.86	27799.69
775.195	27712.92
775.53	27607.61
775.865	27382.98
776.2	27323.77
776.535	27046.27
776.87	27091.01
777.205	27042.65
777.539	26889.43
777.874	26825.26
778.209	26645.37
778.543	26550.01
778.878	26478.82
779.212	26494.19
779.547	26263.24
779.881	26274.76
780.215	26098.49
780.55	26060.76
780.884	25927.65
781.218	25880.42
781.552	25888.33
781.886	25741.89
782.22	25519.75
782.554	25534.67
782.888	25208.57
783.222	25205.18
783.556	25071.4
783.889	25072.31
784.223	24837.74
784.557	24954.34
784.89	24843.16
785.224	24665.54
785.557	24595.03
785.891	24573.79
786.224	24406.34
786.558	24391.87
786.891	24150.52
787.224	24189.39
787.557	24026.68
787.891	23969.96
788.224	24029.62
788.557	24053.35
788.89	23808.84
789.223	23704.66
789.556	23589.41
789.888	23539.47
790.221	23469.19
790.554	23339.92
790.887	23315.06
791.219	23257.89
791.552	23182.64
791.884	22992.81
792.217	22941.74
792.549	22906.94
792.882	22633.95
793.214	22638.92
793.546	22619.26
793.879	22495.43
794.211	22417.69
794.543	22433.28
794.875	22371.36
795.207	22433.05
795.539	22228.31
795.871	22257.01
796.203	22042.1
796.535	21860.64
796.867	21912.39
797.198	21737.25
797.53	21809.12
797.862	21628.78
798.193	21766.86
798.525	21511.04
798.856	21445.28
799.188	21345.85
799.519	21255.23
799.85	21132.07
800.182	21130.26
800.513	21158.74
800.844	20933.88
801.175	21061.34
801.506	21053.66
801.837	20815.47
802.168	20775.24
802.499	20708.58
802.83	20541.58
803.161	20609.6
803.491	20484.86
803.822	20551.07
804.153	20361.7
804.483	20272.21
804.814	20195.6
805.145	20237.41
805.475	20190.85
805.805	20043.06
806.136	20069.05
806.466	19985.66
806.796	19916.28
807.126	19822.73
807.457	19757.64
807.787	19792.22
808.117	19660.7
808.447	19563.53
808.777	19610.98
809.107	19384.32
809.436	19400.14
809.766	19352.01
810.096	19349.07
810.426	19193.82
810.755	19264.55
811.085	19184.1
811.414	19251.22
811.744	19048.74
812.073	18992.24
812.403	18968.51
812.732	18846.93
813.061	18964.22
813.39	18845.8
813.719	18691.91
814.049	18784.79
814.378	18705.02
814.707	18713.38
815.036	18623.44
815.365	18564.68
815.693	18346.38
816.022	18381.41
816.351	18359.04
816.68	18185.48
817.008	18225.03
817.337	18160.4
817.665	18037.24
817.994	18142.55
818.322	18129.66
818.651	17966.96
818.979	17963.57
819.307	18084.24
819.636	17907.52
819.964	17896.68
820.292	17925.83
820.62	17824.81
820.948	17738.26
821.276	17838.6
821.604	17772.39
821.932	17809.9
822.259	17801.09
822.587	17860.52
822.915	17674.54
823.243	17824.36
823.57	17659.17
823.898	17751.37
824.225	17510.92
824.553	17652.61
824.88	17676.8
825.207	17713.63
825.535	17599.96
825.862	17752.95
826.189	17600.41
826.516	17788.2
826.843	17763.8
827.17	17690.35
827.497	17625.95
827.824	17646.06
828.151	17765.15
828.478	17621.66
828.805	17750.01
829.131	17671.15
829.458	17608.55
829.785	17534.43
830.111	17623.24
830.438	17626.85
830.764	17604.71
831.09	17594.99
831.417	17612.84
831.743	17571.26
832.069	17609
832.395	17449.23
832.722	17538.72
833.048	17474.09
833.374	17525.61
833.7	17465.95
834.026	17442.22
834.351	17474.77
834.677	17448.55
835.003	17398.16
835.329	17416.24
835.654	17388.22
835.98	17317.48
836.306	17263.25
836.631	17249.69
836.956	17269.12
837.282	17224.83
837.607	17212.85
837.932	17153.65
838.258	17204.72
838.583	17140.31
838.908	17036.36
839.233	17131.72
839.558	16990.26
839.883	16992.52
840.208	16877.04
840.533	16762.47
840.858	16897.61
841.182	16796.14
841.507	16783.49
841.832	16792.52
842.156	16738.29
842.481	16739.64
842.805	16664.17
843.13	16608.12
843.454	16529.03
843.778	16574.23
844.103	16430.27
844.427	16377.39
844.751	16296.72
845.075	16325.19
845.399	16340.56
845.723	16234.8
846.047	16255.59
846.371	16137.17
846.695	16164.52
847.019	15965.2
847.343	15942.83
847.666	15839.1
847.99	15798.88
848.313	15703.06
848.637	15664.42
848.96	15582.61
849.284	15699.45
849.607	15398.89
849.931	15440.47
850.254	15255.62
850.577	15228.95
850.9	15076.19
851.223	15157.77
851.546	15084.09
851.869	14966.36
852.192	15070.99
852.515	14882.52
852.838	14801.39
853.161	14836.19
853.483	14788.28
853.806	14645.24
854.129	14711.22
854.451	14578.57
854.774	14485.01
855.096	14574.05
855.419	14383.1
855.741	14445.47
856.063	14290.44
856.385	14281.63
856.708	14198.24
857.03	14234.85
857.352	14127.06
857.674	14119.37
857.996	14027.63
858.318	13997.12
858.64	14020.62
858.961	14044.8
859.283	13915.09
859.605	13883
859.926	13926.39
860.248	13894.07
860.57	13734.98
860.891	13723.68
861.212	13739.05
861.534	13684.58
861.855	13708.31
862.176	13574.08
862.498	13626.96
862.819	13598.94
863.14	13611.59
863.461	13577.24
863.782	13385.83
864.103	13520.97
864.424	13389
864.745	13471.48
865.065	13339.96
865.386	13273.07
865.707	13278.04
866.027	13243.01
866.348	13291.15
866.668	13266.74
866.989	13187.42
867.309	13106.75
867.63	13119.85
867.95	13079.63
868.27	12977.71
868.59	13044.37
868.91	12955.11
869.23	12960.99
869.55	12974.77
869.87	13004.83
870.19	12943.36
870.51	12999.4
870.83	12973.87
871.15	12863.14
871.469	12832.85
871.789	12911.5
872.109	12831.05
872.428	12712.18
872.748	12765.29
873.067	12738.85
873.386	12742.69
873.706	12735
874.025	12646.42
874.344	12634.67
874.663	12637.38
874.982	12600.09
875.301	12601.9
875.62	12530.72
875.939	12456.82
876.258	12513.99
876.577	12416.82
876.896	12469.25
877.214	12469.25
877.533	12387.22
877.852	12345.18
878.17	12410.27
878.489	12474.9
878.807	12372.08
879.125	12392.41
879.444	12300.67
879.762	12231.29
880.08	12209.37
880.398	12252.98
880.716	12268.12
881.034	12267.9
881.352	12169.14
881.67	12202.14
881.988	12196.04
882.306	12102.03
882.624	12038.53
882.941	12090.05
883.259	12060.9
883.577	12001.01
883.894	11925.76
884.212	12008.24
884.529	11901.81
884.846	11904.52
885.164	11884.18
885.481	11817.06
885.798	11866.1
886.115	11759.44
886.432	11727.35
886.75	11712.43
887.067	11743.39
887.383	11618.88
887.7	11628.82
888.017	11529.39
888.334	11586.33
888.651	11575.71
888.967	11541.82
889.284	11489.16
889.6	11462.72
889.917	11412.33
890.233	11454.59
890.55	11344.76
890.866	11366.23
891.182	11263.63
891.498	11316.51
891.815	11156.74
892.131	11111.77
892.447	11098.21
892.763	11098.44
893.079	11029.29
893.395	11106.35
893.71	11014.82
894.026	10999.23
894.342	10914.49
894.657	10885.11
894.973	10836.52
895.289	10858.9
895.604	10813.02
895.92	10708.16
896.235	10725.57
896.55	10726.02
896.865	10690.54
897.181	10719.92
897.496	10637.88
897.811	10527.15
898.126	10526.02
898.441	10438.34
898.756	10463.2
899.071	10322.41
899.386	10360.83
899.7	10301.62
900.015	10248.97
900.33	10250.55
900.644	10187.27
900.959	10270.21
901.273	10160.83
901.588	10096.88
901.902	10065.24
902.216	10053.94
902.531	9984.57
902.845	9916.1
903.159	9862.31
903.473	9893.27
903.787	9878.13
904.101	9791.13
904.415	9827.96
904.729	9788.41
905.042	9733.5
905.356	9757.23
905.67	9662.77
905.984	9672.71
906.297	9566.05
906.611	9484.24
906.924	9524.02
907.237	9513.85
907.551	9459.16
907.864	9436.56
908.177	9358.6
908.491	9342.55
908.804	9312.95
909.117	9234.31
909.43	9182.78
909.743	9094.87
910.056	9111.14
910.368	9137.81
910.681	9101.2
910.994	9034.54
911.307	8953.63
911.619	8898.95
911.932	8930.58
912.244	8878.16
912.557	8882.45
912.869	8834.77
913.181	8731.04
913.494	8681.33
913.806	8692.17
914.118	8637.71
914.43	8614.21
914.742	8610.59
915.054	8590.71
915.366	8491.95
915.678	8440.65
915.99	8468.9
916.302	8367.89
916.613	8377.38
916.925	8271.17
917.236	8376.02
917.548	8242.92
917.859	8192.98
918.171	8247.21
918.482	8199.76
918.794	8153.88
919.105	8152.07
919.416	8036.6
919.727	8081.57
920.038	7975.58
920.349	7935.58
920.66	7856.26
920.971	7940.33
921.282	7832.76
921.593	7807
921.903	7794.12
922.214	7720.67
922.525	7688.81
922.835	7689.04
923.146	7619.43
923.456	7671.18
923.767	7491.07
924.077	7569.04
924.387	7595.48
924.697	7481.36
925.008	7477.74
925.318	7412.88
925.628	7399.33
925.938	7362.26
926.248	7292.44
926.558	7229.61
926.867	7291.76
927.177	7200.46
927.487	7183.29
927.796	7060.13
928.106	7133.12
928.416	7058.32
928.725	7016.96
929.034	7045.66
929.344	7008.83
929.653	7007.92
929.962	6878.43
930.271	6853.58
930.581	6840.02
930.89	6791.43
931.199	6792.34
931.508	6763.86
931.817	6779.91
932.125	6736.52
932.434	6702.39
932.743	6640.48
933.051	6649.51
933.36	6613.36
933.669	6534.94
933.977	6526.58
934.286	6513.92
934.594	6505.34
934.902	6503.76
935.21	6409.52
935.519	6428.96
935.827	6359.8
936.135	6354.38
936.443	6281.84
936.751	6293.59
937.059	6269.86
937.367	6227.38
937.674	6210.66
937.982	6195.74
938.29	6141.05
938.597	6148.28
938.905	6061.51
939.213	6070.77
939.52	6046.14
939.827	6026.25
940.135	5983.54
940.442	5999.59
940.749	5936.99
941.056	5904.9
941.363	5897.9
941.67	5851.8
941.977	5870.1
942.284	5781.97
942.591	5786.26
942.898	5796.88
943.205	5751.46
943.511	5722.53
943.818	5708.75
944.125	5684.12
944.431	5652.93
944.738	5633.27
945.044	5571.35
945.35	5568.19
945.657	5569.09
945.963	5539.49
946.269	5478.25
946.575	5521.63
946.881	5441.18
947.187	5447.06
947.493	5406.16
947.799	5361.64
948.105	5339.49
948.41	5307.63
948.716	5362.54
949.022	5255.65
949.327	5303.34
949.633	5233.73
949.938	5208.65
950.244	5240.96
950.549	5207.52
950.854	5164.13
951.16	5180.4
951.465	5150.57
951.77	5070.8
952.075	5061.31
952.38	5108.99
952.685	5034.64
952.99	4934.53
953.294	5020.86
953.599	4932.5
953.904	4928.66
954.209	4953.74
954.513	4920.52
954.818	4906.06
955.122	4841.88
955.426	4791.71
955.731	4842.56
956.035	4772.95
956.339	4724.82
956.643	4738.83
956.948	4700.87
957.252	4726.63
957.556	4644.6
957.86	4678.27
958.163	4653.41
958.467	4597.14
958.771	4581.32
959.075	4574.77
959.378	4518.27
959.682	4551.04
959.985	4518.72
960.289	4475.33
960.592	4468.55
960.896	4428.1
961.199	4429.46
961.502	4438.73
961.805	4429.01
962.108	4349.24
962.411	4368.9
962.714	4330.48
963.017	4306.75
963.32	4302.46
963.623	4287.54
963.926	4273.76
964.228	4254.1
964.531	4229.47
964.833	4235.34
965.136	4214.1
965.438	4117.6
965.741	4172.07
966.043	4167.77
966.345	4085.74
966.648	4106.53
966.95	4118.73
967.252	4006.42
967.554	4013.65
967.856	3990.15
968.158	4000.77
968.46	3967.78
968.761	3956.7
969.063	3966.65
969.365	3908.57
969.666	3957.38
969.968	3868.8
970.269	3877.38
970.571	3832.64
970.872	3862.47
971.174	3809.82
971.475	3823.15
971.776	3779.08
972.077	3705.86
972.378	3778.86
972.679	3699.08
972.98	3740.66
973.281	3755.81
973.582	3736.14
973.883	3685.98
974.183	3644.4
974.484	3617.73
974.785	3643.94
975.085	3597.84
975.386	3568.24
975.686	3604.17
975.986	3566.43
976.287	3565.3
976.587	3548.13
976.887	3515.36
977.187	3515.36
977.487	3509.03
977.787	3494.8
978.087	3468.36
978.387	3454.57
978.687	3443.95
978.987	3444.85
979.286	3373.44
979.586	3413.67
979.885	3374.8
980.185	3364.4
980.484	3334.12
980.784	3335.25
981.083	3347.23
981.382	3317.85
981.682	3325.53
981.981	3247.12
982.28	3251.86
982.579	3191.98
982.878	3223.62
983.177	3213.45
983.475	3197.63
983.774	3163.96
984.073	3151.3
984.372	3123.73
984.67	3135.26
984.969	3137.29
985.267	3107.91
985.566	3065.2
985.864	3074.02
986.162	3057.52
986.461	3049.84
986.759	3013.23
987.057	3021.81
987.355	2979.55
987.653	2987.92
987.951	2987.92
988.249	2951.53
988.547	2918.99
988.844	2912.44
989.142	2919.44
989.44	2901.59
989.737	2916.51
990.035	2900.46
990.332	2854.59
990.63	2860.69
990.927	2867.47
991.224	2827.69
991.521	2828.37
991.819	2803.06
992.116	2797.19
992.413	2798.54
992.71	2771.65
993.006	2753.8
993.303	2735.95
993.6	2756.06
993.897	2721.93
994.193	2680.58
994.49	2704.53
994.787	2645.78
995.083	2643.74
995.379	2636.29
995.676	2637.19
995.972	2622.95
996.268	2609.17
996.565	2587.02
996.861	2557.64
997.157	2542.5
997.453	2533.69
997.749	2504.54
998.044	2520.36
998.34	2522.62
998.636	2485.1
998.932	2488.04
999.227	2468.38
999.523	2487.59
999.818	2411.89
1000.114	2431.77
1000.409	2410.53
1000.704	2384.77
1001	2398.55
1001.295	2367.59
1001.59	2375.28
1001.885	2363.3
1002.18	2338.44
1002.475	2345.22
1002.77	2321.72
1003.065	2267.03
1003.359	2302.06
1003.654	2269.06
1003.949	2281.95
1004.243	2241.04
1004.538	2241.27
1004.832	2218.44
1005.127	2201.95
1005.421	2185.45
1005.715	2189.29
1006.009	2193.59
1006.304	2170.08
1006.598	2147.71
1006.892	2117.2
1007.186	2133.7
1007.48	2151.1
1007.773	2092.12
1008.067	2078.11
1008.361	2062.29
1008.655	2044.89
1008.948	2054.83
1009.242	2032.91
1009.535	1996.3
1009.829	2012.35
1010.122	2003.76
1010.415	2014.83
1010.708	2001.28
1011.001	1942.29
1011.295	1945.46
1011.588	1947.72
1011.881	1917.89
1012.173	1951.33
1012.466	1932.8
1012.759	1882.86
1013.052	1837.66
1013.344	1856.65
1013.637	1849.19
1013.93	1861.39
1014.222	1842.41
1014.514	1810.09
1014.807	1809.42
1015.099	1850.54
1015.391	1801.73
1015.683	1787.95
1015.976	1769.64
1016.268	1749.08
1016.56	1766.48
1016.851	1733.26
1017.143	1722.64
1017.435	1716.08
1017.727	1688.29
1018.018	1702.75
1018.31	1705.24
1018.602	1656.88
1018.893	1647.84
1019.185	1648.97
1019.476	1635.41
1019.767	1644.9
1020.058	1615.07
1020.35	1600.61
1020.641	1590.66
1020.932	1585.69
1021.223	1578.24
1021.514	1569.65
1021.804	1558.57
1022.095	1557.22
1022.386	1500.05
1022.677	1521.51
1022.967	1485.81
1023.258	1501.18
1023.548	1511.57
1023.839	1483.1
1024.129	1465.47
1024.419	1460.27
1024.709	1459.37
1025	1418.01
1025.29	1444.68
1025.58	1437.9
1025.87	1408.07
1026.16	1398.13
1026.449	1401.97
1026.739	1368.98
1027.029	1380.27
1027.319	1361.29
1027.608	1383.66
1027.898	1371.91
1028.187	1324.23
1028.477	1317.68
1028.766	1317.9
1029.055	1314.74
1029.344	1342.76
1029.634	1315.87
1029.923	1316.1
1030.212	1281.75
1030.501	1279.49
1030.79	1240.84
1031.078	1255.31
1031.367	1267.28
1031.656	1243.1
1031.945	1233.61
1032.233	1240.17
1032.522	1209.43
1032.81	1199.26
1033.099	1201.07
1033.387	1177.12
1033.675	1191.35
1033.963	1154.52
1034.251	1146.83
1034.54	1142.99
1034.828	1148.87
1035.116	1157.23
1035.403	1114.52
1035.691	1118.81
1035.979	1088.98
1036.267	1113.61
1036.554	1058.93
1036.842	1075.42
1037.129	1060.51
1037.417	1076.78
1037.704	1094.18
1037.992	1051.24
1038.279	1048.98
1038.566	1049.89
1038.853	1049.89
1039.14	1049.89
