Data from breadboard_white_FLMS001491_00046.txt Node
Date: Wed Feb 08 10:47:47 GMT 2017
User: dcchb
Spectrometer: FLMS00149
Trigger mode: 0
Integration Time (sec): 2.000000E-2
Scans to average: 10
Electric dark correction enabled: true
Nonlinearity correction enabled: false
Boxcar width: 0
XAxis mode: Wavelengths
Number of Pixels in Spectrum: 2048
>>>>>Begin Spectral Data<<<<<
341.393	-18.78
341.776	-18.78
342.16	-18.78
342.543	-39.12
342.927	-35.28
343.31	-79.8
343.693	-90.87
344.077	-70.76
344.46	-49.29
344.843	-54.26
345.226	-25.56
345.61	-25.56
345.993	-8.16
346.376	10.14
346.759	-7.03
347.142	33.42
347.525	42
347.908	49.46
348.291	69.57
348.674	98.73
349.057	107.99
349.44	147.09
349.823	143.7
350.206	167.65
350.588	218.05
350.971	216.69
351.354	231.83
351.737	246.97
352.119	268.89
352.502	262.56
352.884	288.78
353.267	314.31
353.65	311.6
354.032	316.35
354.414	304.37
354.797	329.23
355.179	340.08
355.562	341.43
355.944	326.29
356.326	359.51
356.709	370.36
357.091	352.5
357.473	361.54
357.855	374.2
358.238	354.76
358.62	346.86
359.002	343.69
359.384	355.22
359.766	354.54
360.148	384.82
360.53	380.53
360.912	347.31
361.294	367.42
361.676	359.28
362.057	343.92
362.439	367.65
362.821	368.55
363.203	352.28
363.584	327.19
363.966	354.09
364.348	354.76
364.729	325.16
365.111	354.99
365.493	338.27
365.874	328.55
366.256	366.97
366.637	339.17
367.019	350.25
367.4	346.63
367.781	329.23
368.163	346.4
368.544	330.13
368.925	339.17
369.306	344.14
369.688	357.48
370.069	336.46
370.45	344.37
370.831	352.05
371.212	367.87
371.593	334.43
371.974	365.61
372.355	350.92
372.736	359.74
373.117	354.76
373.498	351.83
373.879	350.25
374.26	353.86
374.641	366.52
375.021	366.29
375.402	345.5
375.783	334.65
376.163	361.77
376.544	372.84
376.925	354.76
377.305	356.8
377.686	370.36
378.066	373.75
378.447	373.52
378.827	371.04
379.208	396.12
379.588	375.1
379.968	372.17
380.349	377.14
380.729	381.43
381.109	387.98
381.489	389.79
381.87	397.02
382.25	400.64
382.63	410.58
383.01	403.58
383.39	394.54
383.77	383.24
384.15	401.77
384.53	391.15
384.91	421.2
385.29	428.89
385.67	415.1
386.049	435.67
386.429	430.92
386.809	427.31
387.189	434.76
387.568	455.55
387.948	421.2
388.328	441.54
388.707	438.6
389.087	434.08
389.466	470.69
389.846	463.46
390.225	461.43
390.605	475.67
390.984	473.86
391.363	466.85
391.743	491.71
392.122	490.81
392.501	497.81
392.881	505.72
393.26	537.58
393.639	517.25
394.018	512.27
394.397	531.71
394.776	521.09
395.155	541.65
395.534	548.43
395.913	542.78
396.292	557.7
396.671	569.67
397.05	543.69
397.429	546.85
397.808	603.35
398.186	597.7
398.565	610.13
398.944	611.71
399.323	598.6
399.701	608.09
400.08	624.14
400.458	649.45
400.837	641.31
401.215	678.6
401.594	667.07
401.972	678.15
402.351	654.42
402.729	702.1
403.107	701.87
403.486	717.92
403.864	709.33
404.242	733.29
404.62	723.12
404.999	761.31
405.377	782.55
405.755	797.92
406.133	811.7
406.511	831.14
406.889	841.31
407.267	852.38
407.645	859.38
408.023	866.84
408.401	910.68
408.779	929.21
409.156	929.21
409.534	938.7
409.912	952.49
410.29	1005.6
410.667	1013.73
411.045	1013.28
411.422	1034.07
411.8	1051.7
412.178	1084.46
412.555	1098.7
412.933	1128.98
413.31	1136.44
413.687	1141.41
414.065	1171.92
414.442	1214.4
414.819	1211.69
415.197	1220.5
415.574	1254.4
415.951	1277.68
416.328	1311.58
416.705	1324.46
417.082	1338.69
417.46	1340.28
417.837	1350.22
418.214	1377.56
418.591	1424.79
418.967	1381.86
419.344	1419.6
419.721	1449.65
420.098	1474.06
420.475	1471.12
420.852	1501.63
421.228	1491.68
421.605	1543.66
421.982	1548.41
422.358	1578.01
422.735	1614.39
423.111	1586.82
423.488	1617.56
423.864	1642.41
424.241	1695.97
424.617	1730.1
424.994	1707.27
425.37	1741.62
425.746	1758.12
426.123	1762.86
426.499	1775.97
426.875	1794.5
427.251	1837.44
427.627	1877.21
428.003	1889.87
428.379	1918.79
428.756	1918.79
429.132	1996.98
429.507	2016.42
429.883	2011.22
430.259	2074.49
430.635	2086.47
431.011	2085.34
431.387	2169.63
431.763	2181.16
432.138	2214.38
432.514	2236.75
432.89	2249.63
433.265	2316.75
433.641	2355.39
434.016	2341.38
434.392	2407.37
434.767	2450.75
435.143	2444.2
435.518	2499.12
435.894	2519
436.269	2584.54
436.644	2599
437.02	2612.11
437.395	2617.08
437.77	2680.81
438.145	2765.55
438.52	2747.47
438.895	2758.54
439.271	2775.72
439.646	2873.12
440.021	2872.21
440.395	2871.31
440.77	2838.32
441.145	2883.96
441.52	2968.93
441.895	2953.11
442.27	2999.44
442.645	3000.57
443.019	3066.33
443.394	3108.59
443.769	3082.6
444.143	3093.9
444.518	3132.54
444.892	3142.71
445.267	3183.39
445.641	3206.44
446.016	3216.84
446.39	3251.86
446.764	3285.76
447.139	3274.69
447.513	3343.61
447.887	3291.41
448.262	3364.4
448.636	3360.34
449.01	3418.86
449.384	3450.95
449.758	3506.09
450.132	3532.31
450.506	3557.39
450.88	3570.27
451.254	3565.08
451.628	3657.73
452.002	3688.01
452.376	3711.74
452.75	3766.88
453.123	3806.65
453.497	3848.23
453.871	3879.64
454.244	3972.07
454.618	3988.57
454.992	4017.49
455.365	4065.18
455.739	4157.38
456.112	4222.23
456.486	4198.28
456.859	4278.05
457.232	4376.13
457.606	4313.98
457.979	4391.27
458.352	4476.01
458.725	4566.18
459.099	4587.2
459.472	4683.24
459.845	4741.32
460.218	4726.18
460.591	4824.7
460.964	4812.95
461.337	4919.16
461.71	5061.76
462.083	5094.98
462.456	5118.26
462.829	5159.61
463.201	5224.47
463.574	5280.96
463.947	5323.67
464.32	5411.13
464.692	5497.68
465.065	5542.2
465.438	5627.85
465.81	5726.15
466.183	5732.25
466.555	5892.02
466.928	5908.74
467.3	5976.76
467.672	6047.72
468.045	6204.55
468.417	6202.75
468.789	6321.84
469.161	6389.86
469.534	6448.84
469.906	6631.21
470.278	6610.65
470.65	6738.78
471.022	6874.82
471.394	6984.65
471.766	7059.45
472.138	7130.86
472.51	7280.01
472.882	7467.35
473.253	7531.53
473.625	7626.44
473.997	7795.92
474.369	7855.13
474.74	7929.25
475.112	8095.8
475.484	8228.23
475.855	8371.28
476.227	8445.85
476.598	8701.89
476.97	8725.17
477.341	8947.31
477.713	9108.43
478.084	9188.88
478.455	9427.97
478.827	9413.96
479.198	9768.08
479.569	9784.12
479.94	10055.3
480.311	10149.31
480.682	10308.85
481.053	10543.88
481.424	10833.59
481.795	10848.05
482.166	11052.11
482.537	11217.08
482.908	11438.54
483.279	11543.17
483.65	11845.54
484.021	12046.89
484.391	12191.74
484.762	12297.73
485.133	12462.24
485.503	12622.01
485.874	12862.91
486.244	13033.53
486.615	13305.84
486.985	13444.82
487.356	13606.85
487.726	13767.52
488.097	14003.9
488.467	14063.78
488.837	14438.24
489.207	14582.87
489.578	14782.63
489.948	14859.92
490.318	15134.49
490.688	15286.8
491.058	15482.5
491.428	15675.04
491.798	15865.32
492.168	16247
492.538	16223.05
492.908	16376.04
493.278	16582.81
493.648	16633.43
494.017	16894.89
494.387	17070.03
494.757	17214.21
495.126	17308.9
495.496	17505.5
495.866	17606.74
496.235	17773.74
496.605	17982.55
496.974	18081.08
497.344	18274.97
497.713	18415.76
498.082	18541.63
498.452	18723.1
498.821	18817.1
499.19	18926.03
499.559	19123.31
499.928	19136.42
500.298	19301.16
500.667	19557.88
501.036	19508.39
501.405	19762.39
501.774	19859.11
502.143	20009.62
502.512	20071.08
502.88	20347.69
503.249	20351.3
503.618	20608.24
503.987	20622.25
504.356	20868.12
504.724	20991.06
505.093	21069.7
505.462	21105.63
505.83	21338.17
506.199	21500.65
506.567	21852.05
506.936	21739.74
507.304	21997.13
507.672	22173.85
508.041	22282.32
508.409	22427.63
508.777	22580.17
509.145	22883.66
509.514	22941.29
509.882	23035.75
510.25	23195.97
510.618	23390.32
510.986	23369.53
511.354	23745.56
511.722	23892.68
512.09	23991.66
512.458	24157.53
512.826	24295.15
513.193	24501.25
513.561	24665.99
513.929	24878.19
514.297	25027.11
514.664	25205.64
515.032	25251.74
515.4	25538.28
515.767	25708
516.135	25809.91
516.502	25787.77
516.869	26305.95
517.237	26313.86
517.604	26326.06
517.972	26675.2
518.339	26905.7
518.706	26978.7
519.073	27262.53
519.44	27345.02
519.808	27631.79
520.175	27681.05
520.542	28262.73
520.909	28220.25
521.276	28226.57
521.643	28538.66
522.009	28635.38
522.376	28958.31
522.743	29296.6
523.11	29397.16
523.477	29852.07
523.843	29916.02
524.21	30204.6
524.577	30453.63
524.943	30596
525.31	30854.53
525.676	30999.61
526.043	31229.21
526.409	31399.37
526.776	31789.19
527.142	31898.79
527.508	31998.45
527.874	32258.33
528.241	32456.29
528.607	32642.28
528.973	33013.12
529.339	33031.65
529.705	33264.18
530.071	33567
530.437	33756.6
530.803	33980.32
531.169	34130.15
531.535	34038.85
531.901	34270.26
532.267	34473.64
532.632	34752.73
532.998	34802.22
533.364	35080.41
533.73	35165.37
534.095	35406.27
534.461	35491.02
534.826	35776.88
535.192	35946.6
535.557	36057.33
535.923	36134.39
536.288	36261.62
536.653	36489.41
537.019	36583.19
537.384	36771.66
537.749	36810.98
538.114	36839.68
538.479	37135.94
538.845	37326.9
539.21	37249.84
539.575	37442.6
539.94	37649.6
540.305	37867.68
540.67	37777.06
541.034	37976.15
541.399	38140.44
541.764	38015.92
542.129	38443.25
542.494	38361.9
542.858	38685.28
543.223	38617.71
543.587	38911.27
543.952	38906.29
544.316	39095.67
544.681	39111.94
545.045	39268.77
545.41	39452.95
545.774	39645.48
546.138	39659.49
546.503	39899.71
546.867	39795.99
547.231	40119.59
547.595	40196.88
547.959	40299.25
548.324	40356.2
548.688	40543.76
549.052	40714.83
549.416	40719.35
549.779	40893.81
550.143	40896.98
550.507	41392.1
550.871	41455.83
551.235	41408.37
551.599	41652.66
551.962	41863.96
552.326	41853.33
552.689	42140.11
553.053	41916.84
553.417	42192.31
553.78	42678.62
554.143	42499.19
554.507	42869.35
554.87	42882.69
555.234	43247.87
555.597	43064.6
555.96	43274.31
556.323	43442.9
556.686	43482.67
557.05	43828.88
557.413	44088.3
557.776	44052.6
558.139	44334.85
558.502	44399.71
558.865	44501.85
559.228	44906.81
559.59	44995.85
559.953	45015.51
560.316	45390.87
560.679	45376.41
561.041	45782.5
561.404	45938.88
561.767	46180.9
562.129	46037.63
562.492	46451.86
562.854	46489.6
563.217	46482.37
563.579	46797.16
563.941	46963.71
564.304	47074.89
564.666	47270.82
565.028	47463.36
565.39	47522.11
565.753	47656.8
566.115	47914.64
566.477	48059.05
566.839	48191.02
567.201	48566.38
567.563	48524.57
567.925	48806.82
568.287	48722.98
568.648	48963.88
569.01	49077.78
569.372	49379.46
569.734	49270.77
570.095	49576.07
570.457	49527.03
570.819	49673.02
571.18	49666.24
571.542	49876.85
571.903	49943.29
572.265	50082.04
572.626	50212.21
572.987	50254.92
573.349	50456.5
573.71	50424.63
574.071	50554.57
574.432	50698.53
574.794	50913.66
575.155	50847.67
575.516	50871.18
575.877	51002.47
576.238	51023.26
576.599	51150.94
576.96	51174.67
577.32	51203.6
577.681	51312.29
578.042	51360.43
578.403	51419.64
578.763	51391.84
579.124	51571.05
579.485	51720.42
579.845	51735.79
580.206	51671.61
580.566	51644.04
580.927	51733.75
581.287	51838.61
581.648	51670.7
582.008	51923.8
582.368	51793.86
582.728	51871.38
583.089	51825.5
583.449	51856.46
583.809	51911.38
584.169	51883.35
584.529	51976.23
584.889	52111.82
585.249	51890.36
585.609	51885.39
585.969	52090.58
586.329	52005.61
586.688	52127.64
587.048	52023.69
587.408	51924.93
587.768	51958.61
588.127	51988.21
588.487	51947.31
588.846	52229.11
589.206	51957.02
589.565	51967.64
589.925	52105.27
590.284	51902.56
590.643	52083.35
591.003	52222.78
591.362	52265.26
591.721	52312.72
592.08	52154.76
592.44	52231.59
592.799	52258.48
593.158	52191.14
593.517	52177.36
593.876	52230.24
594.235	52151.14
594.593	52221.65
594.952	52293.51
595.311	52127.87
595.67	52300.29
596.029	52493.51
596.387	52408.54
596.746	52568.08
597.104	52340.97
597.463	52296.22
597.822	52464.81
598.18	52370.12
598.538	52360.85
598.897	52585.93
599.255	52281.53
599.613	52782.31
599.972	52555.88
600.33	52584.35
600.688	52497.35
601.046	52547.29
601.404	52675.87
601.762	52671.13
602.12	52789.54
602.478	52745.03
602.836	52865.25
603.194	52635.42
603.552	52722.43
603.91	52605.59
604.268	52819.15
604.625	52630.45
604.983	52789.54
605.341	52766.95
605.698	52992.02
606.056	52941.4
606.413	52992.25
606.771	53046.94
607.128	53042.87
607.485	52879.94
607.843	53010.1
608.2	53262.53
608.557	53204.9
608.914	53205.13
609.272	53274.96
609.629	53315.63
609.986	53362.41
610.343	53273.37
610.7	53497.32
611.057	53383.2
611.414	53361.51
611.771	53472.01
612.127	53531.67
612.484	53512.24
612.841	53636.75
613.198	53448.06
613.554	53477.66
613.911	53723.08
614.267	53724.21
614.624	53655.06
614.98	53746.36
615.337	53870.19
615.693	53857.09
616.05	53798.56
616.406	53952.23
616.762	53801.49
617.118	53889.63
617.475	53855.96
617.831	53992.45
618.187	53996.74
618.543	53951.32
618.899	54112.22
619.255	54009.17
619.611	54062.05
619.967	54192.45
620.323	54156.29
620.678	54058.66
621.034	54034.03
621.39	54032
621.746	54079.23
622.101	54404.19
622.457	54096.63
622.812	54163.07
623.168	54193.12
623.523	54267.25
623.879	54293.69
624.234	54091.2
624.589	54218.89
624.945	54242.16
625.3	54257.75
625.655	54266.57
626.01	54188.15
626.365	54271.77
626.72	54244.2
627.075	54069.06
627.43	54125.33
627.785	54116.06
628.14	54103.86
628.495	54150.86
628.85	54172.11
629.205	54034.03
629.559	54254.36
629.914	53981.6
630.269	53983.41
630.623	54000.36
630.978	53857.31
631.332	54031.09
631.687	53987.48
632.041	53942.06
632.396	53987.03
632.75	53820.7
633.104	53862.96
633.459	53763.08
633.813	53712.01
634.167	53698.67
634.521	53659.58
634.875	53748.16
635.229	53642.18
635.583	53495.06
635.937	53608.28
636.291	53463.88
636.645	53471.79
636.999	53418.68
637.352	53479.92
637.706	53265.46
638.06	53408.51
638.413	53309.53
638.767	53208.74
639.121	53299.36
639.474	53040.84
639.828	53037.22
640.181	53150.66
640.534	53079.03
640.888	52960.16
641.241	52888.07
641.594	52991.12
641.947	53063.44
642.301	52966.49
642.654	53080.84
643.007	52912.25
643.36	52888.3
643.713	52789.09
644.066	52917.9
644.419	52757
644.771	52532.83
645.124	52405.83
645.477	52245.83
645.83	51969.68
646.182	51823.92
646.535	51683.58
646.888	51694.43
647.24	51544.38
647.593	51730.59
647.945	51558.62
648.298	51446.75
648.65	51397.04
649.002	51310.04
649.355	51416.02
649.707	51363.14
650.059	51554.32
650.411	51774.88
650.763	51937.14
651.115	52227.07
651.467	52099.39
651.819	52043.35
652.171	52005.84
652.523	51922.45
652.875	51945.5
653.227	51801.77
653.578	51925.61
653.93	51879.29
654.282	51782.79
654.633	51622.34
654.985	51706.18
655.337	51745.28
655.688	51764.03
656.039	51863.69
656.391	51577.15
656.742	51565.85
657.094	51601.1
657.445	51708.67
657.796	51567.43
658.147	51517.49
658.498	51472.29
658.849	51605.85
659.2	51618.28
659.551	51443.36
659.902	51552.97
660.253	51475.23
660.604	51591.38
660.955	51305.74
661.306	51472.74
661.656	51397.49
662.007	51360.66
662.358	51306.87
662.708	51277.49
663.059	51261.22
663.409	51085.18
663.76	51370.37
664.11	51307.32
664.461	51240.66
664.811	51310.94
665.161	51198.4
665.511	51104.16
665.862	51225.07
666.212	51277.49
666.562	51315.91
666.912	51094
667.262	51045.18
667.612	51140.1
667.962	51169.25
668.312	51157.95
668.662	51223.26
669.011	51071.62
669.361	51131.51
669.711	51061.23
670.06	51024.84
670.41	50934.23
670.76	50849.03
671.109	50978.07
671.459	50829.82
671.808	50898.29
672.157	50875.7
672.507	50687.45
672.856	50730.62
673.205	50764.51
673.554	50818.3
673.904	50677.28
674.253	50822.59
674.602	50755.47
674.951	50237.97
675.3	50005.66
675.649	50672.09
675.998	50521.13
676.346	50460.79
676.695	50707.57
677.044	50301.93
677.393	50388.7
677.741	50569.04
678.09	50422.15
678.438	50359.33
678.787	50234.13
679.135	50316.61
679.484	50166.56
679.832	50314.58
680.181	50007.47
680.529	50224.41
680.877	50040.92
681.225	49948.49
681.573	50246.11
681.922	49869.85
682.27	49779.23
682.618	49875.5
682.966	49741.49
683.314	49822.39
683.661	49658.78
684.009	49545.11
684.357	49433.7
684.705	49397.32
685.053	49435.51
685.4	49336.98
685.748	49007.27
686.095	49181.28
686.443	49003.2
686.79	48846.15
687.138	48983.99
687.485	49015.86
687.832	48818.8
688.18	48966.14
688.527	48606.6
688.874	48598.02
689.221	48581.97
689.568	48339.94
689.915	48324.58
690.262	48382.2
690.609	48195.99
690.956	48048.43
691.303	48062.44
691.65	47941.31
691.997	47952.84
692.344	47758.72
692.69	47612.28
693.037	47554.65
693.383	47266.3
693.73	47487.08
694.077	47077.15
694.423	47117.38
694.769	46998.06
695.116	46908.79
695.462	46849.81
695.808	46834.45
696.155	46744.51
696.501	46424.97
696.847	46506.55
697.193	46252.09
697.539	46308.58
697.885	46084.86
698.231	45906.56
698.577	45861.14
698.923	45826.11
699.269	45590.64
699.614	45462.28
699.96	45457.08
700.306	45349.06
700.651	45217.99
700.997	45145.45
701.342	44949.07
701.688	44955.17
702.033	44717.89
702.379	44735.29
702.724	44661.85
703.069	44792.24
703.415	44194.74
703.76	44277.23
704.105	44306.38
704.45	44196.78
704.795	43851.02
705.14	43772.83
705.485	43843.11
705.83	43547.3
706.175	43654.19
706.52	43465.04
706.865	43242.9
707.209	43272.51
707.554	43144.6
707.899	43315.44
708.243	43011.27
708.588	42948.45
708.932	42848.79
709.277	42642.92
709.621	42697.83
709.966	42418.07
710.31	42542.36
710.654	42060.33
710.998	42291.52
711.342	42158.19
711.687	42220.1
712.031	41904.41
712.375	41771.3
712.719	41904.86
713.063	41876.38
713.407	41712.55
713.75	41510.74
714.094	41537.86
714.438	41295.61
714.782	41346.23
715.125	41172
715.469	41289.73
715.812	41080.7
716.156	40962.74
716.499	40939.46
716.843	40965.9
717.186	40758.22
717.53	40857.43
717.873	40863.98
718.216	40767.26
718.559	40583.54
718.902	40259.93
719.246	40356.88
719.589	40347.39
719.932	40158.69
720.275	40191.01
720.617	40129.31
720.96	40017.22
721.303	39952.59
721.646	40061.97
721.989	39673.5
722.331	39793.95
722.674	39678.02
723.016	39608.2
723.359	39436.22
723.701	39502.44
724.044	39234.87
724.386	39159.39
724.729	39267.64
725.071	39052.5
725.413	39124.37
725.755	39089.34
726.097	38866.97
726.439	38688.22
726.782	38834.43
727.124	38976.57
727.465	38738.16
727.807	38604.38
728.149	38610.03
728.491	38282.58
728.833	38461.79
729.175	38259.98
729.516	38098.41
729.858	38182.7
730.199	38254.79
730.541	38038.29
730.882	38132.75
731.224	38121.46
731.565	37791.29
731.906	37829.03
732.248	37978.18
732.589	37725.53
732.93	37626.1
733.271	37462.94
733.612	37509.04
733.953	37347.01
734.294	37407.58
734.635	37203.06
734.976	37383.4
735.317	37100.24
735.658	37183.4
735.999	37173.91
736.339	37163.74
736.68	37115.83
737.021	37032.22
737.361	36828.38
737.702	37120.35
738.042	36882.39
738.383	36782.28
738.723	36914.03
739.063	36709.51
739.404	36694.83
739.744	36642.85
740.084	36387.26
740.424	36451.67
740.764	36321.05
741.104	36445.79
741.444	36108.4
741.784	36069.53
742.124	36133.03
742.464	36147.72
742.804	36094.16
743.143	36058.23
743.483	35919.48
743.823	35643.78
744.162	35806.49
744.502	35792.93
744.841	35535.99
745.181	35632.71
745.52	35684.01
745.86	35553.16
746.199	35393.39
746.538	35372.15
746.877	35387.06
747.216	35371.02
747.556	35281.53
747.895	35109.78
748.234	34985.49
748.573	34947.75
748.911	34923.35
749.25	34921.09
749.589	34741.88
749.928	34864.82
750.267	34743.01
750.605	34777.36
750.944	34458.95
751.283	34470.48
751.621	34506.41
751.96	34184.16
752.298	34295.12
752.636	34288.34
752.975	34077.49
753.313	33803.15
753.651	34046.53
753.989	33916.14
754.327	33641.12
754.666	33573.78
755.004	33659.2
755.342	33744.17
755.679	33550.95
756.017	33377.63
756.355	33415.59
756.693	33200.45
757.031	33364.97
757.368	33080.23
757.706	33183.51
758.044	32827.58
758.381	32932.21
758.719	32643.86
759.056	32827.13
759.394	32681.82
759.731	32468.95
760.068	32512.11
760.405	32304.89
760.743	32297.43
761.08	32266.92
761.417	31968.62
761.754	32044.78
762.091	31958.23
762.428	31773.6
762.765	31529.31
763.102	31629.87
763.438	31422.2
763.775	31348.98
764.112	31369.99
764.449	31373.38
764.785	31198.02
765.122	30882.78
765.458	30905.15
765.795	30844.81
766.131	30779.95
766.467	30628.09
766.804	30529.56
767.14	30254.77
767.476	30295.45
767.812	30250.25
768.148	30264.94
768.485	29995.12
768.821	29781.11
769.157	29921.67
769.492	29768.45
769.828	29773.65
770.164	29329.37
770.5	29390.84
770.836	29396.26
771.171	29147
771.507	29104.07
771.842	28984.29
772.178	29011.86
772.513	28862.26
772.849	28751.98
773.184	28578.66
773.519	28566.9
773.855	28361.49
774.19	28379.79
774.525	28249.85
774.86	28224.99
775.195	28137.76
775.53	27935.51
775.865	27806.25
776.2	27693.03
776.535	27473.15
776.87	27467.72
777.205	27322.19
777.539	27164.46
777.874	27314.96
778.209	27028.19
778.543	27046.94
778.878	26771.7
779.212	26836.33
779.547	26687.86
779.881	26624.13
780.215	26559.95
780.55	26581.87
780.884	26299.85
781.218	26120.64
781.552	26190.24
781.886	26098.27
782.22	26073.64
782.554	25808.11
782.888	25587.55
783.222	25538.28
783.556	25375.8
783.889	25385.74
784.223	25234.79
784.557	25141.91
784.89	25168.8
785.224	25115.47
785.557	24983.27
785.891	24928.36
786.224	24846.1
786.558	24761.81
786.891	24522.72
787.224	24560.68
787.557	24349.61
787.891	24360.91
788.224	24346.9
788.557	24225.1
788.89	24177.87
789.223	24125.67
789.556	23934.03
789.888	23848.38
790.221	23779.46
790.554	23553.7
790.887	23723.64
791.219	23488.17
791.552	23425.34
791.884	23290.66
792.217	23247.5
792.549	23224.45
792.882	22948.75
793.214	23001.17
793.546	23052.25
793.879	22828.98
794.211	22702.65
794.543	22960.72
794.875	22635.08
795.207	22711.46
795.539	22486.39
795.871	22527.29
796.203	22335.43
796.535	22243.91
796.867	22067.87
797.198	22162.33
797.53	22110.35
797.862	22014.76
798.193	21980.18
798.525	21903.58
798.856	21796.23
799.188	21727.99
799.519	21528.9
799.85	21491.38
800.182	21469.69
800.513	21420.2
800.844	21168.91
801.175	21404.83
801.506	21287.55
801.837	21161.45
802.168	21095.24
802.499	21106.31
802.83	20871.74
803.161	20936.82
803.491	20832.64
803.822	20834.68
804.153	20630.39
804.483	20628.81
804.814	20458.19
805.145	20502.48
805.475	20409.6
805.805	20461.35
806.136	20388.59
806.466	20445.31
806.796	20261.36
807.126	20093.45
807.457	19941.59
807.787	19960.58
808.117	19918.54
808.447	19768.94
808.777	19968.71
809.107	19839
809.436	19813.91
809.766	19743.41
810.096	19616.41
810.426	19631.55
810.755	19552.45
811.085	19542.73
811.414	19497.99
811.744	19247.15
812.073	19368.73
812.403	19293.7
812.732	19097.1
813.061	19130.09
813.39	19070.43
813.719	19002.64
814.049	19134.84
814.378	19055.06
814.707	18926.93
815.036	18800.38
815.365	18762.19
815.693	18661.85
816.022	18651.46
816.351	18551.57
816.68	18473.61
817.008	18580.73
817.337	18286.04
817.665	18357
817.994	18391.8
818.322	18380.73
818.651	18248.08
818.979	18169.44
819.307	18313.84
819.636	18234.29
819.964	18020.51
820.292	18088.31
820.62	18147.97
820.948	17973.51
821.276	18011.25
821.604	18033.62
821.932	18018.48
822.259	18052.15
822.587	18024.58
822.915	17991.36
823.243	18065.94
823.57	17978.48
823.898	17992.27
824.225	17863
824.553	17867.52
824.88	17997.01
825.207	18030.01
825.535	17948.88
825.862	17940.97
826.189	17928.31
826.516	18001.98
826.843	17959.73
827.17	17997.69
827.497	18001.08
827.824	17908.43
828.151	17938.71
828.478	18067.75
828.805	17946.84
829.131	17972.38
829.458	17860.75
829.785	17726.29
830.111	17756.57
830.438	17886.96
830.764	17847.86
831.09	17829.33
831.417	17760.18
831.743	17866.17
832.069	17811.93
832.395	17742.33
832.722	17823.46
833.048	17695.55
833.374	17614.65
833.7	17648.77
834.026	17620.75
834.351	17677.25
834.677	17744.82
835.003	17619.4
835.329	17668.21
835.654	17609.9
835.98	17551.83
836.306	17557.93
836.631	17389.57
836.956	17517.48
837.282	17496.46
837.607	17364.71
837.932	17319.06
838.258	17439.74
838.583	17289.01
838.908	17221.21
839.233	17221.21
839.558	17197.71
839.883	17175.57
840.208	17112.74
840.533	17149.8
840.858	17123.14
841.182	17136.7
841.507	17153.42
841.832	16942.35
842.156	17041.56
842.481	16920.88
842.805	16980.77
843.13	16869.58
843.454	16844.5
843.778	16657.16
844.103	16756.37
844.427	16679.99
844.751	16716.14
845.075	16685.86
845.399	16541.01
845.723	16447.9
846.047	16544.62
846.371	16288.36
846.695	16369.94
847.019	16176.04
847.343	16126.78
847.666	16040
847.99	16029.15
848.313	16020.12
848.637	15803.17
848.96	15909.84
849.284	15750.97
849.607	15698.54
849.931	15613.8
850.254	15500.13
850.577	15471.43
850.9	15430.75
851.223	15248.38
851.546	15363.86
851.869	15134.49
852.192	15213.81
852.515	15157.99
852.838	15049.52
853.161	14969.97
853.483	14975.17
853.806	14920.71
854.129	14942.86
854.451	14797.77
854.774	14696.31
855.096	14633.49
855.419	14726.59
855.741	14642.52
856.063	14494.28
856.385	14485.01
856.708	14434.39
857.03	14459.03
857.352	14390.33
857.674	14330.89
857.996	14260.16
858.318	14204.57
858.64	14258.81
858.961	14156.44
859.283	14080.96
859.605	14117.57
859.926	14105.14
860.248	14033.95
860.57	13922.77
860.891	13993.5
861.212	13944.69
861.534	13863.56
861.855	13863.11
862.176	13887.52
862.498	13895.2
862.819	13763
863.14	13654.53
863.461	13767.75
863.782	13735.66
864.103	13615.21
864.424	13526.4
864.745	13529.33
865.065	13522.1
865.386	13506.74
865.707	13564.36
866.027	13453.18
866.348	13445.95
866.668	13355.1
866.989	13332.5
867.309	13270.36
867.63	13322.79
867.95	13288.89
868.27	13177.93
868.59	13209.34
868.91	13166.18
869.23	13267.87
869.55	13033.53
869.87	13128.67
870.19	13204.14
870.51	13100.42
870.83	13165.28
871.15	13017.71
871.469	13021.32
871.789	12906.3
872.109	12893.87
872.428	12869.69
872.748	12946.98
873.067	12911.72
873.386	12907.2
873.706	12871.72
874.025	12827.43
874.344	12731.84
874.663	12783.36
874.982	12793.76
875.301	12759.86
875.62	12730.26
875.939	12649.58
876.258	12638.96
876.577	12652.07
876.896	12674.21
877.214	12614.56
877.533	12666.08
877.852	12606.87
878.17	12536.14
878.489	12581.56
878.807	12501.11
879.125	12461.34
879.444	12462.47
879.762	12494.78
880.08	12502.24
880.398	12454.11
880.716	12383.83
881.034	12311.96
881.352	12346.09
881.67	12347.67
881.988	12364.39
882.306	12303.15
882.624	12263.6
882.941	12185.64
883.259	12138.86
883.577	12173.44
883.894	12180.44
884.212	12109.26
884.529	12070.39
884.846	12003.05
885.164	12012.76
885.481	11941.13
885.798	11961.47
886.115	11889.83
886.432	11810.73
886.75	11871.07
887.067	11899.77
887.383	11816.61
887.7	11783.16
888.017	11788.36
888.334	11810.51
888.651	11713.34
888.967	11692.55
889.284	11610.29
889.6	11604.86
889.917	11553.11
890.233	11528.26
890.55	11482.16
890.866	11499.78
891.182	11467.24
891.498	11383.85
891.815	11345.21
892.131	11352.44
892.447	11303.4
892.763	11285.78
893.079	11228.38
893.395	11277.87
893.71	11199
894.026	11154.25
894.342	11094.14
894.657	11049.17
894.973	10999
895.289	11063.64
895.604	11016.18
895.92	10885.34
896.235	10904.77
896.55	10849.18
896.865	10875.62
897.181	10816.41
897.496	10748.62
897.811	10725.79
898.126	10735.73
898.441	10623.87
898.756	10620.48
899.071	10548.62
899.386	10562.18
899.7	10486.48
900.015	10457.55
900.33	10293.94
900.644	10366.93
900.959	10339.36
901.273	10254.62
901.588	10335.52
901.902	10169.2
902.216	10147.05
902.531	10127.84
902.845	10119.93
903.159	10018.24
903.473	9939.15
903.787	9934.63
904.101	9885.36
904.415	9888.98
904.729	9814.4
905.042	9849.2
905.356	9781.18
905.67	9744.12
905.984	9726.04
906.297	9670.23
906.611	9604.24
906.924	9624.13
907.237	9506.16
907.551	9521.08
907.864	9479.95
908.177	9496.9
908.491	9439.27
908.804	9408.54
909.117	9340.97
909.43	9283.34
909.743	9214.87
910.056	9221.2
910.368	9150.47
910.681	9151.14
910.994	9080.18
911.307	9143.91
911.619	8988.89
911.932	9002.9
912.244	8929.91
912.557	8964.26
912.869	8910.02
913.181	8833.19
913.494	8786.18
913.806	8808.33
914.118	8757.03
914.43	8750.25
914.742	8676.58
915.054	8624.83
915.366	8589.35
915.678	8550.03
915.99	8539.63
916.302	8476.81
916.613	8412.86
916.925	8441.56
917.236	8430.71
917.548	8330.83
917.859	8338.06
918.171	8269.58
918.482	8304.61
918.794	8206.99
919.105	8159.76
919.416	8138.97
919.727	8109.59
920.038	8137.84
920.349	8031.62
920.66	8027.56
920.971	7931.97
921.282	7900.33
921.593	7873.66
921.903	7885.87
922.214	7790.28
922.525	7821.01
922.835	7736.72
923.146	7724.74
923.456	7697.85
923.767	7658.3
924.077	7631.18
924.387	7560.9
924.697	7593.22
925.008	7527.01
925.318	7490.17
925.628	7476.16
925.938	7478.87
926.248	7368.82
926.558	7368.37
926.867	7323.17
927.177	7285.2
927.487	7300.12
927.796	7220.12
928.106	7244.08
928.416	7111.2
928.725	7154.36
929.034	7047.92
929.344	7078.2
929.653	7079.33
929.962	6938.32
930.271	6995.95
930.581	6973.35
930.89	6919.34
931.199	6883.63
931.508	6893.12
931.817	6858.55
932.125	6832.79
932.434	6819.91
932.743	6699.91
933.051	6741.04
933.36	6622.62
933.669	6652.45
933.977	6621.94
934.286	6663.53
934.594	6559.57
934.902	6579.91
935.21	6485.9
935.519	6484.32
935.827	6378.79
936.135	6395.51
936.443	6417.2
936.751	6306.7
937.059	6332.69
937.367	6319.35
937.674	6303.76
937.982	6304.89
938.29	6243.88
938.597	6264.67
938.905	6175.18
939.213	6111.68
939.52	6151.45
939.827	6086.82
940.135	6088.4
940.442	6051.11
940.749	5982.64
941.056	6037.78
941.363	5923.43
941.67	5915.52
941.977	5948.06
942.284	5879.59
942.591	5891.12
942.898	5859.48
943.205	5828.97
943.511	5741.74
943.818	5802.98
944.125	5741.74
944.431	5748.07
944.738	5688.86
945.044	5625.81
945.35	5656.77
945.657	5594.63
945.963	5646.38
946.269	5582.65
946.575	5535.65
946.881	5521.18
947.187	5496.55
947.493	5437.12
947.799	5456.33
948.105	5416.78
948.41	5429.89
948.716	5391.92
949.022	5364.58
949.327	5294.52
949.633	5313.05
949.938	5292.71
950.244	5333.62
950.549	5218.14
950.854	5194.64
951.16	5237.57
951.465	5162.32
951.77	5161.42
952.075	5157.12
952.38	5122.55
952.685	5104.92
952.99	5044.58
953.294	5066.05
953.599	4998.03
953.904	5018.6
954.209	4955.1
954.513	4981.99
954.818	4929.56
955.122	4906.28
955.426	4873.97
955.731	4841.43
956.035	4826.06
956.339	4845.95
956.643	4803.24
956.948	4732.5
957.252	4784.25
957.556	4688.89
957.86	4701.32
958.163	4727.53
958.467	4674.2
958.771	4632.84
959.075	4656.8
959.378	4574.54
959.682	4583.58
959.985	4578.16
960.289	4546.74
960.592	4512.4
960.896	4503.36
961.199	4489.35
961.502	4440.76
961.805	4449.35
962.108	4447.54
962.411	4457.03
962.714	4398.5
963.017	4367.99
963.32	4388.1
963.623	4340.42
963.926	4331.61
964.228	4319.18
964.531	4294.77
964.833	4256.58
965.136	4210.03
965.438	4208.67
965.741	4158.05
966.043	4183.82
966.345	4189.92
966.648	4163.25
966.95	4143.14
967.252	4095.23
967.554	4066.76
967.856	4082.35
968.158	4085.29
968.46	4069.47
968.761	4025.63
969.063	4006.42
969.365	3946.53
969.666	3973.88
969.968	3948.79
970.269	3903.6
970.571	3922.58
970.872	3899.53
971.174	3875.8
971.475	3866.76
971.776	3837.61
972.077	3847.55
972.378	3809.36
972.679	3794.9
972.98	3801.91
973.281	3742.25
973.582	3726.2
973.883	3727.33
974.183	3697.5
974.484	3722.36
974.785	3642.14
975.085	3670.16
975.386	3626.54
975.686	3612.08
975.986	3585.19
976.287	3625.19
976.587	3529.37
976.887	3577.05
977.187	3558.75
977.487	3534.12
977.787	3499.99
978.087	3493.21
978.387	3468.13
978.687	3509.03
978.987	3425.64
979.286	3420.45
979.586	3405.76
979.885	3399.2
980.185	3394.91
980.484	3346.1
980.784	3360.56
981.083	3332.77
981.382	3329.6
981.682	3289.38
981.981	3318.08
982.28	3294.35
982.579	3285.99
982.878	3243.5
983.177	3262.48
983.475	3223.16
983.774	3191.53
984.073	3175.93
984.372	3136.61
984.67	3173.9
984.969	3137.74
985.267	3186.1
985.566	3131.19
985.864	3142.04
986.162	3127.57
986.461	3102.26
986.759	3077.4
987.057	3043.73
987.355	3056.16
987.653	3024.52
987.951	3005.54
988.249	3001.93
988.547	2976.62
988.844	2944.3
989.142	2953.57
989.44	2934.81
989.737	2969.84
990.035	2936.62
990.332	2909.5
990.63	2872.66
990.927	2865.43
991.224	2894.58
991.521	2875.83
991.819	2837.41
992.116	2818.43
992.413	2794.93
992.71	2752.44
993.006	2774.81
993.303	2760.8
993.6	2752.44
993.897	2718.32
994.193	2742.27
994.49	2742.5
994.787	2693.46
995.083	2686.68
995.379	2660.69
995.676	2656.4
995.972	2665.66
996.268	2635.38
996.565	2643.52
996.861	2604.42
997.157	2567.36
997.453	2578.44
997.749	2544.76
998.044	2532.11
998.34	2533.01
998.636	2523.3
998.932	2503.63
999.227	2523.07
999.523	2482.62
999.818	2464.09
1000.114	2465.67
1000.409	2434.03
1000.704	2449.4
1001	2420.02
1001.295	2442.62
1001.59	2418.21
1001.885	2368.05
1002.18	2354.94
1002.475	2342.06
1002.77	2327.82
1003.065	2305
1003.359	2314.04
1003.654	2309.52
1003.949	2257.77
1004.243	2293.02
1004.538	2248.27
1004.832	2249.86
1005.127	2212.79
1005.421	2247.37
1005.715	2227.94
1006.009	2193.59
1006.304	2194.72
1006.598	2175.06
1006.892	2159.46
1007.186	2107.03
1007.48	2095.96
1007.773	2158.79
1008.067	2116.3
1008.361	2095.51
1008.655	2111.78
1008.948	2093.02
1009.242	2088.73
1009.535	2036.08
1009.829	2031.78
1010.122	2043.76
1010.415	1983.2
1010.708	2013.48
1011.001	2002.63
1011.295	1957.43
1011.588	1942.52
1011.881	1963.99
1012.173	1923.99
1012.466	1951.11
1012.759	1913.59
1013.052	1919.24
1013.344	1909.07
1013.637	1872.24
1013.93	1833.37
1014.222	1865.23
1014.514	1837.21
1014.807	1834.73
1015.099	1815.74
1015.391	1828.62
1015.683	1817.55
1015.976	1811.45
1016.268	1761.28
1016.56	1791.56
1016.851	1747.04
1017.143	1776.65
1017.435	1737.55
1017.727	1717.67
1018.018	1737.55
1018.31	1721.51
1018.602	1696.42
1018.893	1686.48
1019.185	1655.07
1019.476	1630.21
1019.767	1667.95
1020.058	1651
1020.35	1627.27
1020.641	1641.74
1020.932	1591.79
1021.223	1587.95
1021.514	1559.7
1021.804	1561.74
1022.095	1556.32
1022.386	1566.48
1022.677	1551.8
1022.967	1516.77
1023.258	1518.12
1023.548	1492.14
1023.839	1480.16
1024.129	1493.04
1024.419	1496.43
1024.709	1449.88
1025	1443.32
1025.29	1446.49
1025.58	1440.16
1025.87	1409.2
1026.16	1442.87
1026.449	1400.84
1026.739	1415.98
1027.029	1391.8
1027.319	1384.12
1027.608	1380.05
1027.898	1349.09
1028.187	1343.21
1028.477	1345.25
1028.766	1357.45
1029.055	1336.66
1029.344	1323.78
1029.634	1327.17
1029.923	1304.12
1030.212	1309.54
1030.501	1282.65
1030.79	1251.92
1031.078	1254.4
1031.367	1268.86
1031.656	1246.94
1031.945	1248.75
1032.233	1235.19
1032.522	1239.04
1032.81	1215.08
1033.099	1203.33
1033.387	1206.49
1033.675	1190.22
1033.963	1222.54
1034.251	1191.8
1034.54	1150.68
1034.828	1159.94
1035.116	1154.74
1035.403	1171.47
1035.691	1133.95
1035.979	1117
1036.267	1117
1036.554	1090.56
1036.842	1098.25
1037.129	1109.55
1037.417	1095.76
1037.704	1079.72
1037.992	1090.34
1038.279	1067.06
1038.566	1063.9
1038.853	1063.9
1039.14	1063.9
