Data from breadboard_black_back_FLMS001491_00005.txt Node
Date: Wed Feb 08 10:49:52 GMT 2017
User: dcchb
Spectrometer: FLMS00149
Trigger mode: 0
Integration Time (sec): 2.000000E-2
Scans to average: 10
Electric dark correction enabled: true
Nonlinearity correction enabled: false
Boxcar width: 0
XAxis mode: Wavelengths
Number of Pixels in Spectrum: 2048
>>>>>Begin Spectral Data<<<<<
341.393	0.35
341.776	0.35
342.16	0.35
342.543	-53.2
342.927	-66.99
343.31	-65.41
343.693	-69.02
344.077	-74.22
344.46	-48.01
344.843	-36.93
345.226	-36.26
345.61	-17.5
345.993	-22.25
346.376	-27.67
346.759	-14.56
347.142	23.63
347.525	48.94
347.908	75.15
348.291	70.18
348.674	88.94
349.057	104.98
349.44	129.39
349.823	129.39
350.206	159.9
350.588	210.29
350.971	220.23
351.354	225.43
351.737	249.61
352.119	251.65
352.502	272.44
352.884	291.64
353.267	282.38
353.65	298.65
354.032	307.46
354.414	302.94
354.797	337.52
355.179	328.25
355.562	315.6
355.944	342.72
356.326	322.83
356.709	338.42
357.091	377.07
357.473	361.02
357.855	344.3
358.238	358.08
358.62	349.5
359.002	312.21
359.384	337.07
359.766	360.57
360.148	333.9
360.53	372.09
360.912	354.24
361.294	345.2
361.676	326.67
362.057	348.37
362.439	352.89
362.821	369.38
363.203	335.71
363.584	324.86
363.966	340.68
364.348	344.07
364.729	347.01
365.111	336.39
365.493	343.39
365.874	344.07
366.256	332.55
366.637	351.08
367.019	347.24
367.4	342.49
367.781	319.21
368.163	343.62
368.544	342.04
368.925	348.14
369.306	342.49
369.688	364.19
370.069	339.55
370.45	359.21
370.831	340.68
371.212	330.51
371.593	342.49
371.974	346.11
372.355	358.54
372.736	353.56
373.117	345.65
373.498	362.6
373.879	367.58
374.26	354.02
374.641	352.21
375.021	362.38
375.402	349.72
375.783	371.87
376.163	391.98
376.544	371.42
376.925	342.49
377.305	368.7
377.686	375.26
378.066	389.95
378.447	409.38
378.827	362.83
379.208	381.36
379.588	379.1
379.968	394.02
380.349	390.4
380.729	397.18
381.109	410.06
381.489	384.98
381.87	403.05
382.25	390.4
382.63	400.12
383.01	402.15
383.39	412.32
383.77	442.6
384.15	440.79
384.53	434.01
384.91	414.35
385.29	423.39
385.67	411.42
386.049	415.03
386.429	440.57
386.809	431.98
387.189	433.56
387.568	459.1
387.948	450.06
388.328	471.3
388.707	456.39
389.087	464.07
389.466	478.31
389.846	465.88
390.225	484.86
390.605	481.47
390.984	481.92
391.363	499.77
391.743	494.13
392.122	486.22
392.501	481.02
392.881	505.2
393.26	504.97
393.639	511.75
394.018	518.76
394.397	494.58
394.776	520.57
395.155	519.44
395.534	506.55
395.913	509.27
396.292	521.02
396.671	545.2
397.05	553.11
397.429	545.42
397.808	563.28
398.186	553.56
398.565	562.15
398.944	584.29
399.323	558.3
399.701	574.8
400.08	578.42
400.458	613.44
400.837	571.41
401.215	568.7
401.594	594.91
401.972	587
402.351	602.82
402.729	611.86
403.107	626.55
403.486	612.09
403.864	646.44
404.242	617.74
404.62	659.09
404.999	646.44
405.377	657.51
405.755	630.84
406.133	667.91
406.511	671.97
406.889	662.48
407.267	684.4
407.645	675.36
408.023	682.37
408.401	707.68
408.779	713.1
409.156	725.08
409.534	726.44
409.912	723.5
410.29	739.99
410.667	758.98
411.045	758.98
411.422	759.43
411.8	776.15
412.178	801.46
412.555	771.18
412.933	784.06
413.31	810.73
413.687	831.52
414.065	828.13
414.442	843.04
414.819	832.42
415.197	836.04
415.574	879.65
415.951	848.01
416.328	883.95
416.705	848.47
417.082	899.54
417.46	889.14
417.837	899.09
418.214	928.69
418.591	907.9
418.967	930.5
419.344	932.08
419.721	921.91
420.098	948.58
420.475	960.78
420.852	963.49
421.228	971.4
421.605	982.25
421.982	982.25
422.358	995.36
422.735	1039.65
423.111	1032.64
423.488	1022.02
423.864	1066.99
424.241	1065.41
424.617	1058.4
424.994	1063.83
425.37	1079.65
425.746	1115.13
426.123	1075.13
426.499	1138.63
426.875	1111.51
427.251	1150.83
427.627	1162.58
428.003	1172.3
428.379	1187.67
428.756	1214.56
429.132	1250.04
429.507	1245.74
429.883	1207.78
430.259	1261.56
430.635	1256.82
431.011	1273.99
431.387	1326.19
431.763	1333.65
432.138	1354.22
432.514	1330.71
432.89	1349.7
433.265	1415.46
433.641	1390.83
434.016	1450.94
434.392	1417.72
434.767	1467.21
435.143	1462.91
435.518	1488.45
435.894	1506.3
436.269	1520.54
436.644	1548.11
437.02	1529.8
437.395	1564.61
437.77	1576.58
438.145	1608.45
438.52	1615
438.895	1628.11
439.271	1638.5
439.646	1670.82
440.021	1708.33
440.395	1695.9
440.77	1666.3
441.145	1709.01
441.52	1772.28
441.895	1747.65
442.27	1763.92
442.645	1734.09
443.019	1786.97
443.394	1774.09
443.769	1795.33
444.143	1816.12
444.518	1832.4
444.892	1790.59
445.267	1829.91
445.641	1857.71
446.016	1870.59
446.39	1877.82
446.764	1869.46
447.139	1886.41
447.513	1921.88
447.887	1925.05
448.262	1917.36
448.636	1955.56
449.01	1988.1
449.384	2003.69
449.758	1984.48
450.132	2018.83
450.506	2034.42
450.88	2065.61
451.254	2049.56
451.628	2100.41
452.002	2119.39
452.376	2153.29
452.75	2174.31
453.123	2194.42
453.497	2229.67
453.871	2216.34
454.244	2265.15
454.618	2262.44
454.992	2312.61
455.365	2324.36
455.739	2382.44
456.112	2388.54
456.486	2400.06
456.859	2438.93
457.232	2478.25
457.606	2466.28
457.979	2518.7
458.352	2583.79
458.725	2605.93
459.099	2608.42
459.472	2711.69
459.845	2691.36
460.218	2684.12
460.591	2725.93
460.964	2731.81
461.337	2833.72
461.71	2868.98
462.083	2899.26
462.456	2901.75
462.829	2925.7
463.201	2949.43
463.574	3004.57
463.947	3010.67
464.32	3134.28
464.692	3172.47
465.065	3153.72
465.438	3195.98
465.81	3288.63
466.183	3308.51
466.555	3330.66
466.928	3340.38
467.3	3326.59
467.672	3415.4
468.045	3518
468.417	3496.08
468.789	3557.55
469.161	3600.03
469.534	3627.38
469.906	3726.13
470.278	3772.23
470.65	3777.65
471.022	3864.88
471.394	3915.28
471.766	3966.58
472.138	3997.08
472.51	4068.04
472.882	4167.7
473.253	4231.88
473.625	4310.52
473.997	4355.49
474.369	4415.83
474.74	4409.28
475.112	4532.89
475.484	4572.89
475.855	4668.48
476.227	4735.6
476.598	4824.63
476.97	4898.53
477.341	4987.11
477.713	5058.07
478.084	5112.99
478.455	5232.31
478.827	5275.47
479.198	5418.97
479.569	5419.65
479.94	5580.32
480.311	5632.07
480.682	5745.74
481.053	5922.91
481.424	5990.93
481.795	6015.79
482.166	6099.4
482.537	6215.33
482.908	6357.47
483.279	6405.83
483.65	6468.21
484.021	6646.28
484.391	6752.94
484.762	6768.54
485.133	6868.87
485.503	6949.1
485.874	7072.94
486.244	7124.91
486.615	7327.39
486.985	7336.21
487.356	7557.67
487.726	7545.24
488.097	7740.49
488.467	7759.47
488.837	7933.48
489.207	7999.69
489.578	8105.9
489.948	8200.59
490.318	8327.59
490.688	8337.54
491.058	8456.63
491.428	8583.18
491.798	8737.52
492.168	8867.92
492.538	8881.02
492.908	9002.83
493.278	9090.06
493.648	9151.3
494.017	9291.63
494.387	9338.19
494.757	9454.12
495.126	9528.46
495.496	9568.24
495.866	9671.96
496.235	9789.7
496.605	9913.54
496.974	9948.11
497.344	9987.66
497.713	10101.1
498.082	10179.52
498.452	10281.89
498.821	10274.66
499.19	10413.41
499.559	10472.62
499.928	10587.65
500.298	10703.35
500.667	10721.43
501.036	10741.31
501.405	10839.62
501.774	10894.53
502.143	10979.95
502.512	11005.26
502.88	11171.58
503.249	11115.54
503.618	11248.42
503.987	11327.06
504.356	11402.99
504.724	11482.09
505.093	11517.34
505.462	11664.68
505.83	11687.73
506.199	11840.95
506.567	11913.26
506.936	11934.5
507.304	12116.42
507.672	12205.68
508.041	12127.27
508.409	12323.42
508.777	12325.23
509.145	12523.41
509.514	12545.33
509.882	12636.86
510.25	12722.73
510.618	12746.91
510.986	12728.61
511.354	13026.45
511.722	13090.63
512.09	13250.63
512.458	13190.51
512.826	13325.2
513.193	13435.93
513.561	13458.08
513.929	13576.49
514.297	13654.68
514.664	13848.12
515.032	13950.72
515.4	14019.19
515.767	14053.77
516.135	14166.53
516.502	14077.72
516.869	14430.93
517.237	14468
517.604	14509.8
517.972	14637.93
518.339	14765.61
518.706	14761.55
519.073	14818.04
519.44	15082.89
519.808	15155.43
520.175	15200.41
520.542	15392.94
520.909	15431.81
521.276	15561.07
521.643	15633.84
522.009	15834.96
522.376	15998.12
522.743	16017.11
523.11	16126.48
523.477	16382.07
523.843	16411.67
524.21	16612.12
524.577	16824.54
524.943	16895.95
525.31	16888.95
525.676	17105.44
526.043	17156.06
526.409	17180.24
526.776	17531.64
527.142	17535.03
527.508	17669.94
527.874	17724.86
528.241	17887.79
528.607	17943.38
528.973	18188.58
529.339	18215.92
529.705	18427.44
530.071	18547.66
530.437	18563.03
530.803	18760.54
531.169	18814.77
531.535	18955.56
531.901	19000.98
532.267	19103.35
532.632	19159.17
532.998	19259.73
533.364	19328.88
533.73	19396.68
534.095	19622.66
534.461	19628.09
534.826	19759.83
535.192	19879.38
535.557	20041.18
535.923	19996.89
536.288	20037.57
536.653	20188.3
537.019	20090.22
537.384	20374.96
537.749	20434.17
538.114	20442.08
538.479	20488.4
538.845	20612.24
539.21	20671.9
539.575	20776.98
539.94	20868.05
540.305	20894.04
540.67	20974.04
541.034	21082.96
541.399	21160.47
541.764	21087.48
542.129	21229.17
542.494	21310.98
542.858	21390.75
543.223	21417.64
543.587	21633.68
543.952	21617.64
544.316	21690.18
544.681	21666.9
545.045	21735.15
545.41	21945.76
545.774	22094.69
546.138	22000.45
546.503	22110.05
546.867	22134.91
547.231	22293.78
547.595	22266.66
547.959	22447.22
548.324	22438.86
548.688	22488.35
549.052	22649.02
549.416	22708.23
549.779	22883.82
550.143	22704.16
550.507	23018.05
550.871	22970.6
551.235	23072.29
551.599	23239.97
551.962	23293.75
552.326	23357.03
552.689	23580.07
553.053	23382.79
553.417	23543.01
553.78	23827.3
554.143	23837.01
554.507	24037.46
554.87	23918.37
555.234	24201.75
555.597	24145.03
555.96	24246.95
556.323	24335.53
556.686	24390.9
557.05	24526.94
557.413	24743.66
557.776	24664.11
558.139	24821.85
558.502	24880.83
558.865	25039.69
559.228	25227.49
559.59	25190.65
559.953	25406.69
560.316	25554.03
560.679	25560.13
561.041	25732.56
561.404	25834.48
561.767	26023.62
562.129	25877.64
562.492	26291.19
562.854	26271.98
563.217	26376.61
563.579	26474.23
563.941	26518.53
564.304	26630.61
564.666	26898.18
565.028	26828.8
565.39	26970.49
565.753	27037.16
566.115	27215.68
566.477	27328.22
566.839	27452.74
567.201	27537.48
567.563	27660.42
567.925	27894.76
568.287	27843.01
568.648	27841.65
569.01	27990.58
569.372	28242.55
569.734	28225.83
570.095	28472.37
570.457	28491.58
570.819	28583.78
571.18	28538.36
571.542	28765.25
571.903	28815.19
572.265	28863.77
572.626	28888.18
572.987	28955.75
573.349	29131.79
573.71	29306.02
574.071	29375.4
574.432	29443.87
574.794	29681.61
575.155	29611.78
575.516	29503.76
575.877	29663.3
576.238	29788.5
576.599	29807.93
576.96	29956.18
577.32	29826.01
577.681	29995.95
578.042	30146.91
578.403	30149.62
578.763	30070.07
579.124	30101.71
579.485	30294.47
579.845	30401.36
580.206	30267.13
580.566	30291.53
580.927	30330.86
581.287	30395.94
581.648	30398.42
582.008	30547.57
582.368	30516.84
582.728	30477.74
583.089	30550.51
583.449	30538.99
583.809	30511.87
584.169	30680.68
584.529	30504.41
584.889	30847.45
585.249	30529.27
585.609	30432.55
585.969	30654.46
586.329	30745.76
586.688	30635.93
587.048	30613.33
587.408	30626.21
587.768	30586.22
588.127	30642.26
588.487	30519.55
588.846	30735.36
589.206	30634.58
589.565	30625.76
589.925	30765.87
590.284	30653.33
590.643	30696.72
591.003	30791.63
591.362	30989.37
591.721	30823.27
592.08	30720
592.44	30904.17
592.799	30902.82
593.158	30771.07
593.517	30847.45
593.876	30908.47
594.235	30908.01
594.593	30813.1
594.952	30967.22
595.311	30991.4
595.67	30942.82
596.029	31110.04
596.387	31128.57
596.746	31226.2
597.104	30985.75
597.463	31089.25
597.822	31227.33
598.18	31018.07
598.538	30903.5
598.897	31294.45
599.255	31028.01
599.613	31452.63
599.972	31220.55
600.33	31242.7
600.688	31103.72
601.046	31435.46
601.404	31366.08
601.762	31384.16
602.12	31398.4
602.478	31475.68
602.836	31504.16
603.194	31455.12
603.552	31440.88
603.91	31459.41
604.268	31581.67
604.625	31504.61
604.983	31626.19
605.341	31463.03
605.698	31549.58
606.056	31640.88
606.413	31549.81
606.771	31710.93
607.128	31871.15
607.485	31783.47
607.843	31758.84
608.2	32057.82
608.557	31893.3
608.914	31926.52
609.272	32023.01
609.629	32129.9
609.986	32183.01
610.343	32096.01
610.7	32350.91
611.057	32143.91
611.414	32156.8
611.771	32028.44
612.127	32444.7
612.484	32250.8
612.841	32408.99
613.198	32340.52
613.554	32341.88
613.911	32470.23
614.267	32503.91
614.624	32450.12
614.98	32606.28
615.337	32738.48
615.693	32657.57
616.05	32572.6
616.406	32804.46
616.762	32677.46
617.118	32712.71
617.475	32786.16
617.831	32698.93
618.187	32789.77
618.543	32822.09
618.899	32916.32
619.255	32901.41
619.611	32927.62
619.967	33035.64
620.323	32986.6
620.678	32913.39
621.034	32933.5
621.39	32928.07
621.746	32847.17
622.101	33272.02
622.457	32859.83
622.812	33046.72
623.168	33229.31
623.523	33015.53
623.879	33192.02
624.234	32945.93
624.589	33085.13
624.945	33131.69
625.3	33105.7
625.655	33021.63
626.01	33101.63
626.365	33141.85
626.72	33026.38
627.075	33069.31
627.43	33107.96
627.785	32982.99
628.14	33059.14
628.495	33133.72
628.85	32917
629.205	32855.31
629.559	33039.26
629.914	32968.53
630.269	33033.16
630.623	32866.16
630.978	32804.24
631.332	32995.42
631.687	32967.85
632.041	32787.29
632.396	32907.06
632.75	32791.58
633.104	32747.74
633.459	32552.94
633.813	32606.73
634.167	32515.66
634.521	32575.99
634.875	32668.19
635.229	32604.24
635.583	32335.77
635.937	32487.86
636.291	32394.53
636.645	32428.88
636.999	32312.72
637.352	32430.23
637.706	32183.01
638.06	32400.18
638.413	32297.81
638.767	32242.44
639.121	32259.62
639.474	31999.51
639.828	32020.53
640.181	32104.59
640.534	31938.95
640.888	31861.89
641.241	31860.08
641.594	31951.6
641.947	31927.42
642.301	31791.61
642.654	31763.59
643.007	31821.44
643.36	31712.74
643.713	31759.97
644.066	31795.22
644.419	31649.24
644.771	31322.24
645.124	31181
645.477	31163.83
645.83	30927.68
646.182	30748.92
646.535	30696.72
646.888	30681.13
647.24	30457.41
647.593	30650.39
647.945	30475.03
648.298	30354.36
648.65	30313.68
649.002	30170.86
649.355	30487.24
649.707	30345.77
650.059	30593.22
650.411	30942.36
650.763	30943.95
651.115	31075.47
651.467	31082.47
651.819	31031.85
652.171	30946.21
652.523	30964.74
652.875	30821.69
653.227	30721.35
653.578	30922.03
653.93	30793.22
654.282	30680
654.633	30662.37
654.985	30712.77
655.337	30647
655.688	30732.2
656.039	30769.71
656.391	30491.3
656.742	30550.06
657.094	30473.68
657.445	30573.56
657.796	30664.18
658.147	30485.88
658.498	30480.23
658.849	30528.36
659.2	30446.11
659.551	30456.73
659.902	30453.34
660.253	30386.22
660.604	30569.49
660.955	30295.83
661.306	30453.56
661.656	30379.67
662.007	30419.21
662.358	30313.45
662.708	30236.39
663.059	30353
663.409	29985.78
663.76	30246.34
664.11	30215.83
664.461	30265.32
664.811	30270.74
665.161	30249.5
665.511	30124.08
665.862	30061.03
666.212	30270.52
666.562	30208.15
666.912	30133.8
667.262	30129.73
667.612	30053.8
667.962	30060.81
668.312	30016.06
668.662	30233.46
669.011	30091.31
669.361	30030.75
669.711	30218.77
670.06	29979.68
670.41	29893.35
670.76	29881.83
671.109	30047.92
671.459	29993.24
671.808	29837.08
672.157	29962.73
672.507	29688.61
672.856	29760.25
673.205	29815.39
673.554	29826.91
673.904	29573.13
674.253	29967.93
674.602	29827.82
674.951	29321.39
675.3	29212.47
675.649	29593.93
675.998	29647.71
676.346	29597.99
676.695	29649.97
677.044	29501.72
677.393	29450.2
677.741	29631.66
678.09	29414.27
678.438	29433.48
678.787	29508.28
679.135	29509.18
679.484	29266.48
679.832	29269.41
680.181	29178.79
680.529	29331.56
680.877	29266.02
681.225	29095.63
681.573	29298.11
681.922	29043.88
682.27	29061.28
682.618	29060.38
682.966	28970.66
683.314	29035.75
683.661	28827.17
684.009	28804.57
684.357	28759.37
684.705	28656.77
685.053	28772.48
685.4	28699.49
685.748	28475.76
686.095	28509.89
686.443	28326.39
686.79	28319.61
687.138	28411.13
687.485	28368.65
687.832	28246.84
688.18	28274.41
688.527	28205.04
688.874	28147.41
689.221	28106.28
689.568	27991.71
689.915	28023.57
690.262	27981.09
690.609	27882.56
690.956	27787.87
691.303	27774.09
691.65	27567.31
691.997	27542.45
692.344	27372.29
692.69	27346.07
693.037	27323.25
693.383	27211.62
693.73	27313.53
694.077	27104.95
694.423	27070.15
694.769	27037.16
695.116	26907.89
695.462	26883.71
695.808	26766.43
696.155	26884.62
696.501	26603.04
696.847	26673.55
697.193	26425.42
697.539	26522.14
697.885	26275.82
698.231	26342.03
698.577	26328.47
698.923	26293.45
699.269	26097.07
699.614	25960.8
699.96	25987.01
700.306	25967.81
700.651	25782.27
700.997	25753.12
701.342	25758.77
701.688	25699.11
702.033	25643.52
702.379	25538.44
702.724	25385.45
703.069	25429.97
703.415	25077.21
703.76	25199.92
704.105	25277.43
704.45	25274.94
704.795	24967.38
705.14	24979.58
705.485	25027.94
705.83	24882.64
706.175	24790.89
706.52	24797.89
706.865	24688.52
707.209	24531.46
707.554	24562.87
707.899	24641.51
708.243	24426.83
708.588	24469.09
708.932	24363.33
709.277	24335.53
709.621	24281.97
709.966	24186.16
710.31	24224.8
710.654	23920.4
710.998	23957.46
711.342	23947.52
711.687	23936.22
712.031	23855.77
712.375	23845.38
712.719	23827.07
713.063	23802.89
713.407	23825.04
713.75	23717.47
714.094	23646.74
714.438	23530.81
714.782	23599.73
715.125	23363.35
715.469	23477.25
715.812	23293.07
716.156	23248.33
716.499	23259.63
716.843	23265.28
717.186	23200.65
717.53	23263.47
717.873	23143.7
718.216	23060.99
718.559	23079.97
718.902	22873.65
719.246	22929.47
719.589	22771.28
719.932	22758.17
720.275	22701.45
720.617	22812.86
720.96	22720.66
721.303	22734.44
721.646	22723.6
721.989	22541.68
722.331	22619.65
722.674	22529.03
723.016	22560.44
723.359	22508.91
723.701	22464.62
724.044	22368.8
724.386	22181.69
724.729	22290.61
725.071	22233.67
725.413	22251.52
725.755	22168.36
726.097	22118.19
726.439	22007.68
726.782	22071.64
727.124	22099.66
727.465	21976.95
727.807	22056.04
728.149	21867.35
728.491	21840.23
728.833	21845.2
729.175	21696.28
729.516	21704.64
729.858	21736.28
730.199	21771.76
730.541	21627.58
730.882	21511.2
731.224	21643.4
731.565	21461.48
731.906	21528.83
732.248	21524.76
732.589	21481.82
732.93	21413.35
733.271	21415.61
733.612	21348.27
733.953	21383.07
734.294	21315.5
734.635	21207.93
734.976	21271.66
735.317	21251.55
735.658	21158.21
735.999	21214.94
736.339	21023.76
736.68	21163.41
737.021	21096.3
737.361	20909.18
737.702	20975.62
738.042	20941.5
738.383	20918.67
738.723	20926.81
739.063	20816.75
739.404	20812.01
739.744	20786.47
740.084	20644.78
740.424	20732.24
740.764	20573.15
741.104	20756.19
741.444	20669.64
741.784	20494.5
742.124	20537.44
742.464	20551.45
742.804	20475.07
743.143	20430.1
743.483	20440.72
743.823	20420.61
744.162	20356.65
744.502	20461.96
744.841	20295.64
745.181	20424
745.52	20177.68
745.86	20195.08
746.199	20313.49
746.538	20126.83
746.877	20235.75
747.216	20134.29
747.556	20135.64
747.895	20075.98
748.234	19974.07
748.573	20037.11
748.911	19821.98
749.25	19908.08
749.589	19823.11
749.928	19858.59
750.267	19857.91
750.605	19731.59
750.944	19696.56
751.283	19619.95
751.621	19617.69
751.96	19583.57
752.298	19577.01
752.636	19537.01
752.975	19507.64
753.313	19391.26
753.651	19400.75
753.989	19223.58
754.327	19300.64
754.666	19143.13
755.004	19176.57
755.342	19146.74
755.679	19169.79
756.017	19162.79
756.355	19100.42
756.693	18949.91
757.031	19041.89
757.368	18867.2
757.706	18803.47
758.044	18789.24
758.381	18824.94
758.719	18747.66
759.056	18721.67
759.394	18649.81
759.731	18590.15
760.068	18468.34
760.405	18459.53
760.743	18396.25
761.08	18415.91
761.417	18441.68
761.754	18373.88
762.091	18252.98
762.428	18213.21
762.765	18020.9
763.102	18090.27
763.438	18008.69
763.775	17862.26
764.112	17978.86
764.449	17960.33
764.785	17838.98
765.122	17811.41
765.458	17667.23
765.795	17593.79
766.131	17537.29
766.467	17448.71
766.804	17435.6
767.14	17234.48
767.476	17319.9
767.812	17318.77
768.148	17260.92
768.485	17183.63
768.821	17088.49
769.157	17096.63
769.492	16957.87
769.828	17015.72
770.164	16856.86
770.5	16799.46
770.836	16791.55
771.171	16730.31
771.507	16732.79
771.842	16550.88
772.178	16595.4
772.513	16500.94
772.849	16410.09
773.184	16324.67
773.519	16344.1
773.855	16217.1
774.19	16121.06
774.525	16092.59
774.86	16095.75
775.195	16103.21
775.53	16041.29
775.865	15978.46
776.2	15868.64
776.535	15704.12
776.87	15741.63
777.205	15649.21
777.539	15624.58
777.874	15619.6
778.209	15429.1
778.543	15369.44
778.878	15278.82
779.212	15401.3
779.547	15305.49
779.881	15268.2
780.215	15253.06
780.55	15230.69
780.884	15137.58
781.218	15060.75
781.552	15004.93
781.886	14962.45
782.22	14869.34
782.554	14868.89
782.888	14671.38
783.222	14619.86
783.556	14569.01
783.889	14559.52
784.223	14517.94
784.557	14484.27
784.89	14439.75
785.224	14331.73
785.557	14253.54
785.891	14253.76
786.224	14225.97
786.558	14235.69
786.891	14111.85
787.224	13905.75
787.557	14083.15
787.891	14003.83
788.224	13896.94
788.557	13956.82
788.89	13816.71
789.223	13814.45
789.556	13716.38
789.888	13730.61
790.221	13681.8
790.554	13594.57
790.887	13649.94
791.219	13552.77
791.552	13487.68
791.884	13442.03
792.217	13379.44
792.549	13440.45
792.882	13220.12
793.214	13230.06
793.546	13174.24
793.879	13077.75
794.211	13045.89
794.543	13128.37
794.875	13122.49
795.207	13052.21
795.539	12967.47
795.871	12994.59
796.203	12858.32
796.535	12764.99
796.867	12742.16
797.198	12727.48
797.53	12693.13
797.862	12671.43
798.193	12598.21
798.525	12633.47
798.856	12630.3
799.188	12440.25
799.519	12370.88
799.85	12388.05
800.182	12346.7
800.513	12397.09
800.844	12220.14
801.175	12357.99
801.506	12247.04
801.837	12209.52
802.168	12162.29
802.499	12142.41
802.83	11993.26
803.161	12003.2
803.491	12043.88
803.822	11940.38
804.153	11956.42
804.483	11864.22
804.814	11831
805.145	11837.1
805.475	11807.5
805.805	11709.42
806.136	11783.09
806.466	11779.7
806.796	11650.67
807.126	11664.68
807.457	11569.77
807.787	11619.03
808.117	11590.78
808.447	11494.29
808.777	11529.09
809.107	11412.71
809.436	11445.48
809.766	11409.54
810.096	11289.32
810.426	11393.5
810.755	11286.84
811.085	11330.68
811.414	11250.9
811.744	11207.97
812.073	11164.81
812.403	11255.2
812.732	11081.42
813.061	11139.04
813.39	11085.49
813.719	10994.64
814.049	11013.4
814.378	11076.22
814.707	10979.73
815.036	10939.73
815.365	10946.28
815.693	10781.99
816.022	10801.88
816.351	10826.74
816.68	10744.03
817.008	10737.02
817.337	10685.27
817.665	10622.45
817.994	10624.93
818.322	10685.04
818.651	10616.8
818.979	10584.26
819.307	10624.71
819.636	10604.59
819.964	10476.46
820.292	10655.89
820.62	10502.45
820.948	10480.98
821.276	10545.61
821.604	10503.35
821.932	10544.71
822.259	10495.9
822.587	10470.36
822.915	10431.04
823.243	10430.36
823.57	10499.74
823.898	10514.88
824.225	10405.28
824.553	10421.32
824.88	10400.98
825.207	10486.86
825.535	10409.34
825.862	10473.98
826.189	10408.67
826.516	10454.09
826.843	10517.14
827.17	10463.58
827.497	10513.07
827.824	10441.21
828.151	10532.51
828.478	10494.99
828.805	10494.99
829.131	10450.25
829.458	10417.25
829.785	10358.95
830.111	10433.75
830.438	10476.91
830.764	10378.39
831.09	10403.02
831.417	10409.8
831.743	10421.1
832.069	10409.12
832.395	10400.31
832.722	10446.86
833.048	10327.09
833.374	10400.53
833.7	10306.07
834.026	10403.92
834.351	10371.83
834.677	10322.12
835.003	10294.77
835.329	10259.74
835.654	10329.12
835.98	10272.63
836.306	10231.5
836.631	10175.9
836.956	10278.5
837.282	10313.08
837.607	10222.91
837.932	10139.75
838.258	10173.64
838.583	10094.78
838.908	10121.89
839.233	10130.03
839.558	10082.8
839.883	10080.09
840.208	10066.3
840.533	10062.24
840.858	10022.91
841.182	10035.34
841.507	9995.8
841.832	9975.46
842.156	10014.78
842.481	9953.99
842.805	9929.81
843.13	9844.16
843.454	9820.89
843.778	9787.67
844.103	9801.23
844.427	9815.46
844.751	9703.15
845.075	9770.94
845.399	9704.73
845.723	9650.95
846.047	9721.45
846.371	9591.74
846.695	9557.39
847.019	9475.58
847.343	9496.6
847.666	9474.68
847.99	9422.25
848.313	9380.67
848.637	9284.18
848.96	9321.24
849.284	9311.52
849.607	9258.19
849.931	9181.58
850.254	9180.45
850.577	9194.01
850.9	9051.64
851.223	9010.74
851.546	9012.09
851.869	8898.2
852.192	8980.46
852.515	8881.02
852.838	8883.96
853.161	8894.81
853.483	8796.96
853.806	8771.2
854.129	8737.3
854.451	8715.38
854.774	8710.18
855.096	8638.32
855.419	8676.96
855.741	8678.32
856.063	8588.83
856.385	8562.84
856.708	8534.59
857.03	8506.34
857.352	8530.75
857.674	8465.22
857.996	8473.12
858.318	8395.84
858.64	8414.82
858.961	8365.56
859.283	8404.2
859.605	8382.05
859.926	8388.61
860.248	8306.35
860.57	8318.33
860.891	8254.37
861.212	8233.58
861.534	8211.89
861.855	8227.48
862.176	8232.9
862.498	8167.37
862.819	8218.67
863.14	8161.72
863.461	8113.81
863.782	8132.57
864.103	8147.26
864.424	8039.01
864.745	8066.36
865.065	8030.65
865.386	8100.25
865.707	8068.16
866.027	8025.9
866.348	8023.42
866.668	7986.81
866.989	7963.08
867.309	7908.62
867.63	7920.6
867.95	7934.61
868.27	7875.85
868.59	7931.22
868.91	7820.94
869.23	7872.91
869.55	7821.84
869.87	7886.02
870.19	7823.2
870.51	7865.68
870.83	7829.98
871.15	7818
871.469	7802.41
871.789	7838.11
872.109	7790.88
872.428	7693.48
872.748	7769.64
873.067	7736.87
873.386	7678.34
873.706	7697.33
874.025	7689.19
874.344	7695.97
874.663	7665.91
874.982	7634.5
875.301	7613.94
875.62	7622.07
875.939	7589.08
876.258	7632.47
876.577	7531.91
876.896	7566.71
877.214	7594.28
877.533	7535.97
877.852	7564.45
878.17	7627.5
878.489	7551.79
878.807	7479.03
879.125	7504.79
879.444	7470.89
879.762	7416.88
880.08	7460.27
880.398	7458.91
880.716	7422.98
881.034	7397.9
881.352	7416.66
881.67	7387.05
881.988	7420.72
882.306	7397.9
882.624	7423.89
882.941	7315.64
883.259	7252.59
883.577	7293.95
883.894	7264.12
884.212	7257.79
884.529	7287.39
884.846	7256.21
885.164	7279.94
885.481	7211.01
885.798	7220.5
886.115	7137.11
886.432	7226.83
886.75	7130.79
887.067	7201.75
887.383	7094.63
887.7	7092.37
888.017	7032.03
888.334	7090.56
888.651	7048.08
888.967	7024.12
889.284	7009.21
889.6	7024.58
889.917	6920.62
890.233	6946.84
890.55	6897.57
890.866	6891.47
891.182	6888.08
891.498	6841.98
891.815	6803.56
892.131	6768.99
892.447	6807.41
892.763	6788.42
893.079	6768.54
893.395	6767.63
893.71	6738.03
894.026	6754.07
894.342	6702.32
894.657	6678.6
894.973	6660.29
895.289	6686.73
895.604	6664.13
895.92	6613.29
896.235	6575.55
896.55	6607.64
896.865	6560.63
897.181	6533.06
897.496	6537.13
897.811	6501.2
898.126	6477.02
898.441	6472.95
898.756	6401.77
899.071	6394.54
899.386	6380.07
899.7	6336.68
900.015	6339.62
900.33	6225.73
900.644	6295.1
900.959	6319.28
901.273	6307.76
901.588	6219.17
901.902	6184.82
902.216	6188.89
902.531	6161.1
902.845	6112.73
903.159	6130.81
903.473	6086.07
903.787	6077.26
904.101	5988.9
904.415	6026.41
904.729	6044.26
905.042	5997.94
905.356	5958.61
905.67	5909.8
905.984	5972.85
906.297	5866.64
906.611	5882.23
906.924	5882.46
907.237	5846.3
907.551	5818.96
907.864	5800.43
908.177	5799.3
908.491	5790.48
908.804	5761.33
909.117	5706.87
909.43	5684.95
909.743	5693.99
910.056	5694.89
910.368	5597.95
910.681	5602.24
910.994	5558.17
911.307	5503.03
911.619	5541
911.932	5594.33
912.244	5437.95
912.557	5513.2
912.869	5461.68
913.181	5464.84
913.494	5450.15
913.806	5391.85
914.118	5382.81
914.43	5343.94
914.742	5347.33
915.054	5323.15
915.366	5296.94
915.678	5211.29
915.99	5223.04
916.302	5220.78
916.613	5215.58
916.925	5170.16
917.236	5185.98
917.548	5088.58
917.859	5117.73
918.171	5131.07
918.482	5122.25
918.794	4999.09
919.105	5024.85
919.416	5011.52
919.727	4974.46
920.038	4974.01
920.349	4934.69
920.66	4956.38
920.971	4927.46
921.282	4934.01
921.593	4888.59
921.903	4816.5
922.214	4819.66
922.525	4842.71
922.835	4833.9
923.146	4753
923.456	4753.9
923.767	4723.39
924.077	4755.03
924.387	4712.09
924.697	4677.74
925.008	4692.89
925.318	4635.94
925.628	4638.2
925.938	4620.34
926.248	4579.67
926.558	4558.2
926.867	4492.66
927.177	4548.93
927.487	4487.92
927.796	4440.46
928.106	4495.83
928.416	4471.2
928.725	4409.05
929.034	4397.53
929.344	4422.61
929.653	4388.26
929.962	4374.25
930.271	4296.06
930.581	4303.74
930.89	4300.58
931.199	4278.43
931.508	4283.63
931.817	4295.61
932.125	4238.21
932.434	4212.9
932.743	4198.89
933.051	4212.9
933.36	4153.46
933.669	4142.84
933.977	4098.32
934.286	4105.78
934.594	4134.26
934.902	4106.23
935.21	4059.46
935.519	4050.19
935.827	4060.13
936.135	4015.39
936.443	4014.71
936.751	4031.21
937.059	3972.68
937.367	3939.68
937.674	3971.32
937.982	3932.45
938.29	3936.75
938.597	3920.7
938.905	3872.34
939.213	3831.44
939.52	3854.72
939.827	3837.99
940.135	3793.93
940.442	3807.71
940.749	3765.9
941.056	3787.15
941.363	3705.57
941.67	3751.89
941.977	3720.26
942.284	3687.94
942.591	3677.54
942.898	3656.08
943.205	3640.26
943.511	3625.57
943.818	3619.47
944.125	3625.12
944.431	3589.19
944.738	3577.66
945.044	3577.43
945.35	3542.86
945.657	3511.22
945.963	3531.11
946.269	3505.35
946.575	3518.45
946.881	3494.05
947.187	3441.62
947.493	3421.96
947.799	3441.17
948.105	3431.22
948.41	3421.28
948.716	3395.97
949.022	3388.29
949.327	3382.64
949.633	3306.03
949.938	3335.18
950.244	3333.15
950.549	3293.37
950.854	3275.97
951.16	3266.48
951.465	3279.59
951.77	3264.22
952.075	3261.96
952.38	3242.3
952.685	3243.43
952.99	3215.18
953.294	3183.55
953.599	3190.78
953.904	3129.76
954.209	3187.84
954.513	3152.81
954.818	3166.82
955.122	3145.36
955.426	3060.16
955.731	3057.9
956.035	3072.59
956.339	3073.27
956.643	3068.97
956.948	3005.25
957.252	3033.49
957.556	3029.43
957.86	3029.2
958.163	2998.92
958.467	2985.13
958.771	2959.37
959.075	2961.86
959.378	2978.35
959.682	2965.02
959.985	2934.51
960.289	2911.24
960.592	2852.71
960.896	2872.37
961.199	2897
961.502	2847.74
961.805	2816.55
962.108	2824.69
962.411	2820.62
962.714	2756.89
963.017	2831.01
963.32	2805.93
963.623	2780.84
963.926	2772.26
964.228	2766.61
964.531	2776.78
964.833	2744.01
965.136	2718.93
965.438	2720.96
965.741	2692.71
966.043	2661.07
966.345	2679.38
966.648	2649.55
966.95	2674.41
967.252	2618.36
967.554	2622.43
967.856	2626.05
968.158	2601.41
968.46	2618.82
968.761	2614.97
969.063	2567.07
969.365	2580.62
969.666	2579.27
969.968	2544.69
970.269	2554.41
970.571	2541.76
970.872	2543.56
971.174	2520.51
971.475	2498.14
971.776	2442.1
972.077	2467.41
972.378	2475.99
972.679	2454.98
972.98	2425.15
973.281	2448.42
973.582	2421.76
973.883	2387.18
974.183	2395.32
974.484	2379.05
974.785	2369.78
975.085	2380.4
975.386	2369.33
975.686	2362.78
975.986	2355.77
976.287	2372.27
976.587	2318.26
976.887	2343.34
977.187	2290.01
977.487	2274.42
977.787	2298.6
978.087	2292.04
978.387	2277.13
978.687	2251.37
978.987	2217.24
979.286	2274.87
979.586	2245.04
979.885	2223.57
980.185	2242.33
980.484	2201.88
980.784	2210.24
981.083	2182.67
981.382	2179.5
981.682	2209.56
981.981	2123.46
982.28	2149.22
982.579	2147.42
982.878	2156.45
983.177	2105.38
983.475	2106.74
983.774	2102.44
984.073	2120.52
984.372	2117.81
984.67	2092.28
984.969	2093.41
985.267	2038.49
985.566	2020.86
985.864	2030.13
986.162	2042.79
986.461	2026.97
986.759	2054.08
987.057	1968.44
987.355	2005.5
987.653	2001.66
987.951	2000.98
988.249	1963.01
988.547	2005.27
988.844	1939.74
989.142	2005.5
989.44	1945.61
989.737	1916.23
990.035	1940.64
990.332	1913.3
990.63	1930.92
990.927	1901.55
991.224	1885.28
991.521	1922.11
991.819	1886.63
992.116	1869.68
992.413	1855.22
992.71	1900.19
993.006	1836.01
993.303	1836.69
993.6	1819.74
993.897	1833.75
994.193	1824.49
994.49	1834.88
994.787	1783.36
995.083	1778.84
995.379	1805.28
995.676	1790.59
995.972	1767.09
996.268	1758.5
996.565	1742
996.861	1754.21
997.157	1718.95
997.453	1715.34
997.749	1718.73
998.044	1684.6
998.34	1679.4
998.636	1676.02
998.932	1666.3
999.227	1653.19
999.523	1677.82
999.818	1674.89
1000.114	1669.91
1000.409	1632.4
1000.704	1619.75
1001	1639.86
1001.295	1619.52
1001.59	1624.72
1001.885	1619.97
1002.18	1589.01
1002.475	1585.85
1002.77	1587.88
1003.065	1580.2
1003.359	1567.09
1003.654	1552.18
1003.949	1547.88
1004.243	1554.89
1004.538	1531.16
1004.832	1549.92
1005.127	1519.18
1005.421	1510.14
1005.715	1512.18
1006.009	1481.9
1006.304	1490.03
1006.598	1494.1
1006.892	1473.99
1007.186	1454.78
1007.48	1466.3
1007.773	1427.43
1008.067	1425.4
1008.361	1437.6
1008.655	1436.47
1008.948	1442.12
1009.242	1417.26
1009.535	1402.12
1009.829	1397.6
1010.122	1427.66
1010.415	1366.87
1010.708	1349.92
1011.001	1359.19
1011.295	1340.2
1011.588	1330.49
1011.881	1342.46
1012.173	1340.66
1012.466	1344.27
1012.759	1331.62
1013.052	1314.22
1013.344	1315.35
1013.637	1307.44
1013.93	1288.23
1014.222	1283.48
1014.514	1278.06
1014.807	1274.22
1015.099	1260.88
1015.391	1264.05
1015.683	1264.05
1015.976	1262.24
1016.268	1240.32
1016.56	1231.51
1016.851	1225.63
1017.143	1255.24
1017.435	1220.89
1017.727	1225.63
1018.018	1215.69
1018.31	1206.2
1018.602	1193.09
1018.893	1172.07
1019.185	1179.08
1019.476	1155.35
1019.767	1156.03
1020.058	1168.01
1020.35	1151.28
1020.641	1144.96
1020.932	1146.54
1021.223	1113.54
1021.514	1118.06
1021.804	1083.26
1022.095	1082.58
1022.386	1095.47
1022.677	1097.05
1022.967	1063.83
1023.258	1071.96
1023.548	1079.19
1023.839	1066.31
1024.129	1069.7
1024.419	1061.34
1024.709	1039.2
1025	1038.52
1025.29	1038.29
1025.58	1034
1025.87	1022.93
1026.16	1024.73
1026.449	1023.83
1026.739	1005.52
1027.029	1026.09
1027.319	1020.21
1027.608	1008.91
1027.898	967.79
1028.187	973.43
1028.477	977.73
1028.766	972.08
1029.055	966.43
1029.344	970.5
1029.634	946.77
1029.923	965.53
1030.212	944.74
1030.501	948.12
1030.79	919.88
1031.078	915.13
1031.367	923.27
1031.656	902.02
1031.945	914.45
1032.233	928.46
1032.522	892.08
1032.81	907.67
1033.099	879.2
1033.387	878.07
1033.675	889.82
1033.963	854.34
1034.251	859.54
1034.54	850.27
1034.828	817.05
1035.116	872.42
1035.403	846.66
1035.691	855.92
1035.979	846.43
1036.267	822.03
1036.554	833.33
1036.842	814.79
1037.129	797.62
1037.417	802.82
1037.704	801.69
1037.992	807.79
1038.279	799.65
1038.566	774.34
1038.853	774.34
1039.14	774.34
