Data from breadboard_white_FLMS001491_00058.txt Node
Date: Wed Feb 08 10:47:57 GMT 2017
User: dcchb
Spectrometer: FLMS00149
Trigger mode: 0
Integration Time (sec): 2.000000E-2
Scans to average: 10
Electric dark correction enabled: true
Nonlinearity correction enabled: false
Boxcar width: 0
XAxis mode: Wavelengths
Number of Pixels in Spectrum: 2048
>>>>>Begin Spectral Data<<<<<
341.393	-23.93
341.776	-23.93
342.16	-23.93
342.543	-80.65
342.927	-65.73
343.31	-70.48
343.693	-71.83
344.077	-73.87
344.46	-49.69
344.843	-63.25
345.226	-34.1
345.61	-26.19
345.993	-4.72
346.376	7.26
346.759	-0.88
347.142	22.17
347.525	27.37
347.908	63.53
348.291	71.44
348.674	98.33
349.057	104.88
349.44	148.05
349.823	148.72
350.206	166.8
350.588	221.72
350.971	252
351.354	254.03
351.737	265.33
352.119	263.3
352.502	257.65
352.884	282.51
353.267	326.8
353.65	327.25
354.032	330.87
354.414	328.83
354.797	332.45
355.179	345.78
355.562	326.57
355.944	350.08
356.326	355.95
356.709	348.49
357.091	358.89
357.473	369.06
357.855	375.84
358.238	388.49
358.62	381.94
359.002	356.63
359.384	374.03
359.766	345.78
360.148	370.41
360.53	357.98
360.912	353.01
361.294	372.45
361.676	366.8
362.057	364.31
362.439	375.16
362.821	366.35
363.203	357.76
363.584	343.52
363.966	386.91
364.348	354.82
364.729	351.43
365.111	347.36
365.493	364.54
365.874	345.33
366.256	350.53
366.637	342.39
367.019	347.82
367.4	347.36
367.781	368.83
368.163	366.57
368.544	369.96
368.925	355.95
369.306	348.49
369.688	361.83
370.069	360.92
370.45	347.14
370.831	367.02
371.212	371.09
371.593	371.32
371.974	366.57
372.355	386.23
372.736	364.54
373.117	370.87
373.498	369.96
373.879	359.57
374.26	369.06
374.641	361.15
375.021	367.93
375.402	363.63
375.783	372.9
376.163	414.25
376.544	396.63
376.925	368.38
377.305	384.88
377.686	380.58
378.066	404.99
378.447	414.48
378.827	391.43
379.208	412.45
379.588	404.31
379.968	412.9
380.349	420.36
380.729	402.05
381.109	412.67
381.489	411.99
381.87	412.22
382.25	420.81
382.63	439.79
383.01	409.73
383.39	427.36
383.77	442.5
384.15	421.71
384.53	445.44
384.91	434.82
385.29	451.09
385.67	445.67
386.049	457.64
386.429	446.57
386.809	465.78
387.189	482.73
387.568	457.19
387.948	473.01
388.328	490.64
388.707	485.21
389.087	494.48
389.466	493.8
389.846	488.83
390.225	515.95
390.605	510.75
390.984	514.59
391.363	509.17
391.743	527.7
392.122	535.61
392.501	529.05
392.881	542.84
393.26	553.23
393.639	574.93
394.018	590.52
394.397	576.96
394.776	545.55
395.155	590.52
395.534	587.81
395.913	591.88
396.292	608.37
396.671	619.45
397.05	633.68
397.429	642.05
397.808	647.24
398.186	637.3
398.565	653.8
398.944	656.06
399.323	677.98
399.701	687.02
400.08	707.58
400.458	709.84
400.837	719.56
401.215	727.01
401.594	711.42
401.972	738.77
402.351	764.08
402.729	771.76
403.107	797.3
403.486	812.21
403.864	815.37
404.242	823.28
404.62	818.31
404.999	845.2
405.377	839.55
405.755	861.7
406.133	877.07
406.511	896.73
406.889	911.64
407.267	939.44
407.645	964.07
408.023	988.25
408.401	977.63
408.779	994.13
409.156	1033.22
409.534	1033.67
409.912	1048.81
410.29	1095.82
410.667	1104.18
411.045	1144.63
411.422	1143.73
411.8	1167.68
412.178	1202.48
412.555	1235.48
412.933	1230.05
413.31	1272.31
413.687	1269.6
414.065	1297.17
414.442	1336.26
414.819	1352.54
415.197	1374.68
415.574	1410.16
415.951	1406.54
416.328	1423.95
416.705	1437.5
417.082	1451.06
417.46	1515.69
417.837	1521.34
418.214	1562.02
418.591	1543.26
418.967	1562.93
419.344	1598.18
419.721	1614.45
420.098	1594.79
420.475	1643.37
420.852	1681.79
421.228	1720.21
421.605	1692.87
421.982	1706.42
422.358	1771.96
422.735	1795.46
423.111	1812.64
423.488	1856.02
423.864	1841.11
424.241	1872.3
424.617	1891.5
424.994	1907.55
425.37	1943.71
425.746	1944.84
426.123	1971.28
426.499	2025.96
426.875	2041.56
427.251	2050.6
427.627	2132.85
428.003	2106.87
428.379	2172.4
428.756	2146.41
429.132	2240.87
429.507	2265.05
429.883	2265.05
430.259	2313.41
430.635	2365.39
431.011	2357.93
431.387	2429.34
431.763	2460.98
432.138	2491.71
432.514	2523.35
432.89	2516.8
433.265	2575.33
433.641	2598.38
434.016	2651.71
434.392	2704.59
434.767	2761.99
435.143	2739.84
435.518	2788.43
435.894	2829.56
436.269	2872.5
436.644	2907.3
437.02	2944.13
437.395	2935.77
437.77	3024.13
438.145	3094.41
438.52	3088.08
438.895	3086.95
439.271	3091.25
439.646	3209.66
440.021	3209.21
440.395	3234.75
440.77	3185.48
441.145	3265.71
441.52	3326.49
441.895	3285.37
442.27	3375.53
442.645	3363.56
443.019	3441.75
443.394	3405.14
443.769	3468.64
444.143	3430.22
444.518	3516.55
444.892	3539.82
445.267	3600.61
445.641	3626.15
446.016	3617.79
446.39	3704.11
446.764	3675.41
447.139	3687.61
447.513	3746.37
447.887	3726.48
448.262	3787.73
448.636	3766.03
449.01	3883.99
449.384	3869.31
449.758	3921.28
450.132	3989.98
450.506	3986.82
450.88	4008.96
451.254	4054.16
451.628	4113.14
452.002	4115.85
452.376	4177.77
452.75	4219.35
453.123	4292.12
453.497	4324.89
453.871	4364.89
454.244	4424.54
454.618	4465.9
454.992	4553.58
455.365	4572.34
455.739	4665.44
456.112	4723.97
456.486	4744.54
456.859	4820.47
457.232	4888.71
457.606	4918.09
457.979	5007.13
458.352	5061.82
458.725	5138.42
459.099	5216.16
459.472	5278.99
459.845	5320.34
460.218	5379.1
460.591	5449.6
460.964	5492.31
461.337	5585.42
461.71	5682.36
462.083	5784.73
462.456	5750.39
462.829	5815.92
463.201	5905.18
463.574	5983.6
463.947	6047.55
464.32	6233.54
464.692	6247.55
465.065	6317.6
465.438	6439.41
465.81	6464.04
466.183	6508.33
466.555	6659.74
466.928	6746.29
467.3	6783.8
467.672	6866.06
468.045	7088.88
468.417	7050.01
468.789	7083.91
469.161	7237.13
469.534	7337.91
469.906	7560.51
470.278	7546.5
470.65	7701.52
471.022	7836.43
471.394	7981.97
471.766	8008.86
472.138	8199.81
472.51	8290.21
472.882	8459.47
473.253	8543.31
473.625	8685.68
473.997	8883.41
474.369	8886.57
474.74	8976.29
475.112	9174.7
475.484	9377.63
475.855	9524.98
476.227	9597.06
476.598	9856.04
476.97	10001.57
477.341	10193.66
477.713	10292.19
478.084	10387.33
478.455	10719.07
478.827	10769.69
479.198	11137.59
479.569	11084.71
479.94	11505.26
480.311	11557.69
480.682	11837.91
481.053	12067.96
481.424	12255.07
481.795	12420.94
482.166	12625.68
482.537	12910.65
482.908	13031.55
483.279	13267.7
483.65	13382.5
484.021	13744.75
484.391	13823.17
484.762	13998.08
485.133	14140.45
485.503	14333.66
485.874	14609.36
486.244	14789.92
486.615	15127.54
486.985	15192.17
487.356	15571.6
487.726	15701.31
488.097	15966.39
488.467	16032.38
488.837	16418.81
489.207	16616.99
489.578	16869.64
489.948	17000.71
490.318	17384.43
490.688	17296.52
491.058	17651.09
491.428	17861.03
491.798	18018.99
492.168	18410.39
492.538	18388.7
492.908	18658.52
493.278	19020.77
493.648	19105.29
494.017	19306.87
494.387	19491.95
494.757	19735.33
495.126	19846.51
495.496	19956.34
495.866	20151.14
496.235	20350.68
496.605	20513.16
496.974	20726.04
497.344	20736.43
497.713	20943.88
498.082	21053.26
498.452	21382.97
498.821	21417.54
499.19	21613.02
499.559	21886.68
499.928	22016.85
500.298	22031.09
500.667	22297.52
501.036	22335.71
501.405	22544.29
501.774	22629.72
502.143	22834
502.512	23014.79
502.88	23239.19
503.249	23230.6
503.618	23375.46
503.987	23635.56
504.356	23766.41
504.724	23888.21
505.093	24137.25
505.462	24089.11
505.83	24337.92
506.199	24573.39
506.567	24833.05
506.936	24879.37
507.304	25218.12
507.672	25150.78
508.041	25420.38
508.409	25654.95
508.777	25817.65
509.145	25971.1
509.514	26082.73
509.882	26285.89
510.25	26487.24
510.618	26530.86
510.986	26711.42
511.354	26962.71
511.722	27313.21
512.09	27483.6
512.458	27450.38
512.826	27772.63
513.193	27945.96
513.561	28131.27
513.929	28383.01
514.297	28583.23
514.664	28792.94
515.032	28834.07
515.4	29198.13
515.767	29339.82
516.135	29528.74
516.502	29378.01
516.869	29944.33
517.237	30103.87
517.604	30022.06
517.972	30476.97
518.339	30618.88
518.706	30751.08
519.073	31031.75
519.44	31032.43
519.808	31576.6
520.175	31516.71
520.542	32073.76
520.909	32147.21
521.276	32150.14
521.643	32582.9
522.009	32835.1
522.376	32989.44
522.743	33266.95
523.11	33646.6
523.477	33863.32
523.843	33991.9
524.21	34542.85
524.577	34761.15
524.943	34807.93
525.31	35174.47
525.676	35380.79
526.043	35684.29
526.409	35776.49
526.776	36226.42
527.142	36293.09
527.508	36554.55
527.874	36833.18
528.241	36966.29
528.607	37235.21
528.973	37535.09
529.339	37620.96
529.705	38037.67
530.071	38289.19
530.437	38420.71
530.803	38650.09
531.169	38800.59
531.535	38802.4
531.901	38983.86
532.267	39291.2
532.632	39572.1
532.998	39502.94
533.364	40000.11
533.73	40069.03
534.095	40257.05
534.461	40431.96
534.826	40685.51
535.192	40738.84
535.557	41204.59
535.923	41087.99
536.288	41413.4
536.653	41480.52
537.019	41377.92
537.384	41677.35
537.749	41841.41
538.114	42048.41
538.479	41987.85
538.845	42261.52
539.21	42329.08
539.575	42649.53
539.94	42529.31
540.305	42951.89
540.67	42847.72
541.034	43162.96
541.399	43257.87
541.764	43261.49
542.129	43579.22
542.494	43649.28
542.858	43780.12
543.223	44012.88
543.587	44185.76
543.952	44101.24
544.316	44360.22
544.681	44397.28
545.045	44673.43
545.41	44731.06
545.774	44995.68
546.138	44986.19
546.503	45000.88
546.867	45054.44
547.231	45385.05
547.595	45493.97
547.959	45540.75
548.324	45578.49
548.688	45874.3
549.052	45906.62
549.416	45984.36
549.779	46093.96
550.143	46335.53
550.507	46692.59
550.871	46809.87
551.235	46653.94
551.599	47015.74
551.962	47052.58
552.326	47140.26
552.689	47486.69
553.053	47246.7
553.417	47595.84
553.78	48024.53
554.143	47849.17
554.507	48025.43
554.87	48180
555.234	48414.8
555.597	48392.88
555.96	48616.15
556.323	48742.7
556.686	48770.5
557.05	49045.74
557.413	49158.96
557.776	49221.33
558.139	49558.95
558.502	49595.56
558.865	49663.36
559.228	49982.67
559.59	50001.88
559.953	50237.8
560.316	50620.17
560.679	50494.52
561.041	50731.12
561.404	50942.42
561.767	50993.04
562.129	50969.54
562.492	51400.03
562.854	51380.82
563.217	51344.44
563.579	51628.05
563.941	51794.82
564.304	51951.43
564.666	52039.56
565.028	52077.08
565.39	52230.07
565.753	52470.74
566.115	52616.72
566.477	52636.38
566.839	52681.13
567.201	52974.23
567.563	52943.72
567.925	53149.82
568.287	53241.79
568.648	53337.38
569.01	53461.9
569.372	53727.88
569.734	53597.26
570.095	53838.39
570.457	53921.55
570.819	53911.83
571.18	54013.3
571.542	54219.39
571.903	54267.53
572.265	54296.45
572.626	54419.16
572.987	54501.42
573.349	54486.51
573.71	54693.73
574.071	54719.95
574.432	54840.62
574.794	55093.95
575.155	55000.62
575.516	54959.04
575.877	55089.65
576.238	55128.07
576.599	55225.24
576.96	55282.42
577.32	55185.7
577.681	55370.32
578.042	55465.69
578.403	55472.69
578.763	55435.86
579.124	55508.17
579.485	55493.71
579.845	55673.59
580.206	55590.2
580.566	55555.18
580.927	55640.83
581.287	55725.34
581.648	55708.62
582.008	55852.8
582.368	55778.67
582.728	55834.27
583.089	55842.63
583.449	55756.3
583.809	55826.58
584.169	55872.91
584.529	55778.9
584.889	55989.29
585.249	55834.72
585.609	55766.7
585.969	55942.29
586.329	55827.71
586.688	55920.82
587.048	55928.95
587.408	55822.97
587.768	55970.08
588.127	55889.41
588.487	55919.91
588.846	56077.88
589.206	55862.97
589.565	55893.93
589.925	55975.51
590.284	55894.15
590.643	55965.11
591.003	56072
591.362	56095.05
591.721	56093.92
592.08	56030.19
592.44	56011.66
592.799	56092.11
593.158	56039.91
593.517	56061.38
593.876	56057.76
594.235	56001.49
594.593	56060.93
594.952	56166.01
595.311	56055.73
595.67	56102.06
596.029	56293.01
596.387	56257.31
596.746	56202.62
597.104	56158.33
597.463	56103.19
597.822	56224.76
598.18	56217.76
598.538	56190.87
598.897	56392.9
599.255	56146.57
599.613	56501.59
599.972	56358.55
600.33	56442.16
600.688	56306.34
601.046	56415.49
601.404	56498.43
601.762	56441.03
602.12	56577.07
602.478	56594.25
602.836	56584.98
603.194	56446.45
603.552	56586.56
603.91	56469.05
604.268	56561.25
604.625	56503.18
604.983	56647.58
605.341	56497.53
605.698	56705.43
606.056	56701.14
606.413	56684.64
606.771	56782.72
607.128	56828.14
607.485	56666.33
607.843	56756.05
608.2	56875.37
608.557	56893.45
608.914	56813
609.272	56921.7
609.629	57029.94
609.986	57134.12
610.343	56935.03
610.7	57175.25
611.057	57055.25
611.414	57045.31
611.771	57060.9
612.127	57267.68
612.484	57257.51
612.841	57314.23
613.198	57209.37
613.554	57135.93
613.911	57352.87
614.267	57341.8
614.624	57329.14
614.98	57329.14
615.337	57434.68
615.693	57407.78
616.05	57380.89
616.406	57490.72
616.762	57486.43
617.118	57491.62
617.475	57389.25
617.831	57521.45
618.187	57558.51
618.543	57584.28
618.899	57700.88
619.255	57639.64
619.611	57620.21
619.967	57716.93
620.323	57776.81
620.678	57619.53
621.034	57619.3
621.39	57559.19
621.746	57620.43
622.101	57871.5
622.457	57652.07
622.812	57699.08
623.168	57786.31
623.523	57735.91
623.879	57819.3
624.234	57634.22
624.589	57678.96
624.945	57782.46
625.3	57721.22
625.655	57737.95
626.01	57748.57
626.365	57716.25
626.72	57664.05
627.075	57774.55
627.43	57723.93
627.785	57632.64
628.14	57728
628.495	57724.39
628.85	57694.33
629.205	57621.79
629.559	57731.84
629.914	57570.49
630.269	57655.24
630.623	57567.78
630.978	57453.66
631.332	57634.45
631.687	57680.77
632.041	57486.65
632.396	57537.5
632.75	57463.15
633.104	57520.55
633.459	57356.03
633.813	57324.62
634.167	57378.41
634.521	57286.88
634.875	57329.82
635.229	57328.24
635.583	57167.56
635.937	57203.04
636.291	57106.78
636.645	57121.01
636.999	57047.57
637.352	57088.47
637.706	57037.17
638.06	57134.35
638.413	57011.41
638.767	56930.28
639.121	57037.17
639.474	56807.57
639.828	56845.09
640.181	56880.57
640.534	56838.99
640.888	56749.27
641.241	56660.01
641.594	56727.8
641.947	56857.97
642.301	56671.08
642.654	56685.32
643.007	56677.86
643.36	56615.49
643.713	56570.52
644.066	56675.6
644.419	56531.88
644.771	56348.38
645.124	56148.83
645.477	56048.5
645.83	55853.93
646.182	55696.87
646.535	55623.65
646.888	55670.43
647.24	55493.26
647.593	55633.14
647.945	55549.98
648.298	55390.89
648.65	55363.54
649.002	55295.3
649.355	55403.32
649.707	55347.05
650.059	55498.91
650.411	55783.42
650.763	55877.2
651.115	56085.33
651.467	56003.98
651.819	55952
652.171	55878.33
652.523	55736.19
652.875	55878.56
653.227	55699.13
653.578	55875.62
653.93	55871.55
654.282	55694.84
654.633	55688.96
654.985	55664.33
655.337	55676.76
655.688	55659.81
656.039	55782.74
656.391	55475.41
656.742	55514.73
657.094	55535.97
657.445	55640.83
657.796	55545.01
658.147	55514.05
658.498	55556.53
658.849	55527.83
659.2	55491
659.551	55397.22
659.902	55578.23
660.253	55452.36
660.604	55459.13
660.955	55338.91
661.306	55407.16
661.656	55380.94
662.007	55418.91
662.358	55373.94
662.708	55296.43
663.059	55278.57
663.409	55149.99
663.76	55394.73
664.11	55322.64
664.461	55347.27
664.811	55256.43
665.161	55220.27
665.511	55221.18
665.862	55223.66
666.212	55265.24
666.562	55328.74
666.912	55207.16
667.262	55088.07
667.612	55181.18
667.962	55144.57
668.312	55034.06
668.662	55275.64
669.011	55163.78
669.361	55115.42
669.711	55004.68
670.06	55118.8
670.41	54992.48
670.76	54973.27
671.109	55069.99
671.459	54978.7
671.808	54905.03
672.157	55019.37
672.507	54799.94
672.856	54772.15
673.205	54847.85
673.554	54931.69
673.904	54819.15
674.253	54917
674.602	54831.81
674.951	54471.36
675.3	54314.31
675.649	54660.06
675.998	54669.55
676.346	54710.45
676.695	54721.53
677.044	54512.04
677.393	54596.78
677.741	54665.94
678.09	54592.94
678.438	54449.9
678.787	54545.03
679.135	54531.25
679.484	54269.79
679.832	54466.39
680.181	54303.01
680.529	54372.38
680.877	54284.48
681.225	54237.02
681.573	54396.34
681.922	54145.5
682.27	54012.17
682.618	54030.92
682.966	53989.34
683.314	54126.06
683.661	53939.17
684.009	53753.87
684.357	53736.02
684.705	53765.17
685.053	53770.14
685.4	53673.65
685.748	53543.48
686.095	53511.39
686.443	53412.64
686.79	53312.75
687.138	53371.96
687.485	53410.15
687.832	53243.37
688.18	53265.52
688.527	53134.68
688.874	53062.14
689.221	53012.42
689.568	52883.84
689.915	52920.9
690.262	52776.27
690.609	52646.1
690.956	52621.02
691.303	52657.63
691.65	52399.55
691.997	52351.19
692.344	52259.9
692.69	52211.08
693.037	52215.6
693.383	52053.57
693.73	52070.3
694.077	51880.02
694.423	51875.95
694.769	51682.51
695.116	51649.97
695.462	51605.23
695.808	51570.42
696.155	51505.34
696.501	51334.72
696.847	51285.46
697.193	51051.79
697.539	51180.83
697.885	50903.77
698.231	50856.09
698.577	50744.68
698.923	50774.96
699.269	50562.54
699.614	50394.64
699.96	50262.66
700.306	50296.56
700.651	50231.02
700.997	50066.28
701.342	50090.69
701.688	50005.27
702.033	49789.91
702.379	49821.09
702.724	49723.47
703.069	49760.98
703.415	49352.4
703.76	49420.2
704.105	49343.14
704.45	49309.24
704.795	48990.15
705.14	48951.74
705.485	48979.76
705.83	48674
706.175	48750.38
706.52	48616.15
706.865	48505.19
707.209	48420.68
707.554	48351.98
707.899	48348.36
708.243	48124.41
708.588	48106.56
708.932	47966
709.277	47825.89
709.621	47911.76
709.966	47510.87
710.31	47763.52
710.654	47276.07
710.998	47459.12
711.342	47452.34
711.687	47190.88
712.031	47075.17
712.375	46976.19
712.719	47020.26
713.063	46938
713.407	47059.81
713.75	46738.01
714.094	46714.96
714.438	46566.71
714.782	46681.06
715.125	46422.08
715.469	46473.83
715.812	46184.8
716.156	46083.79
716.499	46184.12
716.843	46094.86
717.186	45884.02
717.53	45961.76
717.873	45922.44
718.216	45832.27
718.559	45565.61
718.902	45362.23
719.246	45425.5
719.589	45245.17
719.932	45254.21
720.275	45159.29
720.617	45202.68
720.96	45150.48
721.303	45020.09
721.646	45079.29
721.989	44839.53
722.331	44819.19
722.674	44753.2
723.016	44759.76
723.359	44674.56
723.701	44719.98
724.044	44471.18
724.386	44289.49
724.729	44398.86
725.071	44150.73
725.413	44172.65
725.755	44155.48
726.097	43970.62
726.439	43796.16
726.782	43871.42
727.124	43967.69
727.465	43709.61
727.807	43647.69
728.149	43584.42
728.491	43511.43
728.833	43578.09
729.175	43237.31
729.516	43337.65
729.858	43204.54
730.199	43203.19
730.541	43237.08
730.882	43011.33
731.224	43130.42
731.565	42779.24
731.906	42946.24
732.248	43026.92
732.589	42807.94
732.93	42460.61
733.271	42455.18
733.612	42563.65
733.953	42512.36
734.294	42427.16
734.635	42248.63
734.976	42395.07
735.317	42192.82
735.658	42106.94
735.999	42120.28
736.339	42097.45
736.68	42179.71
737.021	41908.3
737.361	41709.44
737.702	41913.73
738.042	41763.68
738.383	41614.08
738.723	41751.25
739.063	41476
739.404	41621.98
739.744	41620.18
740.084	41316.23
740.424	41307.19
740.764	41282.56
741.104	41299.96
741.444	41062.23
741.784	40991.49
742.124	41155.1
742.464	40866.07
742.804	40819.07
743.143	40720.54
743.483	40869.46
743.823	40447.33
744.162	40543.14
744.502	40573.42
744.841	40335.46
745.181	40526.65
745.52	40414.78
745.86	40361.45
746.199	40241.46
746.538	40188.58
746.877	40237.84
747.216	40202.81
747.556	39945.87
747.895	40012.31
748.234	39796.5
748.573	39630.62
748.911	39687.12
749.25	39642.83
749.589	39518.76
749.928	39441.25
750.267	39428.37
750.605	39098.44
750.944	39247.58
751.283	39041.49
751.621	39284.19
751.96	38904.32
752.298	38868.38
752.636	38877.42
752.975	38653.02
753.313	38489.64
753.651	38707.71
753.989	38373.93
754.327	38257.78
754.666	38271.34
755.004	38227.72
755.342	38224.56
755.679	38169.42
756.017	37733.5
756.355	38002.42
756.693	37773.05
757.031	37889.43
757.368	37592.26
757.706	37517.91
758.044	37401.98
758.381	37399.95
758.719	37159.28
759.056	37175.1
759.394	36933.52
759.731	36771.49
760.068	36770.13
760.405	36689.23
760.743	36680.65
761.08	36728.33
761.417	36461.67
761.754	36366.53
762.091	36353.65
762.428	36171.05
762.765	35944.62
763.102	36022.81
763.438	35719.99
763.775	35755.7
764.112	35555.25
764.449	35754.12
764.785	35399.55
765.122	35057.86
765.458	35075.94
765.795	35082.27
766.131	34923.18
766.467	34818.55
766.804	34602.06
767.14	34483.64
767.476	34439.35
767.812	34364.55
768.148	34260.37
768.485	34088.85
768.821	33813.15
769.157	33933.15
769.492	33738.8
769.828	33690.89
770.164	33349.43
770.5	33516.44
770.836	33286.84
771.171	33158.93
771.507	33141.98
771.842	32860.86
772.178	32928.88
772.513	32832.39
772.849	32755.1
773.184	32629.68
773.519	32519.85
773.855	32248.9
774.19	32169.35
774.525	32068.56
774.86	32102.24
775.195	32113.76
775.53	31936.36
775.865	31617.05
776.2	31450.5
776.535	31197.4
776.87	31183.62
777.205	31165.54
777.539	31026.78
777.874	31120.11
778.209	30734.14
778.543	30796.73
778.878	30599.22
779.212	30505.67
779.547	30369.4
779.881	30369.4
780.215	30172.79
780.55	30189.52
780.884	30082.63
781.218	29922.86
781.552	29887.83
781.886	29630.21
782.22	29589.98
782.554	29451.46
782.888	29185.02
783.222	29067.06
783.556	29080.62
783.889	28894.64
784.223	28793.4
784.557	28690.12
784.89	28768.76
785.224	28494.42
785.557	28434.31
785.891	28288.55
786.224	28210.13
786.558	28221.43
786.891	28021.21
787.224	27790.26
787.557	27812.86
787.891	27719.53
788.224	27691.28
788.557	27534.67
788.89	27496.48
789.223	27352.98
789.556	27213.55
789.888	27240.22
790.221	26983.27
790.554	26776.73
790.887	26816.72
791.219	26843.39
791.552	26661.7
791.884	26608.14
792.217	26499.9
792.549	26297.42
792.882	26128.15
793.214	26145.1
793.546	26142.17
793.879	26032.34
794.211	25825.11
794.543	25881.38
794.875	25692.01
795.207	25877.09
795.539	25639.13
795.871	25537.66
796.203	25392.13
796.535	25200.04
796.867	25165.24
797.198	25287.05
797.53	25166.82
797.862	24970.45
798.193	24976.55
798.525	24770.22
798.856	24853.39
799.188	24582.21
799.519	24449.55
799.85	24329.33
800.182	24410.23
800.513	24380.86
800.844	24076.91
801.175	24228.54
801.506	24207.3
801.837	24130.47
802.168	23953.3
802.499	23943.35
802.83	23796.01
803.161	23790.82
803.491	23701.1
803.822	23659.29
804.153	23586.75
804.483	23376.81
804.814	23351.5
805.145	23296.14
805.475	23212.53
805.805	23101.12
806.136	23150.61
806.466	23090.27
806.796	22937.05
807.126	22763.5
807.457	22799.65
807.787	22858.64
808.117	22758.98
808.447	22626.78
808.777	22620.9
809.107	22566.89
809.436	22422.94
809.766	22397.63
810.096	22271.53
810.426	22236.96
810.755	22271.08
811.085	22239.22
811.414	22095.94
811.744	21970.75
812.073	21934.82
812.403	21954.25
812.732	21860.47
813.061	21801.94
813.39	21562.4
813.719	21647.59
814.049	21722.39
814.378	21662.06
814.707	21441.27
815.036	21444.21
815.365	21301.62
815.693	21129.19
816.022	21210.77
816.351	21103.2
816.68	20964.45
817.008	21073.37
817.337	20754.51
817.665	20858.91
817.994	20865.02
818.322	20851.23
818.651	20799.93
818.979	20616.21
819.307	20857.56
819.636	20719.71
819.964	20572.14
820.292	20580.73
820.62	20566.27
820.948	20457.34
821.276	20561.3
821.604	20435.88
821.932	20568.75
822.259	20606.72
822.587	20495.99
822.915	20500.05
823.243	20484.24
823.57	20318.59
823.898	20403.33
824.225	20413.95
824.553	20402.88
824.88	20418.25
825.207	20485.37
825.535	20288.31
825.862	20418.7
826.189	20342.77
826.516	20322.21
826.843	20440.85
827.17	20401.53
827.497	20457.57
827.824	20423.22
828.151	20391.81
828.478	20335.31
828.805	20566.95
829.131	20320.17
829.458	20306.16
829.785	20215.54
830.111	20307.74
830.438	20329.89
830.764	20280.85
831.09	20172.61
831.417	20194.07
831.743	20339.15
832.069	20215.54
832.395	20169.44
832.722	20190.01
833.048	20195.66
833.374	20133.06
833.7	20090.35
834.026	20076.79
834.351	20140.97
834.677	19980.75
835.003	20093.06
835.329	20027.3
835.654	19940.07
835.98	19870.24
836.306	19990.69
836.631	19892.16
836.956	19919.73
837.282	19849.22
837.607	19759.73
837.932	19735.78
838.258	19743.69
838.583	19780.53
838.908	19547.99
839.233	19800.19
839.558	19516.13
839.883	19600.87
840.208	19477.48
840.533	19454.66
840.858	19472.28
841.182	19386.19
841.507	19455.56
841.832	19318.62
842.156	19162.46
842.481	19169.47
842.805	19205.85
843.13	19147.55
843.454	19156.13
843.778	19066.19
844.103	19027.1
844.427	18959.98
844.751	18962.24
845.075	18838.85
845.399	18835.01
845.723	18778.74
846.047	18659.2
846.371	18583.04
846.695	18563.16
847.019	18359.32
847.343	18337.17
847.666	18259.89
847.99	18253.33
848.313	18211.07
848.637	18075.94
848.96	18030.74
849.284	17970.18
849.607	17860.35
849.931	17793.23
850.254	17633.01
850.577	17612.9
850.9	17493.81
851.223	17355.73
851.546	17254.26
851.869	17261.5
852.192	17366.13
852.515	17212.46
852.838	17085.68
853.161	17115.28
853.483	16999.13
853.806	16967.27
854.129	16899.24
854.451	16947.38
854.774	16756.2
855.096	16685.01
855.419	16700.15
855.741	16620.61
856.063	16481.18
856.385	16481.85
856.708	16425.36
857.03	16414.29
857.352	16369.32
857.674	16333.38
857.996	16154.86
858.318	16153.95
858.64	16147.63
858.961	16086.84
859.283	15994.18
859.605	15927.52
859.926	16021.3
860.248	15970.23
860.57	15857.69
860.891	15858.59
861.212	15784.47
861.534	15705.15
861.855	15660.18
862.176	15618.6
862.498	15713.97
862.819	15657.47
863.14	15511.94
863.461	15541.77
863.782	15463.12
864.103	15466.74
864.424	15435.55
864.745	15422.67
865.065	15371.83
865.386	15339.96
865.707	15343.81
866.027	15344.94
866.348	15248.67
866.668	15202.34
866.989	15157.14
867.309	15093.87
867.63	15048.9
867.95	15111.04
868.27	15033.76
868.59	14970.26
868.91	15069.91
869.23	14989.01
869.55	14875.8
869.87	15094.77
870.19	14898.62
870.51	14909.47
870.83	14902.69
871.15	14783.37
871.469	14850.26
871.789	14761.9
872.109	14758.06
872.428	14715.8
872.748	14714.9
873.067	14665.18
873.386	14721.9
873.706	14691.17
874.025	14586.54
874.344	14532.75
874.663	14581.57
874.982	14531.17
875.301	14525.3
875.62	14396.03
875.939	14419.99
876.258	14426.32
876.577	14344.51
876.896	14401.46
877.214	14294.34
877.533	14387.67
877.852	14308.8
878.17	14262.7
878.489	14208.92
878.807	14282.36
879.125	14222.93
879.444	14171.63
879.762	14123.95
880.08	14022.03
880.398	14076.27
880.716	14055.03
881.034	14049.38
881.352	13999.43
881.67	14074.91
881.988	13991.75
882.306	13912.2
882.624	13867.46
882.941	13821.13
883.259	13764.19
883.577	13721.25
883.894	13714.92
884.212	13755.15
884.529	13672.21
884.846	13720.8
885.164	13745.2
885.481	13650.97
885.798	13631.08
886.115	13511.09
886.432	13542.05
886.75	13497.3
887.067	13430.41
887.383	13425.21
887.7	13360.35
888.017	13301.15
888.334	13324.88
888.651	13330.3
888.967	13350.41
889.284	13275.16
889.6	13218.21
889.917	13032.68
890.233	13197.65
890.55	13024.09
890.866	13098.44
891.182	13022.51
891.498	12921.5
891.815	12934.38
892.131	12906.36
892.447	12842.63
892.763	12724.89
893.079	12752.69
893.395	12729.19
893.71	12747.72
894.026	12705.46
894.342	12651.67
894.657	12500.04
894.973	12450.77
895.289	12577.32
895.604	12482.19
895.92	12369.87
896.235	12307.5
896.55	12295.75
896.865	12311.57
897.181	12249.88
897.496	12255.75
897.811	12173.95
898.126	12069.09
898.441	11992.48
898.756	12006.04
899.071	11916.1
899.386	11961.07
899.7	11815.99
900.015	11794.07
900.33	11702.32
900.644	11716.1
900.959	11752.26
901.273	11647.41
901.588	11582.55
901.902	11505.94
902.216	11511.82
902.531	11528.99
902.845	11422.55
903.159	11334.42
903.473	11360.86
903.787	11346.17
904.101	11245.16
904.415	11239.28
904.729	11194.08
905.042	11149.57
905.356	11151.6
905.67	11151.6
905.984	11054.43
906.297	10986.18
906.611	10964.49
906.924	10878.84
907.237	10854.66
907.551	10770.82
907.864	10754.77
908.177	10771.95
908.491	10699.63
908.804	10629.81
909.117	10565.17
909.43	10572.18
909.743	10467.78
910.056	10502.58
910.368	10400.21
910.681	10358.63
910.994	10297.84
911.307	10245.63
911.619	10122.02
911.932	10233.21
912.244	10144.85
912.557	10103.27
912.869	9996.38
913.181	10020.56
913.494	9984.4
913.806	9903.72
914.118	9958.64
914.43	9839.09
914.742	9795.7
915.054	9750.28
915.366	9772.2
915.678	9695.82
915.99	9628.93
916.302	9599.32
916.613	9569.27
916.925	9556.16
917.236	9565.2
917.548	9527.69
917.859	9493.11
918.171	9365.66
918.482	9349.16
918.794	9381.48
919.105	9263.97
919.416	9131.31
919.727	9178.09
920.038	9199.33
920.349	9103.97
920.66	9078.66
920.971	8982.84
921.282	8975.84
921.593	8916.86
921.903	8824.65
922.214	8821.04
922.525	8878.89
922.835	8817.2
923.146	8787.82
923.456	8685.45
923.767	8667.37
924.077	8755.73
924.387	8663.76
924.697	8516.19
925.008	8612.01
925.318	8471.22
925.628	8474.83
925.938	8402.52
926.248	8420.6
926.558	8371.79
926.867	8334.27
927.177	8271.22
927.487	8210.89
927.796	8142.19
928.106	8143.32
928.416	8170.66
928.725	8063.09
929.034	8062.42
929.344	8012.92
929.653	8020.83
929.962	7958.01
930.271	7871.91
930.581	7887.5
930.89	7835.3
931.199	7840.27
931.508	7834.17
931.817	7759.82
932.125	7745.81
932.434	7719.37
932.743	7671.92
933.051	7601.64
933.36	7533.39
933.669	7560.96
933.977	7519.6
934.286	7480.51
934.594	7444.35
934.902	7420.85
935.21	7363.45
935.519	7363
935.827	7299.27
936.135	7264.47
936.443	7214.53
936.751	7152.38
937.059	7173.17
937.367	7119.39
937.674	7198.26
937.982	7077.81
938.29	7064.25
938.597	7033.06
938.905	6994.19
939.213	6946.74
939.52	6962.33
939.827	6954.87
940.135	6891.82
940.442	6812.28
940.749	6796.01
941.056	6818.83
941.363	6691.38
941.67	6734.99
941.977	6676.46
942.284	6654.32
942.591	6614.54
942.898	6599.63
943.205	6610.7
943.511	6531.38
943.818	6520.99
944.125	6503.59
944.431	6473.76
944.738	6509.24
945.044	6409.35
945.35	6457.03
945.657	6381.78
945.963	6299.07
946.269	6329.58
946.575	6312.63
946.881	6230.15
947.187	6225.4
947.493	6115.8
947.799	6209.81
948.105	6150.15
948.41	6091.62
948.716	6064.95
949.022	6017.5
949.327	6076.48
949.633	5977.72
949.938	5933.66
950.244	5890.04
950.549	5878.29
950.854	5911.29
951.16	5803.94
951.465	5814.56
951.77	5796.71
952.075	5756.71
952.38	5766.66
952.685	5715.58
952.99	5693.89
953.294	5691.18
953.599	5613.67
953.904	5641.69
954.209	5580.67
954.513	5609.37
954.818	5516.49
955.122	5469.49
955.426	5516.04
955.731	5490.73
956.035	5426.1
956.339	5375.71
956.643	5376.38
956.948	5314.92
957.252	5328.7
957.556	5357.4
957.86	5315.37
958.163	5286.22
958.467	5258.42
958.771	5267.46
959.075	5242.38
959.378	5208.7
959.682	5182.72
959.985	5191.3
960.289	5192.43
960.592	5080.35
960.896	5094.36
961.199	5068.6
961.502	5045.32
961.805	4996.51
962.108	4989.95
962.411	4868.15
962.714	5004.19
963.017	4918.09
963.32	4939.11
963.623	4909.73
963.926	4863.63
964.228	4817.53
964.531	4813.46
964.833	4749.73
965.136	4790.86
965.438	4764.2
965.741	4719.9
966.043	4697.76
966.345	4695.72
966.648	4676.97
966.95	4638.55
967.252	4614.82
967.554	4600.36
967.856	4604.65
968.158	4547.48
968.46	4538.44
968.761	4543.64
969.063	4505.22
969.365	4474.49
969.666	4491.21
969.968	4451.89
970.269	4413.47
970.571	4404.66
970.872	4361.5
971.174	4326.24
971.475	4335.73
971.776	4315.4
972.077	4290.08
972.378	4278.33
972.679	4280.59
972.98	4246.02
973.281	4218.67
973.582	4214.15
973.883	4209.64
974.183	4166.92
974.484	4115.63
974.785	4183.42
975.085	4142.29
975.386	4091.67
975.686	4078.34
975.986	4080.6
976.287	4064.1
976.587	4030.66
976.887	4006.7
977.187	3981.62
977.487	3967.83
977.787	3965.57
978.087	3935.97
978.387	3912.24
978.687	3905.46
978.987	3898.68
979.286	3891
979.586	3864.56
979.885	3801.06
980.185	3822.75
980.484	3793.15
980.784	3745.69
981.083	3783.43
981.382	3724.68
981.682	3719.93
981.981	3678.58
982.28	3666.15
982.579	3672.47
982.878	3679.03
983.177	3629.09
983.475	3631.8
983.774	3615.98
984.073	3573.72
984.372	3554.29
984.67	3536.66
984.969	3573.72
985.267	3521.29
985.566	3519.26
985.864	3515.42
986.162	3465.47
986.461	3468.41
986.759	3456.66
987.057	3383.44
987.355	3427.96
987.653	3404.23
987.951	3391.8
988.249	3367.62
988.547	3378.02
988.844	3352.48
989.142	3345.03
989.44	3299.38
989.737	3306.61
990.035	3270.45
990.332	3249.43
990.63	3230.45
990.927	3252.15
991.224	3215.08
991.521	3191.81
991.819	3161.98
992.116	3154.52
992.413	3147.06
992.71	3150.91
993.006	3145.03
993.303	3092.38
993.6	3090.34
993.897	3093.05
994.193	3095.99
994.49	3038.37
994.787	3015.77
995.083	3012.83
995.379	2999.27
995.676	2997.92
995.972	3022.77
996.268	2958.37
996.565	2936.9
996.861	2901.42
997.157	2923.57
997.453	2882.89
997.749	2886.73
998.044	2841.76
998.34	2827.3
998.636	2843.34
998.932	2813.97
999.227	2782.55
999.523	2786.4
999.818	2763.8
1000.114	2713.18
1000.409	2763.8
1000.704	2737.58
1001	2708.21
1001.295	2687.42
1001.59	2686.51
1001.885	2661.43
1002.18	2653.74
1002.475	2625.95
1002.77	2636.12
1003.065	2589.79
1003.359	2570.58
1003.654	2592.95
1003.949	2538.49
1004.243	2534.88
1004.538	2493.97
1004.832	2468.66
1005.127	2515.67
1005.421	2489.68
1005.715	2456.91
1006.009	2457.36
1006.304	2419.85
1006.598	2419.17
1006.892	2391.83
1007.186	2377.82
1007.48	2386.41
1007.773	2370.59
1008.067	2331.72
1008.361	2337.37
1008.655	2365.84
1008.948	2322.23
1009.242	2309.57
1009.535	2280.87
1009.829	2272.74
1010.122	2293.98
1010.415	2254.66
1010.708	2239.97
1011.001	2194.32
1011.295	2191.84
1011.588	2196.35
1011.881	2157.94
1012.173	2147.32
1012.466	2169.91
1012.759	2133.53
1013.052	2118.62
1013.344	2134.21
1013.637	2122.91
1013.93	2086.53
1014.222	2051.5
1014.514	2047.43
1014.807	2049.92
1015.099	2028.68
1015.391	2034.33
1015.683	1991.16
1015.976	1994.1
1016.268	1992.07
1016.56	1975.34
1016.851	1944.84
1017.143	1992.97
1017.435	1923.37
1017.727	1919.53
1018.018	1927.44
1018.31	1897.15
1018.602	1895.8
1018.893	1888.11
1019.185	1853.99
1019.476	1854.22
1019.767	1839.53
1020.058	1809.47
1020.35	1824.61
1020.641	1814.67
1020.932	1794.33
1021.223	1782.13
1021.514	1776.48
1021.804	1764.95
1022.095	1741
1022.386	1738.51
1022.677	1710.04
1022.967	1692.64
1023.258	1693.09
1023.548	1670.04
1023.839	1653.32
1024.129	1651.06
1024.419	1651.06
1024.709	1638.4
1025	1624.17
1025.29	1590.49
1025.58	1592.53
1025.87	1552.53
1026.16	1566.31
1026.449	1574
1026.739	1579.42
1027.029	1553.89
1027.319	1539.65
1027.608	1515.47
1027.898	1515.69
1028.187	1523.15
1028.477	1471.63
1028.766	1489.25
1029.055	1501.23
1029.344	1463.04
1029.634	1456.49
1029.923	1453.78
1030.212	1436.37
1030.501	1420.56
1030.79	1391.63
1031.078	1415.13
1031.367	1385.98
1031.656	1391.18
1031.945	1348.02
1032.233	1356.6
1032.522	1351.63
1032.81	1351.86
1033.099	1350.28
1033.387	1318.64
1033.675	1304.4
1033.963	1315.93
1034.251	1311.86
1034.54	1299.66
1034.828	1283.61
1035.116	1266.21
1035.403	1230.96
1035.691	1260.56
1035.979	1226.44
1036.267	1222.59
1036.554	1239.32
1036.842	1244.06
1037.129	1210.62
1037.417	1227.57
1037.704	1197.96
1037.992	1171.97
1038.279	1178.53
1038.566	1162.48
1038.853	1162.48
1039.14	1162.48
