Data from breadboard_black_back_FLMS001491_00073.txt Node
Date: Wed Feb 08 10:50:53 GMT 2017
User: dcchb
Spectrometer: FLMS00149
Trigger mode: 0
Integration Time (sec): 2.000000E-2
Scans to average: 10
Electric dark correction enabled: true
Nonlinearity correction enabled: false
Boxcar width: 0
XAxis mode: Wavelengths
Number of Pixels in Spectrum: 2048
>>>>>Begin Spectral Data<<<<<
341.393	-7.57
341.776	-7.57
342.16	-7.57
342.543	-56.38
342.927	-67.91
343.31	-66.55
343.693	-78.53
344.077	-61.81
344.46	-61.13
344.843	-50.51
345.226	-42.15
345.61	-35.37
345.993	-18.64
346.376	-5.99
346.759	18.42
347.142	17.74
347.525	44.63
347.908	79.21
348.291	70.62
348.674	79.88
349.057	110.17
349.44	133.22
349.823	152.43
350.206	181.35
350.588	213.44
350.971	215.7
351.354	241.24
351.737	274
352.119	250.95
352.502	268.35
352.884	276.26
353.267	282.59
353.65	314
354.032	322.82
354.414	309.94
354.797	327.79
355.179	321.46
355.562	332.99
355.944	339.99
356.326	351.52
356.709	343.15
357.091	354
357.473	346.54
357.855	366.88
358.238	354.23
358.62	345.64
359.002	357.39
359.384	368.46
359.766	361.01
360.148	348.13
360.53	357.62
360.912	352.19
361.294	337.73
361.676	356.71
362.057	343.61
362.439	348.13
362.821	347.9
363.203	334.34
363.584	368.92
363.966	358.52
364.348	364.85
364.729	336.6
365.111	341.12
365.493	351.29
365.874	345.41
366.256	366.88
366.637	356.49
367.019	335.92
367.4	344.06
367.781	357.39
368.163	336.83
368.544	332.08
368.925	359.43
369.306	358.75
369.688	360.33
370.069	325.53
370.45	342.25
370.831	354.91
371.212	341.57
371.593	331.18
371.974	343.15
372.355	357.39
372.736	359.2
373.117	380.89
373.498	364.17
373.879	365.75
374.26	334.34
374.641	349.48
375.021	354.68
375.402	363.49
375.783	387.67
376.163	404.17
376.544	381.57
376.925	393.1
377.305	379.54
377.686	387.22
378.066	382.7
378.447	382.02
378.827	376.37
379.208	398.29
379.588	403.04
379.968	379.99
380.349	394.68
380.729	399.65
381.109	386.09
381.489	405.75
381.87	413.66
382.25	387.67
382.63	412.31
383.01	403.49
383.39	425.64
383.77	404.85
384.15	422.47
384.53	410.27
384.91	410.05
385.29	446.2
385.67	408.01
386.049	443.72
386.429	434
386.809	427.45
387.189	421.34
387.568	453.21
387.948	448.24
388.328	435.36
388.707	436.26
389.087	458.63
389.466	466.32
389.846	475.35
390.225	480.1
390.605	497.05
390.984	465.86
391.363	483.49
391.743	480.55
392.122	490.72
392.501	488.24
392.881	510.83
393.26	506.09
393.639	527.33
394.018	486.88
394.397	512.87
394.776	511.29
395.155	519.87
395.534	544.05
395.913	529.59
396.292	532.08
396.671	541.12
397.05	538.18
397.429	568.23
397.808	525.97
398.186	546.77
398.565	555.35
398.944	547.44
399.323	561
399.701	546.77
400.08	572.53
400.458	575.47
400.837	570.27
401.215	581.79
401.594	585.86
401.972	600.1
402.351	612.98
402.729	607.1
403.107	623.6
403.486	633.32
403.864	625.18
404.242	634.45
404.62	631.06
404.999	653.43
405.377	646.88
405.755	632.86
406.133	663.37
406.511	655.01
406.889	678.29
407.267	666.54
407.645	669.25
408.023	683.48
408.401	686.87
408.779	723.26
409.156	714.67
409.534	741.11
409.912	726.87
410.29	712.86
410.667	754.44
411.045	760.32
411.422	763.48
411.8	754.44
412.178	762.13
412.555	794.67
412.933	779.75
413.31	794.44
413.687	828.79
414.065	812.3
414.442	837.15
414.819	835.8
415.197	832.86
415.574	846.19
415.951	846.42
416.328	846.87
416.705	844.38
417.082	873.99
417.46	877.83
417.837	898.17
418.214	925.29
418.591	920.31
418.967	911.05
419.344	912.18
419.721	942.91
420.098	933.42
420.475	970.48
420.852	951.5
421.228	957.38
421.605	964.83
421.982	999.63
422.358	979.97
422.735	1021.33
423.111	999.18
423.488	1016.81
423.864	1045.06
424.241	1037.15
424.617	1050.93
424.994	1050.03
425.37	1060.42
425.746	1082.8
426.123	1100.2
426.499	1098.16
426.875	1115.56
427.251	1134.77
427.627	1163.02
428.003	1170.7
428.379	1156.47
428.756	1186.07
429.132	1186.07
429.507	1219.97
429.883	1233.75
430.259	1259.97
430.635	1257.48
431.011	1262.9
431.387	1281.89
431.763	1310.59
432.138	1334.09
432.514	1331.6
432.89	1341.77
433.265	1384.94
433.641	1413.18
434.016	1418.61
434.392	1403.01
434.767	1407.76
435.143	1443.46
435.518	1455.67
435.894	1494.54
436.269	1494.76
436.644	1524.59
437.02	1534.08
437.395	1517.81
437.77	1581.77
438.145	1589.45
438.52	1573.18
438.895	1600.97
439.271	1622.44
439.646	1636.45
440.021	1642.78
440.395	1632.39
440.77	1634.42
441.145	1644.82
441.52	1692.05
441.895	1711.48
442.27	1708.54
442.645	1732.04
443.019	1748.32
443.394	1737.47
443.769	1772.5
444.143	1776.34
444.518	1781.08
444.892	1806.85
445.267	1799.16
445.641	1817.92
446.016	1830.35
446.39	1881.42
446.764	1866.05
447.139	1885.94
447.513	1873.51
447.887	1887.07
448.262	1911.7
448.636	1922.32
449.01	1953.28
449.384	1915.32
449.758	1989.67
450.132	2001.64
450.506	2033.96
450.88	2025.14
451.254	2062.21
451.628	2049.32
452.002	2080.74
452.376	2094.52
452.75	2132.71
453.123	2117.57
453.497	2147.63
453.871	2180.17
454.244	2238.7
454.618	2216.1
454.992	2270.56
455.365	2260.39
455.739	2351.92
456.112	2361.86
456.486	2362.08
456.859	2384.68
457.232	2446.83
457.606	2451.57
457.979	2509.88
458.352	2539.71
458.725	2598.69
459.099	2580.16
459.472	2628.29
459.845	2659.48
460.218	2605.24
460.591	2703.09
460.964	2711.68
461.337	2765.46
461.71	2845.91
462.083	2870.09
462.456	2862.41
462.829	2882.07
463.201	2921.17
463.574	2929.3
463.947	2990.99
464.32	3038.23
464.692	3074.38
465.065	3103.99
465.438	3159.35
465.81	3163.42
466.183	3241.16
466.555	3316.86
466.928	3267.6
467.3	3319.57
467.672	3395.73
468.045	3476.41
468.417	3479.57
468.789	3487.25
469.161	3515.27
469.534	3610.19
469.906	3682.28
470.278	3713.24
470.65	3749.39
471.022	3795.72
471.394	3871.2
471.766	3897.86
472.138	3951.2
472.51	4081.36
472.882	4098.54
473.253	4142.83
473.625	4182.15
473.997	4275.71
474.369	4329.26
474.74	4388.47
475.112	4442.26
475.484	4566.09
475.855	4585.08
476.227	4644.51
476.598	4734
476.97	4847.67
477.341	4930.15
477.713	4985.29
478.084	5028
478.455	5147.1
478.827	5203.59
479.198	5291.27
479.569	5377.37
479.94	5526.52
480.311	5520.87
480.682	5695.33
481.053	5744.59
481.424	5903.69
481.795	5936.68
482.166	6030.24
482.537	6128.09
482.908	6261.87
483.279	6294.41
483.65	6429.32
484.021	6531.01
484.391	6598.13
484.762	6708.86
485.133	6681.07
485.503	6853.72
485.874	7013.26
486.244	7089.19
486.615	7207.61
486.985	7227.49
487.356	7392.24
487.726	7473.14
488.097	7651.21
488.467	7712.9
488.837	7832.9
489.207	7869.96
489.578	8027.47
489.948	8064.99
490.318	8218.2
490.688	8292.55
491.058	8374.36
491.428	8473.34
491.798	8529.83
492.168	8725.99
492.538	8795.81
492.908	8903.61
493.278	8999.2
493.648	9095.69
494.017	9170.27
494.387	9200.32
494.757	9415.46
495.126	9398.74
495.496	9498.85
495.866	9578.39
496.235	9582.46
496.605	9749.69
496.974	9832.17
497.344	9918.95
497.713	9987.2
498.082	9943.58
498.452	10111.71
498.821	10255.89
499.19	10193.97
499.559	10318.71
499.928	10410.23
500.298	10513.28
500.667	10589.89
501.036	10629.89
501.405	10724.12
501.774	10743.11
502.143	10730.23
502.512	10950.33
502.88	11045.02
503.249	11040.05
503.618	11068.52
503.987	11269.65
504.356	11239.82
504.724	11320.04
505.093	11369.53
505.462	11453.15
505.83	11476.2
506.199	11638.9
506.567	11813.81
506.936	11757.77
507.304	11965.45
507.672	12001.61
508.041	12129.74
508.409	12233.24
508.777	12295.38
509.145	12418.32
509.514	12384.65
509.882	12482.95
510.25	12559.33
510.618	12629.61
510.986	12726.11
511.354	12847.46
511.722	12989.83
512.09	13127.9
512.458	13032.54
512.826	13129.49
513.193	13266.66
513.561	13404.51
513.929	13442.25
514.297	13580.32
514.664	13706.87
515.032	13754.33
515.4	13921.78
515.767	13981.44
516.135	13996.58
516.502	14019.41
516.869	14286.74
517.237	14373.75
517.604	14335.1
517.972	14577.36
518.339	14647.86
518.706	14608.09
519.073	14781.19
519.44	14831.59
519.808	15055.54
520.175	15132.82
520.542	15207.17
520.909	15375.98
521.276	15404.91
521.643	15562.19
522.009	15696.88
522.376	15760.15
522.743	15920.15
523.11	16075.85
523.477	16217.77
523.843	16248.5
524.21	16452.11
524.577	16613.01
524.943	16678.32
525.31	16808.48
525.676	16954.02
526.043	17075.82
526.409	17080.12
526.776	17312.2
527.142	17439.2
527.508	17539.31
527.874	17634.45
528.241	17827.44
528.607	17823.83
528.973	17971.62
529.339	17958.96
529.705	18238.96
530.071	18341.78
530.437	18529.8
530.803	18569.57
531.169	18587.42
531.535	18553.98
531.901	18823.8
532.267	18842.78
532.632	18999.16
532.998	19089.33
533.364	19094.07
533.73	19184.47
534.095	19351.24
534.461	19394.41
534.826	19565.47
535.192	19594.63
535.557	19864.45
535.923	19775.41
536.288	19871.23
536.653	20072.58
537.019	19963.43
537.384	20118.45
537.749	20073.48
538.114	20294.27
538.479	20339.92
538.845	20475.73
539.21	20514.6
539.575	20565.67
539.94	20640.25
540.305	20728.16
540.67	20700.13
541.034	20878.43
541.399	20920.24
541.764	21152.55
542.129	21045.21
542.494	21074.14
542.858	21308.03
543.223	21360.23
543.587	21387.57
543.952	21392.77
544.316	21558.87
544.681	21516.16
545.045	21773.55
545.41	21822.36
545.774	21841.35
546.138	21900.1
546.503	21992.76
546.867	21859.88
547.231	22288.57
547.595	22227.55
547.959	22211.05
548.324	22262.35
548.688	22306.19
549.052	22543.25
549.416	22543.25
549.779	22623.25
550.143	22608.78
550.507	22830.93
550.871	22884.93
551.235	22904.37
551.599	23092.16
551.962	23108.43
552.326	23196.11
552.689	23399.05
553.053	23234.53
553.417	23510.91
553.78	23583.45
554.143	23494.64
554.507	23705.25
554.87	23835.87
555.234	23991.12
555.597	23871.35
555.96	24041.51
556.323	24226.82
556.686	24156.77
557.05	24347.04
557.413	24407.38
557.776	24435.85
558.139	24661.16
558.502	24721.5
558.865	24801.27
559.228	25015.95
559.59	25019.57
559.953	25069.06
560.316	25387.24
560.679	25401.03
561.041	25583.17
561.404	25713.56
561.767	25842.15
562.129	25644.41
562.492	25982.71
562.854	26039.88
563.217	25999.66
563.579	26151.06
563.941	26438.29
564.304	26542.01
564.666	26713.31
565.028	26731.16
565.39	26782.91
565.753	26948.33
566.115	26997.37
566.477	27154.65
566.839	27214.09
567.201	27447.53
567.563	27396.23
567.925	27638.03
568.287	27680.06
568.648	27650.01
569.01	27916.44
569.372	28017
569.734	27930.68
570.095	28155.08
570.457	28323.21
570.819	28307.39
571.18	28335.19
571.542	28448.4
571.903	28537.89
572.265	28638.91
572.626	28734.27
572.987	28642.98
573.349	28904.21
573.71	28967.94
574.071	29098.56
574.432	29165.22
574.794	29248.61
575.155	29297.87
575.516	29365.44
575.877	29480.47
576.238	29468.49
576.599	29591.88
576.96	29648.6
577.32	29666.45
577.681	29879.55
578.042	29831.19
578.403	29787.13
578.763	29752.33
579.124	29952.55
579.485	30083.39
579.845	30197.29
580.206	29951.42
580.566	30106.67
580.927	30155.03
581.287	30276.38
581.648	30179.66
582.008	30261.92
582.368	30330.39
582.728	30395.25
583.089	30301.69
583.449	30329.26
583.809	30455.81
584.169	30425.75
584.529	30377.62
584.889	30571.06
585.249	30376.72
585.609	30367.45
585.969	30547.11
586.329	30548.91
586.688	30528.35
587.048	30392.76
587.408	30340.33
587.768	30376.49
588.127	30429.37
588.487	30299.66
588.846	30673.43
589.206	30355.47
589.565	30456.94
589.925	30597.95
590.284	30437.05
590.643	30576.94
591.003	30717.05
591.362	30806.76
591.721	30561.12
592.08	30513.43
592.44	30731.51
592.799	30637.95
593.158	30648.57
593.517	30638.18
593.876	30679.08
594.235	30621.23
594.593	30784.84
594.952	30771.96
595.311	30753.88
595.67	30853.09
596.029	31109.8
596.387	30969.24
596.746	31045.17
597.104	30826.2
597.463	30901.45
597.822	30964.72
598.18	30927.44
598.538	30856.02
598.897	31057.15
599.255	30986.42
599.613	31191.16
599.972	31071.16
600.33	31184.6
600.688	31118.84
601.046	31101.22
601.404	31094.66
601.762	31151.84
602.12	31427.76
602.478	31368.1
602.836	31347.31
603.194	31095.11
603.552	31235.45
603.91	31178.73
604.268	31360.87
604.625	31263.92
604.983	31403.81
605.341	31348.89
605.698	31421.66
606.056	31468.66
606.413	31542.11
606.771	31650.13
607.128	31590.47
607.485	31591.82
607.843	31555.44
608.2	31825.04
608.557	31842.44
608.914	31702.56
609.272	31871.82
609.629	31932.38
609.986	32074.52
610.343	31938.26
610.7	32134.64
611.057	31959.95
611.414	31991.36
611.771	32062.09
612.127	32046.28
612.484	32190
612.841	32187.29
613.198	32063.68
613.554	32184.13
613.911	32362.88
614.267	32250.34
614.624	32285.14
614.98	32470.9
615.337	32488.75
615.693	32439.26
616.05	32524
616.406	32517.45
616.762	32535.98
617.118	32558.58
617.475	32453.04
617.831	32548.86
618.187	32692.13
618.543	32773.26
618.899	32922.86
619.255	32784.11
619.611	32785.47
619.967	32824.56
620.323	32850.1
620.678	32768.52
621.034	32720.83
621.39	32636.09
621.746	32638.58
622.101	33153.59
622.457	32818.46
622.812	32886.48
623.168	33023.65
623.523	32847.16
623.879	33011
624.234	32836.54
624.589	32889.19
624.945	32917.89
625.3	33125.34
625.655	33076.53
626.01	33011
626.365	33056.64
626.72	32898.01
627.075	32991.56
627.43	32871.57
627.785	32897.55
628.14	32847.16
628.495	32884.9
628.85	32873.6
629.205	32853.26
629.559	32902.07
629.914	32787.27
630.269	32854.16
630.623	32671.57
630.978	32773.71
631.332	32809.87
631.687	32892.13
632.041	32727.39
632.396	32882.86
632.75	32603.55
633.104	32743.66
633.459	32570.78
633.813	32462.08
634.167	32445.36
634.521	32430.9
634.875	32584.11
635.229	32416.21
635.583	32279.94
635.937	32284.24
636.291	32327.17
636.645	32232.94
636.999	32153.17
637.352	32268.64
637.706	32030.46
638.06	32277.23
638.413	32131.25
638.767	32077.91
639.121	32150.23
639.474	31958.59
639.828	32018.03
640.181	31994.98
640.534	31947.52
640.888	31807.19
641.241	31661.88
641.594	31740.75
641.947	31825.72
642.301	31698.04
642.654	31693.74
643.007	31734.65
643.36	31665.72
643.713	31387.54
644.066	31686.06
644.419	31493.52
644.771	31306.41
645.124	31128.11
645.477	31037.94
645.83	30808.57
646.182	30573.32
646.535	30477.5
646.888	30582.36
647.24	30308.47
647.593	30459.65
647.945	30305.98
648.298	30174.91
648.65	30186.21
649.002	30107.34
649.355	30306.43
649.707	30143.95
650.059	30336.94
650.411	30761.79
650.763	30763.37
651.115	31212.63
651.467	31006.08
651.819	30927.44
652.171	30820.09
652.523	30722.24
652.875	30684.28
653.227	30656.03
653.578	30805.4
653.93	30781.45
654.282	30616.71
654.633	30498.52
654.985	30524.96
655.337	30679.76
655.688	30578.07
656.039	30666.65
656.391	30356.38
656.742	30443.83
657.094	30505.98
657.445	30517.5
657.796	30494.68
658.147	30367.9
658.498	30477.28
658.849	30392.31
659.2	30391.86
659.551	30271.41
659.902	30488.12
660.253	30315.25
660.604	30303.05
660.955	30053.56
661.306	30390.73
661.656	30151.18
662.007	30284.06
662.358	30192.31
662.708	30309.6
663.059	30195.25
663.409	30095.59
663.76	30199.32
664.11	30187.57
664.461	30185.99
664.811	30132.43
665.161	30164.97
665.511	30042.03
665.862	30132.43
666.212	30144.41
666.562	30115.71
666.912	30148.47
667.262	29952.09
667.612	30036.84
667.962	30064.18
668.312	29928.82
668.662	30224.18
669.011	30038.19
669.361	29887.24
669.711	29976.73
670.06	29841.59
670.41	29843.62
670.76	29865.32
671.109	29865.99
671.459	29879.55
671.808	29764.3
672.157	29883.62
672.507	29725.89
672.856	29774.7
673.205	29672.33
673.554	29915.26
673.904	29731.53
674.253	29764.3
674.602	29614.48
674.951	29347.36
675.3	29130.87
675.649	29554.82
675.998	29483.41
676.346	29537.64
676.695	29651.99
677.044	29345.33
677.393	29438.21
677.741	29579
678.09	29448.6
678.438	29317.08
678.787	29409.06
679.135	29420.13
679.484	29025.56
679.832	29329.51
680.181	29182.17
680.529	29250.42
680.877	29123.64
681.225	29146.47
681.573	29251.1
681.922	28950.54
682.27	28928.84
682.618	29081.38
682.966	29048.16
683.314	28878.45
683.661	28849.52
684.009	28713.48
684.357	28723.88
684.705	28533.37
685.053	28666.03
685.4	28482.3
685.748	28531.11
686.095	28510.55
686.443	28285.47
686.79	28217.22
687.138	28214.96
687.485	28318.92
687.832	28249.99
688.18	28303.32
688.527	28078.24
688.874	28137.68
689.221	28023.1
689.568	27971.35
689.915	27882.54
690.262	27830.57
690.609	27796.9
690.956	27755.99
691.303	27752.6
691.65	27560.74
691.997	27530.24
692.344	27413.86
692.69	27326.85
693.037	27415.21
693.383	27122.11
693.73	27292.5
694.077	26967.31
694.423	27026.97
694.769	26929.57
695.116	26903.81
695.462	26876.92
695.808	26740.88
696.155	26680.77
696.501	26582.69
696.847	26557.61
697.193	26459.3
697.539	26538.85
697.885	26215.02
698.231	26203.72
698.577	26254.79
698.923	26114.45
699.269	26071.07
699.614	25980.22
699.96	25897.96
700.306	25874.01
700.651	25757.85
700.997	25681.47
701.342	25748.14
701.688	25758.08
702.033	25444.19
702.379	25552.44
702.724	25488.03
703.069	25536.16
703.415	25231.77
703.76	25238.55
704.105	25195.38
704.45	25029.74
704.795	24897.54
705.14	24895.73
705.485	24923.75
705.83	24808.27
706.175	24758.56
706.52	24745.45
706.865	24579.13
707.209	24629.75
707.554	24457.32
707.899	24521.05
708.243	24513.37
708.588	24332.58
708.932	24282.19
709.277	24280.38
709.621	24258.01
709.966	24159.03
710.31	24218.91
710.654	23956.77
710.998	24089.2
711.342	24014.85
711.687	23957.9
712.031	23853.05
712.375	23691.47
712.719	23721.98
713.063	23719.49
713.407	23837.45
713.75	23564.01
714.094	23648.98
714.438	23493.28
714.782	23424.58
715.125	23376.9
715.469	23349.78
715.812	23245.38
716.156	23233.4
716.499	23206.96
716.843	23198.37
717.186	23116.34
717.53	23163.12
717.873	23122.22
718.216	23126.51
718.559	22846.29
718.902	22876.12
719.246	22867.53
719.589	22816.01
719.932	22740.08
720.275	22682
720.617	22688.1
720.96	22666.18
721.303	22578.73
721.646	22633.64
721.989	22452.63
722.331	22592.29
722.674	22411.28
723.016	22457.6
723.359	22335.57
723.701	22448.11
724.044	22324.5
724.386	22095.8
724.729	22380.09
725.071	22246.31
725.413	22290.83
725.755	22206.31
726.097	22089.48
726.439	22005.18
726.782	22030.27
727.124	22141
727.465	21896.03
727.807	21908.92
728.149	21819.2
728.491	21799.54
728.833	21816.71
729.175	21717.28
729.516	21745.76
729.858	21651.97
730.199	21727
730.541	21675.48
730.882	21592.31
731.224	21625.08
731.565	21523.39
731.906	21483.16
732.248	21594.35
732.589	21327.46
732.93	21472.77
733.271	21396.84
733.612	21324.75
733.953	21385.31
734.294	21227.8
734.635	21209.5
734.976	21440.68
735.317	21195.26
735.658	21093.34
735.999	21219.67
736.339	21117.75
736.68	21136.96
737.021	21041.37
737.361	20967.47
737.702	21057.41
738.042	20984.19
738.383	20875.5
738.723	20896.06
739.063	20866.23
739.404	20948.49
739.744	20678.44
740.084	20756.4
740.424	20754.37
740.764	20691.55
741.104	20715.05
741.444	20571.55
741.784	20480.03
742.124	20586.24
742.464	20684.54
742.804	20474.15
743.143	20414.04
743.483	20407.26
743.823	20308.51
744.162	20497.88
744.502	20385.79
744.841	20261.95
745.181	20323.19
745.52	20301.27
745.86	20313.93
746.199	20165.01
746.538	20241.39
746.877	20245.23
747.216	20173.82
747.556	20118.45
747.895	20073.03
748.234	20012.69
748.573	19983.54
748.911	19858.35
749.25	19840.95
749.589	19816.09
749.928	19777.67
750.267	19835.52
750.605	19782.19
750.944	19611.57
751.283	19689.31
751.621	19650.44
751.96	19619.71
752.298	19581.07
752.636	19482.31
752.975	19364.58
753.313	19294.97
753.651	19383.56
753.989	19324.12
754.327	19248.87
754.666	19172.26
755.004	19182.89
755.342	19206.39
755.679	19241.87
756.017	18982.44
756.355	19099.27
756.693	18930.69
757.031	18997.81
757.368	18883.91
757.706	18876.45
758.044	18739.51
758.381	18769.56
758.719	18755.1
759.056	18789.9
759.394	18570.47
759.731	18489.8
760.068	18565.05
760.405	18522.79
760.743	18362.12
761.08	18460.42
761.417	18309.01
761.754	18281.21
762.091	18302.68
762.428	18182.91
762.765	18050.71
763.102	18103.14
763.438	17933.43
763.775	18016.81
764.112	17928.46
764.449	17953.99
764.785	17793.77
765.122	17761.45
765.458	17657.28
765.795	17675.58
766.131	17566.43
766.467	17477.85
766.804	17456.6
767.14	17362.37
767.476	17441.24
767.812	17302.48
768.148	17321.47
768.485	17142.49
768.821	17111.53
769.157	17072.21
769.492	16973.68
769.828	17013.45
770.164	16854.36
770.5	16774.59
770.836	16816.39
771.171	16670.86
771.507	16659.34
771.842	16507.93
772.178	16561.71
772.513	16502.05
772.849	16432.45
773.184	16316.29
773.519	16352.9
773.855	16344.09
774.19	16261.61
774.525	16033.82
774.86	16110.42
775.195	16164.66
775.53	16041.05
775.865	15961.73
776.2	15812.8
776.535	15673.6
776.87	15717.89
777.205	15672.02
777.539	15620.04
777.874	15670.44
778.209	15600.15
778.543	15400.39
778.878	15316.32
779.212	15378.01
779.547	15341.86
779.881	15287.39
780.215	15134.18
780.55	15200.17
780.884	15078.59
781.218	15128.53
781.552	15098.93
781.886	14935.77
782.22	14852.6
782.554	14790.46
782.888	14670.01
783.222	14612.16
783.556	14692.38
783.889	14606.28
784.223	14457.36
784.557	14487.19
784.89	14467.76
785.224	14387.08
785.557	14344.14
785.891	14286.29
786.224	14231.83
786.558	14235.9
786.891	14088.1
787.224	14153.41
787.557	14018.05
787.891	14073.19
788.224	13944.15
788.557	13928.56
788.89	13867.32
789.223	13888.11
789.556	13744.16
789.888	13818.28
790.221	13710.49
790.554	13638.62
790.887	13541.9
791.219	13562.24
791.552	13505.07
791.884	13517.05
792.217	13404.73
792.549	13382.59
792.882	13322.93
793.214	13195.02
793.546	13230.73
793.879	13168.35
794.211	13119.54
794.543	13087.45
794.875	13064.18
795.207	13076.83
795.539	12921.81
795.871	12979.66
796.203	12865.09
796.535	12800.23
796.867	12799.78
797.198	12781.92
797.53	12854.92
797.862	12675.71
798.193	12674.36
798.525	12575.15
798.856	12530.63
799.188	12487.92
799.519	12462.84
799.85	12469.39
800.182	12437.53
800.513	12411.99
800.844	12249.73
801.175	12368.6
801.506	12356.4
801.837	12275.04
802.168	12178.1
802.499	12179
802.83	12042.96
803.161	12048.16
803.491	12084.09
803.822	12071.21
804.153	12025.56
804.483	11875.05
804.814	11834.38
805.145	11797.99
805.475	11869.63
805.805	11861.5
806.136	11827.6
806.466	11798.45
806.796	11751.44
807.126	11650.65
807.457	11618.56
807.787	11543.09
808.117	11559.58
808.447	11487.49
808.777	11630.99
809.107	11493.14
809.436	11421.51
809.766	11475.74
810.096	11348.74
810.426	11370.89
810.755	11334.5
811.085	11366.37
811.414	11308.29
811.744	11238.46
812.073	11191.23
812.403	11155.75
812.732	11081.4
813.061	11231
813.39	11069.88
813.719	11083.89
814.049	11097.45
814.378	11157.11
814.707	11029.88
815.036	10949.88
815.365	10919.83
815.693	10818.81
816.022	10810.45
816.351	10778.59
816.68	10775.87
817.008	10758.47
817.337	10739.49
817.665	10654.3
817.994	10659.49
818.322	10716.67
818.651	10639.16
818.979	10643.22
819.307	10620.62
819.636	10606.16
819.964	10412.27
820.292	10592.83
820.62	10539.04
820.948	10526.16
821.276	10577.69
821.604	10530.46
821.932	10560.51
822.259	10556.9
822.587	10474.41
822.915	10433.74
823.243	10451.14
823.57	10513.51
823.898	10487.52
824.225	10436
824.553	10510.35
824.88	10501.98
825.207	10512.83
825.535	10457.92
825.862	10451.59
826.189	10445.04
826.516	10542.89
826.843	10442.78
827.17	10487.07
827.497	10503.57
827.824	10556.9
828.151	10543.11
828.478	10536.11
828.805	10525.94
829.131	10477.58
829.458	10430.57
829.785	10407.97
830.111	10411.36
830.438	10488.42
830.764	10541.08
831.09	10484.36
831.417	10410.46
831.743	10390.8
832.069	10484.81
832.395	10431.93
832.722	10483.45
833.048	10348.54
833.374	10431.03
833.7	10308.09
834.026	10379.28
834.351	10397.13
834.677	10365.49
835.003	10313.74
835.329	10298.15
835.654	10466.73
835.98	10263.57
836.306	10288.66
836.631	10369.33
836.956	10298.6
837.282	10290.24
837.607	10151.71
837.932	10245.04
838.258	10149.68
838.583	10240.07
838.908	10137.47
839.233	10141.77
839.558	10098.15
839.883	10043.24
840.208	10086.4
840.533	10146.74
840.858	10084.37
841.182	10073.52
841.507	10001.66
841.832	10014.76
842.156	10018.83
842.481	9887.31
842.805	9914.88
843.13	9890.02
843.454	9822.68
843.778	9846.86
844.103	9797.6
844.427	9827.43
844.751	9831.04
845.075	9752.85
845.399	9757.14
845.723	9734.77
846.047	9689.8
846.371	9616.81
846.695	9673.08
847.019	9576.58
847.343	9551.73
847.666	9509.24
847.99	9444.38
848.313	9422.01
848.637	9421.79
848.96	9360.77
849.284	9345.4
849.607	9342.69
849.931	9257.72
850.254	9203.94
850.577	9160.1
850.9	9046.88
851.223	9116.94
851.546	9013.44
851.869	8943.15
852.192	8989.71
852.515	8934.34
852.838	8894.34
853.161	8942.48
853.483	8858.41
853.806	8823.61
854.129	8867.9
854.451	8742.48
854.774	8720.56
855.096	8694.35
855.419	8608.7
855.741	8656.38
856.063	8586.1
856.385	8570.51
856.708	8583.84
857.03	8518.76
857.352	8513.79
857.674	8494.35
857.996	8447.12
858.318	8375.26
858.64	8451.64
858.961	8409.16
859.283	8358.99
859.605	8322.15
859.926	8390.4
860.248	8349.5
860.57	8276.96
860.891	8280.35
861.212	8246.68
861.534	8254.59
861.855	8242.16
862.176	8203.74
862.498	8212.78
862.819	8156.28
863.14	8103.63
863.461	8143.4
863.782	8125.78
864.103	8170.29
864.424	8146.11
864.745	8132.33
865.065	8076.06
865.386	8060.24
865.707	8064.31
866.027	8036.51
866.348	8035.16
866.668	8046.23
866.989	7950.41
867.309	7940.24
867.63	7972.78
867.95	7916.97
868.27	7935.05
868.59	7893.46
868.91	7902.05
869.23	7925.33
869.55	7823.41
869.87	7905.44
870.19	7860.02
870.51	7795.84
870.83	7860.92
871.15	7833.35
871.469	7796.07
871.789	7822.96
872.109	7762.39
872.428	7799.23
872.748	7744.32
873.067	7722.62
873.386	7754.71
873.706	7724.66
874.025	7731.21
874.344	7706.58
874.663	7695.05
874.982	7690.31
875.301	7659.8
875.62	7593.36
875.939	7596.3
876.258	7662.06
876.577	7579.12
876.896	7630.42
877.214	7582.96
877.533	7593.59
877.852	7515.17
878.17	7623.87
878.489	7632.68
878.807	7566.47
879.125	7514.49
879.444	7587.71
879.762	7513.59
880.08	7544.32
880.398	7493.48
880.716	7493.02
881.034	7448.05
881.352	7436.98
881.67	7432.91
881.988	7454.15
882.306	7411.22
882.624	7356.76
882.941	7364.89
883.259	7298.45
883.577	7332.58
883.894	7350.65
884.212	7308.85
884.529	7235.18
884.846	7246.93
885.164	7206.03
885.481	7215.06
885.798	7210.54
886.115	7195.4
886.432	7125.12
886.75	7167.83
887.067	7179.59
887.383	7177.55
887.7	7161.73
888.017	7044.9
888.334	7119.47
888.651	7123.99
888.967	7112.02
889.284	7044.45
889.6	7007.16
889.917	6901.85
890.233	6921.74
890.55	6944.34
890.866	6957.9
891.182	6879.03
891.498	6898.24
891.815	6909.54
892.131	6863.44
892.447	6834.06
892.763	6795.64
893.079	6823.66
893.395	6804.45
893.71	6788.41
894.026	6746.15
894.342	6746.15
894.657	6671.35
894.973	6658.92
895.289	6693.04
895.604	6712.48
895.92	6589.54
896.235	6618.24
896.55	6603.1
896.865	6606.94
897.181	6562.43
897.496	6563.56
897.811	6501.64
898.126	6492.82
898.441	6439.72
898.756	6446.5
899.071	6379.83
899.386	6385.03
899.7	6368.76
900.015	6381.41
900.33	6307.52
900.644	6311.81
900.959	6296.22
901.273	6303.68
901.588	6255.32
901.902	6205.6
902.216	6194.07
902.531	6215.54
902.845	6168.76
903.159	6100.52
903.473	6076.79
903.787	6129.9
904.101	6039.95
904.415	6074.76
904.729	6057.81
905.042	6005.83
905.356	6006.73
905.67	5965.61
905.984	5976
906.297	5955.66
906.611	5877.47
906.924	5879.96
907.237	5878.15
907.551	5837.25
907.864	5780.98
908.177	5832.05
908.491	5820.52
908.804	5796.34
909.117	5761.09
909.43	5718.38
909.743	5687.42
910.056	5750.47
910.368	5613.52
910.681	5622.56
910.994	5584.15
911.307	5612.39
911.619	5559.51
911.932	5557.71
912.244	5515.67
912.557	5481.55
912.869	5517.71
913.181	5465.28
913.494	5473.42
913.806	5431.16
914.118	5434.32
914.43	5325.62
914.742	5346.41
915.054	5373.08
915.366	5362.68
915.678	5367.66
915.99	5276.36
916.302	5205.85
916.613	5235.23
916.925	5179.41
917.236	5238.39
917.548	5154.1
917.859	5152.07
918.171	5123.37
918.482	5088.11
918.794	5086.31
919.105	5026.42
919.416	5034.78
919.727	5065.52
920.038	4991.39
920.349	4937.84
920.66	4953.88
920.971	4948.91
921.282	4954.11
921.593	4934.9
921.903	4909.59
922.214	4869.59
922.525	4847.44
922.835	4823.49
923.146	4854.67
923.456	4768.35
923.767	4743.27
924.077	4767.45
924.387	4718.86
924.697	4715.24
925.008	4696.26
925.318	4682.93
925.628	4668.69
925.938	4643.83
926.248	4588.92
926.558	4598.41
926.867	4564.29
927.177	4553.44
927.487	4569.94
927.796	4560.9
928.106	4529.71
928.416	4482.26
928.725	4446.55
929.034	4428.92
929.344	4438.19
929.653	4443.16
929.962	4413.56
930.271	4391.86
930.581	4377.63
930.89	4331.75
931.199	4303.5
931.508	4290.17
931.817	4316.61
932.125	4275.03
932.434	4253.56
932.743	4178.08
933.051	4194.35
933.36	4237.52
933.669	4202.04
933.977	4166.56
934.286	4171.3
934.594	4131.76
934.902	4101.47
935.21	4070.51
935.519	4064.64
935.827	4077.29
936.135	4061.7
936.443	4031.87
936.751	4016.73
937.059	4012.44
937.367	4008.14
937.674	3987.8
937.982	3964.98
938.29	3971.76
938.597	3933.79
938.905	3898.77
939.213	3853.57
939.52	3856.06
939.827	3879.56
940.135	3824.87
940.442	3779.45
940.749	3790.52
941.056	3807.7
941.363	3783.29
941.67	3753.23
941.977	3761.82
942.284	3734.93
942.591	3721.82
942.898	3704.2
943.205	3676.17
943.511	3666.01
943.818	3645.21
944.125	3635.5
944.431	3633.01
944.738	3591.43
945.044	3563.18
945.35	3579.45
945.657	3580.36
945.963	3555.95
946.269	3538.1
946.575	3473.69
946.881	3517.53
947.187	3490.42
947.493	3459.91
947.799	3485.67
948.105	3489.96
948.41	3410.42
948.716	3477.31
949.022	3420.59
949.327	3382.4
949.633	3357.54
949.938	3369.52
950.244	3394.15
950.549	3380.59
950.854	3332
951.16	3318.44
951.465	3343.3
951.77	3266.92
952.075	3271.21
952.38	3268.5
952.685	3272.8
952.99	3221.95
953.294	3247.94
953.599	3196.87
953.904	3200.25
954.209	3175.4
954.513	3175.85
954.818	3172.46
955.122	3184.44
955.426	3102.18
955.731	3104.44
956.035	3111.44
956.339	3106.02
956.643	3059.92
956.948	3030.99
957.252	3050.43
957.556	3003.42
957.86	3018.11
958.163	2990.54
958.467	2986.7
958.771	2982.86
959.075	2957.1
959.378	2978.57
959.682	2964.1
959.985	2934.95
960.289	2945.57
960.592	2880.04
960.896	2883.88
961.199	2900.6
961.502	2875.74
961.805	2877.78
962.108	2842.07
962.411	2861.73
962.714	2807.5
963.017	2782.64
963.32	2834.61
963.623	2798.23
963.926	2807.72
964.228	2764.79
964.531	2753.71
964.833	2709.87
965.136	2711.91
965.438	2729.98
965.741	2718.23
966.043	2744.45
966.345	2727.05
966.648	2689.31
966.95	2653.6
967.252	2671.68
967.554	2673.04
967.856	2646.6
968.158	2605.47
968.46	2605.02
968.761	2611.34
969.063	2574.96
969.365	2593.72
969.666	2607.28
969.968	2579.48
970.269	2545.36
970.571	2562.08
970.872	2520.95
971.174	2480.27
971.475	2519.59
971.776	2529.31
972.077	2495.19
972.378	2484.79
972.679	2490.89
972.98	2487.96
973.281	2442.99
973.582	2447.51
973.883	2441.4
974.183	2433.95
974.484	2389.43
974.785	2384.01
975.085	2412.03
975.386	2419.48
975.686	2379.94
975.986	2345.36
976.287	2416.32
976.587	2333.16
976.887	2362.08
977.187	2325.48
977.487	2332.93
977.787	2266.27
978.087	2292.93
978.387	2270.56
978.687	2301.52
978.987	2287.06
979.286	2269.88
979.586	2249.55
979.885	2247.96
980.185	2225.14
980.484	2223.33
980.784	2221.07
981.083	2201.41
981.382	2192.6
981.682	2189.21
981.981	2159.83
982.28	2148.76
982.579	2145.82
982.878	2160.51
983.177	2139.94
983.475	2118.48
983.774	2116.22
984.073	2108.76
984.372	2099.49
984.67	2105.37
984.969	2072.83
985.267	2083.22
985.566	2063.34
985.864	2102.43
986.162	2065.6
986.461	2042.32
986.759	2052.04
987.057	2032.15
987.355	1997.57
987.653	2018.37
987.951	2001.87
988.249	1998.48
988.547	1971.13
988.844	1977.46
989.142	1966.16
989.44	1951.02
989.737	1934.3
990.035	1915.32
990.332	1942.21
990.63	1930.46
990.927	1931.81
991.224	1919.61
991.521	1878.71
991.819	1909.22
992.116	1912.38
992.413	1853.4
992.71	1868.09
993.006	1880.52
993.303	1840.74
993.6	1854.08
993.897	1838.26
994.193	1867.41
994.49	1821.08
994.787	1834.64
995.083	1804.59
995.379	1788.99
995.676	1770.24
995.972	1787.86
996.268	1759.39
996.565	1777.92
996.861	1741.76
997.157	1753.97
997.453	1730.91
997.749	1714.87
998.044	1696.11
998.34	1702.67
998.636	1688.2
998.932	1704.93
999.227	1707.19
999.523	1687.53
999.818	1680.97
1000.114	1671.93
1000.409	1677.58
1000.704	1676.45
1001	1632.61
1001.295	1663.8
1001.59	1641.65
1001.885	1585.16
1002.18	1576.34
1002.475	1621.77
1002.77	1597.59
1003.065	1577.92
1003.359	1593.74
1003.654	1601.43
1003.949	1549
1004.243	1550.13
1004.538	1537.25
1004.832	1554.2
1005.127	1522.33
1005.421	1532.95
1005.715	1515.1
1006.009	1499.96
1006.304	1483.01
1006.598	1510.13
1006.892	1491.15
1007.186	1451.83
1007.48	1473.07
1007.773	1461.54
1008.067	1471.26
1008.361	1445.5
1008.655	1454.31
1008.948	1438.27
1009.242	1446.18
1009.535	1413.64
1009.829	1434.65
1010.122	1366.18
1010.415	1392.17
1010.708	1401.43
1011.001	1361.43
1011.295	1392.39
1011.588	1389.68
1011.881	1366.18
1012.173	1344.03
1012.466	1340.42
1012.759	1325.05
1013.052	1342.45
1013.344	1338.61
1013.637	1300.87
1013.93	1313.52
1014.222	1275.79
1014.514	1304.94
1014.807	1327.54
1015.099	1279.63
1015.391	1296.8
1015.683	1292.06
1015.976	1263.81
1016.268	1227.2
1016.56	1221.78
1016.851	1245.96
1017.143	1218.84
1017.435	1201.21
1017.727	1231.49
1018.018	1221.78
1018.31	1219.74
1018.602	1212.74
1018.893	1207.31
1019.185	1204.6
1019.476	1189.01
1019.767	1189.69
1020.058	1178.61
1020.35	1129.57
1020.641	1146.75
1020.932	1172.96
1021.223	1158.95
1021.514	1118.05
1021.804	1115.11
1022.095	1123.02
1022.386	1094.32
1022.677	1117.37
1022.967	1113.53
1023.258	1081.44
1023.548	1083.7
1023.839	1086.86
1024.129	1090.25
1024.419	1067.43
1024.709	1065.4
1025	1064.72
1025.29	1040.99
1025.58	1049.8
1025.87	1052.06
1026.16	1010.26
1026.449	1043.93
1026.739	1023.14
1027.029	1015.23
1027.319	1006.87
1027.608	998.96
1027.898	994.66
1028.187	993.08
1028.477	972.52
1028.766	984.27
1029.055	965.06
1029.344	962.8
1029.634	971.16
1029.923	959.41
1030.212	958.73
1030.501	961.22
1030.79	946.08
1031.078	947.66
1031.367	944.04
1031.656	918.28
1031.945	903.37
1032.233	893.65
1032.522	895.91
1032.81	884.16
1033.099	894.1
1033.387	898.17
1033.675	896.36
1033.963	897.94
1034.251	885.74
1034.54	870.82
1034.828	855.01
1035.116	858.85
1035.403	883.25
1035.691	819.3
1035.979	833.99
1036.267	831.96
1036.554	835.35
1036.842	833.09
1037.129	834.22
1037.417	830.15
1037.704	848
1037.992	829.24
1038.279	822.69
1038.566	792.63
1038.853	792.63
1039.14	792.63
