Data from breadboard_white_FLMS001491_00048.txt Node
Date: Wed Feb 08 10:47:47 GMT 2017
User: dcchb
Spectrometer: FLMS00149
Trigger mode: 0
Integration Time (sec): 2.000000E-2
Scans to average: 10
Electric dark correction enabled: true
Nonlinearity correction enabled: false
Boxcar width: 0
XAxis mode: Wavelengths
Number of Pixels in Spectrum: 2048
>>>>>Begin Spectral Data<<<<<
341.393	-8.04
341.776	-8.04
342.16	-8.04
342.543	-64.98
342.927	-73.57
343.31	-59.79
343.693	-47.13
344.077	-56.17
344.46	-63.85
344.843	-39.9
345.226	-54.14
345.61	-23.18
345.993	-1.03
346.376	0.78
346.759	-7.13
347.142	10.95
347.525	20.66
347.908	64.05
348.291	74.67
348.674	81.68
349.057	99.53
349.44	122.58
349.823	149.93
350.206	153.54
350.588	208.45
350.971	244.16
351.354	253.65
351.737	246.42
352.119	283.71
352.502	291.84
352.884	285.74
353.267	296.14
353.65	308.11
354.032	311.05
354.414	331.39
354.797	342.01
355.179	337.49
355.562	317.6
355.944	324.16
356.326	351.95
356.709	333.2
357.091	331.84
357.473	334.78
357.855	386.08
358.238	336.36
358.62	346.53
359.002	351.28
359.384	347.43
359.766	345.17
360.148	362.12
360.53	359.64
360.912	356.93
361.294	352.63
361.676	355.57
362.057	360.77
362.439	363.48
362.821	338.62
363.203	358.96
363.584	351.5
363.966	358.28
364.348	353.76
364.729	355.34
365.111	351.05
365.493	334.55
365.874	348.11
366.256	356.25
366.637	339.52
367.019	345.4
367.4	354.44
367.781	328.9
368.163	335.91
368.544	341.78
368.925	325.06
369.306	360.32
369.688	332.29
370.069	335.01
370.45	344.27
370.831	349.02
371.212	356.93
371.593	337.27
371.974	348.79
372.355	346.98
372.736	370.03
373.117	337.04
373.498	347.66
373.879	353.31
374.26	339.52
374.641	339.75
375.021	361.22
375.402	346.3
375.783	350.82
376.163	364.16
376.544	376.59
376.925	362.58
377.305	380.43
377.686	378.39
378.066	374.78
378.447	385.63
378.827	365.96
379.208	376.59
379.588	396.25
379.968	378.17
380.349	377.72
380.729	394.66
381.109	401.22
381.489	403.7
381.87	393.99
382.25	383.37
382.63	409.35
383.01	387.21
383.39	402.57
383.77	409.58
384.15	418.84
384.53	410.26
384.91	438.05
385.29	441.22
385.67	417.72
386.049	424.04
386.429	437.15
386.809	448.22
387.189	455.45
387.568	434.89
387.948	473.53
388.328	451.16
388.707	447.77
389.087	457.71
389.466	449.8
389.846	469.01
390.225	468.11
390.605	468.11
390.984	441.44
391.363	479.63
391.743	480.76
392.122	474.44
392.501	502.68
392.881	491.84
393.26	506.75
393.639	504.27
394.018	517.37
394.397	527.99
394.776	553.76
395.155	514.21
395.534	529.58
395.913	546.53
396.292	584.94
396.671	600.99
397.05	568.45
397.429	551.95
397.808	579.52
398.186	591.72
398.565	603.02
398.944	594.66
399.323	621.1
399.701	602.34
400.08	622
400.458	629.23
400.837	659.52
401.215	674.21
401.594	673.75
401.972	701.78
402.351	686.86
402.729	679.86
403.107	726.18
403.486	714.66
403.864	723.92
404.242	777.48
404.62	787.65
404.999	774.32
405.377	792.17
405.755	799.17
406.133	793.98
406.511	812.96
406.889	846.63
407.267	831.04
407.645	861.55
408.023	886.63
408.401	920.07
408.779	937.48
409.156	916.46
409.534	919.62
409.912	953.52
410.29	992.39
410.667	1010.69
411.045	1032.16
411.422	1045.5
411.8	1085.49
412.178	1092.73
412.555	1099.05
412.933	1117.58
413.31	1148.77
413.687	1163.68
414.065	1171.82
414.442	1204.81
414.819	1207.75
415.197	1231.7
415.574	1247.98
415.951	1283
416.328	1284.81
416.705	1308.09
417.082	1310.8
417.46	1353.74
417.837	1364.58
418.214	1371.14
418.591	1388.99
418.967	1441.64
419.344	1412.49
419.721	1424.47
420.098	1487.29
420.475	1490.23
420.852	1525.26
421.228	1499.27
421.605	1541.3
421.982	1556.22
422.358	1595.09
422.735	1614.97
423.111	1629.21
423.488	1643.22
423.864	1642.32
424.241	1663.11
424.617	1693.84
424.994	1705.82
425.37	1721.41
425.746	1757.57
426.123	1791.24
426.499	1777
426.875	1812.93
427.251	1863.33
427.627	1894.51
428.003	1895.42
428.379	1938.58
428.756	1936.32
429.132	1972.02
429.507	1960.5
429.883	2014.96
430.259	2063.1
430.635	2142.87
431.011	2094.51
431.387	2182.41
431.763	2205.01
432.138	2230.32
432.514	2285.24
432.89	2272.13
433.265	2283.2
433.641	2319.13
434.016	2361.17
434.392	2421.73
434.767	2453.37
435.143	2445.46
435.518	2475.29
435.894	2525.68
436.269	2550.77
436.644	2604.1
437.02	2615.4
437.395	2639.35
437.77	2656.98
438.145	2675.28
438.52	2736.07
438.895	2778.56
439.271	2800.03
439.646	2872.79
440.021	2882.06
440.395	2890.64
440.77	2900.14
441.145	2898.33
441.52	2980.81
441.895	2958.67
442.27	3004.31
442.645	3008.61
443.019	3063.97
443.394	3042.96
443.769	3096.29
444.143	3079.79
444.518	3136.29
444.892	3104.65
445.267	3149.62
445.641	3212.67
446.016	3231.2
446.39	3276.17
446.764	3244.76
447.139	3265.55
447.513	3300.8
447.887	3323.18
448.262	3405.21
448.636	3371.99
449.01	3449.73
449.384	3468.03
449.758	3484.98
450.132	3550.51
450.506	3558.2
450.88	3576.73
451.254	3553.9
451.628	3630.51
452.002	3702.15
452.376	3675.93
452.75	3742.6
453.123	3771.53
453.497	3858.75
453.871	3898.3
454.244	3976.94
454.618	3956.15
454.992	4010.39
455.365	4069.14
455.739	4153.89
456.112	4204.51
456.486	4236.82
456.859	4304.84
457.232	4365.63
457.606	4323.6
457.979	4383.71
458.352	4489.92
458.725	4598.62
459.099	4595.68
459.472	4705.74
459.845	4729.47
460.218	4787.09
460.591	4813.08
460.964	4842.01
461.337	4959.74
461.71	5004.49
462.083	5137.36
462.456	5096.24
462.829	5173.07
463.201	5275.44
463.574	5233.86
463.947	5342.56
464.32	5482.21
464.692	5511.37
465.065	5581.42
465.438	5630.01
465.81	5741.42
466.183	5807.63
466.555	5899.6
466.928	5938.25
467.3	5977.79
467.672	6053.5
468.045	6206.26
468.417	6251.46
468.789	6289.43
469.161	6403.09
469.534	6493.94
469.906	6615.29
470.278	6638.79
470.65	6784.1
471.022	6902.97
471.394	7039.24
471.766	7055.96
472.138	7168.27
472.51	7277.42
472.882	7432.67
473.253	7487.59
473.625	7635.15
473.997	7774.81
474.369	7908.82
474.74	7956.73
475.112	8154.23
475.484	8237.4
475.855	8358.07
476.227	8466.77
476.598	8683.03
476.97	8782.24
477.341	8972.29
477.713	9088
478.084	9215.68
478.455	9421.09
478.827	9438.49
479.198	9791.71
479.569	9847.98
479.94	10099.49
480.311	10097.91
480.682	10323.44
481.053	10616.09
481.424	10779.25
481.795	10903.54
482.166	11084.1
482.537	11199.35
482.908	11537.2
483.279	11570.19
483.65	11799.11
484.021	12044.98
484.391	12123.4
484.762	12318.87
485.133	12331.3
485.503	12570.84
485.874	12857.61
486.244	12970.15
486.615	13220.54
486.985	13347.32
487.356	13645.16
487.726	13778.95
488.097	14123.34
488.467	14111.59
488.837	14392.94
489.207	14528.53
489.578	14761.97
489.948	14858.69
490.318	15158.8
490.688	15111.34
491.058	15530.09
491.428	15681.27
491.798	15813.92
492.168	16113.8
492.538	16219.33
492.908	16476.5
493.278	16620.9
493.648	16693.9
494.017	16882.82
494.387	17002.82
494.757	17181.79
495.126	17344.5
495.496	17480.09
495.866	17614.32
496.235	17807.99
496.605	17903.81
496.974	18084.37
497.344	18195.1
497.713	18383.8
498.082	18421.99
498.452	18667.86
498.821	18833.95
499.19	18922.31
499.559	19160.73
499.928	19236.43
500.298	19380.61
500.667	19687.49
501.036	19576.53
501.405	19777.21
501.774	19868.95
502.143	20014.04
502.512	20211.09
502.88	20281.83
503.249	20297.64
503.618	20532.44
503.987	20763.39
504.356	20731.53
504.724	20933.56
505.093	20975.82
505.462	21131.97
505.83	21319.76
506.199	21533.09
506.567	21735.12
506.936	21759.07
507.304	21999.97
507.672	22082.91
508.041	22307.53
508.409	22533.74
508.777	22705.72
509.145	22764.47
509.514	22820.06
509.882	22985.48
510.25	23149.77
510.618	23346.38
510.986	23518.35
511.354	23765.12
511.722	23878.34
512.09	24066.58
512.458	24120.14
512.826	24304.77
513.193	24507.03
513.561	24607.36
513.929	24763.06
514.297	25099.55
514.664	25262.94
515.032	25227.01
515.4	25589.93
515.767	25698.18
516.135	25915.58
516.502	25820.89
516.869	26112.86
517.237	26321.67
517.604	26302.46
517.972	26751.94
518.339	26882.78
518.706	26951.03
519.073	27136.11
519.44	27386.27
519.808	27550.56
520.175	27664.46
520.542	27990.1
520.909	28152.8
521.276	28262.63
521.643	28617.65
522.009	28726.58
522.376	28955.27
522.743	29129.05
523.11	29349.61
523.477	29777.85
523.843	29933.32
524.21	30183.94
524.577	30528.56
524.943	30597.03
525.31	30829.34
525.676	31081.09
526.043	31229.56
526.409	31307.07
526.776	31695.54
527.142	31884.01
527.508	32114.06
527.874	32220.95
528.241	32459.36
528.607	32575.97
528.973	32852.79
529.339	32920.14
529.705	33336.85
530.071	33592.66
530.437	33707.91
530.803	33929.83
531.169	34114.68
531.535	34165.08
531.901	34364.62
532.267	34523.03
532.632	34868.79
532.998	34786.3
533.364	35092.51
533.73	35123.02
534.095	35556.45
534.461	35587.86
534.826	35715.09
535.192	35902.43
535.557	36221.75
535.923	36228.98
536.288	36260.39
536.653	36432.14
537.019	36495.86
537.384	36679.13
537.749	36923.2
538.114	37097.43
538.479	37069.41
538.845	37268.27
539.21	37288.61
539.575	37553.24
539.94	37503.75
540.305	37920.68
540.67	37803.4
541.034	38060.57
541.399	38068.25
541.764	38249.26
542.129	38383.72
542.494	38306.89
542.858	38627.33
543.223	38667.33
543.587	38851.28
543.952	38869.13
544.316	39049.47
544.681	39149.13
545.045	39275.22
545.41	39509.79
545.774	39656.23
546.138	39646.97
546.503	39791.82
546.867	39747.08
547.231	40117.01
547.595	40182.32
547.959	40376.44
548.324	40527.62
548.688	40636.54
549.052	40728.52
549.416	40717.45
549.779	40851.23
550.143	40982.98
550.507	41359.01
550.871	41313.14
551.235	41299.13
551.599	41714.03
551.962	41705.67
552.326	41867.25
552.689	42190.18
553.053	41913.35
553.417	42199.89
553.78	42677.85
554.143	42520.34
554.507	42841.46
554.87	42965.75
555.234	43313.31
555.597	43068.8
555.96	43381.78
556.323	43520.99
556.686	43436.24
557.05	43881.88
557.413	44024.25
557.776	44261.08
558.139	44360.51
558.502	44396.45
558.865	44501.53
559.228	44764.35
559.59	44874.17
559.953	45128.63
560.316	45468.73
560.679	45494.27
561.041	45783.08
561.404	46021.04
561.767	46234.82
562.129	46059.45
562.492	46470.97
562.854	46530.85
563.217	46570.85
563.579	46717.51
563.941	46902.59
564.304	47200.44
564.666	47364.73
565.028	47383.49
565.39	47516.36
565.753	47729.92
566.115	47840.65
566.477	48064.15
566.839	48226.63
567.201	48470.91
567.563	48469.78
567.925	48688.31
568.287	48679.72
568.648	48784.8
569.01	49079.49
569.372	49402.19
569.734	49301.63
570.095	49394.28
570.457	49630.66
570.819	49643.54
571.18	49678.57
571.542	49915.85
571.903	49909.52
572.265	50114.49
572.626	50273.13
572.987	50379.34
573.349	50354.93
573.71	50537.98
574.071	50495.27
574.432	50693
574.794	50979.55
575.155	50921.92
575.516	50918.76
575.877	51052.54
576.238	51020.68
576.599	51219.09
576.96	51187.23
577.32	51243.72
577.681	51305.64
578.042	51387
578.403	51530.27
578.763	51462.93
579.124	51540.89
579.485	51667.44
579.845	51744.95
580.206	51716.03
580.566	51604.84
580.927	51712.86
581.287	51939.07
581.648	51716.71
582.008	51926.19
582.368	51873.54
582.728	51889.36
583.089	51945.4
583.449	51852.97
583.809	51938.39
584.169	51948.79
584.529	51925.29
584.889	52140.2
585.249	52007.09
585.609	51918.51
585.969	52117.6
586.329	51975.23
586.688	52091.38
587.048	52017.04
587.408	52109.69
587.768	51996.92
588.127	52070.82
588.487	51941.56
588.846	52203.92
589.206	51995.79
589.565	51991.27
589.925	52114.43
590.284	52066.98
590.643	52109.46
591.003	52224.94
591.362	52235.79
591.721	52115.11
592.08	52206.41
592.44	52221.1
592.799	52207.31
593.158	52127.99
593.517	52319.18
593.876	52264.04
594.235	52232.17
594.593	52292.74
594.952	52277.37
595.311	52157.15
595.67	52271.72
596.029	52492.28
596.387	52444.37
596.746	52429
597.104	52358.5
597.463	52339.06
597.822	52499.51
598.18	52397.59
598.538	52353.3
598.897	52564.37
599.255	52263.81
599.613	52757.36
599.972	52508.1
600.33	52605.04
600.688	52452.51
601.046	52662.89
601.404	52749.9
601.762	52607.3
602.12	52714.42
602.478	52747.41
602.836	52812.04
603.194	52631.48
603.552	52704.02
603.91	52652.95
604.268	52850.91
604.625	52698.37
604.983	52818.15
605.341	52780.63
605.698	52849.78
606.056	52951.25
606.413	52920.97
606.771	53024.47
607.128	53090.68
607.485	52923.91
607.843	53023.56
608.2	53125.93
608.557	53265.36
608.914	53080.51
609.272	53341.3
609.629	53301.07
609.986	53449.54
610.343	53284.8
610.7	53496.55
611.057	53380.62
611.414	53461.74
611.771	53388.53
612.127	53475.53
612.484	53517.56
612.841	53568.63
613.198	53559.14
613.554	53482.53
613.911	53668.07
614.267	53733.15
614.624	53669.87
614.98	53796.88
615.337	53866.03
615.693	53882.07
616.05	53779.48
616.406	53968.17
616.762	53863.09
617.118	53854.28
617.475	53846.37
617.831	53949.19
618.187	53995.97
618.543	53922.52
618.899	54150.77
619.255	54054.5
619.611	53971.56
619.967	54096.3
620.323	54261.5
620.678	54047.27
621.034	54009.98
621.39	54024.67
621.746	54024.44
622.101	54297.88
622.457	54090.2
622.812	54188.05
623.168	54282.51
623.523	54281.84
623.879	54298.56
624.234	54054.72
624.589	54133.82
624.945	54207.26
625.3	54285.9
625.655	54285.9
626.01	54230.31
626.365	54250.2
626.72	54245.45
627.075	54193.25
627.43	54135.4
627.785	54089.75
628.14	54168.17
628.495	54198.22
628.85	54116.19
629.205	54021.73
629.559	54143.99
629.914	54005.01
630.269	54036.19
630.623	53880.26
630.978	53874.84
631.332	54033.93
631.687	54064.89
632.041	53909.64
632.396	53890.43
632.75	53748.74
633.104	53865.58
633.459	53757.1
633.813	53822.41
634.167	53784.45
634.521	53686.6
634.875	53672.36
635.229	53659.7
635.583	53489.09
635.937	53570.89
636.291	53468.07
636.645	53548.3
636.999	53397.56
637.352	53535.87
637.706	53360.5
638.06	53370
638.413	53281.64
638.767	53245.7
639.121	53343.33
639.474	53040.74
639.828	53186.95
640.181	53140.17
640.534	53098.59
640.888	53056.56
641.241	52958.25
641.594	52991.7
641.947	53040.29
642.301	52987.63
642.654	52963.68
643.007	52965.03
643.36	52881.87
643.713	52809.78
644.066	52943.34
644.419	52838.48
644.771	52601.88
645.124	52297.03
645.477	52285.5
645.83	51979.75
646.182	51845.29
646.535	51657.95
646.888	51737.5
647.24	51516.03
647.593	51752.41
647.945	51627.89
648.298	51451.4
648.65	51458.41
649.002	51321.91
649.355	51405.98
649.707	51324.4
650.059	51529.14
650.411	51926.42
650.763	51930.71
651.115	52295.22
651.467	52076.7
651.819	52078.73
652.171	51912.86
652.523	51924.16
652.875	51950.37
653.227	51647.78
653.578	51965.51
653.93	51859.3
654.282	51686.65
654.633	51729.81
654.985	51673.09
655.337	51645.75
655.688	51784.73
656.039	51783.14
656.391	51533.43
656.742	51656.59
657.094	51655.01
657.445	51635.13
657.796	51571.4
658.147	51556.94
658.498	51570.49
658.849	51640.32
659.2	51613.43
659.551	51545.18
659.902	51548.57
660.253	51483.72
660.604	51559.87
660.955	51325.08
661.306	51379.76
661.656	51329.14
662.007	51346.09
662.358	51405.07
662.708	51363.72
663.059	51330.5
663.409	51153.33
663.76	51217.06
664.11	51314.68
664.461	51340.44
664.811	51303.38
665.161	51356.94
665.511	51215.7
665.862	51098.42
666.212	51171.63
666.562	51262.25
666.912	51114.24
667.262	51106.1
667.612	51108.81
667.962	51195.59
668.312	51014.58
668.662	51180
669.011	51140.45
669.361	51119.43
669.711	51033.56
670.06	50990.4
670.41	50876.28
670.76	50914.69
671.109	50975.03
671.459	50874.47
671.808	50830.4
672.157	50980.91
672.507	50650.97
672.856	50673.79
673.205	50815.94
673.554	50797.18
673.904	50681.7
674.253	50862.94
674.602	50757.63
674.951	50270.42
675.3	50060.03
675.649	50605.32
675.998	50555.38
676.346	50508.38
676.695	50598.54
677.044	50310.64
677.393	50454.37
677.741	50651.87
678.09	50410.98
678.438	50285.78
678.787	50335.5
679.135	50342.73
679.484	50049.63
679.832	50157.42
680.181	50074.94
680.529	50118.33
680.877	50100.02
681.225	49956.98
681.573	50244.43
681.922	49933.25
682.27	49810.99
682.618	49911.1
682.966	49745.91
683.314	49711.33
683.661	49703.88
684.009	49466.37
684.357	49502.98
684.705	49338.24
685.053	49517.67
685.4	49379.59
685.748	49164.91
686.095	49174.85
686.443	48975.53
686.79	49007.17
687.138	48863.67
687.485	49019.37
687.832	48972.14
688.18	48910.9
688.527	48660.51
688.874	48606.73
689.221	48442.21
689.568	48449.9
689.915	48297.13
690.262	48389.56
690.609	48226.4
690.956	47972.85
691.303	48042.9
691.65	47933.08
691.997	47809.92
692.344	47569.92
692.69	47554.33
693.037	47600.66
693.383	47361.34
693.73	47382.58
694.077	47129.71
694.423	47154.11
694.769	46998.86
695.116	46938.07
695.462	46835.7
695.808	46686.1
696.155	46793.9
696.501	46530.17
696.847	46561.59
697.193	46123.18
697.539	46384.42
697.885	45995.5
698.231	45927.7
698.577	45973.35
698.923	45732.23
699.269	45539.24
699.614	45545.79
699.96	45233.94
700.306	45427.15
700.651	45243.66
700.997	45041.4
701.342	45068.74
701.688	44891.12
702.033	44865.13
702.379	44881.63
702.724	44644.35
703.069	44798.69
703.415	44252.49
703.76	44324.81
704.105	44356.45
704.45	44229.67
704.795	43912.62
705.14	43807.99
705.485	43746.97
705.83	43719.4
706.175	43772.73
706.52	43469.01
706.865	43476.7
707.209	43370.26
707.554	43182.01
707.899	43254.55
708.243	42977.27
708.588	43026.76
708.932	42672.42
709.277	42778.64
709.621	42782.25
709.966	42392.2
710.31	42508.36
710.654	42232.66
710.998	42194.7
711.342	42342.49
711.687	42115.38
712.031	42000.58
712.375	41725.56
712.719	41915.61
713.063	41648.72
713.407	41850.98
713.75	41596.29
714.094	41528.05
714.438	41370.31
714.782	41399.91
715.125	41249.64
715.469	41126.93
715.812	41081.28
716.156	40925.35
716.499	40945.01
716.843	40904.56
717.186	40656.21
717.53	40902.07
717.873	40855.07
718.216	40657.11
718.559	40473.61
718.902	40315.87
719.246	40448.53
719.589	40291.24
719.932	40183.45
720.275	40189.78
720.617	40082.43
720.96	39982.1
721.303	39866.85
721.646	39998.6
721.989	39719.96
722.331	39746.62
722.674	39541.66
723.016	39617.36
723.359	39526.74
723.701	39615.1
724.044	39356.58
724.386	39024.16
724.729	39337.14
725.071	39210.82
725.413	39065.06
725.755	39077.04
726.097	38933.76
726.439	38756.14
726.782	38786.65
727.124	38884.73
727.465	38768.35
727.807	38551.63
728.149	38531.06
728.491	38489.26
728.833	38391.63
729.175	38279.09
729.516	38330.39
729.858	38171.3
730.199	38176.72
730.541	38072.32
730.882	38123.62
731.224	38078.42
731.565	37836.39
731.906	37952.1
732.248	37933.56
732.589	37816.28
732.93	37754.36
733.271	37604.31
733.612	37678.66
733.953	37536.96
734.294	37259.91
734.635	37221.04
734.976	37256.52
735.317	37211.78
735.658	37229.18
735.999	37124.32
736.339	37026.92
736.68	37143.75
737.021	37032.12
737.361	36771.34
737.702	36880.26
738.042	36845.68
738.383	36896.98
738.723	36779.47
739.063	36649.98
739.404	36687.27
739.744	36565.69
740.084	36437.78
740.424	36463.09
740.764	36424.23
741.104	36529.99
741.444	36221.97
741.784	36171.35
742.124	36189.2
742.464	36122.31
742.804	35975.42
743.143	35752.38
743.483	35981.3
743.823	35868.08
744.162	35740.63
744.502	35882.09
744.841	35532.05
745.181	35717.13
745.52	35590.8
745.86	35500.18
746.199	35505.61
746.538	35374.54
746.877	35538.6
747.216	35445.49
747.556	35250.92
747.895	35229
748.234	35039.63
748.573	35003.02
748.911	34944.49
749.25	34967.09
749.589	34761.67
749.928	34837.37
750.267	34806.64
750.605	34644.39
750.944	34633.76
751.283	34505.63
751.621	34611.17
751.96	34307.22
752.298	34252.53
752.636	34153.78
752.975	34044.63
753.313	33914.46
753.651	34043.95
753.989	33783.84
754.327	33791.75
754.666	33696.39
755.004	33671.76
755.342	33640.8
755.679	33663.85
756.017	33448.94
756.355	33424.98
756.693	33264.08
757.031	33305.89
757.368	33026.12
757.706	32968.72
758.044	32856.41
758.381	32873.13
758.719	32765.79
759.056	32815.28
759.394	32604.67
759.731	32470.21
760.068	32425.46
760.405	32227.05
760.743	32130.78
761.08	32220.72
761.417	32082.87
761.754	31988.18
762.091	31886.72
762.428	31787.29
762.765	31555.88
763.102	31792.71
763.438	31411.25
763.775	31378.48
764.112	31274.98
764.449	31373.96
764.785	31138.04
765.122	30932.84
765.458	30872.73
765.795	30824.83
766.131	30726.97
766.467	30821.44
766.804	30540.76
767.14	30321.11
767.476	30323.6
767.812	30213.77
768.148	30101
768.485	30068.01
768.821	29832.08
769.157	29817.85
769.492	29789.15
769.828	29712.76
770.164	29434.13
770.5	29338.99
770.836	29382.83
771.171	29172.89
771.507	29223.96
771.842	28826.69
772.178	28939.45
772.513	28828.72
772.849	28696.29
773.184	28591.89
773.519	28542.85
773.855	28300.6
774.19	28380.6
774.525	28268.28
774.86	28114.39
775.195	28132.01
775.53	27969.08
775.865	27862.64
776.2	27520.51
776.535	27455.42
776.87	27516.66
777.205	27308.31
777.539	27231.02
777.874	27209.78
778.209	26990.12
778.543	27010.46
778.878	26900.86
779.212	26747.64
779.547	26630.59
779.881	26715.55
780.215	26481.44
780.55	26610.92
780.884	26348.56
781.218	26330.48
781.552	26124.84
781.886	26072.41
782.22	25939.76
782.554	25899.08
782.888	25668.58
783.222	25415.48
783.556	25405.08
783.889	25399.43
784.223	25262.94
784.557	25267.46
784.89	25251.64
785.224	25154.69
785.557	25048.03
785.891	24823.4
786.224	24800.12
786.558	24767.58
786.891	24584.54
787.224	24415.28
787.557	24396.75
787.891	24411.43
788.224	24348.39
788.557	24234.49
788.89	24190.42
789.223	24065
789.556	23947.72
789.888	23843.77
790.221	23894.39
790.554	23591.79
790.887	23695.75
791.219	23543.21
791.552	23455.08
791.884	23338.02
792.217	23213.05
792.549	23134.63
792.882	22973.73
793.214	22875.2
793.546	23056.44
793.879	22781.65
794.211	22717.92
794.543	22783
794.875	22684.47
795.207	22707.75
795.539	22560.86
795.871	22457.36
796.203	22297.82
796.535	22207.42
796.867	22161.55
797.198	22109.8
797.53	22163.81
797.862	21982.12
798.193	21995.68
798.525	21855.34
798.856	21831.16
799.188	21517.05
799.519	21545.07
799.85	21397.05
800.182	21472.53
800.513	21483.6
800.844	21232.53
801.175	21329.71
801.506	21284.96
801.837	21223.5
802.168	21102.82
802.499	21038.87
802.83	20992.32
803.161	20891.07
803.491	21009.72
803.822	20755.26
804.153	20671.42
804.483	20544.19
804.814	20571.08
805.145	20500.35
805.475	20417.87
805.805	20388.04
806.136	20234.6
806.466	20234.14
806.796	20243.41
807.126	20059.91
807.457	20077.54
807.787	20100.81
808.117	19886.58
808.447	19955.73
808.777	19930.65
809.107	19812.01
809.436	19770.43
809.766	19734.95
810.096	19563.2
810.426	19604.33
810.755	19549.19
811.085	19508.06
811.414	19476.65
811.744	19370.89
812.073	19281.17
812.403	19300.61
812.732	19238.24
813.061	19169.31
813.39	19076.66
813.719	18995.53
814.049	19148.97
814.378	18977
814.707	18928.64
815.036	18930
815.365	18805.25
815.693	18633.96
816.022	18660.63
816.351	18539.72
816.68	18433.96
817.008	18556
817.337	18388.09
817.665	18342.89
817.994	18350.35
818.322	18349.45
818.651	18214.54
818.979	18199.17
819.307	18185.38
819.636	18221.31
819.964	18098.38
820.292	18075.33
820.62	18114.2
820.948	18017.25
821.276	18074.65
821.604	18011.6
821.932	18099.51
822.259	18091.15
822.587	17949.01
822.915	17961.21
823.243	18021.32
823.57	17937.93
823.898	17942
824.225	17940.64
824.553	17925.73
824.88	17915.33
825.207	17937.71
825.535	17905.84
825.862	18010.47
826.189	17935.22
826.516	17987.42
826.843	18009.57
827.17	17966.18
827.497	18009.34
827.824	17990.13
828.151	18010.25
828.478	17994.88
828.805	18054.77
829.131	17934.09
829.458	17830.82
829.785	17872.4
830.111	17763.7
830.438	17987.2
830.764	17763.02
831.09	17927.99
831.417	17775.22
831.743	17916.46
832.069	17819.29
832.395	17767.09
832.722	17789.01
833.048	17727.32
833.374	17843.92
833.7	17647.32
834.026	17602.8
834.351	17689.8
834.677	17676.7
835.003	17584.72
835.329	17615.23
835.654	17688.22
835.98	17469.92
836.306	17589.01
836.631	17387.66
836.956	17468.79
837.282	17486.64
837.607	17430.6
837.932	17344.28
838.258	17449.81
838.583	17388.57
838.908	17236.48
839.233	17208.91
839.558	17254.33
839.883	17174.79
840.208	17041.68
840.533	17095.24
840.858	17166.88
841.182	17215.24
841.507	17183.83
841.832	16994.91
842.156	17020.67
842.481	17009.82
842.805	16789.04
843.13	16890.5
843.454	16799.21
843.778	16791.52
844.103	16683.28
844.427	16621.81
844.751	16644.18
845.075	16513.79
845.399	16575.26
845.723	16525.31
846.047	16445.99
846.371	16406.45
846.695	16336.84
847.019	16149.96
847.343	16135.27
847.666	16094.59
847.99	15974.14
848.313	15934.14
848.637	15876.74
848.96	15815.5
849.284	15777.99
849.607	15623.64
849.931	15594.94
850.254	15540.48
850.577	15426.13
850.9	15345.91
851.223	15298.91
851.546	15271.79
851.869	15204.67
852.192	15221.85
852.515	15068.18
852.838	15004.9
853.161	15119.7
853.483	14848.75
853.806	14963.32
854.129	14923.55
854.451	14904.57
854.774	14753.61
855.096	14724.23
855.419	14721.07
855.741	14635.65
856.063	14590.9
856.385	14527.4
856.708	14394.3
857.03	14342.32
857.352	14350.68
857.674	14382.55
857.996	14347.29
858.318	14198.82
858.64	14106.17
858.961	14153.17
859.283	14129.67
859.605	14025.72
859.926	14098.26
860.248	14051.71
860.57	13943.46
860.891	14059.39
861.212	13967.64
861.534	13978.71
861.855	13813.52
862.176	13812.62
862.498	13809
862.819	13809.91
863.14	13729
863.461	13685.39
863.782	13630.93
864.103	13675.67
864.424	13599.74
864.745	13659.85
865.065	13563.13
865.386	13513.87
865.707	13489.69
866.027	13468.45
866.348	13471.84
866.668	13409.46
866.989	13416.47
867.309	13228.45
867.63	13300.09
867.95	13282.91
868.27	13191.16
868.59	13227.77
868.91	13257.6
869.23	13110.26
869.55	13150.71
869.87	13151.39
870.19	13158.62
870.51	13059.87
870.83	13121.56
871.15	13035.24
871.469	12974.45
871.789	13027.1
872.109	13013.99
872.428	12868.91
872.748	12924.73
873.067	12886.77
873.386	12882.92
873.706	12840.21
874.025	12846.77
874.344	12762.93
874.663	12715.24
874.982	12715.02
875.301	12746.66
875.62	12700.33
875.939	12742.81
876.258	12669.14
876.577	12730.39
876.896	12618.52
877.214	12610.84
877.533	12703.95
877.852	12618.07
878.17	12560.67
878.489	12598.19
878.807	12538.98
879.125	12519.09
879.444	12479.54
879.762	12423.5
880.08	12512.99
880.398	12374.01
880.716	12429.15
881.034	12331.75
881.352	12430.73
881.67	12305.54
881.988	12345.31
882.306	12320.23
882.624	12278.65
882.941	12210.17
883.259	12147.8
883.577	12145.09
883.894	12100.12
884.212	12011.53
884.529	12058.31
884.846	12059.89
885.164	12089.72
885.481	12079.78
885.798	11947.36
886.115	11947.81
886.432	11912.33
886.75	11853.12
887.067	11882.5
887.383	11831.88
887.7	11810.64
888.017	11734.03
888.334	11801.14
888.651	11724.76
888.967	11695.16
889.284	11620.81
889.6	11633.01
889.917	11587.59
890.233	11554.82
890.55	11513.24
890.866	11463.98
891.182	11402.51
891.498	11389.63
891.815	11386.01
892.131	11347.15
892.447	11319.8
892.763	11300.59
893.079	11212.46
893.395	11181.05
893.71	11144.89
894.026	11183.31
894.342	11076.42
894.657	11042.07
894.973	11077.55
895.289	11023.99
895.604	11027.61
895.92	10919.59
896.235	10919.59
896.55	10860.83
896.865	10915.52
897.181	10827.38
897.496	10821.96
897.811	10720.49
898.126	10587.39
898.441	10649.08
898.756	10653.15
899.071	10643.66
899.386	10579.93
899.7	10503.33
900.015	10412.93
900.33	10380.84
900.644	10385.59
900.959	10412.25
901.273	10289.32
901.588	10254.52
901.902	10202.32
902.216	10181.07
902.531	10147.63
902.845	10094.07
903.159	10040.51
903.473	9969.55
903.787	9933.85
904.101	9909.44
904.415	9925.71
904.729	9878.03
905.042	9852.5
905.356	9794.87
905.67	9739.5
905.984	9791.25
906.297	9662.67
906.611	9601.88
906.924	9563.46
907.237	9567.98
907.551	9526.4
907.864	9507.42
908.177	9487.53
908.491	9391.49
908.804	9412.51
909.117	9360.08
909.43	9262
909.743	9332.51
910.056	9259.52
910.368	9261.78
910.681	9149.91
910.994	9104.94
911.307	9061.1
911.619	8970.48
911.932	9053.87
912.244	8929.81
912.557	8889.13
912.869	8886.87
913.181	8876.93
913.494	8849.81
913.806	8791.28
914.118	8704.73
914.43	8716.71
914.742	8724.84
915.054	8695.46
915.366	8620.21
915.678	8553.55
915.99	8498.41
916.302	8464.28
916.613	8413.44
916.925	8432.65
917.236	8336.83
917.548	8269.26
917.859	8281.46
918.171	8285.98
918.482	8201.47
918.794	8153.56
919.105	8183.16
919.416	8074.01
919.727	8059.77
920.038	8057.29
920.349	8034.24
920.66	7985.65
920.971	7963.28
921.282	7938.65
921.593	7863.39
921.903	7839.67
922.214	7803.51
922.525	7806.45
922.835	7721.03
923.146	7683.96
923.456	7713.34
923.767	7660.69
924.077	7625.66
924.387	7639.22
924.697	7564.87
925.008	7493.91
925.318	7492.33
925.628	7498.66
925.938	7457.3
926.248	7342.73
926.558	7332.56
926.867	7355.61
927.177	7331.43
927.487	7207.59
927.796	7189.06
928.106	7194.26
928.416	7151.32
928.725	7120.59
929.034	7127.6
929.344	7052.12
929.653	7085.34
929.962	7025.22
930.271	6975.73
930.581	6945.23
930.89	6917.43
931.199	6865.91
931.508	6857.32
931.817	6902.74
932.125	6796.76
932.434	6791.56
932.743	6682.41
933.051	6697.32
933.36	6680.83
933.669	6683.76
933.977	6589.76
934.286	6604.9
934.594	6632.92
934.902	6522.64
935.21	6480.61
935.519	6487.84
935.827	6395.64
936.135	6456.65
936.443	6295.98
936.751	6353.6
937.059	6288.75
937.367	6305.92
937.674	6300.72
937.982	6268.41
938.29	6223.44
938.597	6188.64
938.905	6186.15
939.213	6181.41
939.52	6138.47
939.827	6157.23
940.135	6080.84
940.442	6070
940.749	5996.33
941.056	6031.13
941.363	5950
941.67	5977.57
941.977	5925.37
942.284	5865.71
942.591	5873.84
942.898	5870.68
943.205	5790.46
943.511	5775.31
943.818	5787.74
944.125	5760.85
944.431	5733.73
944.738	5713.39
945.044	5689.67
945.35	5641.53
945.657	5660.06
945.963	5641.08
946.269	5580.97
946.575	5535.32
946.881	5500.75
947.187	5535.55
947.493	5500.07
947.799	5478.37
948.105	5425.27
948.41	5398.6
948.716	5398.83
949.022	5392.27
949.327	5362.9
949.633	5280.86
949.938	5347.08
950.244	5291.26
950.549	5243.58
950.854	5206.97
951.16	5176.91
951.465	5191.15
951.77	5105.28
952.075	5154.31
952.38	5076.12
952.685	5098.5
952.99	5059.4
953.294	5049.46
953.599	5033.86
953.904	5023.02
954.209	5011.49
954.513	4933.98
954.818	4897.6
955.122	4906.86
955.426	4884.94
955.731	4869.58
956.035	4851.95
956.339	4814.89
956.643	4784.15
956.948	4779.86
957.252	4781.22
957.556	4725.4
957.86	4719.52
958.163	4731.27
958.467	4669.81
958.771	4663.48
959.075	4599.98
959.378	4610.15
959.682	4582.58
959.985	4607.89
960.289	4523.37
960.592	4479.3
960.896	4499.87
961.199	4510.26
961.502	4474.78
961.805	4480.66
962.108	4399.76
962.411	4434.78
962.714	4397.5
963.017	4365.18
963.32	4390.49
963.623	4363.15
963.926	4308.01
964.228	4257.61
964.531	4255.58
964.833	4274.11
965.136	4225.52
965.438	4245.86
965.741	4198.18
966.043	4190.72
966.345	4122.48
966.648	4186.43
966.95	4156.37
967.252	4075.25
967.554	4078.64
967.856	4079.99
968.158	4030.28
968.46	4064.4
968.761	4030.95
969.063	3987.11
969.365	3999.54
969.666	3968.58
969.968	3950.73
970.269	3872.54
970.571	3910.28
970.872	3872.09
971.174	3842.71
971.475	3899.21
971.776	3854.01
972.077	3794.12
972.378	3807.46
972.679	3791.19
972.98	3750.96
973.281	3781.24
973.582	3735.14
973.883	3726.78
974.183	3713.22
974.484	3700.79
974.785	3680.68
975.085	3658.99
975.386	3654.01
975.686	3649.49
975.986	3600.68
976.287	3637.07
976.587	3574.47
976.887	3593.68
977.187	3551.64
977.487	3514.13
977.787	3489.27
978.087	3500.35
978.387	3494.24
978.687	3478.2
978.987	3430.07
979.286	3451.76
979.586	3411.76
979.885	3408.82
980.185	3378.54
980.484	3375.15
980.784	3375.15
981.083	3337.41
981.382	3340.12
981.682	3307.58
981.981	3272.56
982.28	3274.14
982.579	3241.6
982.878	3226.91
983.177	3213.57
983.475	3248.15
983.774	3270.52
984.073	3225.55
984.372	3182.39
984.67	3157.76
984.969	3142.62
985.267	3161.82
985.566	3108.49
985.864	3111.43
986.162	3118.66
986.461	3053.13
986.759	3080.7
987.057	3039.12
987.355	3051.09
987.653	3031.88
987.951	3015.84
988.249	2981.04
988.547	2958.89
988.844	2970.42
989.142	2911.66
989.44	2947.37
989.737	2902.62
990.035	2906.46
990.332	2935.84
990.63	2887.03
990.927	2873.02
991.224	2850.87
991.521	2852.68
991.819	2843.19
992.116	2842.51
992.413	2829.85
992.71	2789.4
993.006	2825.11
993.303	2744.89
993.6	2740.82
993.897	2737.43
994.193	2709.18
994.49	2712.57
994.787	2718.22
995.083	2700.82
995.379	2677.32
995.676	2675.06
995.972	2621.72
996.268	2630.99
996.565	2598.67
996.861	2623.53
997.157	2605
997.453	2550.54
997.749	2571.78
998.044	2554.61
998.34	2567.71
998.636	2521.84
998.932	2500.15
999.227	2526.13
999.523	2472.12
999.818	2469.19
1000.114	2461.73
1000.409	2458.79
1000.704	2423.99
1001	2389.87
1001.295	2398.45
1001.59	2394.84
1001.885	2367.49
1002.18	2375.86
1002.475	2356.2
1002.77	2360.04
1003.065	2325.01
1003.359	2300.6
1003.654	2293.6
1003.949	2258.8
1004.243	2272.81
1004.538	2272.81
1004.832	2240.49
1005.127	2185.58
1005.421	2272.36
1005.715	2170.89
1006.009	2221.51
1006.304	2200.94
1006.598	2176.54
1006.892	2157.56
1007.186	2118.91
1007.48	2124.34
1007.773	2131.79
1008.067	2129.99
1008.361	2075.75
1008.655	2042.53
1008.948	2106.94
1009.242	2083.43
1009.535	2032.36
1009.829	2041.18
1010.122	2007.73
1010.415	2011.57
1010.708	2006.15
1011.001	1984.23
1011.295	2020.61
1011.588	1974.74
1011.881	1961.18
1012.173	1944.45
1012.466	1915.75
1012.759	1924.12
1013.052	1911.69
1013.344	1901.29
1013.637	1893.16
1013.93	1870.11
1014.222	1852.25
1014.514	1843.89
1014.807	1814.97
1015.099	1803.22
1015.391	1865.36
1015.683	1797.11
1015.976	1785.59
1016.268	1800.5
1016.56	1766.15
1016.851	1725.25
1017.143	1767.06
1017.435	1751.47
1017.727	1737.91
1018.018	1701.52
1018.31	1736.55
1018.602	1691.58
1018.893	1697.91
1019.185	1677.79
1019.476	1666.72
1019.767	1637.57
1020.058	1654.97
1020.35	1621.75
1020.641	1655.87
1020.932	1595.09
1021.223	1620.85
1021.514	1587.18
1021.804	1543.34
1022.095	1581.3
1022.386	1534.52
1022.677	1563.67
1022.967	1508.08
1023.258	1522.09
1023.548	1502.43
1023.839	1497.23
1024.129	1479.38
1024.419	1493.84
1024.709	1478.93
1025	1493.62
1025.29	1450
1025.58	1469.89
1025.87	1422.43
1026.16	1427.63
1026.449	1414.52
1026.739	1381.53
1027.029	1390.12
1027.319	1392.83
1027.608	1390.8
1027.898	1370.46
1028.187	1356.67
1028.477	1370.23
1028.766	1338.14
1029.055	1343.79
1029.344	1322.55
1029.634	1315.09
1029.923	1277.13
1030.212	1271.03
1030.501	1287.07
1030.79	1266.96
1031.078	1270.8
1031.367	1254.53
1031.656	1250.69
1031.945	1230.35
1032.233	1259.5
1032.522	1238.26
1032.81	1221.54
1033.099	1203.46
1033.387	1216.79
1033.675	1181.99
1033.963	1170.46
1034.251	1163.68
1034.54	1161.65
1034.828	1144.25
1035.116	1168.66
1035.403	1141.54
1035.691	1161.42
1035.979	1149.9
1036.267	1136.11
1036.554	1100.63
1036.842	1086.62
1037.129	1096.79
1037.417	1092.73
1037.704	1097.92
1037.992	1067.64
1038.279	1058.38
1038.566	1028.32
1038.853	1028.32
1039.14	1028.32
