Data from breadboard_black_back_FLMS001491_00009.txt Node
Date: Wed Feb 08 10:49:52 GMT 2017
User: dcchb
Spectrometer: FLMS00149
Trigger mode: 0
Integration Time (sec): 2.000000E-2
Scans to average: 10
Electric dark correction enabled: true
Nonlinearity correction enabled: false
Boxcar width: 0
XAxis mode: Wavelengths
Number of Pixels in Spectrum: 2048
>>>>>Begin Spectral Data<<<<<
341.393	-7.8
341.776	-7.8
342.16	-7.8
342.543	-50.96
342.927	-75.82
343.31	-37.63
343.693	-89.6
344.077	-72.2
344.46	-52.99
344.843	-43.28
345.226	-41.02
345.61	-29.26
345.993	-19.55
346.376	-3.95
346.759	23.16
347.142	20.9
347.525	33.56
347.908	51.19
348.291	97.06
348.674	76.27
349.057	87.34
349.44	126.66
349.823	148.58
350.206	157.85
350.588	193.78
350.971	214.34
351.354	241.69
351.737	250.5
352.119	259.09
352.502	277.39
352.884	276.94
353.267	310.61
353.65	285.53
354.032	297.05
354.414	305.64
354.797	315.36
355.179	340.67
355.562	328.24
355.944	330.73
356.326	342.48
356.709	341.35
357.091	333.66
357.473	325.3
357.855	363.95
358.238	345.19
358.62	350.61
359.002	361.23
359.384	371.63
359.766	358.52
360.148	348.58
360.53	356.49
360.912	360.1
361.294	359.88
361.676	351.52
362.057	389.03
362.439	355.81
362.821	349.71
363.203	378.63
363.584	335.92
363.966	325.3
364.348	336.6
364.729	362.82
365.111	347
365.493	346.77
365.874	341.57
366.256	343.38
366.637	350.39
367.019	341.57
367.4	335.7
367.781	348.58
368.163	354.91
368.544	361.46
368.925	342.7
369.306	358.97
369.688	358.3
370.069	335.7
370.45	337.05
370.831	351.06
371.212	349.71
371.593	348.8
371.974	356.04
372.355	347.45
372.736	370.5
373.117	347.67
373.498	351.52
373.879	372.98
374.26	355.13
374.641	356.94
375.021	361.91
375.402	362.36
375.783	379.99
376.163	388.13
376.544	381.57
376.925	388.58
377.305	391.29
377.686	354.68
378.066	376.37
378.447	399.65
378.827	401.91
379.208	394.45
379.588	385.41
379.968	378.63
380.349	383.15
380.729	390.39
381.109	414.34
381.489	403.72
381.87	393.1
382.25	403.72
382.63	431.29
383.01	441.46
383.39	398.29
383.77	424.28
384.15	426.09
384.53	432.42
384.91	427.22
385.29	423.83
385.67	430.16
386.049	443.04
386.429	450.04
386.809	450.72
387.189	438.97
387.568	456.37
387.948	461.57
388.328	461.57
388.707	463.15
389.087	470.84
389.466	471.29
389.846	456.6
390.225	464.06
390.605	472.87
390.984	484.39
391.363	490.27
391.743	510.61
392.122	496.82
392.501	498.86
392.881	490.5
393.26	505.41
393.639	533.21
394.018	493.43
394.397	527.33
394.776	529.59
395.155	524.39
395.534	508.35
395.913	538.63
396.292	536.37
396.671	538.18
397.05	544.51
397.429	546.54
397.808	525.75
398.186	551.96
398.565	573.88
398.944	551.06
399.323	576.82
399.701	555.8
400.08	559.65
400.458	596.71
400.837	591.51
401.215	584.05
401.594	590.15
401.972	616.82
402.351	624.73
402.729	592.64
403.107	585.18
403.486	617.95
403.864	646.65
404.242	633.09
404.62	645.07
404.999	654.79
405.377	652.98
405.755	670.83
406.133	667.67
406.511	665.86
406.889	673.09
407.267	702.24
407.645	703.6
408.023	707.21
408.401	701.34
408.779	725.74
409.156	713.09
409.534	737.49
409.912	749.02
410.29	752.86
410.667	755.57
411.045	770.71
411.422	763.26
411.8	740.21
412.178	786.98
412.555	772.75
412.933	792.63
413.31	812.97
413.687	820.66
414.065	826.53
414.442	847.1
414.819	835.35
415.197	868.11
415.574	843.93
415.951	879.64
416.328	882.35
416.705	923.7
417.082	886.64
417.46	908.79
417.837	883.48
418.214	903.14
418.591	942.24
418.967	926.42
419.344	932.74
419.721	947.21
420.098	952.18
420.475	995.12
420.852	982.91
421.228	978.39
421.605	1003.02
421.982	1003.25
422.358	1005.96
422.735	1015.23
423.111	1021.56
423.488	1042.57
423.864	1024.94
424.241	1081.44
424.617	1070.37
424.994	1068.11
425.37	1090.25
425.746	1102
426.123	1108.11
426.499	1125.51
426.875	1138.84
427.251	1132.51
427.627	1172.06
428.003	1173.64
428.379	1182.68
428.756	1188.1
429.132	1227.43
429.507	1221.55
429.883	1231.27
430.259	1266.75
430.635	1264.03
431.011	1295.67
431.387	1333.41
431.763	1311.04
432.138	1345.61
432.514	1358.72
432.89	1350.13
433.265	1416.12
433.641	1419.28
434.016	1423.58
434.392	1425.16
434.767	1477.81
435.143	1487.53
435.518	1476.46
435.894	1497.7
436.269	1514.42
436.644	1562.78
437.02	1564.82
437.395	1550.58
437.77	1581.31
438.145	1589.68
438.52	1616.57
438.895	1624.7
439.271	1655.66
439.646	1669.67
440.021	1665.38
440.395	1699.05
440.77	1690.24
441.145	1678.71
441.52	1705.15
441.895	1697.92
442.27	1751.48
442.645	1763.91
443.019	1751.48
443.394	1807.98
443.769	1806.62
444.143	1811.36
444.518	1827.41
444.892	1813.62
445.267	1833.74
445.641	1878.26
446.016	1901.76
446.39	1869.22
446.764	1898.14
447.139	1922.55
447.513	1919.38
447.887	1936.79
448.262	1933.4
448.636	1952.38
449.01	1980.17
449.384	2000.96
449.758	2045.71
450.132	2024.24
450.506	2071.7
450.88	2056.33
451.254	2069.66
451.628	2088.42
452.002	2086.84
452.376	2155.08
452.75	2162.99
453.123	2158.7
453.497	2233.73
453.871	2234.63
454.244	2284.12
454.618	2273.5
454.992	2309.43
455.365	2348.75
455.739	2386.72
456.112	2403.21
456.486	2388.52
456.859	2476.21
457.232	2505.13
457.606	2489.99
457.979	2518.46
458.352	2582.19
458.725	2579.93
459.099	2659.48
459.472	2682.98
459.845	2691.79
460.218	2712.36
460.591	2736.99
460.964	2727.5
461.337	2831
461.71	2835.52
462.083	2885.91
462.456	2904.44
462.829	2956.19
463.201	2984.44
463.574	2992.8
463.947	3056.3
464.32	3122.29
464.692	3124.32
465.065	3163.19
465.438	3157.09
465.81	3259.69
466.183	3260.59
466.555	3356.86
466.928	3370.65
467.3	3326.35
467.672	3458.33
468.045	3489.74
468.417	3513.01
468.789	3557.99
469.161	3594.82
469.534	3639.79
469.906	3736.29
470.278	3753.69
470.65	3811.09
471.022	3902.61
471.394	3945.55
471.766	3953.46
472.138	4014.92
472.51	4096.05
472.882	4173.34
473.253	4208.36
473.625	4262.37
473.997	4369.72
474.369	4363.84
474.74	4423.73
475.112	4490.84
475.484	4603.83
475.855	4649.48
476.227	4733.1
476.598	4829.59
476.97	4889.02
477.341	4980.32
477.713	5041.79
478.084	5085.18
478.455	5221.67
478.827	5273.87
479.198	5397.71
479.569	5435.9
479.94	5632.28
480.311	5619.85
480.682	5795.89
481.053	5894.65
481.424	5994.31
481.795	6076.56
482.166	6131.03
482.537	6185.04
482.908	6373.96
483.279	6350.91
483.65	6506.83
484.021	6676.1
484.391	6719.26
484.762	6789.09
485.133	6817.33
485.503	6923.09
485.874	7062.53
486.244	7132.35
486.615	7278.34
486.985	7335.51
487.356	7537.09
487.726	7597.43
488.097	7794.48
488.467	7782.51
488.837	7957.87
489.207	8022.95
489.578	8157.19
489.948	8174.59
490.318	8330.52
490.688	8335.94
491.058	8516.27
491.428	8648.47
491.798	8706.1
492.168	8887.11
492.538	8922.14
492.908	9013.66
493.278	9128.01
493.648	9136.37
494.017	9298.63
494.387	9354.22
494.757	9465.4
495.126	9593.76
495.496	9590.82
495.866	9613.65
496.235	9774.32
496.605	9923.69
496.974	9943.81
497.344	9990.81
497.713	10075.55
498.082	10138.15
498.452	10285.94
498.821	10308.09
499.19	10325.49
499.559	10506.05
499.928	10568.2
500.298	10594.64
500.667	10732.49
501.036	10679.61
501.405	10867.85
501.774	10872.37
502.143	10996.43
502.512	11064.23
502.88	11082.99
503.249	11168.86
503.618	11153.72
503.987	11322.98
504.356	11433.94
504.724	11451.56
505.093	11532.92
505.462	11617.66
505.83	11714.83
506.199	11824.21
506.567	11965.22
506.936	11946.01
507.304	12087.93
507.672	12097.2
508.041	12190.98
508.409	12287.25
508.777	12357.98
509.145	12490.63
509.514	12565.66
509.882	12581.93
510.25	12734.02
510.618	12789.38
510.986	12777.4
511.354	12986.44
511.722	13123.61
512.09	13187.79
512.458	13188.01
512.826	13381.68
513.193	13452.87
513.561	13470.95
513.929	13633.65
514.297	13737.15
514.664	13823.7
515.032	13886.75
515.4	14054.88
515.767	14129.23
516.135	14231.38
516.502	14128.33
516.869	14356.57
517.237	14507.98
517.604	14499.84
517.972	14637.02
518.339	14753.62
518.706	14872.72
519.073	14955.2
519.44	14990.91
519.808	15152.26
520.175	15176.44
520.542	15379.82
520.909	15515.41
521.276	15550.89
521.643	15659.59
522.009	15898
522.376	15916.3
522.743	16024.55
523.11	16162.17
523.477	16398.55
523.843	16480.36
524.21	16631.99
524.577	16824.08
524.943	16871.31
525.31	16922.83
525.676	17071.08
526.043	17187.46
526.409	17339.32
526.776	17526.66
527.142	17516.26
527.508	17687.11
527.874	17833.32
528.241	17922.81
528.607	18001.9
528.973	18182.23
529.339	18275.79
529.705	18396.69
530.071	18506.29
530.437	18565.95
530.803	18825.38
531.169	18877.81
531.535	18852.72
531.901	18972.72
532.267	19103.79
532.632	19145.82
532.998	19280.28
533.364	19427.4
533.73	19469.43
534.095	19632.14
534.461	19645.7
534.826	19661.74
535.192	19855.86
535.557	19957.1
535.923	19984.67
536.288	19989.19
536.653	20176.76
537.019	20193.25
537.384	20255.17
537.749	20376.98
538.114	20425.56
538.479	20608.16
538.845	20566.8
539.21	20569.74
539.575	20707.37
539.94	20798.44
540.305	20922.27
540.67	21000.24
541.034	21000.69
541.399	21156.84
541.764	21176.28
542.129	21188.26
542.494	21301.47
542.858	21482.94
543.223	21486.33
543.587	21612.88
543.952	21579.21
544.316	21679.32
544.681	21734.91
545.045	21859.43
545.41	22004.05
545.774	21983.04
546.138	22101
546.503	22045.41
546.867	22115.46
547.231	22253.77
547.595	22326.76
547.959	22499.41
548.324	22439.97
548.688	22618.95
549.052	22546.41
549.416	22800.19
549.779	22731.27
550.143	22787.54
550.507	22960.19
550.871	23039.96
551.235	22999.28
551.599	23220.07
551.962	23269.78
552.326	23423.9
552.689	23638.59
553.053	23479.95
553.417	23509.1
553.78	23775.99
554.143	23759.94
554.507	23924.91
554.87	23950.44
555.234	24181.85
555.597	24073.15
555.96	24172.13
556.323	24406.02
556.686	24413.03
557.05	24551.11
557.413	24655.51
557.776	24662.06
558.139	24867.71
558.502	24929.85
558.865	25014.82
559.228	25160.58
559.59	25280.58
559.953	25218.43
560.316	25598.99
560.679	25558.99
561.041	25761.47
561.404	25979.54
561.767	25961.24
562.129	26026.55
562.492	26145.19
562.854	26254.56
563.217	26334.79
563.579	26418.18
563.941	26527.78
564.304	26773.87
564.666	26843.93
565.028	26897.03
565.39	26948.78
565.753	27138.61
566.115	27247.31
566.477	27408.43
566.839	27439.39
567.201	27673.74
567.563	27784.47
567.925	27858.82
568.287	27756.9
568.648	27841.41
569.01	28067.62
569.372	28269.88
569.734	28103.55
570.095	28340.16
570.457	28635.29
570.819	28461.51
571.18	28535.63
571.542	28715.06
571.903	28733.82
572.265	28902.86
572.626	28900.82
572.987	29082.51
573.349	29158.89
573.71	29220.81
574.071	29372.22
574.432	29319.34
574.794	29671.2
575.155	29654.47
575.516	29426.91
575.877	29684.98
576.238	29661.93
576.599	29809.72
576.96	29859.44
577.32	29876.62
577.681	30087.23
578.042	30155.03
578.403	30100.56
578.763	30065.99
579.124	30187.79
579.485	30378.07
579.845	30340.56
580.206	30321.12
580.566	30293.78
580.927	30349.6
581.287	30342.82
581.648	30467.79
582.008	30484.06
582.368	30530.61
582.728	30565.64
583.089	30429.6
583.449	30570.83
583.809	30513.66
584.169	30560.21
584.529	30579.87
584.889	30754.33
585.249	30503.94
585.609	30530.61
585.969	30661.68
586.329	30620.78
586.688	30667.56
587.048	30732.86
587.408	30643.15
587.768	30625.75
588.127	30476.83
588.487	30579.2
588.846	30815.8
589.206	30651.28
589.565	30618.74
589.925	30726.08
590.284	30744.62
590.643	30908.23
591.003	30888.34
591.362	30876.36
591.721	30732.19
592.08	30849.25
592.44	30837.49
592.799	30842.69
593.158	30784.39
593.517	30924.72
593.876	30979.41
594.235	30703.94
594.593	30910.71
594.952	30965.63
595.311	30815.12
595.67	31021.67
596.029	31137.83
596.387	31245.85
596.746	31118.84
597.104	31001.56
597.463	31096.7
597.822	31239.52
598.18	31003.59
598.538	30970.15
598.897	31199.52
599.255	31074.55
599.613	31478.16
599.972	31317.71
600.33	31319.74
600.688	31292.4
601.046	31434.31
601.404	31409.68
601.762	31391.38
602.12	31419.63
602.478	31531.26
602.836	31461.43
603.194	31312.06
603.552	31573.52
603.91	31401.55
604.268	31549.79
604.625	31546.63
604.983	31658.94
605.341	31388.44
605.698	31660.52
606.056	31632.73
606.413	31532.62
606.771	31911.14
607.128	31864.36
607.485	31727.87
607.843	31763.35
608.2	31946.84
608.557	31966.96
608.914	31912.27
609.272	32066.84
609.629	32061.87
609.986	32360.84
610.343	32034.3
610.7	32361.97
611.057	32205.59
611.414	32194.97
611.771	32155.2
612.127	32384.57
612.484	32282.2
612.841	32400.62
613.198	32278.81
613.554	32295.54
613.911	32351.58
614.267	32553.61
614.624	32557
614.98	32565.58
615.337	32727.61
615.693	32621.85
616.05	32498.24
616.406	32733.49
616.762	32749.08
617.118	32671.8
617.475	32758.35
617.831	32909.53
618.187	32860.49
618.543	32959.02
618.899	32939.81
619.255	32993.6
619.611	33028.4
619.967	32982.52
620.323	33061.62
620.678	32926.03
621.034	32982.07
621.39	32936.65
621.746	32869.76
622.101	33307.03
622.457	32902.75
622.812	32980.49
623.168	33162.4
623.523	33141.84
623.879	33213.93
624.234	32941.85
624.589	33054.16
624.945	33185.91
625.3	33091.9
625.655	33212.12
626.01	33034.27
626.365	33028.62
626.72	33054.39
627.075	33215.96
627.43	33174.38
627.785	32952.47
628.14	33044.22
628.495	33048.28
628.85	33039.02
629.205	32923.09
629.559	33132.8
629.914	32919.7
630.269	32978
630.623	32804.45
630.978	32771.45
631.332	32992.01
631.687	33025.69
632.041	32699.14
632.396	32888.06
632.75	32673.83
633.104	32794.05
633.459	32597.67
633.813	32525.81
634.167	32642.64
634.521	32532.82
634.875	32546.83
635.229	32454.85
635.583	32331.92
635.937	32494.85
636.291	32438.81
636.645	32354.97
636.999	32249.89
637.352	32453.27
637.706	32171.24
638.06	32385.25
638.413	32232.03
638.767	32244.46
639.121	32243.11
639.474	32030.46
639.828	32139.15
640.181	32097.57
640.534	32001.53
640.888	31890.12
641.241	31798.6
641.594	31865.94
641.947	31999.05
642.301	31920.18
642.654	31888.99
643.007	31834.76
643.36	31743.91
643.713	31641.09
644.066	31765.61
644.419	31508.66
644.771	31506.86
645.124	31183.7
645.477	31132.85
645.83	30929.47
646.182	30705.29
646.535	30598.86
646.888	30610.83
647.24	30534.68
647.593	30696.48
647.945	30456.94
648.298	30418.07
648.65	30345.3
649.002	30328.36
649.355	30446.09
649.707	30430.73
650.059	30542.36
650.411	30841.56
650.763	30837.72
651.115	31061.22
651.467	31012.63
651.819	30969.02
652.171	31042.46
652.523	30929.24
652.875	30789.36
653.227	30683.6
653.578	30865.74
653.93	30811.96
654.282	30613.55
654.633	30579.42
654.985	30628.01
655.337	30686.54
655.688	30614.9
656.039	30766.54
656.391	30432.99
656.742	30583.26
657.094	30563.6
657.445	30674.79
657.796	30575.13
658.147	30494
658.498	30503.27
658.849	30504.85
659.2	30548.01
659.551	30380.33
659.902	30532.19
660.253	30400.22
660.604	30474.79
660.955	30320.9
661.306	30398.41
661.656	30486.32
662.007	30390.5
662.358	30282.25
662.708	30291.52
663.059	30309.82
663.409	30161.58
663.76	30293.1
664.11	30165.87
664.461	30307.79
664.811	30219.21
665.161	30240.45
665.511	30115.25
665.862	30191.18
666.212	30303.5
666.562	30168.36
666.912	30194.12
667.262	30060.11
667.612	30200.9
667.962	30147.34
668.312	30088.59
668.662	30146.21
669.011	30093.11
669.361	29999.78
669.711	30040.68
670.06	29909.16
670.41	29900.57
670.76	29931.98
671.109	30044.29
671.459	29864.64
671.808	29842.49
672.157	29885.88
672.507	29767.47
672.856	29694.02
673.205	29813.34
673.554	29861.7
673.904	29718.65
674.253	29834.81
674.602	29828.03
674.951	29280.25
675.3	29262.85
675.649	29623.74
675.998	29584.65
676.346	29644.31
676.695	29602.72
677.044	29456.97
677.393	29506.68
677.741	29512.33
678.09	29482.28
678.438	29436.18
678.787	29477.53
679.135	29399.57
679.484	29329.29
679.832	29345.33
680.181	29184.2
680.529	29276.18
680.877	29296.52
681.225	29119.8
681.573	29273.02
681.922	29027.6
682.27	29062.85
682.618	29056.3
682.966	28962.97
683.314	29119.12
683.661	28877.55
684.009	28870.09
684.357	28733.37
684.705	28758.23
685.053	28664.22
685.4	28634.16
685.748	28364.79
686.095	28555.07
686.443	28225.59
686.79	28323.21
687.138	28437.78
687.485	28440.95
687.832	28246.6
688.18	28323.89
688.527	28062.43
688.874	28097.45
689.221	28026.72
689.568	27912.83
689.915	28033.95
690.262	27976.78
690.609	27861.75
690.956	27840.28
691.303	27808.2
691.65	27506.73
691.997	27696.11
692.344	27440.07
692.69	27420.41
693.037	27443.46
693.383	27148.33
693.73	27243.69
694.077	27008.89
694.423	27140.87
694.769	27056.58
695.116	26865.4
695.462	26878.95
695.808	26852.51
696.155	26840.09
696.501	26702.91
696.847	26649.81
697.193	26448.91
697.539	26551.73
697.885	26291.4
698.231	26217.05
698.577	26246.2
698.923	26256.82
699.269	26076.72
699.614	25973.44
699.96	25942.93
700.306	25967.11
700.651	25843.28
700.997	25630.63
701.342	25787.68
701.688	25656.39
702.033	25543.4
702.379	25612.77
702.724	25456.62
703.069	25612.09
703.415	25154.71
703.76	25265.21
704.105	25191.32
704.45	25170.52
704.795	25025.44
705.14	24940.02
705.485	24919.01
705.83	24891.89
706.175	24809.18
706.52	24744.77
706.865	24621.84
707.209	24661.61
707.554	24545.91
707.899	24583.42
708.243	24547.04
708.588	24442.63
708.932	24346.37
709.277	24191.12
709.621	24390.21
709.966	24002.42
710.31	24312.02
710.654	24086.94
710.998	24044.68
711.342	24032.93
711.687	23917.45
712.031	23811.24
712.375	23777.57
712.719	23886.26
713.063	23774.4
713.407	23940.73
713.75	23684.46
714.094	23634.75
714.438	23562.88
714.782	23553.39
715.125	23456.9
715.469	23426.16
715.812	23282.21
716.156	23201.76
716.499	23274.08
716.843	23403.79
717.186	23126.06
717.53	23301.42
717.873	23150.24
718.216	23053.74
718.559	22952.73
718.902	22815.33
719.246	22871.6
719.589	22847.87
719.932	22745.96
720.275	22767.2
720.617	22779.63
720.96	22741.89
721.303	22639.97
721.646	22718.39
721.989	22526.3
722.331	22739.63
722.674	22420.31
723.016	22596.58
723.359	22361.78
723.701	22535.11
724.044	22291.96
724.386	22260.54
724.729	22363.82
725.071	22192.98
725.413	22208.12
725.755	22189.59
726.097	22105.75
726.439	21997.5
726.782	22085.18
727.124	22106.88
727.465	22067.78
727.807	21939.2
728.149	21907.56
728.491	21756.15
728.833	21855.81
729.175	21784.4
729.516	21711.86
729.858	21809.71
730.199	21805.19
730.541	21641.13
730.882	21596.61
731.224	21639.09
731.565	21493.56
731.906	21402.26
732.248	21581.69
732.589	21465.09
732.93	21425.31
733.271	21374.01
733.612	21351.19
733.953	21347.57
734.294	21243.17
734.635	21195.04
734.976	21234.36
735.317	21132.44
735.658	21129.73
735.999	21169.73
736.339	21083.4
736.68	21186.9
737.021	21020.8
737.361	20943.07
737.702	21108.03
738.042	20967.25
738.383	20877.3
738.723	21042.27
739.063	20762.05
739.404	20802.05
739.744	20771.32
740.084	20735.61
740.424	20809.28
740.764	20686.57
741.104	20747.82
741.444	20554.83
741.784	20569.52
742.124	20630.08
742.464	20532.45
742.804	20452.68
743.143	20517.09
743.483	20506.92
743.823	20363.42
744.162	20380.59
744.502	20412.23
744.841	20189.41
745.181	20411.78
745.52	20314.16
745.86	20233.25
746.199	20226.93
746.538	20111.45
746.877	20263.08
747.216	20154.16
747.556	20110.77
747.895	20068.96
748.234	19956.65
748.573	20052.69
748.911	19899.48
749.25	19869.2
749.589	19798.91
749.928	19867.16
750.267	19762.76
750.605	19770.21
750.944	19736.54
751.283	19497
751.621	19630.11
751.96	19577
752.298	19557.34
752.636	19518.02
752.975	19395.99
753.313	19351.69
753.651	19375.2
753.989	19277.35
754.327	19181.76
754.666	19153.28
755.004	19195.54
755.342	19225.82
755.679	19216.1
756.017	19074.87
756.355	19047.52
756.693	18978.15
757.031	19091.14
757.368	18891.37
757.706	18861.09
758.044	18837.58
758.381	18849.56
758.719	18690.47
759.056	18762.78
759.394	18652.05
759.731	18576.35
760.068	18509.68
760.405	18494.09
760.743	18453.19
761.08	18432.4
761.417	18287.09
761.754	18278.28
762.091	18352.4
762.428	18115.12
762.765	18038.51
763.102	18126.42
763.438	18068.56
763.775	17950.83
764.112	17955.8
764.449	17947.44
764.785	17822.92
765.122	17684.39
765.458	17694.79
765.795	17634.45
766.131	17610.95
766.467	17522.36
766.804	17476.49
767.14	17388.58
767.476	17344.06
767.812	17328.02
768.148	17324.86
768.485	17180.9
768.821	17076.05
769.157	17178.19
769.492	17063.85
769.828	17067.69
770.164	16874.25
770.5	16808.03
770.836	16742.05
771.171	16676.06
771.507	16730.07
771.842	16573.46
772.178	16512
772.513	16417.76
772.849	16390.42
773.184	16413.01
773.519	16296.18
773.855	16246.92
774.19	16182.29
774.525	16262.06
774.86	16090.99
775.195	16080.59
775.53	15988.62
775.865	15948.39
776.2	15857.78
776.535	15716.31
776.87	15699.81
777.205	15675.63
777.539	15604.67
777.874	15681.73
778.209	15467.73
778.543	15474.51
778.878	15372.82
779.212	15402.42
779.547	15274.51
779.881	15275.42
780.215	15273.61
780.55	15237.9
780.884	15127.17
781.218	15086.27
781.552	15082.65
781.886	15011.7
782.22	14934.64
782.554	14850.57
782.888	14596.11
783.222	14636.56
783.556	14573.97
783.889	14630.24
784.223	14551.82
784.557	14452.39
784.89	14476.79
785.224	14463.24
785.557	14327.65
785.891	14269.79
786.224	14228.44
786.558	14154.77
786.891	14099.18
787.224	14044.04
787.557	14090.36
787.891	14009.46
788.224	13992.74
788.557	13969.01
788.89	13924.27
789.223	13880.88
789.556	13789.58
789.888	13716.36
790.221	13755.23
790.554	13619.64
790.887	13590.49
791.219	13496.26
791.552	13524.28
791.884	13434.56
792.217	13422.58
792.549	13390.72
792.882	13259.2
793.214	13279.99
793.546	13264.4
793.879	13125.19
794.211	13009.04
794.543	13147.11
794.875	12984.63
795.207	13097.17
795.539	13014.46
795.871	12947.12
796.203	12918.64
796.535	12768.14
796.867	12772.43
797.198	12785.09
797.53	12728.14
797.862	12646.79
798.193	12693.56
798.525	12655.83
798.856	12623.74
799.188	12439.79
799.519	12451.54
799.85	12366.34
800.182	12410.41
800.513	12360.47
800.844	12231.2
801.175	12297.64
801.506	12283.63
801.837	12267.81
802.168	12273.01
802.499	12122.51
802.83	12078.89
803.161	12053.36
803.491	11964.32
803.822	12024.88
804.153	11932.45
804.483	11944.66
804.814	11799.58
805.145	11869.41
805.475	11748.05
805.805	11833.25
806.136	11674.61
806.466	11767.94
806.796	11713.93
807.126	11586.7
807.457	11586.93
807.787	11620.6
808.117	11515.97
808.447	11533.82
808.777	11533.14
809.107	11463.99
809.436	11424.9
809.766	11410.89
810.096	11379.93
810.426	11319.82
810.755	11320.72
811.085	11292.02
811.414	11270.33
811.744	11180.38
812.073	11163.21
812.403	11172.7
812.732	11112.36
813.061	11129.76
813.39	11079.37
813.719	10988.98
814.049	11049.99
814.378	10990.11
814.707	10994.17
815.036	10914.18
815.365	10938.13
815.693	10940.39
816.022	10809.32
816.351	10795.99
816.68	10786.5
817.008	10811.58
817.337	10626.95
817.665	10746.05
817.994	10712.6
818.322	10646.16
818.651	10569.33
818.979	10576.11
819.307	10675.31
819.636	10573.17
819.964	10548.54
820.292	10618.36
820.62	10511.02
820.948	10503.57
821.276	10500.63
821.604	10552.15
821.932	10550.8
822.259	10479.84
822.587	10553.73
822.915	10438.03
823.243	10471.93
823.57	10496.11
823.898	10472.61
824.225	10465.6
824.553	10406.39
824.88	10464.47
825.207	10483.68
825.535	10382.21
825.862	10506.28
826.189	10401.42
826.516	10493.85
826.843	10438.71
827.17	10472.38
827.497	10498.14
827.824	10477.58
828.151	10548.54
828.478	10461.76
828.805	10547.41
829.131	10447.3
829.458	10448.88
829.785	10404.81
830.111	10419.73
830.438	10409.78
830.764	10408.43
831.09	10458.6
831.417	10409.1
831.743	10445.04
832.069	10479.16
832.395	10349.9
832.722	10470.35
833.048	10358.26
833.374	10386.51
833.7	10326.4
834.026	10356
834.351	10399.61
834.677	10337.02
835.003	10421.31
835.329	10360.07
835.654	10267.41
835.98	10280.97
836.306	10194.87
836.631	10306.28
836.956	10357.35
837.282	10242.33
837.607	10222.67
837.932	10194.42
838.258	10198.04
838.583	10247.53
838.908	10163.24
839.233	10116.91
839.558	10027.65
839.883	10081.43
840.208	9980.87
840.533	10049.79
840.858	10041.88
841.182	10044.37
841.507	10100.86
841.832	9953.3
842.156	9980.87
842.481	9968.21
842.805	9878.05
843.13	9839.85
843.454	9908.55
843.778	9882.11
844.103	9818.84
844.427	9799.4
844.751	9790.36
845.075	9794.66
845.399	9702.68
845.723	9667.88
846.047	9702.68
846.371	9624.72
846.695	9632.85
847.019	9535
847.343	9531.84
847.666	9430.6
847.99	9422.24
848.313	9394.67
848.637	9367.32
848.96	9368.23
849.284	9326.87
849.607	9215.69
849.931	9191.28
850.254	9167.1
850.577	9086.65
850.9	9053.21
851.223	9015.47
851.546	9028.58
851.869	8970.05
852.192	9040.78
852.515	8933.44
852.838	8900.44
853.161	8885.76
853.483	8780
853.806	8854.12
854.129	8765.31
854.451	8692.31
854.774	8659.32
855.096	8680.56
855.419	8649.83
855.741	8604.41
856.063	8612.77
856.385	8603.5
856.708	8475.37
857.03	8518.31
857.352	8581.58
857.674	8467.69
857.996	8453.68
858.318	8460.46
858.64	8420.68
858.961	8406.9
859.283	8397.86
859.605	8335.71
859.926	8349.5
860.248	8355.37
860.57	8317.63
860.891	8328.48
861.212	8267.01
861.534	8267.24
861.855	8197.64
862.176	8192.89
862.498	8136.62
862.819	8135.94
863.14	8100.92
863.461	8162.16
863.782	8098.43
864.103	8189.05
864.424	8133.23
864.745	8116.74
865.065	8115.38
865.386	8058.88
865.707	8086
866.027	8040.58
866.348	8055.95
866.668	8047.13
866.989	7986.57
867.309	7907.93
867.63	7975.72
867.95	7992.22
868.27	7888.72
868.59	7899.11
868.91	7897.31
869.23	7861.83
869.55	7859.12
869.87	7881.04
870.19	7851.66
870.51	7829.06
870.83	7907.93
871.15	7766.46
871.469	7836.97
871.789	7813.24
872.109	7819.79
872.428	7735.5
872.748	7745.22
873.067	7677.65
873.386	7772.56
873.706	7747.03
874.025	7638.33
874.344	7644.66
874.663	7712.68
874.982	7669.97
875.301	7696.63
875.62	7586.35
875.939	7526.92
876.258	7601.72
876.577	7563.76
876.896	7568.95
877.214	7559.69
877.533	7538.9
877.852	7516.75
878.17	7600.37
878.489	7513.14
878.807	7500.48
879.125	7470.43
879.444	7515.85
879.762	7460.71
880.08	7475.62
880.398	7416.64
880.716	7409.86
881.034	7367.38
881.352	7439.24
881.67	7411.67
881.988	7425.23
882.306	7352.01
882.624	7340.94
882.941	7344.1
883.259	7359.24
883.577	7303.65
883.894	7297.32
884.212	7302.29
884.529	7230.43
884.846	7218
885.164	7162.18
885.481	7161.28
885.798	7239.02
886.115	7166.03
886.432	7182.52
886.75	7163.54
887.067	7136.65
887.383	7103.2
887.7	7100.49
888.017	7106.37
888.334	7014.39
888.651	7052.81
888.967	7021.17
889.284	7020.27
889.6	6956.77
889.917	6951.79
890.233	6937.56
890.55	6841.52
890.866	6926.94
891.182	6954.73
891.498	6877.9
891.815	6879.03
892.131	6816.88
892.447	6839.03
892.763	6834.28
893.079	6746.15
893.395	6715.19
893.71	6739.6
894.026	6750.44
894.342	6711.8
894.657	6632.71
894.973	6611.69
895.289	6628.64
895.604	6650.79
895.92	6593.84
896.235	6554.29
896.55	6545.93
896.865	6568.98
897.181	6540.28
897.496	6516.33
897.811	6417.8
898.126	6476.55
898.441	6431.13
898.756	6391.58
899.071	6358.14
899.386	6418.25
899.7	6326.05
900.015	6317.24
900.33	6337.35
900.644	6308.65
900.959	6276.56
901.273	6206.96
901.588	6197.92
901.902	6153.4
902.216	6161.53
902.531	6151.14
902.845	6098.48
903.159	6108.88
903.473	6081.99
903.787	6066.17
904.101	6000.63
904.415	6018.94
904.729	6017.58
905.042	5981.65
905.356	5929.9
905.67	5973.52
905.984	5920.64
906.297	5862.11
906.611	5901.2
906.924	5829.56
907.237	5823.91
907.551	5773.07
907.864	5791.83
908.177	5805.16
908.491	5779.17
908.804	5723.8
909.117	5744.59
909.43	5690.36
909.743	5595.9
910.056	5673.64
910.368	5644.48
910.681	5551.15
910.994	5566.52
911.307	5540.31
911.619	5519.06
911.932	5526.52
912.244	5530.59
912.557	5461.66
912.869	5463.7
913.181	5399.52
913.494	5401.33
913.806	5395.68
914.118	5380.31
914.43	5331.95
914.742	5323.81
915.054	5316.58
915.366	5280.43
915.678	5280.43
915.99	5257.15
916.302	5237.49
916.613	5176.25
916.925	5179.86
917.236	5145.29
917.548	5117.94
917.859	5122.92
918.171	5040.88
918.482	5089.92
918.794	5082.01
919.105	5039.98
919.416	5034.78
919.727	5019.87
920.038	5025.29
920.349	4987.1
920.66	4873.21
920.971	4936.93
921.282	4931.96
921.593	4838.63
921.903	4882.92
922.214	4808.8
922.525	4830.49
922.835	4767.45
923.146	4771.29
923.456	4751.17
923.767	4736.49
924.077	4719.76
924.387	4722.02
924.697	4709.82
925.008	4660.56
925.318	4630.73
925.628	4598.86
925.938	4588.24
926.248	4576.49
926.558	4508.92
926.867	4533.78
927.177	4541.46
927.487	4499.88
927.796	4442.48
928.106	4489.71
928.416	4431.18
928.725	4461.92
929.034	4413.56
929.344	4428.7
929.653	4374.24
929.962	4376.72
930.271	4381.92
930.581	4373.33
930.89	4308.02
931.199	4247.68
931.508	4298.08
931.817	4234.35
932.125	4265.54
932.434	4212.88
932.743	4150.74
933.051	4188.7
933.36	4158.42
933.669	4149.16
933.977	4151.42
934.286	4128.14
934.594	4057.18
934.902	4076.84
935.21	4037.75
935.519	4052.66
935.827	4097.63
936.135	4026.67
936.443	4008.37
936.751	3976.51
937.059	3950.74
937.367	3950.07
937.674	3923.85
937.982	3899.45
938.29	3935.83
938.597	3913.46
938.905	3853.57
939.213	3836.85
939.52	3839.79
939.827	3829.39
940.135	3808.37
940.442	3819.67
940.749	3754.59
941.056	3793.23
941.363	3749.62
941.67	3701.03
941.977	3724.99
942.284	3720.02
942.591	3683.41
942.898	3657.42
943.205	3659.45
943.511	3617.42
943.818	3631.88
944.125	3598.89
944.431	3622.16
944.738	3591.43
945.044	3577.87
945.35	3592.11
945.657	3559.34
945.963	3544.2
946.269	3554.14
946.575	3482.51
946.881	3477.31
947.187	3421.94
947.493	3474.82
947.799	3425.11
948.105	3447.48
948.41	3407.48
948.716	3423.07
949.022	3383.98
949.327	3345.79
949.633	3361.38
949.938	3333.13
950.244	3354.38
950.549	3318.44
950.854	3310.99
951.16	3283.19
951.465	3300.37
951.77	3279.12
952.075	3255.17
952.38	3252.23
952.685	3233.02
952.99	3209.75
953.294	3229.63
953.599	3181.72
953.904	3139.92
954.209	3152.35
954.513	3154.38
954.818	3145.34
955.122	3145.57
955.426	3092.46
955.731	3063.08
956.035	3080.26
956.339	3050.43
956.643	3059.92
956.948	3078.22
957.252	3042.07
957.556	3043.42
957.86	3015.17
958.163	3013.59
958.467	2962.75
958.771	2988.28
959.075	2997.55
959.378	2952.58
959.682	2960.49
959.985	2906.93
960.289	2911.67
960.592	2934.73
960.896	2872.58
961.199	2854.73
961.502	2858.12
961.805	2853.15
962.108	2836.87
962.411	2801.17
962.714	2815.41
963.017	2753.26
963.32	2793.49
963.623	2807.27
963.926	2785.12
964.228	2743.54
964.531	2720.04
964.833	2743.77
965.136	2708.29
965.438	2755.75
965.741	2676.65
966.043	2686.6
966.345	2740.83
966.648	2670.78
966.95	2653.15
967.252	2649.76
967.554	2613.6
967.856	2629.42
968.158	2609.76
968.46	2601.85
968.761	2608.86
969.063	2571.57
969.365	2552.81
969.666	2550.33
969.968	2554.85
970.269	2545.36
970.571	2526.15
970.872	2526.15
971.174	2489.77
971.475	2513.04
971.776	2490.22
972.077	2490.67
972.378	2483.21
972.679	2461.74
972.98	2445.92
973.281	2448.18
973.582	2431.91
973.883	2443.44
974.183	2397.34
974.484	2401.41
974.785	2409.54
975.085	2379.49
975.386	2359.82
975.686	2368.41
975.986	2310.11
976.287	2339.94
976.587	2314.4
976.887	2297.91
977.187	2335.42
977.487	2312.82
977.787	2293.61
978.087	2285.02
978.387	2264.46
978.687	2251.13
978.987	2287.28
979.286	2263.33
979.586	2260.62
979.885	2230.11
980.185	2205.48
980.484	2144.69
980.784	2162.32
981.083	2182.2
981.382	2163.45
981.682	2165.48
981.981	2173.39
982.28	2138.14
982.579	2145.59
982.878	2153.5
983.177	2113.05
983.475	2126.38
983.774	2101.98
984.073	2096.78
984.372	2079.15
984.67	2098.14
984.969	2102.88
985.267	2092.94
985.566	2067.18
985.864	2077.8
986.162	2031.92
986.461	2015.88
986.759	2026.95
987.057	2014.98
987.355	1988.99
987.653	2032.6
987.951	1982.43
988.249	1974.07
988.547	1980.63
988.844	1972.26
989.142	1989.44
989.44	1911.7
989.737	1907.86
990.035	1918.71
990.332	1950.57
990.63	1921.64
990.927	1908.31
991.224	1911.02
991.521	1895.66
991.819	1910.57
992.116	1872.15
992.413	1870.35
992.71	1871.02
993.006	1882.1
993.303	1850.46
993.6	1850.91
993.897	1824.7
994.193	1798.94
994.49	1796
994.787	1829.9
995.083	1810.91
995.379	1789.44
995.676	1781.99
995.972	1777.69
996.268	1758.26
996.565	1730.24
996.861	1722.78
997.157	1722.55
997.453	1724.14
997.749	1718.49
998.044	1719.39
998.34	1697.92
998.636	1695.21
998.932	1702.89
999.227	1698.6
999.523	1656.34
999.818	1653.18
1000.114	1662.44
1000.409	1626.51
1000.704	1644.14
1001	1633.97
1001.295	1617.25
1001.59	1619.05
1001.885	1628.09
1002.18	1605.27
1002.475	1595.1
1002.77	1573.63
1003.065	1572.5
1003.359	1586.06
1003.654	1575.89
1003.949	1551.26
1004.243	1548.55
1004.538	1549.68
1004.832	1511.71
1005.127	1516.46
1005.421	1508.77
1005.715	1499.73
1006.009	1518.94
1006.304	1494.54
1006.598	1447.08
1006.892	1462.9
1007.186	1477.81
1007.48	1424.03
1007.773	1456.8
1008.067	1430.58
1008.361	1436.69
1008.655	1440.53
1008.948	1424.03
1009.242	1412.51
1009.535	1420.19
1009.829	1430.36
1010.122	1411.38
1010.415	1360.3
1010.708	1368.44
1011.001	1353.52
1011.295	1361.89
1011.588	1366.18
1011.881	1351.49
1012.173	1351.04
1012.466	1357.37
1012.759	1339.74
1013.052	1307.65
1013.344	1320.08
1013.637	1327.76
1013.93	1318.72
1014.222	1284.15
1014.514	1276.46
1014.807	1273.07
1015.099	1277.59
1015.391	1257.93
1015.683	1261.55
1015.976	1283.92
1016.268	1253.19
1016.56	1255.67
1016.851	1248.89
1017.143	1215.67
1017.435	1214.77
1017.727	1196.47
1018.018	1206.18
1018.31	1178.84
1018.602	1184.04
1018.893	1204.15
1019.185	1195.79
1019.476	1164.6
1019.767	1172.06
1020.058	1149.01
1020.35	1184.71
1020.641	1163.92
1020.932	1134.09
1021.223	1115.34
1021.514	1117.82
1021.804	1137.94
1022.095	1128.67
1022.386	1117.6
1022.677	1097.94
1022.967	1104.04
1023.258	1080.76
1023.548	1081.44
1023.839	1078.95
1024.129	1091.84
1024.419	1077.82
1024.709	1059.07
1025	1080.76
1025.29	1037.37
1025.58	1047.77
1025.87	1011.39
1026.16	1022.68
1026.449	1027.43
1026.739	1014.78
1027.029	1018.62
1027.319	1015.45
1027.608	979.97
1027.898	995.12
1028.187	994.89
1028.477	984.04
1028.766	978.62
1029.055	966.42
1029.344	959.64
1029.634	963.7
1029.923	942.46
1030.212	951.05
1030.501	943.82
1030.79	919.64
1031.078	921.9
1031.367	918.51
1031.656	934.78
1031.945	920.99
1032.233	913.54
1032.522	929.35
1032.81	894.78
1033.099	884.16
1033.387	889.81
1033.675	868.79
1033.963	879.86
1034.251	888.9
1034.54	856.59
1034.828	864.05
1035.116	855.23
1035.403	838.74
1035.691	853.65
1035.979	843.71
1036.267	828.34
1036.554	852.75
1036.842	836.93
1037.129	841.67
1037.417	818.62
1037.704	835.57
1037.992	817.72
1038.279	824.27
1038.566	789.02
1038.853	789.02
1039.14	789.02
