Data from breadboard_black_back_FLMS001491_00057.txt Node
Date: Wed Feb 08 10:50:35 GMT 2017
User: dcchb
Spectrometer: FLMS00149
Trigger mode: 0
Integration Time (sec): 2.000000E-2
Scans to average: 10
Electric dark correction enabled: true
Nonlinearity correction enabled: false
Boxcar width: 0
XAxis mode: Wavelengths
Number of Pixels in Spectrum: 2048
>>>>>Begin Spectral Data<<<<<
341.393	-24.8
341.776	-24.8
342.16	-24.8
342.543	-72.71
342.927	-46.72
343.31	-74.97
343.693	-91.69
344.077	-43.33
344.46	-51.47
344.843	-41.07
345.226	-43.11
345.61	-16.89
345.993	-15.31
346.376	0.96
346.759	-2.66
347.142	25.37
347.525	29.89
347.908	59.04
348.291	69.89
348.674	79.15
349.057	116.21
349.44	129.09
349.823	160.73
350.206	164.57
350.588	216.77
350.971	215.19
351.354	230.78
351.737	247.51
352.119	255.42
352.502	276.89
352.884	281.63
353.267	271.24
353.65	285.47
354.032	295.42
354.414	304.23
354.797	307.62
355.179	325.7
355.562	313.27
355.944	327.28
356.326	344.68
356.709	334.28
357.091	344
357.473	341.52
357.855	367.96
358.238	341.52
358.62	360.72
359.002	360.72
359.384	340.16
359.766	347.39
360.148	337.22
360.53	345.81
360.912	353.49
361.294	357.34
361.676	325.92
362.057	343.1
362.439	337.9
362.821	331.8
363.203	343.55
363.584	340.39
363.966	326.38
364.348	343.78
364.729	321.4
365.111	344.23
365.493	365.24
365.874	338.13
366.256	349.2
366.637	319.82
367.019	321.63
367.4	327.73
367.781	311.46
368.163	339.26
368.544	344.45
368.925	348.75
369.306	327.05
369.688	343.78
370.069	327.28
370.45	347.17
370.831	327.73
371.212	344
371.593	334.51
371.974	337
372.355	345.81
372.736	350.1
373.117	351.23
373.498	369.09
373.879	355.98
374.26	332.7
374.641	336.77
375.021	366.37
375.402	355.08
375.783	360.5
376.163	368.63
376.544	377.9
376.925	387.84
377.305	375.41
377.686	382.87
378.066	381.29
378.447	378.58
378.827	385.36
379.208	391.23
379.588	391.01
379.968	378.8
380.349	406.15
380.729	380.61
381.109	388.07
381.489	384.45
381.87	389.88
382.25	389.65
382.63	411.35
383.01	404.34
383.39	408.18
383.77	397.11
384.15	422.87
384.53	433.94
384.91	413.83
385.29	421.51
385.67	410.89
386.049	422.19
386.429	441.4
386.809	411.35
387.189	433.27
387.568	434.4
387.948	435.98
388.328	450.89
388.707	428.52
389.087	442.53
389.466	435.98
389.846	447.5
390.225	467.61
390.605	468.97
390.984	449.08
391.363	469.2
391.743	489.99
392.122	479.37
392.501	477.33
392.881	478.24
393.26	489.54
393.639	504.9
394.018	508.52
394.397	506.94
394.776	498.12
395.155	494.51
395.534	503.77
395.913	506.48
396.292	535.86
396.671	516.2
397.05	530.21
397.429	517.33
397.808	526.6
398.186	521.62
398.565	535.86
398.944	521.62
399.323	543.09
399.701	531.79
400.08	540.83
400.458	541.51
400.837	541.96
401.215	557.33
401.594	575.63
401.972	575.86
402.351	564.11
402.729	582.41
403.107	593.94
403.486	577.22
403.864	582.19
404.242	588.74
404.62	605.92
404.999	603.66
405.377	614.5
405.755	614.28
406.133	628.29
406.511	630.1
406.889	664.45
407.267	663.54
407.645	657.44
408.023	660.38
408.401	681.39
408.779	666.48
409.156	692.24
409.534	691.34
409.912	693.15
410.29	717.33
410.667	714.16
411.045	703.31
411.422	738.57
411.8	731.79
412.178	746.93
412.555	761.84
412.933	782.63
413.31	777.66
413.687	789.64
414.065	789.87
414.442	775.4
414.819	785.8
415.197	798.23
415.574	809.07
415.951	845.01
416.328	817.21
416.705	831
417.082	850.66
417.46	854.5
417.837	856.53
418.214	863.76
418.591	872.58
418.967	900.15
419.344	908.28
419.721	881.84
420.098	891.33
420.475	890.65
420.852	910.54
421.228	923.65
421.605	923.87
421.982	972.01
422.358	945.57
422.735	973.14
423.111	978.34
423.488	991.44
423.864	983.31
424.241	1013.82
424.617	1014.72
424.994	998.67
425.37	1031.22
425.746	1066.47
426.123	1012.23
426.499	1071.21
426.875	1082.51
427.251	1095.85
427.627	1094.49
428.003	1114.38
428.379	1105.79
428.756	1111.44
429.132	1152.34
429.507	1156.41
429.883	1205.22
430.259	1177.43
430.635	1186.24
431.011	1209.06
431.387	1228.95
431.763	1268.95
432.138	1276.18
432.514	1245
432.89	1274.83
433.265	1296.75
433.641	1322.73
434.016	1327.25
434.392	1348.27
434.767	1378.33
435.143	1382.39
435.518	1383.52
435.894	1397.31
436.269	1451.09
436.644	1441.37
437.02	1468.72
437.395	1469.85
437.77	1498.77
438.145	1504.88
438.52	1519.79
438.895	1506.91
439.271	1527.02
439.646	1574.7
440.021	1552.56
440.395	1566.34
440.77	1552.33
441.145	1619
441.52	1633.69
441.895	1624.42
442.27	1644.31
442.645	1640.69
443.019	1659.22
443.394	1668.71
443.769	1686.34
444.143	1677.75
444.518	1722.95
444.892	1719.79
445.267	1720.69
445.641	1727.24
446.016	1764.98
446.39	1804.75
446.764	1781.93
447.139	1801.14
447.513	1787.13
447.887	1804.98
448.262	1836.84
448.636	1821.48
449.01	1848.82
449.384	1895.6
449.758	1884.75
450.132	1916.16
450.506	1929.05
450.88	1913
451.254	1908.71
451.628	1954.81
452.002	1981.93
452.376	1985.54
452.75	2017.63
453.123	2053.79
453.497	2092.66
453.871	2073.9
454.244	2140.57
454.618	2145.08
454.992	2141.02
455.365	2186.67
455.739	2217.4
456.112	2254.46
456.486	2327.68
456.859	2269.83
457.232	2320
457.606	2328.58
457.979	2341.24
458.352	2400.45
458.725	2431.63
459.099	2441.35
459.472	2495.13
459.845	2526.09
460.218	2527.67
460.591	2564.96
460.964	2602.47
461.337	2655.81
461.71	2671.62
462.083	2714.79
462.456	2715.47
462.829	2760.21
463.201	2759.53
463.574	2765.18
463.947	2835.69
464.32	2875.01
464.692	2899.42
465.065	2907.1
465.438	2954.1
465.81	3000.66
466.183	3108.22
466.555	3138.05
466.928	3160.65
467.3	3142.35
467.672	3212.4
468.045	3299.86
468.417	3279.52
468.789	3319.97
469.161	3339.18
469.534	3433.86
469.906	3491.49
470.278	3500.3
470.65	3568.32
471.022	3614.42
471.394	3665.95
471.766	3689
472.138	3758.15
472.51	3843.8
472.882	3897.36
473.253	3958.37
473.625	3998.14
473.997	4093.51
474.369	4108.42
474.74	4180.74
475.112	4236.33
475.484	4293.5
475.855	4330.11
476.227	4397.68
476.598	4482.88
476.97	4540.95
477.341	4649.88
477.713	4718.35
478.084	4739.14
478.455	4899.59
478.827	4912.7
479.198	5074.27
479.569	5093.93
479.94	5241.5
480.311	5291.22
480.682	5410.76
481.053	5486.01
481.424	5615.73
481.795	5633.58
482.166	5690.3
482.537	5802.84
482.908	5922.61
483.279	5973.23
483.65	6107.24
484.021	6162.38
484.391	6268.82
484.762	6361.92
485.133	6430.85
485.503	6447.8
485.874	6622.26
486.244	6695.25
486.615	6844.85
486.985	6847.79
487.356	7017.95
487.726	7037.61
488.097	7213.65
488.467	7231.5
488.837	7433.99
489.207	7472.4
489.578	7524.38
489.948	7642.34
490.318	7790.13
490.688	7796.91
491.058	7974.31
491.428	8060.41
491.798	8123.01
492.168	8317.8
492.538	8345.6
492.908	8435.31
493.278	8519.61
493.648	8523.22
494.017	8620.39
494.387	8756.89
494.757	8801.41
495.126	8908.75
495.496	8990.1
495.866	9024.68
496.235	9147.16
496.605	9265.58
496.974	9254.95
497.344	9381.73
497.713	9404.55
498.082	9502.63
498.452	9595.74
498.821	9646.81
499.19	9704.43
499.559	9773.36
499.928	9919.12
500.298	9929.74
500.667	10115.95
501.036	9983.07
501.405	10125.21
501.774	10198.21
502.143	10318.66
502.512	10337.41
502.88	10423.51
503.249	10458.09
503.618	10528.59
503.987	10566.11
504.356	10685.2
504.724	10712.32
505.093	10828.92
505.462	10888.36
505.83	10962.25
506.199	11035.7
506.567	11117.28
506.936	11163.6
507.304	11343.71
507.672	11411.28
508.041	11425.07
508.409	11583.25
508.777	11625.06
509.145	11740.54
509.514	11678.17
509.882	11816.69
510.25	11802.46
510.618	11989.12
510.986	12081.32
511.354	12142.34
511.722	12281.32
512.09	12365.16
512.458	12382.78
512.826	12455.1
513.193	12572.61
513.561	12611.93
513.929	12795.65
514.297	12964.46
514.664	12988.87
515.032	13096.89
515.4	13155.19
515.767	13235.19
516.135	13273.15
516.502	13271.12
516.869	13549.53
517.237	13575.29
517.604	13554.05
517.972	13733.93
518.339	13820.26
518.706	13895.74
519.073	14011.67
519.44	14095.05
519.808	14207.37
520.175	14206.69
520.542	14458.43
520.909	14600.58
521.276	14649.61
521.643	14684.87
522.009	14964.41
522.376	14948.36
522.743	15010.74
523.11	15171.41
523.477	15291.86
523.843	15435.13
524.21	15647.1
524.577	15718.74
524.943	15792.41
525.31	15858.85
525.676	16112.63
526.043	16176.81
526.409	16240.99
526.776	16507.19
527.142	16502.45
527.508	16617.47
527.874	16740.63
528.241	16826.96
528.607	16954.64
528.973	17140.4
529.339	17111.02
529.705	17298.13
530.071	17407.96
530.437	17557.11
530.803	17627.16
531.169	17691.79
531.535	17779.48
531.901	17935.4
532.267	17970.88
532.632	17987.15
532.998	18038.68
533.364	18218.56
533.73	18259.24
534.095	18502.85
534.461	18508.27
534.826	18569.51
535.192	18628.95
535.557	18755.27
535.923	18843.18
536.288	18909.84
536.653	19060.8
537.019	19029.39
537.384	19132.43
537.749	19275.48
538.114	19378.98
538.479	19324.75
538.845	19407.91
539.21	19549.82
539.575	19586.43
539.94	19708.46
540.305	19756.15
540.67	19721.8
541.034	19817.16
541.399	19902.81
541.764	19926.31
542.129	20104.84
542.494	20120.21
542.858	20160.66
543.223	20219.64
543.587	20397.49
543.952	20418.28
544.316	20564.71
544.681	20437.49
545.045	20621.44
545.41	20695.33
545.774	20844.71
546.138	20761.32
546.503	20970.58
546.867	20810.81
547.231	21271.81
547.595	21146.17
547.959	21175.09
548.324	21256.67
548.688	21281.98
549.052	21426.61
549.416	21551.81
549.779	21555.87
550.143	21579.38
550.507	21761.74
550.871	21774.63
551.235	21842.65
551.599	22029.08
551.962	21987.27
552.326	22149.76
552.689	22307.04
553.053	22198.12
553.417	22317.66
553.78	22517.43
554.143	22493.7
554.507	22577.09
554.87	22779.12
555.234	22948.83
555.597	22822.28
555.96	22952.22
556.323	22985.44
556.686	23135.95
557.05	23357.86
557.413	23324.64
557.776	23419.55
558.139	23538.87
558.502	23549.49
558.865	23630.62
559.228	23857.28
559.59	23958.97
559.953	23993.32
560.316	24238.74
560.679	24248.01
561.041	24359.42
561.404	24498.17
561.767	24637.37
562.129	24563.48
562.492	24858.61
562.854	24780.87
563.217	24821.1
563.579	25022
563.941	25202.56
564.304	25238.26
564.666	25424.47
565.028	25381.31
565.39	25431.93
565.753	25702.66
566.115	25798.47
566.477	25894.29
566.839	26023.33
567.201	26277.11
567.563	26275.98
567.925	26403.2
568.287	26373.15
568.648	26531.56
569.01	26588.28
569.372	26858.11
569.734	26719.58
570.095	26943.75
570.457	27038.67
570.819	27190.08
571.18	27055.16
571.542	27221.71
571.903	27262.62
572.265	27477.75
572.626	27434.59
572.987	27533.12
573.349	27616.28
573.71	27720.68
574.071	27791.87
574.432	27884.97
574.794	28112.99
575.155	28076.61
575.516	28010.39
575.877	28169.94
576.238	28209.71
576.599	28336.26
576.96	28275.7
577.32	28400.67
577.681	28394.79
578.042	28692.86
578.403	28614.22
578.763	28579.19
579.124	28643.6
579.485	28682.24
579.845	28823.03
580.206	28844.04
580.566	28813.76
580.927	28842.46
581.287	29057.15
581.648	28768.57
582.008	29030.93
582.368	28964.49
582.728	29059.63
583.089	29021.67
583.449	28986.19
583.809	29073.19
584.169	29168.78
584.529	29181.66
584.889	29343.01
585.249	29014.21
585.609	29082
585.969	29254.88
586.329	29070.25
586.688	29194.32
587.048	29152.74
587.408	29196.35
587.768	29186.41
588.127	29129.46
588.487	29106.18
588.846	29225.5
589.206	29048.11
589.565	29238.16
589.925	29363.35
590.284	29329.91
590.643	29291.04
591.003	29277.25
591.362	29347.53
591.721	29362
592.08	29362.67
592.44	29534.87
592.799	29385.95
593.158	29293.3
593.517	29431.37
593.876	29442.45
594.235	29302.79
594.593	29439.96
594.952	29426.63
595.311	29454.65
595.67	29432.28
596.029	29610.35
596.387	29588.66
596.746	29789.33
597.104	29641.76
597.463	29578.49
597.822	29828.42
598.18	29557.47
598.538	29607.41
598.897	29868.88
599.255	29474.54
599.613	29874.07
599.972	29789.1
600.33	29925.82
600.688	29781.42
601.046	29716.56
601.404	29842.44
601.762	29854.64
602.12	30015.09
602.478	30166.95
602.836	30074.29
603.194	29890.34
603.552	30056.22
603.91	30011.7
604.268	30020.74
604.625	30113.16
604.983	30107.51
605.341	29959.72
605.698	30236.78
606.056	30268.87
606.413	30229.32
606.771	30306.38
607.128	30275.19
607.485	30264.12
607.843	30306.83
608.2	30492.59
608.557	30526.71
608.914	30460.05
609.272	30568.52
609.629	30587.27
609.986	30866.82
610.343	30505.92
610.7	30940.26
611.057	30624.34
611.414	30739.14
611.771	30801.28
612.127	30915.63
612.484	30834.95
612.841	30927.6
613.198	30811
613.554	30885.8
613.911	31098.45
614.267	31034.04
614.624	31121.05
614.98	31186.13
615.337	31138.22
615.693	31115.17
616.05	31120.14
616.406	31394.03
616.762	31243.08
617.118	31217.31
617.475	31252.57
617.831	31452.34
618.187	31430.42
618.543	31419.34
618.899	31642.84
619.255	31550.41
619.611	31536.63
619.967	31484.2
620.323	31663.86
620.678	31564.2
621.034	31418.67
621.39	31475.16
621.746	31427.48
622.101	31777.53
622.457	31550.19
622.812	31730.75
623.168	31749.5
623.523	31594.25
623.879	31815.27
624.234	31521.49
624.589	31665.21
624.945	31751.99
625.3	31714.48
625.655	31712.67
626.01	31676.29
626.365	31697.3
626.72	31636.06
627.075	31697.08
627.43	31769.84
627.785	31618.21
628.14	31725.78
628.495	31631.77
628.85	31665.66
629.205	31493.24
629.559	31650.98
629.914	31530.98
630.269	31466.35
630.623	31478.55
630.978	31337.99
631.332	31568.27
631.687	31662.95
632.041	31430.42
632.396	31439.68
632.75	31326.69
633.104	31413.92
633.459	31405.33
633.813	31236.98
634.167	31182.06
634.521	31276.75
634.875	31234.04
635.229	31099.58
635.583	31025.46
635.937	31133.48
636.291	31077.43
636.645	31079.01
636.999	30945.46
637.352	31013.25
637.706	30907.72
638.06	30992.46
638.413	30892.58
638.767	30892.8
639.121	30863.65
639.474	30735.52
639.828	30762.41
640.181	30743.88
640.534	30770.77
640.888	30529.65
641.241	30447.62
641.594	30502.08
641.947	30665.46
642.301	30621.85
642.654	30539.14
643.007	30594.73
643.36	30407.84
643.713	30423.89
644.066	30464.79
644.419	30331.24
644.771	30241.52
645.124	29918.82
645.477	29817.13
645.83	29614.65
646.182	29380.98
646.535	29396.8
646.888	29454.65
647.24	29195.9
647.593	29382.56
647.945	29315.44
648.298	29206.97
648.65	29082.23
649.002	29074.77
649.355	29160.65
649.707	29164.71
650.059	29252.85
650.411	29772.83
650.763	29613.06
651.115	29995.43
651.467	29761.08
651.819	29777.58
652.171	29689.45
652.523	29555.66
652.875	29602.44
653.227	29430.02
653.578	29766.96
653.93	29536.46
654.282	29567.64
654.633	29423.46
654.985	29503.69
655.337	29625.72
655.688	29423.92
656.039	29623.91
656.391	29269.57
656.742	29378.04
657.094	29416.91
657.445	29577.36
657.796	29465.95
658.147	29291.26
658.498	29303.24
658.849	29361.09
659.2	29295.11
659.551	29200.64
659.902	29295.56
660.253	29212.62
660.604	29293.07
660.955	29062.34
661.306	29253.75
661.656	29172.62
662.007	29124.49
662.358	29205.16
662.708	28997.49
663.059	29173.3
663.409	28984.61
663.76	29216.92
664.11	29101.21
664.461	29078.84
664.811	29017.6
665.161	29037.94
665.511	28934.66
665.862	29107.99
666.212	29125.39
666.562	29075.9
666.912	29027.77
667.262	28981.44
667.612	28840.88
667.962	28933.76
668.312	28887.66
668.662	28990.48
669.011	28920.43
669.361	28874.55
669.711	28843.82
670.06	28888.56
670.41	28765.63
670.76	28792.07
671.109	28831.39
671.459	28801.33
671.808	28769.24
672.157	28693.77
672.507	28524.96
672.856	28650.15
673.205	28655.12
673.554	28693.09
673.904	28544.16
674.253	28715.01
674.602	28604.28
674.951	28203.83
675.3	28209.03
675.649	28478.4
675.998	28548.23
676.346	28460.78
676.695	28694.67
677.044	28294.91
677.393	28284.74
677.741	28353.89
678.09	28376.26
678.438	28272.08
678.787	28332.64
679.135	28388.91
679.484	28118.41
679.832	28380.1
680.181	28041.58
680.529	28258.07
680.877	28127
681.225	28011.07
681.573	28332.19
681.922	27970.62
682.27	27991.86
682.618	28008.36
682.966	27873.45
683.314	27990.96
683.661	27767.01
684.009	27668.03
684.357	27783.51
684.705	27728.37
685.053	27627.58
685.4	27542.38
685.748	27530.63
686.095	27500.35
686.443	27337.19
686.79	27271.66
687.138	27233.69
687.485	27418.09
687.832	27151.21
688.18	27167.7
688.527	27084.99
688.874	27110.08
689.221	27016.3
689.568	26958.44
689.915	26955.96
690.262	26870.54
690.609	26953.92
690.956	26748.73
691.303	26711.67
691.65	26525.69
691.997	26562.52
692.344	26419.02
692.69	26383.77
693.037	26371.11
693.383	26180.84
693.73	26220.16
694.077	26094.29
694.423	26056.77
694.769	26094.29
695.116	25970.45
695.462	25970.22
695.808	25683
696.155	25782.43
696.501	25731.81
696.847	25648.65
697.193	25450.69
697.539	25555.99
697.885	25394.42
698.231	25327.3
698.577	25241.2
698.923	25294.53
699.269	25104.26
699.614	24902.9
699.96	24919.85
700.306	24988.78
700.651	24803.25
700.997	24807.09
701.342	24718.95
701.688	24819.52
702.033	24496.36
702.379	24565.96
702.724	24505.63
703.069	24653.65
703.415	24255.69
703.76	24289.14
704.105	24305.63
704.45	24252.07
704.795	24135.92
705.14	24055.47
705.485	24062.93
705.83	23906.77
706.175	23976.15
706.52	23862.48
706.865	23782.71
707.209	23724.86
707.554	23727.34
707.899	23676.95
708.243	23597.85
708.588	23559.44
708.932	23404.64
709.277	23447.58
709.621	23427.01
709.966	23206
710.31	23306.34
710.654	23146.11
710.998	23094.82
711.342	23144.76
711.687	23090.97
712.031	23093.69
712.375	22872.22
712.719	22991.77
713.063	22824.54
713.407	23024.08
713.75	22867.93
714.094	22709.29
714.438	22732.34
714.782	22628.61
715.125	22600.59
715.469	22593.36
715.812	22491.22
716.156	22385.23
716.499	22486.92
716.843	22480.6
717.186	22256.19
717.53	22360.82
717.873	22431.33
718.216	22309.75
718.559	22263.43
718.902	22075.63
719.246	22099.81
719.589	22043.54
719.932	21999.48
720.275	21989.31
720.617	22024.11
720.96	21887.84
721.303	21978.69
721.646	21894.62
721.989	21638.13
722.331	21872.25
722.674	21734.4
723.016	21689.2
723.359	21655.08
723.701	21705.47
724.044	21542.31
724.386	21475.42
724.729	21542.31
725.071	21477.46
725.413	21397.91
725.755	21453.28
726.097	21371.92
726.439	21303
726.782	21257.58
727.124	21399.04
727.465	21103.91
727.807	21178.48
728.149	21142.55
728.491	21155.66
728.833	21130.57
729.175	21011.26
729.516	20998.15
729.858	20831.83
730.199	20988.66
730.541	20908.43
730.882	20889.68
731.224	20946.4
731.565	20784.14
731.906	20843.12
732.248	20893.52
732.589	20696.24
732.93	20605.84
733.271	20606.52
733.612	20654.2
733.953	20593.87
734.294	20565.84
734.635	20555.45
734.976	20525.39
735.317	20440.65
735.658	20502.34
735.999	20548.44
736.339	20289.24
736.68	20430.03
737.021	20229.81
737.361	20298.28
737.702	20236.36
738.042	20310.26
738.383	20241.33
738.723	20248.34
739.063	20120.21
739.404	20251.28
739.744	20090.83
740.084	20154.78
740.424	19974.22
740.764	20003.15
741.104	20030.72
741.444	19953.66
741.784	19821
742.124	19942.81
742.464	19813.55
742.804	19887.9
743.143	19873.66
743.483	19806.99
743.823	19729.71
744.162	19675.47
744.502	19820.55
744.841	19653.78
745.181	19656.71
745.52	19705.3
745.86	19515.02
746.199	19518.87
746.538	19533.33
746.877	19498.75
747.216	19557.28
747.556	19499.43
747.895	19388.02
748.234	19296.27
748.573	19307.35
748.911	19232.32
749.25	19260.57
749.589	19141.47
749.928	19152.55
750.267	19121.81
750.605	19075.71
750.944	19032.1
751.283	19040.46
751.621	19059.67
751.96	18903.97
752.298	18865.55
752.636	18880.69
752.975	18806.79
753.313	18632.33
753.651	18786.46
753.989	18689.06
754.327	18582.17
754.666	18478.21
755.004	18685.67
755.342	18645.89
755.679	18492.9
756.017	18495.84
756.355	18471.66
756.693	18311.44
757.031	18399.12
757.368	18229.41
757.706	18246.36
758.044	18172.91
758.381	18108.73
758.719	18131.11
759.056	18134.49
759.394	18044.55
759.731	17951.22
760.068	17928.17
760.405	17844.11
760.743	17798.91
761.08	17744.45
761.417	17814.5
761.754	17718.91
762.091	17699.93
762.428	17524.34
762.765	17575.64
763.102	17562.76
763.438	17518.24
763.775	17368.41
764.112	17339.49
764.449	17389.43
764.785	17300.39
765.122	17150.79
765.458	17049.78
765.795	17016.56
766.131	17033.73
766.467	16974.98
766.804	16932.04
767.14	16790.12
767.476	16735.21
767.812	16679.17
768.148	16689.34
768.485	16611.37
768.821	16549
769.157	16606.63
769.492	16438.72
769.828	16424.94
770.164	16213.42
770.5	16293.64
770.836	16279.63
771.171	16090.25
771.507	16105.85
771.842	15953.54
772.178	15988.56
772.513	15933.87
772.849	15867.89
773.184	15815.69
773.519	15906.53
773.855	15652.3
774.19	15690.49
774.525	15716.71
774.86	15540.66
775.195	15570.49
775.53	15537.73
775.865	15400.78
776.2	15357.39
776.535	15252.99
776.87	15291.41
777.205	15152.43
777.539	15102.48
777.874	15179.32
778.209	14991.07
778.543	14966.22
778.878	14846.45
779.212	14858.65
779.547	14810.06
779.881	14807.58
780.215	14719.44
780.55	14642.16
780.884	14577.53
781.218	14519.45
781.552	14501.37
781.886	14498.21
782.22	14474.7
782.554	14438.77
782.888	14265.9
783.222	14148.61
783.556	14254.37
783.889	14100.93
784.223	14024.09
784.557	13998.56
784.89	13972.57
785.224	13895.28
785.557	13885.79
785.891	13811.9
786.224	13763.54
786.558	13747.04
786.891	13674.5
787.224	13696.87
787.557	13527.38
787.891	13589.98
788.224	13508.85
788.557	13408.29
788.89	13351.8
789.223	13415.07
789.556	13294.62
789.888	13217.11
790.221	13209.2
790.554	13182.76
790.887	13206.49
791.219	13156.77
791.552	13169.65
791.884	12993.61
792.217	13013.05
792.549	12968.76
792.882	12847.85
793.214	12814.86
793.546	12910.68
793.879	12775.31
794.211	12676.79
794.543	12687.41
794.875	12728.76
795.207	12636.11
795.539	12520.41
795.871	12547.75
796.203	12422.33
796.535	12326.29
796.867	12365.61
797.198	12341.43
797.53	12324.48
797.862	12258.04
798.193	12303.69
798.525	12170.58
798.856	12188.66
799.188	12118.16
799.519	12064.37
799.85	12051.04
800.182	12066.41
800.513	11986.86
800.844	11902.79
801.175	11927.2
801.506	11943.02
801.837	11897.6
802.168	11769.69
802.499	11735.34
802.83	11665.96
803.161	11701.67
803.491	11613.76
803.822	11626.19
804.153	11539.64
804.483	11454.67
804.814	11466.87
805.145	11445.63
805.475	11441.34
805.805	11466.2
806.136	11435.01
806.466	11379.87
806.796	11401.34
807.126	11273.66
807.457	11246.99
807.787	11242.92
808.117	11194.34
808.447	11160.44
808.777	11113.44
809.107	11108.69
809.436	11101.01
809.766	11149.37
810.096	11019.65
810.426	10998.86
810.755	11033.89
811.085	10922.26
811.414	10941.01
811.744	10875.25
812.073	10862.82
812.403	10891.97
812.732	10766.1
813.061	10764.75
813.39	10706.89
813.719	10686.78
814.049	10740.79
814.378	10733.79
814.707	10620.79
815.036	10629.61
815.365	10536.5
815.693	10499.89
816.022	10490.85
816.351	10534.24
816.68	10403.62
817.008	10476.84
817.337	10373.12
817.665	10317.07
817.994	10348.03
818.322	10329.5
818.651	10271.42
818.979	10251.09
819.307	10356.62
819.636	10283.4
819.964	10240.47
820.292	10182.39
820.62	10217.87
820.948	10206.12
821.276	10216.29
821.604	10175.38
821.932	10190.97
822.259	10256.51
822.587	10146.46
822.915	10167.25
823.243	10171.54
823.57	10145.78
823.898	10227.13
824.225	10150.75
824.553	10161.37
824.88	10146.91
825.207	10197.3
825.535	10169.96
825.862	10196.4
826.189	10114.37
826.516	10147.59
826.843	10226.91
827.17	10222.39
827.497	10156.4
827.824	10228.04
828.151	10198.21
828.478	10147.13
828.805	10277.75
829.131	10150.07
829.458	10173.35
829.785	10088.38
830.111	10136.06
830.438	10162.95
830.764	10155.5
831.09	10068.72
831.417	10064.88
831.743	10092.67
832.069	10038.89
832.395	10053.13
832.722	10136.74
833.048	10090.41
833.374	10018.1
833.7	10089.96
834.026	10014.48
834.351	10054.93
834.677	10016.29
835.003	10071.88
835.329	10011.32
835.654	10039.79
835.98	9946.91
836.306	9968.83
836.631	10027.36
836.956	9953.24
837.282	10050.87
837.607	9902.62
837.932	9866.69
838.258	9855.62
838.583	9880.47
838.908	9857.42
839.233	9841.15
839.558	9831.21
839.883	9808.39
840.208	9751.66
840.533	9758.67
840.858	9705.79
841.182	9744.89
841.507	9700.82
841.832	9681.61
842.156	9670.31
842.481	9676.86
842.805	9636.41
843.13	9675.51
843.454	9532.01
843.778	9566.13
844.103	9399.58
844.427	9512.8
844.751	9456.08
845.075	9508.73
845.399	9363.43
845.723	9446.59
846.047	9387.15
846.371	9370.66
846.695	9368.4
847.019	9261.51
847.343	9168.18
847.666	9233.49
847.99	9155.52
848.313	9123.43
848.637	9042.08
848.96	9013.38
849.284	9059.25
849.607	8967.96
849.931	9003.66
850.254	8894.51
850.577	8896.32
850.9	8891.8
851.223	8819.94
851.546	8795.53
851.869	8716.44
852.192	8787.4
852.515	8726.83
852.838	8648.87
853.161	8647.96
853.483	8587.4
853.806	8517.35
854.129	8501.98
854.451	8462.21
854.774	8480.51
855.096	8421.3
855.419	8448.65
855.741	8358.93
856.063	8412.72
856.385	8342.89
856.708	8271.48
857.03	8231.48
857.352	8286.62
857.674	8202.1
857.996	8177.24
858.318	8162.1
858.64	8127.75
858.961	8223.57
859.283	8117.36
859.605	8092.5
859.926	8153.74
860.248	8103.57
860.57	8089.11
860.891	8020.64
861.212	8030.58
861.534	7936.12
861.855	8026.29
862.176	8004.59
862.498	7997.59
862.819	7953.75
863.14	7885.5
863.461	7894.54
863.782	7914.2
864.103	7909
864.424	7911.03
864.745	7887.98
865.065	7843.92
865.386	7811.15
865.707	7819.74
866.027	7826.07
866.348	7752.62
866.668	7789.23
866.989	7787.2
867.309	7686.86
867.63	7687.76
867.95	7784.48
868.27	7701.77
868.59	7703.58
868.91	7729.8
869.23	7662
869.55	7654.09
869.87	7698.61
870.19	7608.67
870.51	7583.59
870.83	7634.43
871.15	7575.45
871.469	7526.41
871.789	7610.25
872.109	7615.22
872.428	7593.53
872.748	7651.83
873.067	7604.15
873.386	7556.24
873.706	7502.46
874.025	7469.69
874.344	7450.93
874.663	7488.9
874.982	7447.54
875.301	7450.71
875.62	7404.16
875.939	7342.69
876.258	7402.8
876.577	7469.46
876.896	7408.68
877.214	7348.56
877.533	7387.88
877.852	7392.4
878.17	7356.02
878.489	7336.13
878.807	7252.97
879.125	7267.21
879.444	7317.15
879.762	7283.48
880.08	7294.1
880.398	7210.94
880.716	7280.99
881.034	7233.09
881.352	7256.81
881.67	7217.95
881.988	7191.28
882.306	7164.84
882.624	7170.26
882.941	7118.97
883.259	7057.5
883.577	7085.29
883.894	7133.88
884.212	7017.27
884.529	7090.27
884.846	7115.35
885.164	7017.95
885.481	7038.74
885.798	7062.7
886.115	6995.8
886.432	7013.21
886.75	6920.78
887.067	7001.68
887.383	6878.52
887.7	6947.44
888.017	6893.43
888.334	6821.8
888.651	6836.26
888.967	6825.87
889.284	6770.27
889.6	6843.04
889.917	6799.88
890.233	6730.5
890.55	6724.4
890.866	6743.83
891.182	6749.26
891.498	6702.25
891.815	6708.13
892.131	6711.97
892.447	6631.75
892.763	6698.41
893.079	6554.46
893.395	6533.9
893.71	6577.96
894.026	6542.71
894.342	6546.33
894.657	6463.16
894.973	6509.04
895.289	6499.55
895.604	6428.81
895.92	6479.66
896.235	6397.63
896.55	6438.76
896.865	6383.84
897.181	6387.23
897.496	6403.73
897.811	6311.3
898.126	6299.78
898.441	6263.85
898.756	6248.93
899.071	6166.9
899.386	6242.6
899.7	6176.39
900.015	6140.69
900.33	6100.46
900.644	6140.23
900.959	6092.1
901.273	6145.66
901.588	6037.86
901.902	6050.29
902.216	6027.24
902.531	6011.2
902.845	6003.51
903.159	5911.09
903.473	5928.49
903.787	5982.27
904.101	5915.38
904.415	5875.83
904.729	5856.85
905.042	5861.82
905.356	5840.58
905.67	5820.47
905.984	5771.66
906.297	5787.47
906.611	5742.96
906.924	5690.75
907.237	5715.84
907.551	5662.73
907.864	5636.29
908.177	5620.25
908.491	5629.51
908.804	5604.2
909.117	5579.12
909.43	5523.98
909.743	5544.09
910.056	5536.18
910.368	5436.75
910.681	5407.82
910.994	5418.45
911.307	5417.54
911.619	5335.28
911.932	5366.92
912.244	5342.29
912.557	5363.31
912.869	5270.65
913.181	5272.46
913.494	5298.67
913.806	5227.04
914.118	5248.51
914.43	5217.32
914.742	5193.37
915.054	5200.6
915.366	5152.69
915.678	5144.78
915.99	5126.25
916.302	5093.93
916.613	5067.95
916.925	5079.7
917.236	5020.49
917.548	5014.84
917.859	5035.63
918.171	4916.31
918.482	4996.31
918.794	4933.71
919.105	4924.9
919.416	4908.4
919.727	4900.72
920.038	4907.72
920.349	4835.18
920.66	4853.04
920.971	4821.17
921.282	4835.64
921.593	4724.68
921.903	4712.25
922.214	4734.85
922.525	4715.19
922.835	4657.79
923.146	4710.89
923.456	4670.67
923.767	4636.77
924.077	4641.52
924.387	4603.1
924.697	4603.1
925.008	4620.73
925.318	4531.91
925.628	4521.75
925.938	4520.16
926.248	4467.51
926.558	4435.19
926.867	4403.56
927.177	4458.24
927.487	4427.28
927.796	4378.92
928.106	4371.02
928.416	4356.1
928.725	4357
929.034	4352.94
929.344	4321.3
929.653	4316.55
929.962	4250.34
930.271	4238.36
930.581	4262.77
930.89	4234.75
931.199	4181.42
931.508	4165.14
931.817	4187.07
932.125	4151.13
932.434	4117.01
932.743	4121.76
933.051	4092.83
933.36	4074.3
933.669	4068.2
933.977	4045.37
934.286	4058.48
934.594	4051.25
934.902	3993.62
935.21	3967.64
935.519	3965.83
935.827	3993.17
936.135	3920.86
936.443	3920.63
936.751	3904.59
937.059	3871.37
937.367	3898.71
937.674	3845.15
937.982	3875.21
938.29	3845.83
938.597	3842.89
938.905	3804.7
939.213	3749.79
939.52	3777.81
939.827	3768.09
940.135	3697.81
940.442	3744.36
940.749	3698.04
941.056	3734.65
941.363	3686.51
941.67	3685.61
941.977	3648.32
942.284	3628.89
942.591	3600.87
942.898	3624.14
943.205	3600.41
943.511	3563.35
943.818	3555.9
944.125	3549.12
944.431	3528.78
944.738	3513.41
945.044	3531.26
945.35	3518.61
945.657	3482.45
945.963	3453.3
946.269	3397.93
946.575	3489.68
946.881	3411.94
947.187	3402
947.493	3405.16
947.799	3388.22
948.105	3340.08
948.41	3333.53
948.716	3353.19
949.022	3335.79
949.327	3329.91
949.633	3323.58
949.938	3268.22
950.244	3266.86
950.549	3273.19
950.854	3246.3
951.16	3236.36
951.465	3269.58
951.77	3210.59
952.075	3171.27
952.38	3220.08
952.685	3204.72
952.99	3180.54
953.294	3138.05
953.599	3136.92
953.904	3103.7
954.209	3117.71
954.513	3099.41
954.818	3057.6
955.122	3083.59
955.426	3060.54
955.731	3022.12
956.035	3008.79
956.339	3014.89
956.643	2981
956.948	2971.96
957.252	2976.93
957.556	2953.88
957.86	2952.97
958.163	2948.23
958.467	2923.82
958.771	2920.21
959.075	2924.5
959.378	2861
959.682	2909.13
959.985	2848.57
960.289	2887.21
960.592	2838.4
960.896	2837.95
961.199	2832.07
961.502	2804.95
961.805	2753.66
962.108	2763.83
962.411	2764.05
962.714	2739.19
963.017	2780.1
963.32	2725.41
963.623	2722.92
963.926	2716.82
964.228	2709.14
964.531	2668.91
964.833	2661
965.136	2665.07
965.438	2640.67
965.741	2654.68
966.043	2630.95
966.345	2638.41
966.648	2626.43
966.95	2593.43
967.252	2597.73
967.554	2572.87
967.856	2601.57
968.158	2546.88
968.46	2587.33
968.761	2521.57
969.063	2565.19
969.365	2515.7
969.666	2529.26
969.968	2499.2
970.269	2460.1
970.571	2466.43
970.872	2468.24
971.174	2448.58
971.475	2443.16
971.776	2441.35
972.077	2425.98
972.378	2440.67
972.679	2439.09
972.98	2426.66
973.281	2402.03
973.582	2390.5
973.883	2371.52
974.183	2386.21
974.484	2346.66
974.785	2296.27
975.085	2341.69
975.386	2333.1
975.686	2337.85
975.986	2317.06
976.287	2361.12
976.587	2272.09
976.887	2308.24
977.187	2276.15
977.487	2265.99
977.787	2218.53
978.087	2242.03
978.387	2246.55
978.687	2217.85
978.987	2185.54
979.286	2199.77
979.586	2170.17
979.885	2157.51
980.185	2195.48
980.484	2133.79
980.784	2204.29
981.083	2150.51
981.382	2140.34
981.682	2115.03
981.981	2082.71
982.28	2130.62
982.579	2124.97
982.878	2104.41
983.177	2080.68
983.475	2120
983.774	2058.31
984.073	2071.64
984.372	2024.64
984.67	2063.51
984.969	2040.68
985.267	2029.16
985.566	2032.55
985.864	2011.98
986.162	2019.21
986.461	1997.74
986.759	1994.81
987.057	1967.69
987.355	1949.61
987.653	1974.47
987.951	1945.09
988.249	1959.55
988.547	1928.14
988.844	1952.77
989.142	1929.95
989.44	1931.31
989.737	1915.26
990.035	1922.72
990.332	1905.54
990.63	1897.41
990.927	1863.51
991.224	1858.31
991.521	1869.61
991.819	1868.48
992.116	1839.33
992.413	1834.36
992.71	1833.68
993.006	1792.1
993.303	1802.95
993.6	1808.37
993.897	1825.77
994.193	1836.84
994.49	1792.1
994.787	1772.21
995.083	1756.62
995.379	1741.48
995.676	1727.24
995.972	1730.63
996.268	1732.44
996.565	1717.53
996.861	1716.17
997.157	1737.64
997.453	1700.35
997.749	1677.98
998.044	1668.49
998.34	1646.11
998.636	1680.01
998.932	1655.15
999.227	1654.25
999.523	1660.8
999.818	1629.62
1000.114	1648.83
1000.409	1640.01
1000.704	1608.15
1001	1604.99
1001.295	1590.75
1001.59	1585.33
1001.885	1577.87
1002.18	1566.79
1002.475	1581.71
1002.77	1572.9
1003.065	1548.26
1003.359	1557.08
1003.654	1509.85
1003.949	1538.1
1004.243	1527.02
1004.538	1522.28
1004.832	1487.48
1005.127	1495.84
1005.421	1482.73
1005.715	1488.38
1006.009	1459.68
1006.304	1456.52
1006.598	1457.65
1006.892	1447.7
1007.186	1447.93
1007.48	1435.05
1007.773	1427.82
1008.067	1423.97
1008.361	1402.05
1008.655	1417.87
1008.948	1398.44
1009.242	1418.78
1009.535	1384.43
1009.829	1360.25
1010.122	1356.63
1010.415	1374.26
1010.708	1337.65
1011.001	1348.95
1011.295	1397.08
1011.588	1317.54
1011.881	1335.84
1012.173	1342.85
1012.466	1339.68
1012.759	1272.79
1013.052	1313.02
1013.344	1288.38
1013.637	1273.24
1013.93	1273.24
1014.222	1265.11
1014.514	1263.75
1014.807	1270.08
1015.099	1232.11
1015.391	1279.8
1015.683	1240.7
1015.976	1259.68
1016.268	1253.58
1016.56	1206.58
1016.851	1226.01
1017.143	1218.1
1017.435	1220.36
1017.727	1195.73
1018.018	1191.21
1018.31	1167.03
1018.602	1155.28
1018.893	1162.51
1019.185	1150.99
1019.476	1167.94
1019.767	1141.5
1020.058	1179.23
1020.35	1139.91
1020.641	1136.98
1020.932	1148.05
1021.223	1125
1021.514	1118.67
1021.804	1085.9
1022.095	1101.04
1022.386	1081.16
1022.677	1074.38
1022.967	1065.11
1023.258	1056.07
1023.548	1069.18
1023.839	1068.28
1024.129	1069.41
1024.419	1070.54
1024.709	1040.48
1025	1028.5
1025.29	1036.64
1025.58	1006.81
1025.87	1002.52
1026.16	1011.33
1026.449	1007.26
1026.739	1003.42
1027.029	1005.23
1027.319	1008.39
1027.608	975.4
1027.898	988.28
1028.187	972.01
1028.477	970.43
1028.766	959.58
1029.055	956.19
1029.344	934.04
1029.634	957.55
1029.923	935.4
1030.212	917.09
1030.501	937.21
1030.79	918
1031.078	907.38
1031.367	914.16
1031.656	921.16
1031.945	891.11
1032.233	898.79
1032.522	902.63
1032.81	867.38
1033.099	857.44
1033.387	865.8
1033.675	864.44
1033.963	841.62
1034.251	863.99
1034.54	860.82
1034.828	846.14
1035.116	833.71
1035.403	846.14
1035.691	839.58
1035.979	855.4
1036.267	816.31
1036.554	828.28
1036.842	830.77
1037.129	829.19
1037.417	790.32
1037.704	795.97
1037.992	788.74
1038.279	771.56
1038.566	785.12
1038.853	785.12
1039.14	785.12
