Data from breadboard_white_FLMS001491_00071.txt Node
Date: Wed Feb 08 10:48:14 GMT 2017
User: dcchb
Spectrometer: FLMS00149
Trigger mode: 0
Integration Time (sec): 2.000000E-2
Scans to average: 10
Electric dark correction enabled: true
Nonlinearity correction enabled: false
Boxcar width: 0
XAxis mode: Wavelengths
Number of Pixels in Spectrum: 2048
>>>>>Begin Spectral Data<<<<<
341.393	-13.22
341.776	-13.22
342.16	-13.22
342.543	-39.89
342.927	-60.9
343.31	-75.82
343.693	-57.29
344.077	-79.21
344.46	-65.87
344.843	-61.81
345.226	-42.37
345.61	-21.58
345.993	-21.36
346.376	5.31
346.759	5.76
347.142	20
347.525	39.21
347.908	60
348.291	72.88
348.674	97.74
349.057	124.4
349.44	123.5
349.823	133.22
350.206	144.06
350.588	189.26
350.971	217.96
351.354	234.46
351.737	250.95
352.119	247.56
352.502	258.86
352.884	291.18
353.267	314.68
353.65	293.66
354.032	285.3
354.414	305.42
354.797	325.75
355.179	329.37
355.562	328.92
355.944	357.62
356.326	315.58
356.709	342.25
357.091	351.97
357.473	363.27
357.855	350.39
358.238	334.79
358.62	356.94
359.002	352.42
359.384	333.89
359.766	337.73
360.148	336.6
360.53	350.16
360.912	338.64
361.294	369.82
361.676	356.04
362.057	331.4
362.439	339.54
362.821	323.49
363.203	334.12
363.584	354.23
363.966	346.77
364.348	331.18
364.729	336.6
365.111	345.64
365.493	337.51
365.874	343.83
366.256	328.69
366.637	310.16
367.019	322.82
367.4	326.21
367.781	341.35
368.163	314.46
368.544	349.93
368.925	336.38
369.306	352.19
369.688	326.21
370.069	332.31
370.45	325.08
370.831	344.06
371.212	353.1
371.593	313.78
371.974	320.78
372.355	336.6
372.736	334.79
373.117	344.06
373.498	328.47
373.879	329.14
374.26	350.84
374.641	326.66
375.021	347
375.402	370.05
375.783	362.36
376.163	363.95
376.544	359.2
376.925	370.95
377.305	355.81
377.686	358.3
378.066	352.87
378.447	350.84
378.827	380.22
379.208	382.7
379.588	373.89
379.968	372.53
380.349	379.09
380.729	370.95
381.109	378.63
381.489	397.62
381.87	378.41
382.25	389.93
382.63	392.42
383.01	374.79
383.39	382.7
383.77	396.26
384.15	387.9
384.53	395.36
384.91	409.59
385.29	391.52
385.67	427.22
386.049	395.13
386.429	449.37
386.809	427.67
387.189	427.9
387.568	413.21
387.948	428.12
388.328	442.59
388.707	435.81
389.087	447.78
389.466	431.51
389.846	450.27
390.225	442.36
390.605	455.69
390.984	457.28
391.363	476.03
391.743	471.06
392.122	492.98
392.501	505.41
392.881	489.14
393.26	488.91
393.639	517.61
394.018	505.64
394.397	515.81
394.776	528.01
395.155	515.35
395.534	512.87
395.913	531.62
396.292	547.9
396.671	551.74
397.05	575.47
397.429	556.71
397.808	561.23
398.186	561.91
398.565	573.66
398.944	593.32
399.323	597.39
399.701	596.93
400.08	628.35
400.458	611.62
400.837	602.58
401.215	630.15
401.594	635.12
401.972	664.95
402.351	679.64
402.729	664.73
403.107	708.79
403.486	704.95
403.864	715.8
404.242	730.94
404.62	717.38
404.999	733.65
405.377	737.72
405.755	788.57
406.133	771.17
406.511	784.73
406.889	789.02
407.267	815.91
407.645	804.39
408.023	848.23
408.401	856.36
408.779	862.69
409.156	887.1
409.534	903.14
409.912	913.54
410.29	941.11
410.667	944.04
411.045	960.31
411.422	982.69
411.8	981.78
412.178	1044.15
412.555	1068.11
412.933	1043.48
413.31	1065.62
413.687	1084.38
414.065	1118.95
414.442	1130.03
414.819	1144.94
415.197	1177.94
415.574	1182.45
415.951	1193.08
416.328	1198.27
416.705	1231.95
417.082	1243.92
417.46	1256.58
417.837	1284.82
418.214	1314.65
418.591	1309.23
418.967	1334.54
419.344	1337.7
419.721	1386.74
420.098	1349.91
420.475	1423.58
420.852	1437.36
421.228	1460.64
421.605	1448.44
421.982	1481.2
422.358	1490.7
422.735	1515.78
423.111	1507.42
423.488	1552.84
423.864	1552.61
424.241	1599.84
424.617	1587.87
424.994	1619.28
425.37	1619.28
425.746	1638.49
426.123	1674.19
426.499	1675.78
426.875	1706.51
427.251	1717.13
427.627	1760.07
428.003	1816.79
428.379	1796.68
428.756	1829.67
429.132	1864.47
429.507	1910.57
429.883	1896.56
430.259	1967.52
430.635	1970
431.011	1975.65
431.387	2047.06
431.763	2087.97
432.138	2070.79
432.514	2110.57
432.89	2130.45
433.265	2184.24
433.641	2221.98
434.016	2266.72
434.392	2257.45
434.767	2264.91
435.143	2350.11
435.518	2350.33
435.894	2390.33
436.269	2415.87
436.644	2441.18
437.02	2473.27
437.395	2469.88
437.77	2521.63
438.145	2522.98
438.52	2588.97
438.895	2578.8
439.271	2612.93
439.646	2698.8
440.021	2678.01
440.395	2705.8
440.77	2711.68
441.145	2741.74
441.52	2812.24
441.895	2751
442.27	2781.73
442.645	2834.84
443.019	2880.04
443.394	2867.16
443.769	2905.57
444.143	2917.32
444.518	2951.67
444.892	3004.78
445.267	2955.29
445.641	2998.68
446.016	3043.65
446.39	3050.88
446.764	3113.93
447.139	3071.9
447.513	3130.88
447.887	3121.84
448.262	3169.52
448.636	3210.65
449.01	3215.17
449.384	3281.38
449.758	3318.67
450.132	3330.19
450.506	3342.17
450.88	3390.31
451.254	3398.22
451.628	3440.93
452.002	3456.07
452.376	3508.04
452.75	3506.01
453.123	3543.3
453.497	3576.52
453.871	3639.79
454.244	3690.41
454.618	3755.27
454.992	3781.26
455.365	3833.01
455.739	3922.72
456.112	3943.29
456.486	4022.61
456.859	4027.8
457.232	4138.08
457.606	4119.1
457.979	4192.09
458.352	4270.96
458.725	4294.92
459.099	4322.49
459.472	4439.09
459.845	4491.52
460.218	4493.33
460.591	4573.1
460.964	4573.55
461.337	4675.24
461.71	4752.3
462.083	4814.45
462.456	4849.93
462.829	4837.27
463.201	4917.05
463.574	4977.84
463.947	5039.3
464.32	5192.07
464.692	5216.92
465.065	5245.85
465.438	5383.93
465.81	5408.56
466.183	5406.3
466.555	5606.75
466.928	5613.52
467.3	5619.17
467.672	5737.36
468.045	5862.11
468.417	5907.75
468.789	5971.26
469.161	5973.97
469.534	6119.95
469.906	6275.43
470.278	6300.51
470.65	6402.43
471.022	6527.85
471.394	6684.68
471.766	6717.22
472.138	6775.53
472.51	6945.69
472.882	7013.26
473.253	7122.19
473.625	7165.35
473.997	7442.63
474.369	7444.89
474.74	7534.38
475.112	7677.88
475.484	7812.79
475.855	7935.72
476.227	8027.47
476.598	8257.3
476.97	8329.16
477.341	8493.67
477.713	8640.11
478.084	8684.63
478.455	8944.28
478.827	8983.38
479.198	9288.68
479.569	9325.97
479.94	9540.43
480.311	9693.87
480.682	9859.06
481.053	10110.13
481.424	10213.18
481.795	10411.59
482.166	10520.97
482.537	10697.23
482.908	10908.98
483.279	10957.79
483.65	11190.78
484.021	11442.98
484.391	11504.67
484.762	11680.03
485.133	11816.98
485.503	11982.4
485.874	12225.33
486.244	12349.84
486.615	12644.3
486.985	12761.13
487.356	12980.79
487.726	13078.41
488.097	13390.72
488.467	13366.77
488.837	13727.89
489.207	13825.06
489.578	14056.24
489.948	14214.2
490.318	14416.46
490.688	14477.92
491.058	14644.02
491.428	14903
491.798	15046.05
492.168	15424.57
492.538	15388.63
492.908	15590.89
493.278	15754.05
493.648	15781.39
494.017	16087.6
494.387	16250.08
494.757	16353.36
495.126	16549.96
495.496	16561.94
495.866	16791.31
496.235	16948.37
496.605	17172.99
496.974	17193.79
497.344	17468.58
497.713	17576.83
498.082	17644.39
498.452	17831.28
498.821	17963.03
499.19	18001
499.559	18242.57
499.928	18399.18
500.298	18411.83
500.667	18666.06
501.036	18648.89
501.405	18870.13
501.774	18881.42
502.143	19214.07
502.512	19219.72
502.88	19468.75
503.249	19336.1
503.618	19625.36
503.987	19575.19
504.356	19851.57
504.724	19950.32
505.093	19950.55
505.462	20174.5
505.83	20358.22
506.199	20518.44
506.567	20810.64
506.936	20769.96
507.304	20984.87
507.672	21208.14
508.041	21365.88
508.409	21524.97
508.777	21613.1
509.145	21832.08
509.514	21770.39
509.882	21928.35
510.25	22129.93
510.618	22469.8
510.986	22438.17
511.354	22616.92
511.722	22817.37
512.09	23034.76
512.458	23026.17
512.826	23309.78
513.193	23405.37
513.561	23502.09
513.929	23797.23
514.297	23857.34
514.664	24132.59
515.032	24227.72
515.4	24393.14
515.767	24569.64
516.135	24740.48
516.502	24640.37
516.869	25103.63
517.237	25179.34
517.604	25211.2
517.972	25445.55
518.339	25707.91
518.706	25773.67
519.073	25970.96
519.44	26224.28
519.808	26429.25
520.175	26479.42
520.542	26890.48
520.909	27009.8
521.276	26972.06
521.643	27329.56
522.009	27517.81
522.376	27826.73
522.743	27942.43
523.11	28253.61
523.477	28514.84
523.843	28733.82
524.21	29041.38
524.577	29122.06
524.943	29225.79
525.31	29493.12
525.676	29783.28
526.043	29920.46
526.409	30155.03
526.776	30458.3
527.142	30453.32
527.508	30724.05
527.874	30961.33
528.241	31151.38
528.607	31176.69
528.973	31557.93
529.339	31620.98
529.705	31872.04
530.071	32180.51
530.437	32238.36
530.803	32420.05
531.169	32710.21
531.535	32571.23
531.901	32830.89
532.267	33057.77
532.632	33198.11
532.998	33391.55
533.364	33543.86
533.73	33767.81
534.095	33999.22
534.461	34019.78
534.826	34263.84
535.192	34390.62
535.557	34699.31
535.923	34582.71
536.288	34883.49
536.653	35043.03
537.019	34831.29
537.384	35179.3
537.749	35460.65
538.114	35503.59
538.479	35460.88
538.845	35798.72
539.21	35632.62
539.575	35865.61
539.94	35946.74
540.305	36214.75
540.67	36261.76
541.034	36423.79
541.399	36587.85
541.764	36591.02
542.129	36672.37
542.494	36830.33
542.858	36986.94
543.223	37092.47
543.587	37387.38
543.952	37183.54
544.316	37509.86
544.681	37402.29
545.045	37741.04
545.41	37882.73
545.774	37967.48
546.138	38064.87
546.503	38090.86
546.867	38092.22
547.231	38511.87
547.595	38628.48
547.959	38623.96
548.324	38695.14
548.688	38836.83
549.052	39027.11
549.416	39081.35
549.779	39199.76
550.143	39299.42
550.507	39463.71
550.871	39799.74
551.235	39636.81
551.599	39978.95
551.962	40044.26
552.326	40141.66
552.689	40413.97
553.053	40329.67
553.417	40364.7
553.78	40783.9
554.143	40840.85
554.507	41010.33
554.87	41056.21
555.234	41556.08
555.597	41248.97
555.96	41486.25
556.323	41625.46
556.686	41734.16
557.05	42080.36
557.413	42172.79
557.776	42261.15
558.139	42432.22
558.502	42513.8
558.865	42773
559.228	42952.88
559.59	43064.74
559.953	43161.01
560.316	43554.22
560.679	43546.31
561.041	43803.48
561.404	44045.28
561.767	44139.29
562.129	44188.78
562.492	44735.89
562.854	44566.4
563.217	44693.85
563.579	44800.74
563.941	45045.48
564.304	45143.11
564.666	45506.49
565.028	45560.72
565.39	45680.72
565.753	46016.08
566.115	46083.65
566.477	46309.18
566.839	46260.82
567.201	46537.65
567.563	46600.02
567.925	46915.26
568.287	46876.39
568.648	46979.89
569.01	47203.62
569.372	47436.83
569.734	47236.39
570.095	47615.81
570.457	47774.22
570.819	47700.1
571.18	47828.69
571.542	48141.45
571.903	48153.88
572.265	48323.81
572.626	48435.68
572.987	48392.51
573.349	48498.05
573.71	48597.93
574.071	48767.19
574.432	48906.62
574.794	49109.56
575.155	49161.08
575.516	49001.08
575.877	49290.57
576.238	49373.96
576.599	49489.21
576.96	49549.09
577.32	49479.49
577.681	49577.34
578.042	49683.33
578.403	49791.12
578.763	49756.09
579.124	49754.74
579.485	49962.87
579.845	50097.78
580.206	50011.23
580.566	49921.06
580.927	50032.7
581.287	50159.47
581.648	49954.05
582.008	50252.35
582.368	50189.53
582.728	50201.73
583.089	50080.83
583.449	50144.33
583.809	50301.84
584.169	50361.27
584.529	50148.85
584.889	50378.45
585.249	50157.66
585.609	50071.56
585.969	50396.08
586.329	50144.11
586.688	50442.4
587.048	50225.23
587.408	50255.97
587.768	50185.01
588.127	50221.84
588.487	50149.08
588.846	50389.75
589.206	50219.36
589.565	50261.84
589.925	50468.84
590.284	50289.64
590.643	50425.45
591.003	50487.6
591.362	50495.51
591.721	50433.82
592.08	50409.86
592.44	50521.27
592.799	50479.01
593.158	50460.93
593.517	50453.93
593.876	50504.1
594.235	50387.04
594.593	50516.07
594.952	50646.46
595.311	50530.08
595.67	50677.88
596.029	50801.26
596.387	50718.55
596.746	50920.81
597.104	50651.66
597.463	50644.43
597.822	50829.51
598.18	50614.6
598.538	50599.46
598.897	50850.98
599.255	50558.56
599.613	51091.42
599.972	50745.9
600.33	50908.15
600.688	50730.98
601.046	50908.15
601.404	51187.02
601.762	50970.3
602.12	51077.41
602.478	51005.55
602.836	51086.23
603.194	51010.52
603.552	51061.37
603.91	51007.36
604.268	51171.2
604.625	51064.76
604.983	51151.76
605.341	51011.65
605.698	51241.7
606.056	51338.42
606.413	51241.93
606.771	51376.16
607.128	51500.23
607.485	51326
607.843	51372.1
608.2	51532.09
608.557	51640.56
608.914	51470.4
609.272	51502.94
609.629	51614.8
609.986	51775.7
610.343	51599.89
610.7	51790.62
611.057	51736.61
611.414	51732.76
611.771	51668.13
612.127	51903.61
612.484	51797.4
612.841	51960.55
613.198	51863.61
613.554	51899.99
613.911	52080.55
614.267	52176.59
614.624	52095.24
614.98	52136.14
615.337	52217.5
615.693	52171.4
616.05	52100.66
616.406	52349.47
616.762	52177.5
617.118	52238.06
617.475	52284.39
617.831	52300.88
618.187	52387.21
618.543	52328.68
618.899	52504.72
619.255	52411.84
619.611	52433.99
619.967	52538.17
620.323	52516.25
620.678	52481.44
621.034	52376.36
621.39	52452.52
621.746	52453.2
622.101	52746.52
622.457	52443.93
622.812	52532.97
623.168	52617.26
623.523	52654.77
623.879	52689.12
624.234	52468.34
624.589	52556.25
624.945	52643.7
625.3	52572.29
625.655	52611.61
626.01	52506.75
626.365	52672.63
626.72	52453.88
627.075	52530.94
627.43	52570.48
627.785	52461.56
628.14	52487.32
628.495	52484.16
628.85	52473.31
629.205	52301.11
629.559	52508.34
629.914	52354.89
630.269	52457.94
630.623	52347.89
630.978	52247.78
631.332	52424.27
631.687	52399.87
632.041	52322.13
632.396	52275.35
632.75	52111.06
633.104	52225.18
633.459	52133.21
633.813	52097.73
634.167	52077.84
634.521	51984.73
634.875	52069.03
635.229	51925.53
635.583	51884.4
635.937	51876.94
636.291	51789.94
636.645	51802.14
636.999	51669.26
637.352	51819.54
637.706	51556.27
638.06	51739.32
638.413	51679.66
638.767	51638.08
639.121	51649.6
639.474	51332.55
639.828	51491.41
640.181	51411.87
640.534	51388.14
640.888	51339.55
641.241	51211.2
641.594	51278.54
641.947	51320.35
642.301	51190.41
642.654	51173.68
643.007	51303.62
643.36	51064.98
643.713	50949.73
644.066	51115.61
644.419	50925.78
644.771	50833.35
645.124	50503.42
645.477	50484.66
645.83	50197.66
646.182	49959.7
646.535	49787.28
646.888	49776.21
647.24	49634.51
647.593	49783.44
647.945	49649.88
648.298	49507.51
648.65	49413.95
649.002	49333.51
649.355	49457.57
649.707	49498.25
650.059	49716.77
650.411	50190.88
650.763	50280.82
651.115	50477.2
651.467	50229.07
651.819	50302.07
652.171	50215.29
652.523	50093.03
652.875	49998.12
653.227	49936.88
653.578	50194.27
653.93	49984.79
654.282	49859.59
654.633	49764
654.985	49837.22
655.337	49854.4
655.688	49757.22
656.039	49995.63
656.391	49733.27
656.742	49780.95
657.094	49733.27
657.445	49821.85
657.796	49826.15
658.147	49722.87
658.498	49593.61
658.849	49656.89
659.2	49579.6
659.551	49587.06
659.902	49629.32
660.253	49504.35
660.604	49527.62
660.955	49333.51
661.306	49430.68
661.656	49375.76
662.007	49355.2
662.358	49298.7
662.708	49434.07
663.059	49276.33
663.409	49069.11
663.76	49372.15
664.11	49240.4
664.461	49273.62
664.811	49283.11
665.161	49258.03
665.511	49165.83
665.862	49350.23
666.212	49291.02
666.562	49298.48
666.912	49154.98
667.262	49089.67
667.612	48980.07
667.962	49072.5
668.312	49077.01
668.662	49334.18
669.011	49069.56
669.361	49096.22
669.711	49033.4
670.06	48965.15
670.41	49059.16
670.76	48915.66
671.109	48965.61
671.459	49023
671.808	48856.46
672.157	48935.1
672.507	48616.69
672.856	48767.19
673.205	48777.36
673.554	48975.32
673.904	48628.89
674.253	48852.39
674.602	48778.94
674.951	48217.83
675.3	48016.7
675.649	48599.29
675.998	48508.67
676.346	48578.04
676.695	48546.86
677.044	48324.94
677.393	48438.84
677.741	48443.13
678.09	48491.49
678.438	48224.61
678.787	48372.63
679.135	48297.6
679.484	48033.65
679.832	48239.97
680.181	48033.65
680.529	48079.07
680.877	47983.48
681.225	48006.31
681.573	48127.66
681.922	47845.18
682.27	47730.61
682.618	47753.66
682.966	47734.45
683.314	47793.88
683.661	47668.69
684.009	47399.09
684.357	47307.34
684.705	47203.62
685.053	47208.36
685.4	47257.85
685.748	46980.8
686.095	47031.64
686.443	46916.39
686.79	46670.98
687.138	46748.49
687.485	46786.45
687.832	46674.59
688.18	46725.44
688.527	46416.29
688.874	46470.53
689.221	46267.6
689.568	46222.63
689.915	46133.59
690.262	45967.94
690.609	45976.31
690.956	45852.92
691.303	45740.38
691.65	45655.41
691.997	45690.44
692.344	45389.65
692.69	45377.45
693.037	45353.72
693.383	45055.65
693.73	45181.3
694.077	45096.55
694.423	44974.52
694.769	44880.06
695.116	44600.75
695.462	44588.77
695.808	44581.54
696.155	44651.59
696.501	44191.27
696.847	44135.9
697.193	43963.48
697.539	44076.47
697.885	43750.83
698.231	43504.51
698.577	43654.11
698.923	43753.76
699.269	43468.35
699.614	43090.28
699.96	43077.85
700.306	43071.52
700.651	42932.77
700.997	42852.77
701.342	42728.03
701.688	42732.1
702.033	42481.93
702.379	42443.52
702.724	42459.11
703.069	42430.86
703.415	41958.11
703.76	42134.37
704.105	42013.7
704.45	41999.46
704.795	41732.58
705.14	41493.71
705.485	41444
705.83	41388.18
706.175	41380.49
706.52	41285.13
706.865	41186.37
707.209	41082.2
707.554	40815.99
707.899	41081.52
708.243	40765.37
708.588	40823.9
708.932	40529.67
709.277	40555.43
709.621	40501.87
709.966	40213.52
710.31	40256.23
710.654	40050.59
710.998	40067.31
711.342	39998.38
711.687	39846.75
712.031	39742.12
712.375	39506.87
712.719	39708.67
713.063	39540.32
713.407	39679.97
713.75	39272.98
714.094	39158.63
714.438	39084.51
714.782	39221.68
715.125	38982.59
715.469	39081.12
715.812	38908.02
716.156	38635.71
716.499	38785.53
716.843	38702.15
717.186	38461.7
717.53	38671.41
717.873	38579.44
718.216	38404.3
718.559	38348.26
718.902	38131.77
719.246	38311.42
719.589	38065.78
719.932	37969.96
720.275	37969.96
720.617	37756.63
720.96	37851.77
721.303	37833.69
721.646	37812.68
721.989	37536.08
722.331	37557.77
722.674	37471.9
723.016	37588.96
723.359	37277.78
723.701	37355.29
724.044	37175.18
724.386	36933.15
724.729	37056.77
725.071	36977.9
725.413	36879.82
725.755	36842.08
726.097	36653.61
726.439	36595.53
726.782	36561.19
727.124	36636.44
727.465	36544.69
727.807	36570.22
728.149	36487.74
728.491	36301.31
728.833	36500.62
729.175	36205.71
729.516	35993.97
729.858	36300.85
730.199	36347.18
730.541	36006.85
730.882	36047.3
731.224	36015.44
731.565	35735.44
731.906	35739.51
732.248	35904.48
732.589	35664.03
732.93	35593.3
733.271	35559.86
733.612	35663.58
733.953	35589.23
734.294	35307.89
734.635	35310.37
734.976	35496.81
735.317	35283.71
735.658	35207.77
735.999	35204.84
736.339	35091.62
736.68	35083.94
737.021	34906.31
737.361	34713.32
737.702	34938.4
738.042	34853.21
738.383	34834
738.723	34855.24
739.063	34644.4
739.404	34622.03
739.744	34473.56
740.084	34492.77
740.424	34469.49
740.764	34342.49
741.104	34386.1
741.444	34160.12
741.784	34096.17
742.124	34145.43
742.464	34096.62
742.804	33992.21
743.143	33978.43
743.483	34017.75
743.823	33817.53
744.162	33799.9
744.502	33892.78
744.841	33710.41
745.181	33792.22
745.52	33697.08
745.86	33694.59
746.199	33427.93
746.538	33484.43
746.877	33447.82
747.216	33338.67
747.556	33435.39
747.895	33415.51
748.234	33227.71
748.573	33106.59
748.911	32995.63
749.25	33016.19
749.589	32789.08
749.928	32851.9
750.267	32845.35
750.605	32767.39
750.944	32652.59
751.283	32541.4
751.621	32619.37
751.96	32247.63
752.298	32373.95
752.636	32481.52
752.975	32254.18
753.313	32038.14
753.651	32206.27
753.989	31996.79
754.327	31956.79
754.666	31705.72
755.004	31727.41
755.342	31897.81
755.679	31800.18
756.017	31514.54
756.355	31581.66
756.693	31410.36
757.031	31379.85
757.368	31255.79
757.706	31239.52
758.044	31156.81
758.381	31082.69
758.719	30982.12
759.056	30983.48
759.394	30879.75
759.731	30532.42
760.068	30482.48
760.405	30437.96
760.743	30444.51
761.08	30476.15
761.417	30324.97
761.754	30252.42
762.091	30075.03
762.428	30054.46
762.765	29951.19
763.102	29989.38
763.438	29676.62
763.775	29575.15
764.112	29562.95
764.449	29618.32
764.785	29340.36
765.122	29243.64
765.458	29054.49
765.795	29121.61
766.131	29147.6
766.467	28974.94
766.804	28776.76
767.14	28599.59
767.476	28654.5
767.812	28438.46
768.148	28598.01
768.485	28403.89
768.821	28227.17
769.157	28117.79
769.492	28039.83
769.828	28138.81
770.164	27785.37
770.5	27756.9
770.836	27685.26
771.171	27534.3
771.507	27365.5
771.842	27297.47
772.178	27362.33
772.513	27157.59
772.849	27078.95
773.184	26931.38
773.519	26910.37
773.855	26845.06
774.19	26688.22
774.525	26663.59
774.86	26536.82
775.195	26520.77
775.53	26389.7
775.865	26235.58
776.2	26122.14
776.535	25839.66
776.87	25992.42
777.205	25774.58
777.539	25811.19
777.874	25791.98
778.209	25598.76
778.543	25476.28
778.878	25214.82
779.212	25397.86
779.547	25153.12
779.881	25140.69
780.215	24956.52
780.55	25101.6
780.884	24756.07
781.218	24841.27
781.552	24710.42
781.886	24555.4
782.22	24424.33
782.554	24275.86
782.888	24219.59
783.222	24139.37
783.556	24061.85
783.889	23944.79
784.223	23807.85
784.557	23822.76
784.89	23820.05
785.224	23658.02
785.557	23527.18
785.891	23498.7
786.224	23253.29
786.558	23309.56
786.891	23083.8
787.224	22954.54
787.557	23083.57
787.891	22962.67
788.224	22930.58
788.557	22978.94
788.89	22816.01
789.223	22766.52
789.556	22621.21
789.888	22571.04
790.221	22435.68
790.554	22265.06
790.887	22233.43
791.219	22235.91
791.552	22101.45
791.884	22004.51
792.217	21977.84
792.549	21851.52
792.882	21713.89
793.214	21675.48
793.546	21616.95
793.879	21554.12
794.211	21434.13
794.543	21541.69
794.875	21358.2
795.207	21416.5
795.539	21284.98
795.871	21224.64
796.203	21145.09
796.535	20927.92
796.867	20889.73
797.198	20757.53
797.53	20844.31
797.862	20773.35
798.193	20772.45
798.525	20528.39
798.856	20612
799.188	20404.77
799.519	20370.65
799.85	20165.46
800.182	20276.19
800.513	20217.89
800.844	20136.53
801.175	20136.76
801.506	20117.55
801.837	20027.38
802.168	20021.06
802.499	19963.43
802.83	19684.57
803.161	19695.64
803.491	19648.64
803.822	19586.04
804.153	19498.36
804.483	19339.04
804.814	19328.42
805.145	19227.86
805.475	19267.85
805.805	19218.59
806.136	19250.68
806.466	19157.8
806.796	19096.56
807.126	18979.95
807.457	18872.61
807.787	18971.82
808.117	18822.67
808.447	18808.43
808.777	18697.93
809.107	18697.25
809.436	18593.52
809.766	18654.54
810.096	18492.06
810.426	18464.71
810.755	18456.8
811.085	18466.07
811.414	18352.4
811.744	18257.26
812.073	18133.87
812.403	18205.06
812.732	18084.38
813.061	18113.54
813.39	17964.61
813.719	17930.71
814.049	18015.46
814.378	17879.87
814.707	17839.19
815.036	17812.07
815.365	17643.49
815.693	17529.6
816.022	17612.31
816.351	17569.59
816.68	17462.48
817.008	17465.87
817.337	17316.27
817.665	17306.78
817.994	17274.91
818.322	17330.5
818.651	17215.25
818.979	17090.06
819.307	17248.47
819.636	17206.89
819.964	17037.63
820.292	17079.44
820.62	17057.74
820.948	16949.27
821.276	17096.16
821.604	17070.62
821.932	17042.15
822.259	17013.9
822.587	16953.34
822.915	16857.52
823.243	17002.15
823.57	16940.46
823.898	16951.31
824.225	16911.76
824.553	16902.95
824.88	16976.62
825.207	16964.86
825.535	16848.26
825.862	16933.23
826.189	16876.05
826.516	16906.56
826.843	16952.21
827.17	17020.68
827.497	16969.16
827.824	16969.16
828.151	16998.31
828.478	16908.14
828.805	17043.05
829.131	16868.6
829.458	16839.9
829.785	16740.24
830.111	16761.03
830.438	16897.3
830.764	16829.28
831.09	16833.79
831.417	16744.08
831.743	16865.21
832.069	16870.18
832.395	16712.22
832.722	16861.59
833.048	16622.05
833.374	16698.66
833.7	16626.57
834.026	16687.58
834.351	16641.94
834.677	16637.19
835.003	16608.72
835.329	16630.86
835.654	16708.37
835.98	16574.37
836.306	16613.01
836.631	16439.91
836.956	16537.08
837.282	16490.98
837.607	16404.65
837.932	16440.81
838.258	16405.56
838.583	16322.85
838.908	16268.39
839.233	16316.29
839.558	16279.23
839.883	16206.24
840.208	16149.74
840.533	16128.95
840.858	16053.48
841.182	16219.35
841.507	16021.61
841.832	16022.06
842.156	16039.69
842.481	16027.49
842.805	15869.3
843.13	15840.6
843.454	15906.36
843.778	15751.56
844.103	15694.39
844.427	15709.53
844.751	15687.38
845.075	15678.8
845.399	15565.81
845.723	15512.47
846.047	15601.74
846.371	15423.21
846.695	15410.1
847.019	15274.97
847.343	15257.34
847.666	15174.63
847.99	15059.15
848.313	15084.01
848.637	14928.76
848.96	14956.33
849.284	14966.73
849.607	14783
849.931	14801.08
850.254	14697.35
850.577	14600.86
850.9	14469.56
851.223	14470.47
851.546	14418.49
851.869	14305.73
852.192	14384.59
852.515	14312.51
852.838	14079.74
853.161	14140.08
853.483	14104.83
853.806	13991.38
854.129	14016.92
854.451	13946.86
854.774	13928.33
855.096	13845.85
855.419	13768.56
855.741	13740.77
856.063	13678.17
856.385	13717.04
856.708	13645.18
857.03	13572.41
857.352	13564.5
857.674	13525.63
857.996	13498.74
858.318	13407.22
858.64	13442.7
858.961	13404.28
859.283	13391.4
859.605	13296.71
859.926	13351.63
860.248	13260.78
860.57	13203.16
860.891	13214.45
861.212	13182.82
861.534	13152.99
861.855	13071.18
862.176	13099.66
862.498	13048.13
862.819	13016.27
863.14	12957.96
863.461	12909.6
863.782	12938.76
864.103	12824.18
864.424	12855.59
864.745	12915.25
865.065	12787.12
865.386	12717.97
865.707	12823.5
866.027	12769.95
866.348	12757.74
866.668	12670.51
866.989	12581.25
867.309	12603.62
867.63	12524.98
867.95	12562.72
868.27	12429.39
868.59	12484.3
868.91	12472.1
869.23	12371.77
869.55	12416.51
869.87	12487.24
870.19	12473.23
870.51	12440.69
870.83	12376.96
871.15	12228.04
871.469	12318.21
871.789	12261.03
872.109	12384.42
872.428	12189.85
872.748	12186.46
873.067	12203.18
873.386	12193.24
873.706	12179.91
874.025	12126.57
874.344	12068.95
874.663	12077.99
874.982	12133.13
875.301	12138.32
875.62	11977.2
875.939	11993.7
876.258	11990.08
876.577	11927.03
876.896	11947.6
877.214	11906.47
877.533	11895.17
877.852	11917.54
878.17	11874.83
878.489	11924.32
878.807	11843.19
879.125	11747.15
879.444	11751.67
879.762	11763.87
880.08	11819.01
880.398	11761.39
880.716	11713.93
881.034	11677.32
881.352	11665.34
881.67	11594.16
881.988	11709.41
882.306	11572.01
882.624	11499.92
882.941	11454.95
883.259	11454.28
883.577	11489.98
883.894	11466.93
884.212	11398.23
884.529	11397.1
884.846	11421.51
885.164	11374.73
885.481	11347.39
885.798	11325.69
886.115	11231.23
886.432	11294.73
886.75	11215.86
887.067	11285.24
887.383	11248.86
887.7	11190.55
888.017	11104.23
888.334	11131.35
888.651	11146.94
888.967	11065.13
889.284	10985.36
889.6	10979.94
889.917	10926.38
890.233	10935.19
890.55	10824.69
890.866	10896.32
891.182	10823.33
891.498	10816.33
891.815	10731.36
892.131	10679.61
892.447	10681.87
892.763	10618.59
893.079	10607.07
893.395	10557.35
893.71	10582.43
894.026	10504.92
894.342	10407.75
894.657	10364.13
894.973	10371.14
895.289	10404.81
895.604	10349.45
895.92	10317.36
896.235	10259.28
896.55	10323.68
896.865	10187.42
897.181	10219.05
897.496	10152.39
897.811	10191.26
898.126	10063.35
898.441	10096.34
898.756	10006.18
899.071	9925.73
899.386	10000.53
899.7	9823.81
900.015	9829.69
900.33	9772.29
900.644	9816.35
900.959	9836.24
901.273	9702.91
901.588	9665.4
901.902	9611.61
902.216	9650.25
902.531	9641.67
902.845	9535.23
903.159	9567.32
903.473	9501.33
903.787	9440.09
904.101	9432.18
904.415	9438.96
904.729	9363.26
905.042	9328.91
905.356	9260.43
905.67	9252.98
905.984	9296.37
906.297	9246.42
906.611	9147.22
906.924	9127.78
907.237	9155.58
907.551	9132.3
907.864	9017.05
908.177	8987.22
908.491	8972.08
908.804	8901.12
909.117	8805.53
909.43	8820.45
909.743	8800.33
910.056	8771.63
910.368	8731.86
910.681	8698.42
910.994	8673.33
911.307	8592.43
911.619	8566.22
911.932	8575.48
912.244	8496.61
912.557	8484.41
912.869	8436.5
913.181	8450.51
913.494	8415.26
913.806	8314.92
914.118	8304.98
914.43	8282.38
914.742	8236.28
915.054	8191.31
915.366	8198.09
915.678	8083.74
915.99	8121.93
916.302	8037.19
916.613	7989.96
916.925	8041.48
917.236	7992.67
917.548	7908.38
917.859	7885.78
918.171	7912
918.482	7819.79
918.794	7860.02
919.105	7798.33
919.416	7701.61
919.727	7786.8
920.038	7686.69
920.349	7650.53
920.66	7535.28
920.971	7604.88
921.282	7543.87
921.593	7509.97
921.903	7446.92
922.214	7478.11
922.525	7492.57
922.835	7355.17
923.146	7326.93
923.456	7327.6
923.767	7298
924.077	7264.78
924.387	7229.53
924.697	7253.48
925.008	7167.61
925.318	7133.48
925.628	7121.73
925.938	7075.41
926.248	7022.08
926.558	6980.72
926.867	6970.78
927.177	6960.38
927.487	6922.64
927.796	6811.69
928.106	6824.34
928.416	6842.42
928.725	6800.61
929.034	6730.56
929.344	6792.93
929.653	6681.97
929.962	6667.28
930.271	6699.6
930.581	6575.99
930.89	6624.35
931.199	6523.33
931.508	6481.98
931.817	6559.94
932.125	6498.25
932.434	6445.82
932.743	6436.55
933.051	6398.36
933.36	6406.72
933.669	6294.41
933.977	6297.57
934.286	6301.19
934.594	6209.67
934.902	6233.17
935.21	6199.05
935.519	6166.05
935.827	6166.05
936.135	6107.3
936.443	6067.52
936.751	6014.87
937.059	6072.95
937.367	6028.2
937.674	5993.63
937.982	5987.3
938.29	5862.56
938.597	5893.07
938.905	5891.71
939.213	5849.9
939.52	5847.64
939.827	5833.18
940.135	5747.98
940.442	5719.06
940.749	5691.26
941.056	5738.04
941.363	5700.53
941.67	5625.5
941.977	5625.28
942.284	5563.58
942.591	5600.19
942.898	5567.88
943.205	5537.14
943.511	5515.67
943.818	5547.99
944.125	5478.84
944.431	5431.38
944.738	5487.65
945.044	5348.9
945.35	5406.75
945.657	5371.95
945.963	5329.24
946.269	5311.84
946.575	5258.96
946.881	5256.7
947.187	5223.7
947.493	5188.68
947.799	5206.76
948.105	5217.15
948.41	5105.74
948.716	5129.24
949.022	5106.87
949.327	5101.45
949.633	5056.25
949.938	4981.45
950.244	5059.41
950.549	4977.61
950.854	5012.86
951.16	5003.15
951.465	4908.23
951.77	4904.62
952.075	4904.16
952.38	4844.28
952.685	4875.24
952.99	4851.06
953.294	4835.69
953.599	4741.46
953.904	4759.31
954.209	4780.78
954.513	4751.85
954.818	4682.25
955.122	4728.8
955.426	4646.09
955.731	4644.51
956.035	4632.53
956.339	4590.95
956.643	4531.29
956.948	4555.93
957.252	4505.76
957.556	4521.8
957.86	4502.82
958.163	4478.87
958.467	4416.95
958.771	4440.67
959.075	4425.08
959.378	4400.9
959.682	4358.19
959.985	4351.64
960.289	4316.84
960.592	4301.47
960.896	4282.26
961.199	4278.42
961.502	4317.97
961.805	4226.89
962.108	4232.77
962.411	4190.06
962.714	4146.9
963.017	4155.94
963.32	4156.61
963.623	4113.23
963.926	4103.28
964.228	4087.69
964.531	4061.25
964.833	4051.31
965.136	4047.92
965.438	4036.39
965.741	4005.88
966.043	4029.61
966.345	3972.21
966.648	4002.49
966.95	3945.77
967.252	3884.98
967.554	3936.51
967.856	3885.66
968.158	3873.23
968.46	3840.69
968.761	3857.64
969.063	3828.71
969.365	3859.45
969.666	3767.7
969.968	3764.53
970.269	3755.72
970.571	3782.39
970.872	3690.64
971.174	3713.01
971.475	3688.15
971.776	3696.29
972.077	3640.7
972.378	3651.32
972.679	3593.01
972.98	3615.39
973.281	3582.62
973.582	3600.7
973.883	3562.96
974.183	3581.94
974.484	3532.68
974.785	3493.35
975.085	3506.91
975.386	3479.34
975.686	3500.36
975.986	3491.77
976.287	3473.92
976.587	3451.77
976.887	3401.83
977.187	3408.16
977.487	3378.33
977.787	3332.68
978.087	3357.99
978.387	3357.54
978.687	3343.75
978.987	3316.41
979.286	3266.69
979.586	3288.16
979.885	3246.58
980.185	3269.63
980.484	3191.89
980.784	3234.6
981.083	3224.66
981.382	3205
981.682	3183.76
981.981	3147.15
982.28	3157.32
982.579	3109.41
982.878	3105.57
983.177	3105.34
983.475	3065.34
983.774	3092.69
984.073	3083.2
984.372	3052.69
984.67	3025.57
984.969	3025.57
985.267	2976.98
985.566	2996.19
985.864	2963.2
986.162	2971.33
986.461	2973.37
986.759	2955.74
987.057	2913.03
987.355	2934.05
987.653	2914.61
987.951	2887.72
988.249	2888.85
988.547	2882.07
988.844	2847.72
989.142	2826.48
989.44	2847.04
989.737	2814.05
990.035	2807.5
990.332	2773.15
990.63	2762.98
990.927	2749.87
991.224	2715.75
991.521	2773.15
991.819	2718.01
992.116	2707.84
992.413	2684.79
992.71	2668.29
993.006	2659.25
993.303	2638.01
993.6	2630.55
993.897	2687.05
994.193	2632.81
994.49	2621.96
994.787	2612.02
995.083	2586.26
995.379	2548.52
995.676	2559.14
995.972	2563.89
996.268	2505.13
996.565	2502.19
996.861	2508.3
997.157	2464.68
997.453	2453.61
997.749	2453.83
998.044	2439.14
998.34	2484.79
998.636	2434.63
998.932	2421.07
999.227	2414.51
999.523	2398.02
999.818	2369.54
1000.114	2335.19
1000.409	2310.79
1000.704	2320.73
1001	2313.27
1001.295	2316.44
1001.59	2323.67
1001.885	2297.23
1002.18	2294.74
1002.475	2266.95
1002.77	2268.98
1003.065	2226.04
1003.359	2240.05
1003.654	2233.95
1003.949	2182.88
1004.243	2217.23
1004.538	2183.33
1004.832	2169.55
1005.127	2140.85
1005.421	2176.33
1005.715	2111.47
1006.009	2128.87
1006.304	2135.65
1006.598	2074.86
1006.892	2110.34
1007.186	2066.5
1007.48	2066.73
1007.773	2035.09
1008.067	2021.98
1008.361	2045.93
1008.655	2012.72
1008.948	2006.61
1009.242	1975.43
1009.535	1994.64
1009.829	1972.26
1010.122	1992.15
1010.415	1956.9
1010.708	1923
1011.001	1913.73
1011.295	1895.88
1011.588	1892.49
1011.881	1876.9
1012.173	1874.19
1012.466	1856.56
1012.759	1879.84
1013.052	1854.08
1013.344	1821.53
1013.637	1844.58
1013.93	1789.44
1014.222	1788.31
1014.514	1804.13
1014.807	1757.35
1015.099	1774.76
1015.391	1741.54
1015.683	1733.85
1015.976	1759.61
1016.268	1724.36
1016.56	1739.73
1016.851	1717.81
1017.143	1692.72
1017.435	1654.08
1017.727	1703.57
1018.018	1657.7
1018.31	1656.34
1018.602	1634.42
1018.893	1647.3
1019.185	1625.61
1019.476	1620.64
1019.767	1604.36
1020.058	1596.46
1020.35	1567.53
1020.641	1575.89
1020.932	1545.61
1021.223	1523.69
1021.514	1525.95
1021.804	1532.05
1022.095	1539.96
1022.386	1486.85
1022.677	1484.82
1022.967	1496.12
1023.258	1464.71
1023.548	1458.61
1023.839	1485.95
1024.129	1428.55
1024.419	1437.14
1024.709	1435.1
1025	1438.27
1025.29	1380.87
1025.58	1440.08
1025.87	1404.6
1026.16	1398.95
1026.449	1355.78
1026.739	1403.69
1027.029	1350.13
1027.319	1331.38
1027.608	1318.04
1027.898	1365.27
1028.187	1344.26
1028.477	1304.94
1028.766	1302.9
1029.055	1303.36
1029.344	1302.68
1029.634	1286.86
1029.923	1299.97
1030.212	1273.98
1030.501	1243.92
1030.79	1238.27
1031.078	1239.18
1031.367	1241.44
1031.656	1216.58
1031.945	1209.12
1032.233	1205.73
1032.522	1216.8
1032.81	1146.07
1033.099	1161.21
1033.387	1180.65
1033.675	1170.25
1033.963	1147.43
1034.251	1161.89
1034.54	1142.46
1034.828	1138.61
1035.116	1128.67
1035.403	1115.79
1035.691	1103.81
1035.979	1100.42
1036.267	1108.11
1036.554	1080.08
1036.842	1060.88
1037.129	1088.22
1037.417	1105.17
1037.704	1032.18
1037.992	1039.18
1038.279	1024.94
1038.566	1044.61
1038.853	1044.61
1039.14	1044.61
