Data from breadboard_black_back_FLMS001491_00003.txt Node
Date: Wed Feb 08 10:49:51 GMT 2017
User: dcchb
Spectrometer: FLMS00149
Trigger mode: 0
Integration Time (sec): 2.000000E-2
Scans to average: 10
Electric dark correction enabled: true
Nonlinearity correction enabled: false
Boxcar width: 0
XAxis mode: Wavelengths
Number of Pixels in Spectrum: 2048
>>>>>Begin Spectral Data<<<<<
341.393	-0.01
341.776	-0.01
342.16	-0.01
342.543	-61.26
342.927	-53.12
343.31	-68.71
343.693	-58.32
344.077	-73.23
344.46	-54.25
344.843	-69.16
345.226	-55.15
345.61	-19.67
345.993	-7.7
346.376	-5.66
346.759	-2.73
347.142	29.36
347.525	53.09
347.908	47.67
348.291	68.91
348.674	97.38
349.057	118.17
349.44	133.99
349.823	135.8
350.206	176.7
350.588	212.18
350.971	219.64
351.354	241.11
351.737	235.46
352.119	244.05
352.502	281.56
352.884	282.69
353.267	292.18
353.65	303.48
354.032	279.75
354.414	313.42
354.797	340.77
355.179	326.3
355.562	321.11
355.944	327.89
356.326	313.65
356.709	348
357.091	343.71
357.473	357.26
357.855	337.83
358.238	352.29
358.62	364.27
359.002	338.28
359.384	351.62
359.766	357.94
360.148	353.87
360.53	366.76
360.912	348
361.294	340.32
361.676	336.7
362.057	341.67
362.439	360.65
362.821	348.23
363.203	338.06
363.584	336.47
363.966	345.06
364.348	328.56
364.729	347.77
365.111	338.51
365.493	359.52
365.874	329.47
366.256	332.63
366.637	347.32
367.019	356.13
367.4	342.35
367.781	318.17
368.163	322.01
368.544	348.9
368.925	356.59
369.306	340.09
369.688	326.53
370.069	349.81
370.45	335.57
370.831	370.82
371.212	361.56
371.593	349.58
371.974	351.16
372.355	342.8
372.736	360.43
373.117	365.4
373.498	346.64
373.879	367.89
374.26	354.78
374.641	369.47
375.021	347.77
375.402	375.34
375.783	357.04
376.163	357.94
376.544	379.64
376.925	356.13
377.305	366.76
377.686	385.29
378.066	367.43
378.447	384.83
378.827	379.41
379.208	388.45
379.588	373.54
379.968	392.97
380.349	399.52
380.729	402.24
381.109	436.36
381.489	394.1
381.87	390.94
382.25	424.38
382.63	399.52
383.01	409.92
383.39	398.17
383.77	417.6
384.15	442.46
384.53	415.34
384.91	449.69
385.29	435.91
385.67	437.04
386.049	426.19
386.429	427.32
386.809	441.33
387.189	436.81
387.568	458.73
387.948	444.49
388.328	449.47
388.707	456.02
389.087	440.65
389.466	458.5
389.846	480.2
390.225	455.34
390.605	470.48
390.984	491.95
391.363	483.81
391.743	457.6
392.122	482.46
392.501	501.44
392.881	514.1
393.26	500.99
393.639	493.53
394.018	498.28
394.397	524.49
394.776	539.41
395.155	545.51
395.534	516.13
395.913	546.86
396.292	524.49
396.671	552.06
397.05	545.28
397.429	544.6
397.808	537.15
398.186	536.02
398.565	542.34
398.944	560.88
399.323	569.69
399.701	571.95
400.08	574.89
400.458	571.04
400.837	593.64
401.215	582.34
401.594	595
401.972	597.03
402.351	595.9
402.729	586.86
403.107	592.51
403.486	606.07
403.864	621.44
404.242	619.18
404.62	638.61
404.999	624.6
405.377	631.83
405.755	654.43
406.133	659.18
406.511	699.18
406.889	672.28
407.267	647.65
407.645	703.7
408.023	677.93
408.401	697.59
408.779	687.65
409.156	733.3
409.534	728.1
409.912	736.01
410.29	727.65
410.667	749.12
411.045	745.05
411.422	770.36
411.8	762
412.178	768.78
412.555	795.22
412.933	807.42
413.31	819.63
413.687	802.45
414.065	831.38
414.442	821.21
414.819	845.84
415.197	836.12
415.574	843.35
415.951	845.84
416.328	862.79
416.705	879.06
417.082	868.66
417.46	903.92
417.837	907.08
418.214	918.61
418.591	904.82
418.967	943.69
419.344	945.72
419.721	950.02
420.098	941.43
420.475	959.06
420.852	960.64
421.228	953.18
421.605	994.76
421.982	984.59
422.358	1005.38
422.735	994.31
423.111	998.15
423.488	1038.15
423.864	1041.09
424.241	1046.06
424.617	1083.57
424.994	1074.99
425.37	1091.48
425.746	1081.31
426.123	1120.18
426.499	1108.21
426.875	1112.95
427.251	1122.44
427.627	1171.71
428.003	1171.25
428.379	1201.99
428.756	1212.61
429.132	1201.76
429.507	1231.82
429.883	1232.72
430.259	1248.54
430.635	1246.51
431.011	1295.55
431.387	1287.86
431.763	1350.01
432.138	1350.46
432.514	1345.71
432.89	1338.71
433.265	1396.33
433.641	1396.11
434.016	1419.84
434.392	1464.58
434.767	1458.7
435.143	1478.59
435.518	1480.4
435.894	1472.49
436.269	1545.48
436.644	1522.43
437.02	1558.36
437.395	1575.54
437.77	1587.51
438.145	1610.34
438.52	1628.87
438.895	1612.15
439.271	1654.41
439.646	1682.43
440.021	1677.91
440.395	1682.2
440.77	1687.4
441.145	1714.52
441.52	1725.59
441.895	1732.82
442.27	1755.42
442.645	1761.52
443.019	1771.69
443.394	1768.75
443.769	1810.33
444.143	1800.62
444.518	1830.67
444.892	1822.99
445.267	1837
445.641	1868.41
446.016	1889.43
446.39	1892.59
446.764	1898.47
447.139	1886.94
447.513	1895.98
447.887	1925.36
448.262	1925.36
448.636	1932.59
449.01	1978.92
449.384	1970.33
449.758	2026.83
450.132	2067.28
450.506	2065.47
450.88	2051.01
451.254	2066.15
451.628	2102.53
452.002	2141.17
452.376	2124
452.75	2126.26
453.123	2168.29
453.497	2207.39
453.871	2217.78
454.244	2246.48
454.618	2271.79
454.992	2297.33
455.365	2326.7
455.739	2397.21
456.112	2406.7
456.486	2415.97
456.859	2448.06
457.232	2492.12
457.606	2458.68
457.979	2506.59
458.352	2576.19
458.725	2602.4
459.099	2613.7
459.472	2653.48
459.845	2673.59
460.218	2702.29
460.591	2722.4
460.964	2766.92
461.337	2835.84
461.71	2876.75
462.083	2916.52
462.456	2892.79
462.829	2902.06
463.201	2956.52
463.574	2987.93
463.947	3043.52
464.32	3062.73
464.692	3119.9
465.065	3128.94
465.438	3191.54
465.81	3222.5
466.183	3265.89
466.555	3318.09
466.928	3330.29
467.3	3352.44
467.672	3450.52
468.045	3546.56
468.417	3573.45
468.789	3556.95
469.161	3617.52
469.534	3679.89
469.906	3677.63
470.278	3741.13
470.65	3828.81
471.022	3825.2
471.394	3920.33
471.766	3953.33
472.138	4003.27
472.51	4090.5
472.882	4160.55
473.253	4165.53
473.625	4240.55
473.997	4321.91
474.369	4398.29
474.74	4432.64
475.112	4508.79
475.484	4568.91
475.855	4682.12
476.227	4759.63
476.598	4842.57
476.97	4896.58
477.341	4984.49
477.713	5069.68
478.084	5060.42
478.455	5250.47
478.827	5245.95
479.198	5400.97
479.569	5430.8
479.94	5582.21
480.311	5610.91
480.682	5734.07
481.053	5877.35
481.424	6000.51
481.795	6007.29
482.166	6173.61
482.537	6236.43
482.908	6360.27
483.279	6421.51
483.65	6488.4
484.021	6603.43
484.391	6737.66
484.762	6785.8
485.133	6868.51
485.503	6966.13
485.874	7059.69
486.244	7180.81
486.615	7292.45
486.985	7356.85
487.356	7494.93
487.726	7585.55
488.097	7771.76
488.467	7748.93
488.837	7975.14
489.207	7983.73
489.578	8161.81
489.948	8164.74
490.318	8360.44
490.688	8404.06
491.058	8428.46
491.428	8605.86
491.798	8664.62
492.168	8921.56
492.538	8919.53
492.908	8967.21
493.278	9171.27
493.648	9086.75
494.017	9319.74
494.387	9369.46
494.757	9442.68
495.126	9569.9
495.496	9631.15
495.866	9743.46
496.235	9827.75
496.605	9855.77
496.974	9931.7
497.344	10003.56
497.713	10121.3
498.082	10200.4
498.452	10260.06
498.821	10285.14
499.19	10326.49
499.559	10408.07
499.928	10596.32
500.298	10621.85
500.667	10744.34
501.036	10735.97
501.405	10863.43
501.774	10865.01
502.143	10969.41
502.512	11059.13
502.88	11191.1
503.249	11162.18
503.618	11229.3
503.987	11226.81
504.356	11438.78
504.724	11448.05
505.093	11514.71
505.462	11606.69
505.83	11642.62
506.199	11829.73
506.567	11930.52
506.936	11977.52
507.304	12123.28
507.672	12094.58
508.041	12216.16
508.409	12290.74
508.777	12421.13
509.145	12511.97
509.514	12526.21
509.882	12575.25
510.25	12659.54
510.618	12802.14
510.986	12947.89
511.354	12961.45
511.722	13022.92
512.09	13141.56
512.458	13123.48
512.826	13346.75
513.193	13382.46
513.561	13530.03
513.929	13643.47
514.297	13798.72
514.664	13839.17
515.032	13841.66
515.4	14046.17
515.767	14069.45
516.135	14189.67
516.502	14132.04
516.869	14364.81
517.237	14448.87
517.604	14437.8
517.972	14544.01
518.339	14819.94
518.706	14753.95
519.073	14863.78
519.44	14941.74
519.808	15121.4
520.175	15213.15
520.542	15418.79
520.909	15518.67
521.276	15529.3
521.643	15699.91
522.009	15830.53
522.376	15935.61
522.743	15964.09
523.11	16236.85
523.477	16386
523.843	16475.94
524.21	16616.72
524.577	16754.57
524.943	16865.53
525.31	16854.68
525.676	17186.43
526.043	17178.29
526.409	17304.62
526.776	17541.22
527.142	17525.85
527.508	17648.34
527.874	17865.5
528.241	17829.8
528.607	17962.45
528.973	18138.04
529.339	18177.14
529.705	18458.48
530.071	18568.76
530.437	18580.51
530.803	18705.93
531.169	18915.87
531.535	18898.02
531.901	18928.3
532.267	19048.07
532.632	19165.13
532.998	19160.84
533.364	19393.37
533.73	19443.54
534.095	19556.31
534.461	19652.35
534.826	19761.5
535.192	19929.63
535.557	19930.76
535.923	20012.57
536.288	20048.27
536.653	20150.64
537.019	20105.45
537.384	20375.95
537.749	20404.87
538.114	20404.2
538.479	20580.69
538.845	20669.27
539.21	20541.59
539.575	20770.51
539.94	20849.83
540.305	20895.26
540.67	20930.28
541.034	21085.99
541.399	21140.45
541.764	21167.56
542.129	21240.33
542.494	21372.31
542.858	21528.01
543.223	21479.87
543.587	21534.56
543.952	21637.38
544.316	21698.4
544.681	21706.99
545.045	21894.1
545.41	21909.24
545.774	22033.3
546.138	22006.86
546.503	22213.41
546.867	22190.81
547.231	22331.38
547.595	22382
547.959	22478.94
548.324	22400.75
548.688	22531.37
549.052	22641.2
549.416	22710.8
549.779	22660.41
550.143	22760.52
550.507	23061.3
550.871	22895.66
551.235	23036.89
551.599	23175.2
551.962	23256.55
552.326	23388.3
552.689	23486.37
553.053	23441.4
553.417	23489.09
553.78	23867.61
554.143	23810.43
554.507	23880.26
554.87	23995.29
555.234	24157.77
555.597	24150.09
555.96	24250.2
556.323	24286.35
556.686	24348.27
557.05	24603.86
557.413	24673.91
557.776	24644.31
558.139	24850.63
558.502	24954.36
558.865	25022.15
559.228	25149.16
559.59	25279.1
559.953	25292.88
560.316	25464.63
560.679	25527.9
561.041	25769.48
561.404	25846.76
561.767	25991.62
562.129	26018.28
562.492	26167.89
562.854	26159.75
563.217	26214.44
563.579	26485.84
563.941	26620.98
564.304	26668.66
564.666	26814.2
565.028	26792.05
565.39	26913.18
565.753	27138.48
566.115	27300.28
566.477	27298.7
566.839	27467.96
567.201	27496.21
567.563	27629.09
567.925	27751.35
568.287	27780.27
568.648	27797.22
569.01	28013.71
569.372	28404.21
569.734	28136.87
570.095	28332.8
570.457	28414.15
570.819	28554.04
571.18	28643.53
571.542	28755.84
571.903	28802.84
572.265	28854.14
572.626	28928.94
572.987	29018.43
573.349	29191.31
573.71	29194.25
574.071	29330.29
574.432	29302.94
574.794	29679.43
575.155	29595.14
575.516	29603.05
575.877	29755.81
576.238	29702.71
576.599	29868.35
576.96	29839.2
577.32	29968.01
577.681	30085.07
578.042	30072.64
578.403	30012.53
578.763	30201.9
579.124	30168.23
579.485	30242.58
579.845	30420.43
580.206	30224.5
580.566	30345.63
580.927	30281.45
581.287	30569.8
581.648	30499.75
582.008	30530.93
582.368	30530.03
582.728	30513.99
583.089	30475.79
583.449	30459.52
583.809	30537.26
584.169	30620.88
584.529	30572.97
584.889	30770.7
585.249	30422.01
585.609	30556.02
585.969	30677.15
586.329	30587.2
586.688	30576.36
587.048	30618.39
587.408	30639.86
587.768	30501.78
588.127	30589.92
588.487	30457.26
588.846	30897.25
589.206	30553.53
589.565	30657.94
589.925	30835.56
590.284	30591.5
590.643	30802.79
591.003	30933.18
591.362	30870.36
591.721	30853.86
592.08	30811.61
592.44	30997.81
592.799	30926.63
593.158	30988.32
593.517	30802.34
593.876	30916.46
594.235	30798.72
594.593	30814.77
594.952	31018.15
595.311	30838.5
595.67	30888.89
596.029	31125.27
596.387	31164.59
596.746	31122.56
597.104	30963.24
597.463	31006.85
597.822	31186.96
598.18	31014.54
598.538	31097.02
598.897	31274.42
599.255	31055.21
599.613	31370.23
599.972	31180.41
600.33	31346.28
600.688	31152.39
601.046	31276.23
601.404	31405.26
601.762	31346.96
602.12	31616.33
602.478	31436.9
602.836	31524.81
603.194	31498.59
603.552	31528.42
603.91	31377.92
604.268	31554.86
604.625	31555.54
604.983	31593.28
605.341	31515.77
605.698	31718.02
606.056	31655.65
606.413	31666.5
606.771	31663.33
607.128	31784.23
607.485	31666.05
607.843	31671.24
608.2	31982.2
608.557	32090.67
608.914	31856.1
609.272	32124.34
609.629	32207.5
609.986	32212.92
610.343	32038.69
610.7	32346.71
611.057	32161.85
611.414	32126.15
611.771	32217.67
612.127	32290.21
612.484	32351.45
612.841	32365.69
613.198	32272.13
613.554	32193.49
613.911	32501.96
614.267	32530.66
614.624	32485.69
614.98	32535.18
615.337	32764.1
615.693	32532.46
616.05	32618.56
616.406	32704.21
616.762	32660.6
617.118	32612.46
617.475	32696.08
617.831	32898.1
618.187	32740.82
618.543	32776.3
618.899	32994.15
619.255	32986.24
619.611	33040.93
619.967	33037.99
620.323	32991.21
620.678	32963.19
621.034	32808.39
621.39	32898.1
621.746	32821.72
622.101	33227.36
622.457	33049.06
622.812	33036.41
623.168	33122.73
623.523	33113.69
623.879	33206.8
624.234	32847.48
624.589	32994.82
624.945	33174.71
625.3	33169.96
625.655	32960.48
626.01	33109.85
626.365	33033.69
626.72	33017.42
627.075	33041.6
627.43	33151.2
627.785	33155.5
628.14	33035.73
628.495	33177.19
628.85	32955.28
629.205	32873.92
629.559	33006.8
629.914	32984.2
630.269	32917.31
630.623	32762.29
630.978	32836.64
631.332	32930.42
631.687	32960.25
632.041	32786.69
632.396	32877.54
632.75	32858.56
633.104	32678
633.459	32657.43
633.813	32694.27
634.167	32682.52
634.521	32606.81
634.875	32608.62
635.229	32506.02
635.583	32348.51
635.937	32539.02
636.291	32274.84
636.645	32492.92
636.999	32446.36
637.352	32360.49
637.706	32211.34
638.06	32378.12
638.413	32368.17
638.767	32298.8
639.121	32260.15
639.474	32082.08
639.828	32042.99
640.181	32102.42
640.534	32021.97
640.888	31933.16
641.241	31745.37
641.594	31911.46
641.947	31943.33
642.301	31885.02
642.654	31825.59
643.007	31760.05
643.36	31762.31
643.713	31579.95
644.066	31884.8
644.419	31586.05
644.771	31497.69
645.124	31191.93
645.477	31106.29
645.83	30884.82
646.182	30772.28
646.535	30592.18
646.888	30688.22
647.24	30299.08
647.593	30672.4
647.945	30535.45
648.298	30214.11
648.65	30321.67
649.002	30248.46
649.355	30422.24
649.707	30335.46
650.059	30513.31
650.411	30998.72
650.763	30911.72
651.115	31024.71
651.467	31114.65
651.819	30915.11
652.171	30978.83
652.523	30855.45
652.875	30782.68
653.227	30830.36
653.578	30924.6
653.93	30869.23
654.282	30695.68
654.633	30626.3
654.985	30678.73
655.337	30653.64
655.688	30706.3
656.039	30869.91
656.391	30593.31
656.742	30479.41
657.094	30652.29
657.445	30716.47
657.796	30466.3
658.147	30391.5
658.498	30458.17
658.849	30545.17
659.2	30466.98
659.551	30393.76
659.902	30525.28
660.253	30487.77
660.604	30425.63
660.955	30422.69
661.306	30463.59
661.656	30407.32
662.007	30314.44
662.358	30309.92
662.708	30277.16
663.059	30300.88
663.409	30101.12
663.76	30255.69
664.11	30175.46
664.461	30250.72
664.811	30203.03
665.161	30208.91
665.511	30253.43
665.862	30222.24
666.212	30189.93
666.562	30122.13
666.912	30197.38
667.262	30150.61
667.612	30070.83
667.962	30097.95
668.312	30078.74
668.662	30210.04
669.011	30081
669.361	30045.75
669.711	29967.11
670.06	30050.04
670.41	29932.98
670.76	30011.17
671.109	29955.13
671.459	29901.57
671.808	29816.15
672.157	29957.39
672.507	29716.72
672.856	29637.4
673.205	29789.71
673.554	29848.69
673.904	29669.94
674.253	29894.34
674.602	29634.23
674.951	29368.93
675.3	29196.51
675.649	29541.13
675.998	29579.55
676.346	29554.69
676.695	29643.5
677.044	29317.86
677.393	29549.49
677.741	29467.69
678.09	29424.3
678.438	29440.12
678.787	29444.86
679.135	29536.84
679.484	29249.84
679.832	29299.78
680.181	29144.76
680.529	29318.54
680.877	29063.4
681.225	29121.71
681.573	29293.45
681.922	29027.92
682.27	28994.93
682.618	29063.85
682.966	28933.24
683.314	28972.11
683.661	28940.47
684.009	28719.23
684.357	28860.24
684.705	28669.29
685.053	28689.85
685.4	28712.23
685.748	28621.61
686.095	28540.48
686.443	28361.73
686.79	28438.33
687.138	28410.76
687.485	28438.33
687.832	28227.49
688.18	28314.04
688.527	28207.83
688.874	28146.36
689.221	28024.11
689.568	27981.17
689.915	27888.07
690.262	27983.66
690.609	27871.34
690.956	27824.79
691.303	27759.93
691.65	27494.86
691.997	27649.88
692.344	27356.33
692.69	27430.9
693.037	27437
693.383	27151.36
693.73	27328.98
694.077	27121.53
694.423	27117.01
694.769	26991.59
695.116	27008.99
695.462	26847.19
695.808	26843.8
696.155	26809
696.501	26689
696.847	26711.15
697.193	26467.99
697.539	26575.56
697.885	26362.68
698.231	26272.06
698.577	26306.86
698.923	26282.91
699.269	26089.02
699.614	25948
699.96	25806.09
700.306	25892.64
700.651	25676.82
700.997	25744.85
701.342	25707.78
701.688	25623.49
702.033	25483.38
702.379	25457.4
702.724	25520.44
703.069	25465.76
703.415	25196.84
703.76	25255.37
704.105	25241.58
704.45	25193.9
704.795	25094.02
705.14	24941.93
705.485	24979.89
705.83	24878.88
706.175	24867.58
706.52	24679.11
706.865	24816.73
707.209	24613.35
707.554	24549.17
707.899	24492
708.243	24472.79
708.588	24498.78
708.932	24140.14
709.277	24282.06
709.621	24325.22
709.966	24146.02
710.31	24280.7
710.654	24000.94
710.998	23988.06
711.342	24015.17
711.687	23974.27
712.031	23915.29
712.375	23833.71
712.719	23864.44
713.063	23716.42
713.407	23854.05
713.75	23685.24
714.094	23654.96
714.438	23545.13
714.782	23586.26
715.125	23344.91
715.469	23397.34
715.812	23317.56
716.156	23225.59
716.499	23238.24
716.843	23289.99
717.186	23106.95
717.53	23202.31
717.873	23340.16
718.216	23056.55
718.559	23057.91
718.902	22849.1
719.246	22983.11
719.589	22808.65
719.932	22772.27
720.275	22715.55
720.617	22890.91
720.96	22743.57
721.303	22771.82
721.646	22760.29
721.989	22429.68
722.331	22570.92
722.674	22468.32
723.016	22617.92
723.359	22497.02
723.701	22462.9
724.044	22206.63
724.386	22160.99
724.729	22278.27
725.071	22200.08
725.413	22183.58
725.755	22240.31
726.097	22057.26
726.439	21947.43
726.782	21987.2
727.124	22089.8
727.465	21975.23
727.807	21969.8
728.149	21899.75
728.491	21836.7
728.833	21829.02
729.175	21808.9
729.516	21672.18
729.858	21755.8
730.199	21808.9
730.541	21708.79
730.882	21613.88
731.224	21610.49
731.565	21643.94
731.906	21601.23
732.248	21462.47
732.589	21400.1
732.93	21253.44
733.271	21356.94
733.612	21365.07
733.953	21481.91
734.294	21229.94
734.635	21219.54
734.976	21229.26
735.317	21180.45
735.658	21237.85
735.999	21193.1
736.339	21152.88
736.68	21191.52
737.021	21029.72
737.361	20897.74
737.702	20989.04
738.042	20885.09
738.383	20867.91
738.723	20797.41
739.063	20873.11
739.404	20795.15
739.744	20840.57
740.084	20714.92
740.424	20807.12
740.764	20676.05
741.104	20748.82
741.444	20580.24
741.784	20571.42
742.124	20593.57
742.464	20550.63
742.804	20478.09
743.143	20451.43
743.483	20556.06
743.823	20401.03
744.162	20404.42
744.502	20352.9
744.841	20231.77
745.181	20255.5
745.52	20275.84
745.86	20236.52
746.199	20221.15
746.538	20273.35
746.877	20202.17
747.216	20192
747.556	19995.62
747.895	20129.63
748.234	19985.68
748.573	19987.03
748.911	19924.66
749.25	19919.46
749.589	19840.82
749.928	19868.39
750.267	19817.77
750.605	19696.19
750.944	19639.02
751.283	19618.91
751.621	19714.04
751.96	19538.46
752.298	19444.9
752.636	19525.8
752.975	19389.76
753.313	19381.17
753.651	19466.37
753.989	19231.57
754.327	19253.49
754.666	19132.59
755.004	19204.45
755.342	19180.05
755.679	19149.31
756.017	19029.77
756.355	19121.29
756.693	18928.75
757.031	18992.48
757.368	18869.55
757.706	18920.84
758.044	18735.09
758.381	18914.74
758.719	18819.15
759.056	18686.05
759.394	18634.98
759.731	18522.66
760.068	18540.06
760.405	18426.85
760.743	18425.49
761.08	18359.73
761.417	18338.71
761.754	18326.28
762.091	18298.26
762.428	18167.42
762.765	18035.22
763.102	18138.94
763.438	18011.26
763.775	17911.15
764.112	18016.01
764.449	17924.03
764.785	17841.1
765.122	17649.24
765.458	17636.58
765.795	17649.47
766.131	17570.37
766.467	17532.18
766.804	17377.38
767.14	17410.38
767.476	17405.4
767.812	17310.72
768.148	17361.56
768.485	17255.35
768.821	17080.44
769.157	17119.08
769.492	17090.84
769.828	16984.62
770.164	16880.22
770.5	16847.9
770.836	16752.09
771.171	16636.84
771.507	16631.19
771.842	16551.19
772.178	16538.99
772.513	16550.06
772.849	16407.46
773.184	16369.05
773.519	16326.34
773.855	16211.76
774.19	16198.2
774.525	16152.1
774.86	16166.34
775.195	16032.56
775.53	15989.4
775.865	15940.58
776.2	15797.08
776.535	15822.85
776.87	15812.68
777.205	15643.19
777.539	15593.25
777.874	15625.34
778.209	15422.86
778.543	15449.52
778.878	15373.59
779.212	15379.92
779.547	15265.57
779.881	15346.02
780.215	15226.03
780.55	15205.69
780.884	15079.14
781.218	14976.09
781.552	15073.26
781.886	14868.3
782.22	14907.62
782.554	14750.33
782.888	14727.06
783.222	14588.53
783.556	14550.34
783.889	14549.66
784.223	14480.28
784.557	14495.88
784.89	14443.22
785.224	14395.54
785.557	14308.76
785.891	14305.82
786.224	14203.23
786.558	14268.31
786.891	14122.33
787.224	13987.64
787.557	14020.41
787.891	13997.81
788.224	13940.41
788.557	13960.07
788.89	13897.7
789.223	13820.19
789.556	13657.48
789.888	13728.89
790.221	13744.26
790.554	13588.1
790.887	13604.15
791.219	13575.67
791.552	13518.73
791.884	13423.36
792.217	13395.34
792.549	13347.43
792.882	13280.31
793.214	13222.92
793.546	13255.68
793.879	13178.85
794.211	13077.38
794.543	13131.62
794.875	13082.58
795.207	13051.85
795.539	12948.35
795.871	12935.69
796.203	12836.71
796.535	12735.7
796.867	12768.46
797.198	12684.85
797.53	12667.9
797.862	12621.57
798.193	12678.75
798.525	12620.44
798.856	12584.51
799.188	12549.94
799.519	12519.2
799.85	12420.68
800.182	12344.07
800.513	12352.2
800.844	12226.78
801.175	12399.21
801.506	12300
801.837	12222.94
802.168	12205.54
802.499	12127.58
802.83	11999.22
803.161	11951.54
803.491	12075.37
803.822	11978.43
804.153	11916.28
804.483	11885.55
804.814	11791.09
805.145	11799.68
805.475	11818.88
805.805	11777.98
806.136	11721.49
806.466	11777.53
806.796	11717.87
807.126	11652.56
807.457	11555.84
807.787	11517.88
808.117	11502.28
808.447	11440.81
808.777	11494.82
809.107	11405.34
809.436	11401.72
809.766	11434.26
810.096	11401.95
810.426	11331.89
810.755	11326.69
811.085	11312.91
811.414	11263.64
811.744	11205.34
812.073	11144.1
812.403	11223.42
812.732	11130.54
813.061	11140.26
813.39	11095.06
813.719	11036.08
814.049	11111.78
814.378	11080.37
814.707	10928.06
815.036	10891.9
815.365	10974.61
815.693	10812.36
816.022	10774.17
816.351	10810.55
816.68	10706.15
817.008	10792.7
817.337	10655.98
817.665	10727.39
817.994	10634.96
818.322	10644.9
818.651	10652.59
818.979	10528.52
819.307	10611.68
819.636	10600.61
819.964	10496.43
820.292	10533.95
820.62	10559.03
820.948	10437.9
821.276	10519.26
821.604	10525.36
821.932	10497.56
822.259	10585.02
822.587	10463.67
822.915	10428.41
823.243	10547.05
823.57	10441.52
823.898	10486.72
824.225	10374.18
824.553	10455.53
824.88	10435.19
825.207	10452.82
825.535	10463.44
825.862	10470.67
826.189	10468.41
826.516	10418.24
826.843	10443.33
827.17	10491.24
827.497	10517.9
827.824	10481.29
828.151	10476.55
828.478	10433.61
828.805	10508.18
829.131	10405.36
829.458	10469.77
829.785	10333.27
830.111	10455.98
830.438	10442.88
830.764	10398.13
831.09	10424.34
831.417	10317.45
831.743	10380.96
832.069	10382.31
832.395	10392.71
832.722	10427.73
833.048	10396.55
833.374	10411.92
833.7	10358.36
834.026	10338.7
834.351	10382.99
834.677	10317.91
835.003	10327.17
835.329	10321.07
835.654	10287.62
835.98	10240.62
836.306	10281.3
836.631	10246.72
836.956	10244.01
837.282	10263.9
837.607	10211.69
837.932	10167.85
838.258	10238.59
838.583	10125.82
838.908	10141.41
839.233	10124.69
839.558	10084.24
839.883	10095.54
840.208	10057.57
840.533	10060.74
840.858	9987.07
841.182	9964.24
841.507	9998.14
841.832	9947.75
842.156	9967.63
842.481	9922.66
842.805	9848.09
843.13	9919.73
843.454	9878.37
843.778	9834.3
844.103	9825.72
844.427	9759.73
844.751	9811.25
845.075	9792.72
845.399	9708.43
845.723	9637.02
846.047	9639.96
846.371	9573.29
846.695	9544.82
847.019	9557.25
847.343	9526.97
847.666	9427.31
847.99	9461.21
848.313	9460.53
848.637	9324.49
848.96	9379.85
849.284	9283.81
849.607	9215.79
849.931	9176.69
850.254	9191.83
850.577	9027.32
850.9	9053.31
851.223	9042.69
851.546	8994.1
851.869	8977.15
852.192	9004.72
852.515	8896.48
852.838	8874.33
853.161	8897.61
853.483	8776.03
853.806	8751.62
854.129	8773.77
854.451	8683.15
854.774	8666.65
855.096	8686.31
855.419	8674.79
855.741	8685.86
856.063	8540.55
856.385	8566.77
856.708	8603.15
857.03	8521.8
857.352	8545.3
857.674	8468.24
857.996	8477.73
858.318	8453.77
858.64	8388.92
858.961	8357.28
859.283	8353.44
859.605	8310.5
859.926	8339.2
860.248	8384.62
860.57	8292.2
860.891	8309.82
861.212	8225.53
861.534	8205.42
861.855	8186.21
862.176	8181.92
862.498	8220.33
862.819	8202.26
863.14	8116.38
863.461	8078.19
863.782	8057.85
864.103	8098.76
864.424	8090.17
864.745	8082.03
865.065	8069.38
865.386	8039.55
865.707	8034.58
866.027	8022.83
866.348	7999.1
866.668	8014.24
866.989	7985.54
867.309	7890.17
867.63	7931.98
867.95	7967.01
868.27	7881.13
868.59	7887.91
868.91	7841.59
869.23	7903.96
869.55	7852.66
869.87	7846.56
870.19	7802.04
870.51	7830.29
870.83	7805.43
871.15	7801.14
871.469	7759.78
871.789	7810.4
872.109	7788.93
872.428	7727.47
872.748	7748.26
873.067	7783.51
873.386	7762.49
873.706	7720.23
874.025	7683.4
874.344	7639.33
874.663	7558.88
874.982	7597.3
875.301	7669.16
875.62	7604.76
875.939	7648.6
876.258	7604.76
876.577	7598.66
876.896	7573.35
877.214	7527.92
877.533	7533.35
877.852	7573.8
878.17	7568.37
878.489	7529.51
878.807	7477.98
879.125	7473.91
879.444	7406.34
879.762	7439.34
880.08	7419.68
880.398	7476.85
880.716	7433.24
881.034	7406.34
881.352	7420.81
881.67	7358.66
881.988	7414.48
882.306	7382.16
882.624	7388.72
882.941	7348.49
883.259	7276.18
883.577	7251.77
883.894	7213.36
884.212	7234.37
884.529	7226.46
884.846	7223.52
885.164	7236.86
885.481	7187.14
885.798	7226.69
886.115	7163.87
886.432	7220.14
886.75	7164.09
887.067	7094.26
887.383	7100.14
887.7	7122.06
888.017	7121.15
888.334	7016.52
888.651	7026.02
888.967	7027.82
889.284	7034.38
889.6	7001.38
889.917	6976.75
890.233	6923.65
890.55	6891.78
890.866	6927.94
891.182	6867.15
891.498	6819.92
891.815	6862.63
892.131	6834.61
892.447	6778.79
892.763	6819.02
893.079	6807.94
893.395	6710.09
893.71	6740.15
894.026	6717.32
894.342	6661.96
894.657	6615.63
894.973	6609.08
895.289	6636.87
895.604	6656.53
895.92	6543.99
896.235	6570.21
896.55	6602.3
896.865	6555.52
897.181	6492.24
897.496	6505.58
897.811	6452.47
898.126	6449.76
898.441	6414.51
898.756	6406.6
899.071	6366.6
899.386	6355.75
899.7	6303.1
900.015	6316.88
900.33	6254.06
900.644	6257.9
900.959	6226.71
901.273	6226.71
901.588	6160.73
901.902	6200.95
902.216	6111.01
902.531	6194.17
902.845	6109.43
903.159	6074.4
903.473	6013.61
903.787	6000.28
904.101	6019.71
904.415	6031.24
904.729	5956.67
905.042	6025.82
905.356	5936.55
905.67	5964.57
905.984	5956.67
906.297	5910.11
906.611	5893.39
906.924	5879.83
907.237	5874.86
907.551	5833.28
907.864	5767.52
908.177	5825.37
908.491	5743.79
908.804	5721.64
909.117	5702.21
909.43	5655.66
909.743	5662.66
910.056	5646.62
910.368	5583.12
910.681	5603.45
910.994	5558.94
911.307	5563.91
911.619	5510.8
911.932	5525.26
912.244	5511.71
912.557	5492.27
912.869	5464.47
913.181	5426.28
913.494	5476.45
913.806	5363.23
914.118	5332.05
914.43	5313.07
914.742	5333.63
915.054	5320.98
915.366	5275.55
915.678	5251.37
915.99	5215.22
916.302	5186.97
916.613	5187.65
916.925	5173.41
917.236	5175.44
917.548	5120.98
917.859	5154.88
918.171	5105.84
918.482	5107.87
918.794	5055.22
919.105	5052.96
919.416	4993.98
919.727	5008.67
920.038	4937.94
920.349	4943.81
920.66	4913.98
920.971	4878.5
921.282	4883.02
921.593	4884.83
921.903	4798.05
922.214	4827.66
922.525	4800.54
922.835	4815
923.146	4791.95
923.456	4744.49
923.767	4773.65
924.077	4704.04
924.387	4656.13
924.697	4688
925.008	4662.24
925.318	4649.58
925.628	4631.28
925.938	4657.26
926.248	4538.85
926.558	4523.03
926.867	4519.64
927.177	4548.79
927.487	4478.96
927.796	4476.25
928.106	4463.6
928.416	4460.89
928.725	4434.9
929.034	4464.95
929.344	4410.72
929.653	4411.62
929.962	4360.32
930.271	4347.22
930.581	4314
930.89	4281.46
931.199	4270.16
931.508	4257.5
931.817	4252.98
932.125	4246.2
932.434	4234.45
932.743	4198.97
933.051	4191.74
933.36	4150.84
933.669	4134.57
933.977	4145.19
934.286	4105.19
934.594	4120.78
934.902	4069.48
935.21	4075.13
935.519	4035.13
935.827	4035.81
936.135	4043.95
936.443	3972.31
936.751	3982.25
937.059	3956.49
937.367	3965.31
937.674	3933.89
937.982	3971.41
938.29	3902.03
938.597	3888.02
938.905	3867.23
939.213	3860
939.52	3808.7
939.827	3817.29
940.135	3798.53
940.442	3796.95
940.749	3735.71
941.056	3771.41
941.363	3732.32
941.67	3778.42
941.977	3713.33
942.284	3663.17
942.591	3667.23
942.898	3703.17
943.205	3663.84
943.511	3629.72
943.818	3637.86
944.125	3609.38
944.431	3605.99
944.738	3540.46
945.044	3589.72
945.35	3561.47
945.657	3551.08
945.963	3549.95
946.269	3531.19
946.575	3516.73
946.881	3486.22
947.187	3483.96
947.493	3441.7
947.799	3472.21
948.105	3398.09
948.41	3438.09
948.716	3392.89
949.022	3397.64
949.327	3358.77
949.633	3335.49
949.938	3356.28
950.244	3352.89
950.549	3342.27
950.854	3305.66
951.16	3304.31
951.465	3267.24
951.77	3284.87
952.075	3234.25
952.38	3231.99
952.685	3204.65
952.99	3196.06
953.294	3206
953.599	3198.77
953.904	3152.45
954.209	3139.11
954.513	3131.43
954.818	3124.65
955.122	3095.72
955.426	3104.09
955.731	3128.27
956.035	3059.34
956.339	3065.89
956.643	3076.06
956.948	3020.25
957.252	3041.04
957.556	2991.77
957.86	2977.53
958.163	3020.7
958.467	2928.95
958.771	2952
959.075	2946.12
959.378	2939.12
959.682	2944.09
959.985	2935.5
960.289	2899.57
960.592	2917.42
960.896	2860.7
961.199	2830.42
961.502	2831.1
961.805	2839.01
962.108	2811.66
962.411	2816.86
962.714	2805.79
963.017	2775.96
963.32	2803.98
963.623	2755.62
963.926	2747.26
964.228	2809.4
964.531	2701.38
964.833	2724.21
965.136	2714.26
965.438	2699.12
965.741	2697.09
966.043	2675.62
966.345	2672.01
966.648	2639.92
966.95	2667.94
967.252	2653.7
967.554	2641.27
967.856	2634.27
968.158	2622.06
968.46	2628.39
968.761	2577.09
969.063	2579.81
969.365	2570.77
969.666	2566.47
969.968	2511.56
970.269	2548.39
970.571	2514.27
970.872	2516.76
971.174	2505
971.475	2481.5
971.776	2513.37
972.077	2477.43
972.378	2457.1
972.679	2435.18
972.98	2447.61
973.281	2439.7
973.582	2440.37
973.883	2406.7
974.183	2389.75
974.484	2387.72
974.785	2401.05
975.085	2382.3
975.386	2371.45
975.686	2358.79
975.986	2334.84
976.287	2326.7
976.587	2301.62
976.887	2298.23
977.187	2330.77
977.487	2304.56
977.787	2290.77
978.087	2261.17
978.387	2275.18
978.687	2274.5
978.987	2238.8
979.286	2251
979.586	2222.53
979.885	2236.31
980.185	2169.42
980.484	2217.33
980.784	2146.82
981.083	2191.57
981.382	2171.23
981.682	2143.21
981.981	2129.42
982.28	2159.03
982.579	2145.24
982.878	2148.4
983.177	2111.12
983.475	2106.82
983.774	2105.92
984.073	2109.76
984.372	2090.78
984.67	2074.28
984.969	2080.61
985.267	2068.86
985.566	2041.97
985.864	2055.98
986.162	2036.32
986.461	2002.65
986.759	2023.44
987.057	2028.86
987.355	2005.58
987.653	1983.44
987.951	2004.68
988.249	2010.55
988.547	1988.18
988.844	1936.88
989.142	1936.21
989.44	1964.45
989.737	1910.22
990.035	1919.71
990.332	1883.1
990.63	1931.46
990.927	1907.28
991.224	1917.9
991.521	1899.6
991.819	1896.43
992.116	1885.59
992.413	1862.08
992.71	1841.07
993.006	1854.17
993.303	1844.23
993.6	1817.79
993.897	1822.76
994.193	1803.33
994.49	1809.66
994.787	1812.14
995.083	1801.07
995.379	1818.92
995.676	1749.09
995.972	1759.94
996.268	1758.81
996.565	1723.33
996.861	1720.39
997.157	1737.57
997.453	1751.8
997.749	1720.39
998.044	1704.35
998.34	1709.55
998.636	1702.09
998.932	1703.22
999.227	1661.86
999.523	1677.23
999.818	1627.06
1000.114	1645.14
1000.409	1641.52
1000.704	1642.43
1001	1624.58
1001.295	1631.58
1001.59	1592.94
1001.885	1600.85
1002.18	1602.2
1002.475	1611.02
1002.77	1555.88
1003.065	1591.13
1003.359	1571.02
1003.654	1544.13
1003.949	1541.41
1004.243	1559.94
1004.538	1533.96
1004.832	1519.49
1005.127	1511.36
1005.421	1515.88
1005.715	1485.6
1006.009	1497.12
1006.304	1473.39
1006.598	1494.41
1006.892	1484.92
1007.186	1480.85
1007.48	1447.63
1007.773	1429.78
1008.067	1449.89
1008.361	1414.19
1008.655	1405.37
1008.948	1383.68
1009.242	1424.13
1009.535	1429.1
1009.829	1387.07
1010.122	1355.2
1010.415	1426.16
1010.708	1393.4
1011.001	1355.88
1011.295	1345.04
1011.588	1360.85
1011.881	1366.96
1012.173	1354.75
1012.466	1333.28
1012.759	1311.36
1013.052	1318.82
1013.344	1305.04
1013.637	1310.23
1013.93	1294.87
1014.222	1271.14
1014.514	1292.61
1014.807	1239.5
1015.099	1259.84
1015.391	1245.15
1015.683	1284.7
1015.976	1253.29
1016.268	1224.81
1016.56	1260.97
1016.851	1245.15
1017.143	1216
1017.435	1233.85
1017.727	1241.08
1018.018	1180.29
1018.31	1185.49
1018.602	1200.41
1018.893	1194.3
1019.185	1174.42
1019.476	1155.21
1019.767	1162.89
1020.058	1135.78
1020.35	1134.65
1020.641	1147.75
1020.932	1123.35
1021.223	1134.87
1021.514	1120.63
1021.804	1150.92
1022.095	1118.83
1022.386	1086.06
1022.677	1108.88
1022.967	1101.88
1023.258	1070.92
1023.548	1078.38
1023.839	1046.06
1024.129	1062.78
1024.419	1076.79
1024.709	1057.81
1025	1044.25
1025.29	1053.29
1025.58	1051.26
1025.87	1020.3
1026.16	1031.82
1026.449	1009.22
1026.739	1005.61
1027.029	1001.54
1027.319	972.16
1027.608	986.17
1027.898	977.81
1028.187	975.55
1028.477	978.49
1028.766	966.29
1029.055	949.34
1029.344	959.51
1029.634	965.38
1029.923	972.16
1030.212	941.88
1030.501	926.29
1030.79	927.42
1031.078	903.24
1031.367	919.06
1031.656	914.99
1031.945	894.43
1032.233	920.41
1032.522	908.44
1032.81	872.51
1033.099	869.57
1033.387	873.86
1033.675	898.27
1033.963	865.27
1034.251	856.01
1034.54	865.05
1034.828	849.91
1035.116	864.6
1035.403	853.52
1035.691	834.09
1035.979	846.29
1036.267	832.96
1036.554	820.98
1036.842	825.27
1037.129	845.39
1037.417	813.98
1037.704	812.39
1037.992	821.21
1038.279	806.74
1038.566	819.63
1038.853	819.63
1039.14	819.63
