Data from breadboard_white_FLMS001491_00022.txt Node
Date: Wed Feb 08 10:47:29 GMT 2017
User: dcchb
Spectrometer: FLMS00149
Trigger mode: 0
Integration Time (sec): 2.000000E-2
Scans to average: 10
Electric dark correction enabled: true
Nonlinearity correction enabled: false
Boxcar width: 0
XAxis mode: Wavelengths
Number of Pixels in Spectrum: 2048
>>>>>Begin Spectral Data<<<<<
341.393	-42.26
341.776	-42.26
342.16	-42.26
342.543	-53.56
342.927	-71.18
343.31	-65.31
343.693	-70.73
344.077	-66.21
344.46	-61.24
344.843	-54.69
345.226	-30.28
345.61	-31.64
345.993	-4.52
346.376	-3.62
346.759	-0.45
347.142	33.9
347.525	50.39
347.908	52.88
348.291	63.73
348.674	84.97
349.057	102.82
349.44	134.91
349.823	141.92
350.206	167.23
350.588	232.54
350.971	231.86
351.354	250.39
351.737	248.13
352.119	278.86
352.502	287.45
352.884	307.79
353.267	296.26
353.65	304.85
354.032	324.74
354.414	307.79
354.797	341.23
355.179	320.9
355.562	345.3
355.944	350.5
356.326	341.23
356.709	356.15
357.091	367.22
357.473	373.1
357.855	382.59
358.238	370.61
358.62	369.48
359.002	370.61
359.384	368.8
359.766	383.27
360.148	372.65
360.53	370.16
360.912	349.82
361.294	366.09
361.676	361.8
362.057	375.81
362.439	369.48
362.821	357.73
363.203	334.68
363.584	362.7
363.966	367
364.348	354.11
364.729	371.97
365.111	343.49
365.493	349.37
365.874	355.02
366.256	372.19
366.637	355.02
367.019	363.83
367.4	399.31
367.781	344.4
368.163	352.31
368.544	361.35
368.925	351.63
369.306	368.35
369.688	354.57
370.069	350.05
370.45	359.09
370.831	350.95
371.212	383.72
371.593	365.64
371.974	368.35
372.355	378.97
372.736	367.9
373.117	365.87
373.498	389.59
373.879	374.91
374.26	367.22
374.641	357.28
375.021	397.96
375.402	366.77
375.783	370.61
376.163	392.53
376.544	394.79
376.925	402.7
377.305	397.28
377.686	392.08
378.066	402.25
378.447	402.02
378.827	419.65
379.208	395.47
379.588	419.2
379.968	414.23
380.349	420.55
380.729	421.46
381.109	413.1
381.489	408.8
381.87	404.28
382.25	423.72
382.63	432.53
383.01	433.21
383.39	426.66
383.77	456.49
384.15	458.07
384.53	437.05
384.91	446.09
385.29	467.33
385.67	473.89
386.049	441.57
386.429	471.4
386.809	478.41
387.189	468.69
387.568	501.23
387.948	494.9
388.328	507.11
388.707	496.94
389.087	500.33
389.466	502.36
389.846	518.4
390.225	512.98
390.605	532.64
390.984	517.27
391.363	539.19
391.743	538.06
392.122	551.4
392.501	546.43
392.881	546.43
393.26	600.66
393.639	579.65
394.018	606.31
394.397	620.1
394.776	594.79
395.155	599.31
395.534	617.38
395.913	609.7
396.292	636.14
396.671	629.59
397.05	611.74
397.429	676.14
397.808	651.51
398.186	655.58
398.565	676.14
398.944	704.16
399.323	701.22
399.701	724.95
400.08	730.83
400.458	745.07
400.837	757.04
401.215	771.73
401.594	739.87
401.972	782.58
402.351	807.89
402.729	816.25
403.107	814.67
403.486	834.1
403.864	842.01
404.242	850.6
404.62	877.04
404.999	902.12
405.377	906.87
405.755	914.1
406.133	954.78
406.511	961.78
406.889	987.09
407.267	985.51
407.645	1030.93
408.023	992.97
408.401	1080.65
408.779	1073.42
409.156	1090.59
409.534	1104.83
409.912	1122.91
410.29	1146.86
410.667	1196.35
411.045	1221.66
411.422	1232.06
411.8	1236.58
412.178	1287.2
412.555	1298.27
412.933	1330.59
413.31	1330.13
413.687	1387.31
414.065	1373.07
414.442	1363.81
414.819	1438.38
415.197	1444.71
415.574	1505.05
415.951	1502.79
416.328	1538.49
416.705	1520.19
417.082	1559.28
417.46	1582.78
417.837	1605.61
418.214	1637.25
418.591	1667.53
418.967	1658.04
419.344	1691.93
419.721	1729.45
420.098	1712.05
420.475	1777.13
420.852	1776.45
421.228	1820.07
421.605	1855.32
421.982	1860.74
422.358	1875.2
422.735	1893.96
423.111	1916.79
423.488	1950.01
423.864	1989.78
424.241	1989.78
424.617	1997.91
424.994	2020.51
425.37	2062.77
425.746	2078.59
426.123	2114.29
426.499	2152.94
426.875	2181.86
427.251	2182.99
427.627	2274.74
428.003	2269.32
428.379	2311.58
428.756	2360.39
429.132	2349.32
429.507	2433.83
429.883	2409.88
430.259	2465.25
430.635	2529.65
431.011	2491.01
431.387	2578.01
431.763	2644.22
432.138	2652.13
432.514	2679.48
432.89	2689.65
433.265	2787.27
433.641	2801.96
434.016	2879.25
434.392	2896.87
434.767	2942.52
435.143	2975.97
435.518	2959.02
435.894	3023.88
436.269	3091.67
436.644	3160.37
437.02	3161.72
437.395	3174.15
437.77	3222.29
438.145	3273.36
438.52	3296.41
438.895	3345.9
439.271	3412.11
439.646	3462.28
440.021	3469.51
440.395	3459.57
440.77	3457.31
441.145	3520.13
441.52	3578.21
441.895	3572.79
442.27	3597.42
442.645	3629.96
443.019	3692.11
443.394	3672.67
443.769	3730.3
444.143	3707.93
444.518	3786.12
444.892	3795.83
445.267	3830.86
445.641	3881.25
446.016	3928.94
446.39	3933
446.764	3929.16
447.139	3993.79
447.513	3968.26
447.887	3993.12
448.262	4021.82
448.636	4096.16
449.01	4145.43
449.384	4171.19
449.758	4189.04
450.132	4258.65
450.506	4298.19
450.88	4340.45
451.254	4359.66
451.628	4410.96
452.002	4494.35
452.376	4500.22
452.75	4572.99
453.123	4604.17
453.497	4666.09
453.871	4664.96
454.244	4763.94
454.618	4808.46
454.992	4877.16
455.365	4927.55
455.739	5023.6
456.112	5105.18
456.486	5136.59
456.859	5175.01
457.232	5288.9
457.606	5249.35
457.979	5323.93
458.352	5511.49
458.725	5539.29
459.099	5542.45
459.472	5716.23
459.845	5735.67
460.218	5825.61
460.591	5846.63
460.964	5840.07
461.337	6014.31
461.71	6128.65
462.083	6236.9
462.456	6276.67
462.829	6318.93
463.201	6346.27
463.574	6434.18
463.947	6467.63
464.32	6676.66
464.692	6743.55
465.065	6778.58
465.438	6913.94
465.81	7017.44
466.183	7107.38
466.555	7283.65
466.928	7244.33
467.3	7229.87
467.672	7400.03
468.045	7637.54
468.417	7655.17
468.789	7687.71
469.161	7798.66
469.534	7902.39
469.906	8078.43
470.278	8168.82
470.65	8217.86
471.022	8380.8
471.394	8626.21
471.766	8656.72
472.138	8778.07
472.51	8932.65
472.882	9121.34
473.253	9163.15
473.625	9410.37
473.997	9557.26
474.369	9629.35
474.74	9748.44
475.112	9931.49
475.484	10114.08
475.855	10267.98
476.227	10373.96
476.598	10651.02
476.97	10831.13
477.341	10992.03
477.713	11154.06
478.084	11301.62
478.455	11544.1
478.827	11650.77
479.198	12053.02
479.569	12076.52
479.94	12341.37
480.311	12465.21
480.682	12740.46
481.053	13091.18
481.424	13323.04
481.795	13437.84
482.166	13592.64
482.537	13849.35
482.908	14116.24
483.279	14264.48
483.65	14554.87
484.021	14796.22
484.391	14905.37
484.762	15152.14
485.133	15222.65
485.503	15584.9
485.874	15883.88
486.244	16023.99
486.615	16330.19
486.985	16562.73
487.356	16845.43
487.726	17066.67
488.097	17342.82
488.467	17377.17
488.837	17760.89
489.207	17956.59
489.578	18156.36
489.948	18404.94
490.318	18679.06
490.688	18753.63
491.058	19063
491.428	19404.01
491.798	19414.18
492.168	19921.96
492.538	19922.19
492.908	20160.15
493.278	20510.87
493.648	20466.13
494.017	20767.36
494.387	20955.38
494.757	21151.99
495.126	21422.26
495.496	21442.37
495.866	21652.09
496.235	21991.29
496.605	22128.46
496.974	22286.42
497.344	22501.1
497.713	22699.52
498.082	22854.09
498.452	23084.82
498.821	23136.79
499.19	23304.7
499.559	23508.99
499.928	23692.26
500.298	23684.57
500.667	24109.87
501.036	24118.01
501.405	24287.72
501.774	24323.65
502.143	24669.41
502.512	24741.72
502.88	24937.88
503.249	25079.57
503.618	25260.58
503.987	25448.14
504.356	25523.4
504.724	25695.6
505.093	25856.72
505.462	25977.62
505.83	26145.53
506.199	26345.07
506.567	26766.98
506.936	26828
507.304	26991.83
507.672	27180.98
508.041	27384.59
508.409	27610.35
508.777	27807.86
509.145	28103.22
509.514	28148.19
509.882	28341.4
510.25	28385.24
510.618	28625.01
510.986	28781.16
511.354	29145.22
511.722	29380.02
512.09	29573.91
512.458	29639.9
512.826	29984.07
513.193	30014.58
513.561	30109.04
513.929	30427
514.297	30676.03
514.664	30939.98
515.032	31167.09
515.4	31345.62
515.767	31524.59
516.135	31636
516.502	31439.85
516.869	32184.46
517.237	32373.84
517.604	32345.36
517.972	32654.73
518.339	32841.17
518.706	32983.54
519.073	33266.02
519.44	33559.12
519.808	33947.36
520.175	33870.3
520.542	34355.93
520.909	34478.42
521.276	34586.21
521.643	35030.49
522.009	35126.31
522.376	35432.97
522.743	35797.7
523.11	36054.42
523.477	36348.65
523.843	36673.61
524.21	36941.18
524.577	37263.43
524.943	37482.4
525.31	37652.57
525.676	38011.88
526.043	38151.54
526.409	38427.92
526.776	38865.42
527.142	38934.8
527.508	39078.52
527.874	39408.91
528.241	39697.49
528.607	39824.04
528.973	40110.13
529.339	40269.68
529.705	40624.69
530.071	40944.69
530.437	41205.92
530.803	41406.14
531.169	41682.75
531.535	41653.59
531.901	41853.36
532.267	42088.84
532.632	42267.82
532.998	42469.17
533.364	42747.8
533.73	42760.46
534.095	43089.71
534.461	43145.76
534.826	43444.51
535.192	43667.55
535.557	43948.45
535.923	43851.28
536.288	44186.18
536.653	44372.39
537.019	44187.99
537.384	44458.94
537.749	44766.96
538.114	44921.98
538.479	44901.64
538.845	45251.69
539.21	45017.57
539.575	45368.52
539.94	45528.52
540.305	45657.33
540.67	45692.36
541.034	45891.45
541.399	46066.59
541.764	46256.86
542.129	46300.25
542.494	46477.2
542.858	46559
543.223	46629.51
543.587	46883.74
543.952	46934.81
544.316	47058.88
544.681	47240.79
545.045	47378.64
545.41	47573.21
545.774	47642.14
546.138	47754.22
546.503	47899.98
546.867	47946.99
547.231	48250.71
547.595	48314.21
547.959	48468.56
548.324	48322.57
548.688	48638.04
549.052	48740.87
549.416	48745.61
549.779	48800.98
550.143	48997.81
550.507	49264.47
550.871	49348.98
551.235	49294.3
551.599	49592.14
551.962	49758.01
552.326	49848.18
552.689	50100.83
553.053	49918.24
553.417	50232.8
553.78	50477.77
554.143	50466.92
554.507	50582.17
554.87	50686.8
555.234	51138.77
555.597	50857.65
555.96	51047.7
556.323	51177.86
556.686	51325.88
557.05	51522.04
557.413	51645.2
557.776	51736.72
558.139	51954.11
558.502	52033.43
558.865	52122.25
559.228	52332.18
559.59	52468.68
559.953	52379.64
560.316	52689.91
560.679	52789.8
561.041	52956.12
561.404	53191.82
561.767	53361.31
562.129	53209.45
562.492	53528.99
562.854	53568.08
563.217	53553.62
563.579	53742.09
563.941	53965.81
564.304	54138.46
564.666	54212.81
565.028	54263.21
565.39	54456.87
565.753	54560.83
566.115	54658.45
566.477	54761.95
566.839	54834.26
567.201	55063.18
567.563	55062.51
567.925	55224.54
568.287	55248.49
568.648	55351.54
569.01	55491.65
569.372	55693.68
569.734	55552.21
570.095	55750.17
570.457	55892.32
570.819	55979.32
571.18	55939.09
571.542	56128.02
571.903	56148.13
572.265	56182.93
572.626	56259.54
572.987	56363.72
573.349	56437.61
573.71	56559.87
574.071	56678.06
574.432	56653.88
574.794	56864.49
575.155	56845.28
575.516	56848.67
575.877	56962.34
576.238	56916.92
576.599	57106.97
576.96	57081.44
577.32	57173.64
577.681	57225.61
578.042	57301.54
578.403	57285.5
578.763	57301.54
579.124	57315.56
579.485	57450.01
579.845	57484.82
580.206	57431.03
580.566	57414.99
580.927	57538.37
581.287	57628.09
581.648	57464.03
582.008	57628.99
582.368	57551.71
582.728	57655.89
583.089	57520.3
583.449	57594.42
583.809	57621.76
584.169	57610.91
584.529	57542.22
584.889	57766.84
585.249	57670.35
585.609	57588.32
585.969	57740.4
586.329	57703.12
586.688	57679.84
587.048	57767.07
587.408	57694.3
587.768	57680.52
588.127	57648.88
588.487	57663.79
588.846	57811.59
589.206	57626.06
589.565	57704.47
589.925	57774.07
590.284	57717.35
590.643	57721.19
591.003	57809.78
591.362	57864.92
591.721	57789.44
592.08	57849.55
592.44	57866.28
592.799	57914.41
593.158	57816.56
593.517	57807.29
593.876	57929.1
594.235	57801.19
594.593	57863.56
594.952	57923.9
595.311	57823.34
595.67	57883.9
596.029	58000.96
596.387	57996.44
596.746	58056.78
597.104	57858.59
597.463	57941.98
597.822	58041.86
598.18	57891.81
598.538	57947.4
598.897	58089.77
599.255	57921.41
599.613	58226.72
599.972	58061.3
600.33	58079.83
600.688	58020.85
601.046	58170.22
601.404	58257.23
601.762	58207.06
602.12	58299.03
602.478	58257.68
602.836	58264.91
603.194	58186.04
603.552	58279.15
603.91	58187.17
604.268	58281.86
604.625	58247.73
604.983	58386.71
605.341	58287.51
605.698	58422.42
606.056	58412.7
606.413	58373.15
606.771	58492.47
607.128	58560.04
607.485	58380.39
607.843	58428.75
608.2	58620.15
608.557	58639.14
608.914	58537.22
609.272	58638.68
609.629	58737.44
609.986	58812.01
610.343	58651.57
610.7	58793.03
611.057	58760.49
611.414	58729.08
611.771	58756.42
612.127	58828.74
612.484	58861.96
612.841	58930.2
613.198	58814.95
613.554	58869.64
613.911	59025.11
614.267	58941.95
614.624	58953.48
614.98	59021.72
615.337	59174.49
615.693	59067.83
616.05	59031.22
616.406	59245.67
616.762	59116.64
617.118	59106.24
617.475	59137.65
617.831	59183.98
618.187	59267.37
618.543	59290.64
618.899	59360.25
619.255	59265.56
619.611	59275.73
619.967	59370.64
620.323	59328.16
620.678	59314.37
621.034	59308.05
621.39	59259.46
621.746	59221.95
622.101	59515.27
622.457	59256.97
622.812	59303.98
623.168	59383.07
623.523	59363.86
623.879	59498.55
624.234	59275.5
624.589	59382.85
624.945	59366.12
625.3	59419.45
625.655	59373.81
626.01	59394.37
626.365	59395.73
626.72	59363.86
627.075	59339.91
627.43	59370.64
627.785	59295.16
628.14	59319.8
628.495	59362.73
628.85	59286.35
629.205	59231.44
629.559	59341.04
629.914	59228.95
630.269	59261.49
630.623	59169.74
630.978	59117.32
631.332	59227.14
631.687	59235.28
632.041	59108.5
632.396	59142.85
632.75	59008.17
633.104	59079.8
633.459	59039.35
633.813	59008.39
634.167	58899.92
634.521	58937.66
634.875	58955.06
635.229	58907.15
635.583	58798
635.937	58806.82
636.291	58761.17
636.645	58800.04
636.999	58767.49
637.352	58804.33
637.706	58614.5
638.06	58740.83
638.413	58687.72
638.767	58518.24
639.121	58633.49
639.474	58434.62
639.828	58513.49
640.181	58485.92
640.534	58504.45
640.888	58471
641.241	58347.39
641.594	58421.74
641.947	58401.63
642.301	58298.13
642.654	58313.95
643.007	58348.75
643.36	58280.95
643.713	58191.01
644.066	58256.1
644.419	58070.11
644.771	58038.25
645.124	57776.79
645.477	57774.53
645.83	57596.23
646.182	57392.84
646.535	57229.68
646.888	57349.23
647.24	57173.64
647.593	57411.6
647.945	57299.96
648.298	57126.41
648.65	57142
649.002	57031.95
649.355	57157.37
649.707	57058.61
650.059	57220.19
650.411	57469.9
650.763	57465.61
651.115	57753.96
651.467	57679.84
651.819	57671.7
652.171	57507.41
652.523	57505.83
652.875	57496.57
653.227	57349.9
653.578	57525.72
653.93	57437.36
654.282	57362.79
654.633	57296.35
654.985	57369.34
655.337	57319.4
655.688	57254.09
656.039	57357.81
656.391	57170.7
656.742	57256.35
657.094	57243.92
657.445	57302.22
657.796	57252.05
658.147	57153.53
658.498	57158.95
658.849	57241.88
659.2	57176.12
659.551	57081.44
659.902	57149.91
660.253	57128.89
660.604	57093.87
660.955	56995.34
661.306	57134.32
661.656	57077.82
662.007	57064.04
662.358	56972.74
662.708	56993.53
663.059	56979.74
663.409	56844.83
663.76	57039.63
664.11	57029.46
664.461	56979.74
664.811	57012.29
665.161	57000.08
665.511	56855.23
665.862	56947.2
666.212	56947.66
666.562	56892.74
666.912	56881.22
667.262	56894.1
667.612	56872.4
667.962	56860.65
668.312	56814.55
668.662	56900.2
669.011	56854.1
669.361	56776.13
669.711	56783.59
670.06	56690.71
670.41	56726.87
670.76	56736.36
671.109	56723.48
671.459	56634.44
671.808	56615.01
672.157	56645.52
672.507	56494.11
672.856	56488.91
673.205	56513.99
673.554	56539.98
673.904	56515.12
674.253	56576.59
674.602	56483.49
674.951	56119.43
675.3	56022.03
675.649	56358.97
675.998	56383.15
676.346	56388.35
676.695	56433.09
677.044	56240.33
677.393	56304.96
677.741	56310.16
678.09	56321.68
678.438	56178.18
678.787	56194.45
679.135	56251.4
679.484	56016.38
679.832	56126.66
680.181	56033.1
680.529	56022.93
680.877	55960.56
681.225	55930.05
681.573	56040.56
681.922	55794.47
682.27	55819.1
682.618	55730.74
682.966	55740.46
683.314	55803.5
683.661	55690.51
684.009	55534.58
684.357	55460.24
684.705	55442.61
685.053	55487.58
685.4	55424.08
685.748	55301.6
686.095	55258.43
686.443	55150.64
686.79	55075.39
687.138	55246.46
687.485	55148.83
687.832	55010.53
688.18	54945.67
688.527	54871.55
688.874	54888.95
689.221	54786.36
689.568	54752.23
689.915	54698
690.262	54655.51
690.609	54575.06
690.956	54509.53
691.303	54484.9
691.65	54300.72
691.997	54333.26
692.344	54142.08
692.69	54062.76
693.037	54108.86
693.383	53894.18
693.73	54054.17
694.077	53832.26
694.423	53819.38
694.769	53645.37
695.116	53706.16
695.462	53525.6
695.808	53469.55
696.155	53434.3
696.501	53229.79
696.847	53274.31
697.193	53013.3
697.539	53083.12
697.885	52810.14
698.231	52800.42
698.577	52785.5
698.923	52743.7
699.269	52502.12
699.614	52413.09
699.96	52348.68
700.306	52396.14
700.651	52208.12
700.997	52124.51
701.342	52095.81
701.688	52053.77
702.033	51847.9
702.379	51850.16
702.724	51761.8
703.069	51732.43
703.415	51371.76
703.76	51363.85
704.105	51397.29
704.45	51264.64
704.795	51153.68
705.14	51005.89
705.485	50961.82
705.83	50842.96
706.175	50926.8
706.52	50807.7
706.865	50560.48
707.209	50462.85
707.554	50489.07
707.899	50538.11
708.243	50399.35
708.588	50323.2
708.932	50148.06
709.277	50039.14
709.621	50105.35
709.966	49849.31
710.31	49881.63
710.654	49492.71
710.998	49657.68
711.342	49661.75
711.687	49551.47
712.031	49448.19
712.375	49267.86
712.719	49284.58
713.063	49190.12
713.407	49238.71
713.75	49143.57
714.094	49053.17
714.438	48892.73
714.782	48993.29
715.125	48830.35
715.469	48765.05
715.812	48566.63
716.156	48439.86
716.499	48471.04
716.843	48255.45
717.186	48264.04
717.53	48402.34
717.873	48351.05
718.216	48156.7
718.559	47903.83
718.902	47753.55
719.246	47808.46
719.589	47708.35
719.932	47512.65
720.275	47612.53
720.617	47581.57
720.96	47479.66
721.303	47404.86
721.646	47402.6
721.989	47236.5
722.331	47227.01
722.674	47220
723.016	47128.93
723.359	46895.49
723.701	47083.96
724.044	46727.13
724.386	46620.47
724.729	46735.49
725.071	46531.66
725.413	46594.71
725.755	46576.18
726.097	46304.32
726.439	46036.76
726.782	46138.22
727.124	46391.32
727.465	46094.16
727.807	46081.27
728.149	45916.76
728.491	45747.05
728.833	45885.57
729.175	45667.05
729.516	45709.08
729.858	45501.4
730.199	45484.91
730.541	45528.75
730.882	45476.09
731.224	45488.52
731.565	45164.91
731.906	45241.97
732.248	45190.68
732.589	45051.7
732.93	44987.74
733.271	45032.26
733.612	44991.36
733.953	44846.5
734.294	44713.85
734.635	44695.1
734.976	44665.49
735.317	44459.85
735.658	44551.14
735.999	44474.31
736.339	44358.16
736.68	44391.38
737.021	44177.37
737.361	44052.18
737.702	44126.3
738.042	44085.62
738.383	43965.85
738.723	43934.66
739.063	43789.13
739.404	43861.45
739.744	43755.23
740.084	43619.42
740.424	43629.81
740.764	43498.74
741.104	43641.56
741.444	43466.2
741.784	43265.98
742.124	43536.71
742.464	43201.35
742.804	43357.5
743.143	43115.02
743.483	43272.08
743.823	43020.34
744.162	42854.69
744.502	42914.58
744.841	42778.99
745.181	42846.56
745.52	42592.78
745.86	42651.53
746.199	42562.04
746.538	42573.34
746.877	42489.73
747.216	42402.5
747.556	42272.11
747.895	42213.81
748.234	41959.35
748.573	42096.97
748.911	41910.31
749.25	41846.58
749.589	41743.99
749.928	41753.48
750.267	41725.23
750.605	41481.4
750.944	41355.07
751.283	41288.86
751.621	41476.88
751.96	41142.42
752.298	41184
752.636	41042.54
752.975	40946.72
753.313	40690.46
753.651	40913.5
753.989	40671.92
754.327	40558.93
754.666	40426.96
755.004	40545.15
755.342	40457.47
755.679	40317.36
756.017	40007.31
756.355	40146.06
756.693	39949.46
757.031	40014.77
757.368	39777.03
757.706	39735.68
758.044	39739.52
758.381	39563.03
758.719	39301.34
759.056	39367.55
759.394	39235.35
759.731	38990.61
760.068	38873.55
760.405	38841.92
760.743	38748.81
761.08	38707.46
761.417	38505.2
761.754	38408.93
762.091	38259.56
762.428	38205.32
762.765	37953.13
763.102	37973.01
763.438	37814.6
763.775	37700.25
764.112	37608.05
764.449	37681.04
764.785	37336.65
765.122	37180.04
765.458	37063.43
765.795	37032.92
766.131	37109.08
766.467	36914.28
766.804	36811.24
767.14	36481.98
767.476	36520.17
767.812	36175.09
768.148	36276.11
768.485	36039.5
768.821	35812.39
769.157	35819.62
769.492	35717.03
769.828	35651.72
770.164	35381.44
770.5	35211.73
770.836	35255.8
771.171	35111.17
771.507	34905.97
771.842	34763.61
772.178	34832.76
772.513	34729.93
772.849	34501.47
773.184	34269.83
773.519	34320.91
773.855	34017.64
774.19	34082.49
774.525	34038.2
774.86	33739.68
775.195	33840.69
775.53	33544.65
775.865	33447.93
776.2	33143.76
776.535	33025.57
776.87	32976.53
777.205	32860.38
777.539	32721.63
777.874	32819.48
778.209	32349.88
778.543	32400.05
778.878	32214.97
779.212	32287.51
779.547	32058.37
779.881	32194.18
780.215	31877.58
780.55	32013.4
780.884	31812.04
781.218	31592.62
781.552	31566.85
781.886	31360.76
782.22	31285.05
782.554	31115.11
782.888	30782.92
783.222	30648.91
783.556	30648.23
783.889	30528.69
784.223	30267.23
784.557	30315.59
784.89	30377.28
785.224	30290.05
785.557	29956.5
785.891	29867.01
786.224	29774.81
786.558	29695.04
786.891	29516.06
787.224	29417.08
787.557	29382.73
787.891	29247.37
788.224	29170.08
788.557	29187.26
788.89	29043.76
789.223	28888.96
789.556	28822.52
789.888	28686.93
790.221	28643.99
790.554	28395.86
790.887	28401.51
791.219	28366.94
791.552	28333.94
791.884	28110.9
792.217	28025.03
792.549	27927.18
792.882	27747.29
793.214	27539.61
793.546	27694.64
793.879	27573.74
794.211	27378.04
794.543	27429.56
794.875	27402.22
795.207	27274.99
795.539	27060.76
795.871	27009.23
796.203	26805.4
796.535	26707.55
796.867	26715.23
797.198	26561.79
797.53	26611.28
797.862	26420.1
798.193	26515.24
798.525	26288.12
798.856	26225.3
799.188	26005.64
799.519	25916.38
799.85	25848.81
800.182	25793.9
800.513	25861.01
800.844	25530.85
801.175	25662.15
801.506	25614.02
801.837	25436.85
802.168	25458.09
802.499	25286.57
802.83	25202.05
803.161	25115.05
803.491	25083.18
803.822	25063.52
804.153	24902.17
804.483	24605
804.814	24615.85
805.145	24707.6
805.475	24517.77
805.805	24593.25
806.136	24444.55
806.466	24500.37
806.796	24359.81
807.126	24096.09
807.457	24077.33
807.787	24017.22
808.117	23962.08
808.447	23940.84
808.777	23967.96
809.107	23784.69
809.436	23831.46
809.766	23727.06
810.096	23537.23
810.426	23428.99
810.755	23587.63
811.085	23521.42
811.414	23478.7
811.744	23262.21
812.073	23160.75
812.403	23182.44
812.732	23056.12
813.061	23066.06
813.39	22926.4
813.719	22759.85
814.049	22927.98
814.378	22844.6
814.707	22739.74
815.036	22596.02
815.365	22587.2
815.693	22443.25
816.022	22405.74
816.351	22178.17
816.68	22303.59
817.008	22351.95
817.337	22092.75
817.665	22070.61
817.994	22191.28
818.322	22079.42
818.651	21937.05
818.979	21844.4
819.307	22035.58
819.636	21833.32
819.964	21752.2
820.292	21686.44
820.62	21784.96
820.948	21692.31
821.276	21793.55
821.604	21663.61
821.932	21684.18
822.259	21778.64
822.587	21643.05
822.915	21545.2
823.243	21707
823.57	21542.94
823.898	21635.14
824.225	21506.78
824.553	21449.38
824.88	21558.98
825.207	21564.86
825.535	21450.06
825.862	21573.44
826.189	21380.45
826.516	21491.86
826.843	21510.62
827.17	21552.88
827.497	21525.54
827.824	21559.66
828.151	21528.7
828.478	21489.6
828.805	21486.21
829.131	21434.01
829.458	21377.97
829.785	21309.04
830.111	21402.6
830.438	21443.28
830.764	21451.41
831.09	21325.54
831.417	21266.79
831.743	21390.17
832.069	21364.64
832.395	21243.96
832.722	21301.36
833.048	21249.61
833.374	21282.6
833.7	21132.78
834.026	21205.77
834.351	21282.38
834.677	21217.3
835.003	21233.57
835.329	21227.69
835.654	21126.9
835.98	21098.43
836.306	21249.38
836.631	20934.59
836.956	21117.64
837.282	20991.31
837.607	20868.83
837.932	20753.8
838.258	20833.12
838.583	20823.63
838.908	20792.9
839.233	20812.79
839.558	20650.53
839.883	20609.85
840.208	20504.09
840.533	20575.5
840.858	20581.61
841.182	20488.05
841.507	20458.9
841.832	20328.51
842.156	20321.95
842.481	20168.51
842.805	20218.68
843.13	20138.23
843.454	20186.59
843.778	20065.69
844.103	20061.62
844.427	20026.59
844.751	19990.66
845.075	19906.37
845.399	19839.48
845.723	19722.87
846.047	19766.94
846.371	19624.79
846.695	19715.64
847.019	19378.02
847.343	19357.68
847.666	19270.91
847.99	19229.55
848.313	19184.35
848.637	19054.41
848.96	19047.18
849.284	18965.6
849.607	18813.29
849.931	18777.81
850.254	18688.55
850.577	18589.79
850.9	18376.69
851.223	18387.54
851.546	18345.28
851.869	18184.83
852.192	18261.44
852.515	18092.18
852.838	17985.74
853.161	18029.13
853.483	17865.29
853.806	17789.81
854.129	17751.62
854.451	17752.3
854.774	17598.63
855.096	17498.97
855.419	17458.75
855.741	17559.31
856.063	17413.55
856.385	17298.98
856.708	17218.76
857.03	17171.53
857.352	17162.49
857.674	17155.03
857.996	17084.07
858.318	16968.14
858.64	16975.37
858.961	16844.98
859.283	16930.63
859.605	16822.61
859.926	16924.53
860.248	16727.24
860.57	16715.49
860.891	16727.47
861.212	16614.25
861.534	16605.21
861.855	16495.39
862.176	16600.69
862.498	16425.1
862.819	16482.28
863.14	16381.04
863.461	16326.12
863.782	16338.33
864.103	16371.32
864.424	16208.84
864.745	16269.85
865.065	16098.79
865.386	16172.23
865.707	16181.95
866.027	16116.64
866.348	16077.32
866.668	16049.75
866.989	15927.72
867.309	15890.66
867.63	15863.09
867.95	15898.34
868.27	15825.12
868.59	15818.34
868.91	15826.25
869.23	15806.14
869.55	15662.19
869.87	15769.08
870.19	15723.88
870.51	15756.42
870.83	15686.14
871.15	15538.35
871.469	15534.28
871.789	15571.34
872.109	15541.29
872.428	15515.07
872.748	15476.88
873.067	15488.63
873.386	15454.06
873.706	15484.11
874.025	15302.65
874.344	15272.82
874.663	15318.02
874.982	15317.56
875.301	15215.42
875.62	15160.73
875.939	15221.52
876.258	15141.75
876.577	15164.57
876.896	15078.7
877.214	15025.59
877.533	15120.28
877.852	15061.98
878.17	15051.58
878.489	14992.83
878.807	14983.56
879.125	14989.21
879.444	14939.95
879.762	14817.69
880.08	14785.37
880.398	14788.76
880.716	14776.56
881.034	14653.85
881.352	14747.63
881.67	14735.66
881.988	14713.29
882.306	14570.46
882.624	14583.57
882.941	14533.63
883.259	14544.25
883.577	14481.2
883.894	14479.62
884.212	14494.99
884.529	14452.05
884.846	14297.03
885.164	14378.15
885.481	14288.44
885.798	14370.92
886.115	14199.4
886.432	14204.37
886.75	14209.34
887.067	14246.86
887.383	14096.58
887.7	14138.39
888.017	14083.7
888.334	13994.21
888.651	13989.46
888.967	13945.62
889.284	13822.46
889.6	13851.16
889.917	13796.47
890.233	13786.3
890.55	13692.52
890.866	13705.63
891.182	13657.04
891.498	13611.62
891.815	13537.72
892.131	13529.36
892.447	13481.68
892.763	13453.88
893.079	13433.55
893.395	13379.54
893.71	13302.93
894.026	13271.97
894.342	13269.03
894.657	13169.82
894.973	13154.91
895.289	13081.01
895.604	13081.92
895.92	13014.57
896.235	12958.76
896.55	12966.44
896.865	12929.83
897.181	12829.49
897.496	12861.58
897.811	12765.31
898.126	12734.13
898.441	12609.84
898.756	12669.72
899.071	12539.56
899.386	12605.09
899.7	12466.34
900.015	12436.28
900.33	12309.73
900.644	12274.03
900.959	12323.07
901.273	12380.01
901.588	12201.94
901.902	12055.28
902.216	12093.69
902.531	12112.45
902.845	12003.07
903.159	11960.14
903.473	11913.59
903.787	11844.43
904.101	11810.76
904.415	11780.48
904.729	11783.19
905.042	11796.75
905.356	11657.09
905.67	11635.63
905.984	11645.12
906.297	11548.4
906.611	11530.09
906.924	11489.19
907.237	11450.32
907.551	11335.52
907.864	11311.12
908.177	11257.33
908.491	11172.81
908.804	11173.27
909.117	11100.5
909.43	11085.81
909.743	10964.01
910.056	11014.63
910.368	10881.07
910.681	10876.55
910.994	10864.12
911.307	10769.21
911.619	10705.03
911.932	10756.78
912.244	10679.95
912.557	10601.98
912.869	10635.43
913.181	10570.8
913.494	10517.46
913.806	10377.13
914.118	10336
914.43	10366.06
914.742	10400.18
915.054	10221.65
915.366	10256
915.678	10166.96
915.99	10123.58
916.302	10029.79
916.613	10030.02
916.925	10008.32
917.236	9980.3
917.548	9847.2
917.859	9960.87
918.171	9837.71
918.482	9800.65
918.794	9765.39
919.105	9722
919.416	9626.87
919.727	9602.69
920.038	9599.07
920.349	9530.6
920.66	9521.33
920.971	9474.78
921.282	9389.58
921.593	9280.66
921.903	9296.93
922.214	9282.69
922.525	9193.88
922.835	9192.98
923.146	9209.02
923.456	9136.48
923.767	9068.69
924.077	9055.81
924.387	9075.24
924.697	8953.89
925.008	8951.86
925.318	8885.64
925.628	8927.45
925.938	8872.99
926.248	8788.24
926.558	8692.65
926.867	8752.76
927.177	8646.1
927.487	8620.79
927.796	8542.6
928.106	8505.99
928.416	8508.93
928.725	8554.13
929.034	8441.13
929.344	8455.37
929.653	8394.36
929.962	8310.29
930.271	8284.98
930.581	8256.51
930.89	8299.44
931.199	8173.12
931.508	8129.05
931.817	8137.19
932.125	8120.24
932.434	8094.93
932.743	7994.59
933.051	7981.94
933.36	7938.1
933.669	7904.88
933.977	7917.76
934.286	7892.67
934.594	7750.3
934.902	7715.96
935.21	7681.83
935.519	7750.08
935.827	7628.95
936.135	7601.38
936.443	7533.59
936.751	7520.93
937.059	7579.46
937.367	7457.88
937.674	7410.88
937.982	7393.93
938.29	7396.42
938.597	7447.94
938.905	7278.45
939.213	7293.14
939.52	7271
939.827	7254.05
940.135	7205.23
940.442	7119.13
940.749	7115.29
941.056	7105.58
941.363	7038.91
941.67	7011.57
941.977	6947.84
942.284	6927.05
942.591	6965.47
942.898	6963.88
943.205	6909.65
943.511	6816.54
943.818	6844.79
944.125	6820.39
944.431	6736.32
944.738	6758.47
945.044	6685.93
945.35	6709.43
945.657	6655.42
945.963	6612.93
946.269	6610.67
946.575	6582.88
946.881	6507.17
947.187	6522.31
947.493	6435.09
947.799	6460.62
948.105	6411.81
948.41	6372.49
948.716	6351.47
949.022	6284.81
949.327	6332.94
949.633	6246.84
949.938	6255.88
950.244	6250.46
950.549	6157.35
950.854	6152.38
951.16	6113.06
951.465	6030.58
951.77	6112.61
952.075	6037.13
952.38	6006.62
952.685	6007.3
952.99	5954.42
953.294	5901.54
953.599	5944.25
953.904	5864.48
954.209	5832.61
954.513	5839.39
954.818	5784.03
955.122	5821.99
955.426	5718.04
955.731	5731.83
956.035	5697.25
956.339	5724.82
956.643	5676.69
956.948	5603.24
957.252	5578.16
957.556	5582.23
957.86	5548.33
958.163	5564.83
958.467	5498.61
958.771	5500.87
959.075	5507.65
959.378	5386.07
959.682	5427.2
959.985	5351.05
960.289	5364.15
960.592	5344.49
960.896	5290.03
961.199	5244.61
961.502	5265.85
961.805	5178.39
962.108	5166.64
962.411	5188.34
962.714	5131.16
963.017	5101.33
963.32	5149.24
963.623	5121.67
963.926	5082.13
964.228	5069.25
964.531	5032.41
964.833	4989.02
965.136	4923.71
965.438	4976.59
965.741	4900.44
966.043	4917.38
966.345	4891.17
966.648	4868.35
966.95	4872.41
967.252	4808.46
967.554	4793.09
967.856	4802.36
968.158	4736.15
968.46	4719.88
968.761	4671.74
969.063	4707.9
969.365	4686.2
969.666	4627.45
969.968	4585.42
970.269	4572.99
970.571	4572.76
970.872	4558.52
971.174	4496.38
971.475	4522.82
971.776	4502.93
972.077	4496.83
972.378	4458.19
972.679	4495.7
972.98	4442.37
973.281	4461.35
973.582	4434.01
973.883	4394.01
974.183	4330.96
974.484	4320.79
974.785	4304.52
975.085	4332.54
975.386	4245.31
975.686	4238.76
975.986	4221.13
976.287	4218.19
976.587	4153.56
976.887	4143.39
977.187	4212.32
977.487	4122.6
977.787	4151.08
978.087	4101.36
978.387	4065.43
978.687	4085.77
978.987	4041.93
979.286	4031.08
979.586	4037.63
979.885	3932.55
980.185	3959.9
980.484	3920.8
980.784	3930.52
981.083	3901.59
981.382	3923.96
981.682	3863.63
981.981	3867.02
982.28	3842.38
982.579	3812.56
982.878	3850.75
983.177	3784.53
983.475	3742.73
983.774	3757.19
984.073	3726.68
984.372	3724.65
984.67	3694.59
984.969	3680.13
985.267	3667.47
985.566	3687.81
985.864	3674.03
986.162	3617.31
986.461	3645.1
986.759	3606.46
987.057	3553.58
987.355	3506.57
987.653	3525.33
987.951	3457.54
988.249	3522.17
988.547	3472.23
988.844	3487.59
989.142	3437.2
989.44	3428.16
989.737	3429.06
990.035	3405.79
990.332	3383.87
990.63	3326.47
990.927	3318.78
991.224	3344.77
991.521	3324.21
991.819	3284.21
992.116	3281.72
992.413	3267.48
992.71	3235.17
993.006	3186.13
993.303	3202.4
993.6	3216.19
993.897	3200.14
994.193	3172.57
994.49	3159.46
994.787	3159.92
995.083	3115.62
995.379	3089.41
995.676	3131.22
995.972	3093.03
996.268	3032.01
996.565	3031.56
996.861	3045.8
997.157	2987.04
997.453	2997.21
997.749	2947.04
998.044	2959.92
998.34	2937.1
998.636	2933.48
998.932	2947.49
999.227	2882.86
999.523	2901.39
999.818	2867.72
1000.114	2845.12
1000.409	2816.2
1000.704	2802.64
1001	2818.68
1001.295	2810.32
1001.59	2818.91
1001.885	2770.55
1002.18	2756.31
1002.475	2728.52
1002.77	2712.25
1003.065	2677.22
1003.359	2682.64
1003.654	2655.07
1003.949	2637.22
1004.243	2646.03
1004.538	2610.55
1004.832	2615.52
1005.127	2610.1
1005.421	2588.18
1005.715	2575.75
1006.009	2558.58
1006.304	2559.25
1006.598	2524.91
1006.892	2470.67
1007.186	2461.4
1007.48	2473.38
1007.773	2455.53
1008.067	2422.54
1008.361	2403.33
1008.655	2406.04
1008.948	2404
1009.242	2371.01
1009.535	2351.58
1009.829	2323.78
1010.122	2320.16
1010.415	2306.61
1010.708	2321.29
1011.001	2298.47
1011.295	2288.75
1011.588	2250.11
1011.881	2232.94
1012.173	2223.22
1012.466	2210.11
1012.759	2202.43
1013.052	2162.88
1013.344	2146.16
1013.637	2135.31
1013.93	2180.73
1014.222	2157.01
1014.514	2118.81
1014.807	2133.73
1015.099	2045.37
1015.391	2051.02
1015.683	2090.57
1015.976	2047.18
1016.268	2071.13
1016.56	2041.3
1016.851	1999.72
1017.143	2021.42
1017.435	2009.89
1017.727	1987.52
1018.018	1970.8
1018.31	1928.99
1018.602	1941.19
1018.893	1940.97
1019.185	1891.25
1019.476	1900.74
1019.767	1881.76
1020.058	1913.4
1020.35	1865.94
1020.641	1837.69
1020.932	1851.02
1021.223	1830.01
1021.514	1825.04
1021.804	1774.87
1022.095	1798.6
1022.386	1799.27
1022.677	1771.48
1022.967	1743.68
1023.258	1730.58
1023.548	1737.36
1023.839	1689.22
1024.129	1729.22
1024.419	1683.57
1024.709	1654.19
1025	1666.62
1025.29	1650.58
1025.58	1656.68
1025.87	1650.8
1026.16	1624.82
1026.449	1594.08
1026.739	1605.83
1027.029	1611.94
1027.319	1559.28
1027.608	1557.25
1027.898	1561.99
1028.187	1518.83
1028.477	1533.74
1028.766	1519.51
1029.055	1550.02
1029.344	1530.58
1029.634	1493.29
1029.923	1504.37
1030.212	1479.96
1030.501	1465.72
1030.79	1443.13
1031.078	1437.02
1031.367	1447.42
1031.656	1435.44
1031.945	1418.49
1032.233	1402
1032.522	1385.27
1032.81	1352.51
1033.099	1353.41
1033.387	1373.3
1033.675	1340.08
1033.963	1329.46
1034.251	1359.74
1034.54	1342.56
1034.828	1289.91
1035.116	1295.79
1035.403	1275.45
1035.691	1295.79
1035.979	1273.19
1036.267	1269.57
1036.554	1262.79
1036.842	1242.45
1037.129	1258.5
1037.417	1217.14
1037.704	1238.61
1037.992	1232.96
1038.279	1185.05
1038.566	1203.81
1038.853	1203.81
1039.14	1203.81
