Data from breadboard_white_FLMS001491_00036.txt Node
Date: Wed Feb 08 10:47:38 GMT 2017
User: dcchb
Spectrometer: FLMS00149
Trigger mode: 0
Integration Time (sec): 2.000000E-2
Scans to average: 10
Electric dark correction enabled: true
Nonlinearity correction enabled: false
Boxcar width: 0
XAxis mode: Wavelengths
Number of Pixels in Spectrum: 2048
>>>>>Begin Spectral Data<<<<<
341.393	-11.38
341.776	-11.38
342.16	-11.38
342.543	-49.57
342.927	-50.48
343.31	-61.1
343.693	-83.7
344.077	-80.99
344.46	-55
344.843	-56.81
345.226	-41.21
345.61	-33.76
345.993	1.05
346.376	-16.36
346.759	16.64
347.142	28.84
347.525	29.52
347.908	74.72
348.291	67.03
348.674	94.83
349.057	116.3
349.44	115.84
349.823	122.17
350.206	178.44
350.588	200.36
350.971	213.47
351.354	224.77
351.737	236.97
352.119	241.49
352.502	274.03
352.884	274.48
353.267	292.56
353.65	290.53
354.032	315.39
354.414	322.17
354.797	305.9
355.179	318.78
355.562	320.13
355.944	319.23
356.326	326.91
356.709	332.34
357.091	334.14
357.473	376.85
357.855	347.48
358.238	360.81
358.62	355.84
359.002	343.86
359.384	346.12
359.766	373.46
360.148	370.53
360.53	364.65
360.912	354.26
361.294	338.89
361.676	334.82
362.057	339.12
362.439	338.66
362.821	347.7
363.203	347.48
363.584	348.61
363.966	345.89
364.348	339.12
364.729	352
365.111	326.23
365.493	338.89
365.874	330.98
366.256	328.27
366.637	333.01
367.019	327.82
367.4	319.45
367.781	338.21
368.163	328.95
368.544	333.92
368.925	319
369.306	345.89
369.688	328.95
370.069	350.64
370.45	339.57
370.831	327.82
371.212	325.56
371.593	349.51
371.974	336.63
372.355	356.06
372.736	352.22
373.117	350.41
373.498	357.19
373.879	337.76
374.26	342.28
374.641	348.15
375.021	344.31
375.402	344.76
375.783	365.33
376.163	359
376.544	344.99
376.925	379.11
377.305	357.19
377.686	363.97
378.066	375.05
378.447	339.34
378.827	364.65
379.208	368.04
379.588	337.31
379.968	362.84
380.349	396.06
380.729	378.44
381.109	368.27
381.489	395.61
381.87	391.09
382.25	380.92
382.63	373.69
383.01	387.7
383.39	378.89
383.77	409.62
384.15	406.23
384.53	378.89
384.91	412.79
385.29	395.16
385.67	405.78
386.049	393.58
386.429	433.35
386.809	409.62
387.189	402.39
387.568	429.51
387.948	423.63
388.328	419.79
388.707	425.67
389.087	437.42
389.466	442.39
389.846	440.58
390.225	448.72
390.605	451.43
390.984	442.62
391.363	463.86
391.743	441.71
392.122	462.5
392.501	477.19
392.881	465.89
393.26	469.51
393.639	484.65
394.018	486.91
394.397	491.88
394.776	480.58
395.155	492.78
395.534	496.4
395.913	524.42
396.292	524.65
396.671	545.66
397.05	541.14
397.429	548.38
397.808	538.66
398.186	526.91
398.565	540.92
398.944	543.18
399.323	567.36
399.701	568.26
400.08	557.87
400.458	576.62
400.837	597.64
401.215	609.84
401.594	601.26
401.972	626.57
402.351	622.95
402.729	618.88
403.107	638.99
403.486	673.8
403.864	646.23
404.242	662.5
404.62	688.48
404.999	684.64
405.377	714.92
405.755	700.69
406.133	716.96
406.511	719.22
406.889	719.67
407.267	735.26
407.645	737.3
408.023	799.67
408.401	808.26
408.779	829.05
409.156	842.38
409.534	825.2
409.912	871.08
410.29	872.21
410.667	879.89
411.045	922.38
411.422	910.4
411.8	918.99
412.178	971.87
412.555	963.96
412.933	1003.05
413.31	1015.03
413.687	1032.66
414.065	1035.82
414.442	1074.92
414.819	1080.79
415.197	1096.84
415.574	1134.12
415.951	1118.53
416.328	1135.7
416.705	1172.09
417.082	1160.11
417.46	1191.97
417.837	1192.88
418.214	1233.78
418.591	1234.69
418.967	1252.31
419.344	1273.33
419.721	1282.82
420.098	1249.83
420.475	1295.47
420.852	1308.13
421.228	1329.15
421.605	1352.87
421.982	1393.78
422.358	1396.26
422.735	1376.38
423.111	1427
423.488	1437.17
423.864	1420.89
424.241	1445.53
424.617	1456.15
424.994	1510.84
425.37	1513.1
425.746	1530.5
426.123	1561
426.499	1538.86
426.875	1584.73
427.251	1615.01
427.627	1639.42
428.003	1636.26
428.379	1668.8
428.756	1705.18
429.132	1725.52
429.507	1749.7
429.883	1752.19
430.259	1791.73
430.635	1839.19
431.011	1830.38
431.387	1839.19
431.763	1888.45
432.138	1916.02
432.514	1921.67
432.89	1971.84
433.265	2013.87
433.641	2030.82
434.016	2027.21
434.392	2064.49
434.767	2116.02
435.143	2132.29
435.518	2155.56
435.894	2156.92
436.269	2208.22
436.644	2229.46
437.02	2255.9
437.395	2250.03
437.77	2293.64
438.145	2329.35
438.52	2377.03
438.895	2337.48
439.271	2350.59
439.646	2446.4
440.021	2441.43
440.395	2469.68
440.77	2453.41
441.145	2464.26
441.52	2542.9
441.895	2532.96
442.27	2576.34
442.645	2565.72
443.019	2565.95
443.394	2612.5
443.769	2650.47
444.143	2630.58
444.518	2685.04
444.892	2658.15
445.267	2703.12
445.641	2702.44
446.016	2753.74
446.39	2750.35
446.764	2793.51
447.139	2772.27
447.513	2812.95
447.887	2836.22
448.262	2830.12
448.636	2883.68
449.01	2926.17
449.384	2938.82
449.758	2976.56
450.132	3008.2
450.506	2987.41
450.88	3043.23
451.254	2984.24
451.628	3093.17
452.002	3124.13
452.376	3144.24
452.75	3178.81
453.123	3207.51
453.497	3219.94
453.871	3280.05
454.244	3341.52
454.618	3360.5
454.992	3444.12
455.365	3418.58
455.739	3523.21
456.112	3537.68
456.486	3563.21
456.859	3605.92
457.232	3678.01
457.606	3668.75
457.979	3749.2
458.352	3804.33
458.725	3846.82
459.099	3878.46
459.472	3960.04
459.845	3969.53
460.218	4019.24
460.591	4062.18
460.964	4100.82
461.337	4146.02
461.71	4206.58
462.083	4268.73
462.456	4281.16
462.829	4337.88
463.201	4374.49
463.574	4395.96
463.947	4472.11
464.32	4576.52
464.692	4660.13
465.065	4615.84
465.438	4681.6
465.81	4767.93
466.183	4813.8
466.555	4919.33
466.928	4938.54
467.3	4957.98
467.672	5013.79
468.045	5241.59
468.417	5198.65
468.789	5220.57
469.161	5330.62
469.534	5397.06
469.906	5554.35
470.278	5552.54
470.65	5627.34
471.022	5725.19
471.394	5832.08
471.766	5870.95
472.138	5986.2
472.51	6074.78
472.882	6149.13
473.253	6215.35
473.625	6328.56
473.997	6482.68
474.369	6485.62
474.74	6598.16
475.112	6707.31
475.484	6802
475.855	6928.55
476.227	6967.19
476.598	7179.16
476.97	7222.55
477.341	7475.88
477.713	7516.1
478.084	7568.3
478.455	7826.6
478.827	7865.7
479.198	8111.79
479.569	8083.09
479.94	8283.09
480.311	8404.44
480.682	8573.7
481.053	8768.72
481.424	8928.49
481.795	8947.25
482.166	9151.77
482.537	9221.82
482.908	9427.24
483.279	9573.45
483.65	9702.71
484.021	9961.69
484.391	10031.74
484.762	10124.62
485.133	10251.62
485.503	10312.19
485.874	10610.03
486.244	10698.84
486.615	10895.45
486.985	10983.81
487.356	11178.15
487.726	11316.45
488.097	11514.87
488.467	11571.81
488.837	11833.5
489.207	11914.86
489.578	12171.57
489.948	12306.26
490.318	12493.82
490.688	12466.03
491.058	12675.29
491.428	12861.5
491.798	13011.1
492.168	13268.04
492.538	13306.68
492.908	13445.21
493.278	13656.28
493.648	13687.01
494.017	13869.38
494.387	13906.67
494.757	14055.82
495.126	14246.32
495.496	14309.37
495.866	14421.91
496.235	14600.21
496.605	14667.55
496.974	14819.41
497.344	14943.7
497.713	15091.95
498.082	15124.49
498.452	15314.77
498.821	15446.51
499.19	15409
499.559	15650.35
499.928	15734.64
500.298	15813.06
500.667	15941.64
501.036	16038.59
501.405	16211.01
501.774	16213.05
502.143	16356.32
502.512	16440.61
502.88	16561.74
503.249	16669.76
503.618	16806.7
503.987	16872.24
504.356	17026.36
504.724	17148.62
505.093	17177.54
505.462	17283.08
505.83	17349.52
506.199	17489.17
506.567	17822.72
506.936	17823.85
507.304	17949.5
507.672	18070.63
508.041	18091.87
508.409	18359.66
508.777	18514.91
509.145	18644.62
509.514	18650.05
509.882	18656.37
510.25	18952.64
510.618	18984.27
510.986	19006.65
511.354	19213.2
511.722	19464.26
512.09	19781.09
512.458	19589.91
512.826	19875.78
513.193	20022.67
513.561	20074.87
513.929	20202.1
514.297	20316.44
514.664	20539.04
515.032	20690.67
515.4	20767.5
515.767	20884.56
516.135	21015.86
516.502	21014.73
516.869	21366.59
517.237	21442.97
517.604	21473.93
517.972	21773.81
518.339	21902.84
518.706	21970.64
519.073	22065.32
519.44	22216.05
519.808	22538.08
520.175	22493.56
520.542	22872.31
520.909	23061.23
521.276	23005.64
521.643	23288.79
522.009	23442.46
522.376	23601.55
522.743	23819.85
523.11	23921.55
523.477	24168.77
523.843	24393.62
524.21	24559.5
524.577	24826.38
524.943	24862.76
525.31	25102.08
525.676	25333.49
526.043	25480.38
526.409	25523.54
526.776	25906.58
527.142	25955.84
527.508	26044.43
527.874	26414.36
528.241	26474.47
528.607	26609.39
528.973	26895.25
529.339	26809.15
529.705	27160.56
530.071	27335.92
530.437	27428.12
530.803	27512.41
531.169	27851.84
531.535	27776.81
531.901	27966.86
532.267	28059.97
532.632	28222
532.998	28234.2
533.364	28565.27
533.73	28570.46
534.095	28826.05
534.461	28959.83
534.826	29080.28
535.192	29189.66
535.557	29461.51
535.923	29320.95
536.288	29518.91
536.653	29676.42
537.019	29650.21
537.384	29814.05
537.749	29975.4
538.114	29983.31
538.479	30044.55
538.845	30369.51
539.21	30259.68
539.575	30506.91
539.94	30482.5
540.305	30779.9
540.67	30714.59
541.034	30874.81
541.399	31054.92
541.764	31080.68
542.129	31155.03
542.494	31285.87
542.858	31381.24
543.223	31414.91
543.587	31651.96
543.952	31678.86
544.316	31756.14
544.681	31930.6
545.045	32010.6
545.41	32188.9
545.774	32234.77
546.138	32229.12
546.503	32412.17
546.867	32418.5
547.231	32814.65
547.595	32787.75
547.959	32884.02
548.324	32845.61
548.688	32990.01
549.052	33130.8
549.416	33198.82
549.779	33371.24
550.143	33366.72
550.507	33541.18
550.871	33617.11
551.235	33607.17
551.599	33965.58
551.962	33938.23
552.326	34119.24
552.689	34267.71
553.053	34237.21
553.417	34392.46
553.78	34659.34
554.143	34804.65
554.507	34888.49
554.87	34934.82
555.234	35400.79
555.597	35117.64
555.96	35301.13
556.323	35529.15
556.686	35578.41
557.05	35850.27
557.413	35831.52
557.776	36030.38
558.139	36186.53
558.502	36235.57
558.865	36389.47
559.228	36803.02
559.59	36886.18
559.953	36767.08
560.316	37223.34
560.679	37180.18
561.041	37427.86
561.404	37713.5
561.767	37906.04
562.129	37765.48
562.492	38079.14
562.854	38061.97
563.217	38191.91
563.579	38449.53
563.941	38662.18
564.304	38804.32
564.666	38970.87
565.028	39022.17
565.39	39165.44
565.753	39294.25
566.115	39494.02
566.477	39642.71
566.839	39875.25
567.201	39928.36
567.563	40055.59
567.925	40374.67
568.287	40320.21
568.648	40638.17
569.01	40773.08
569.372	40958.61
569.734	40800.2
570.095	41061.43
570.457	41182.11
570.819	41505.72
571.18	41368.09
571.542	41584.13
571.903	41709.55
572.265	41743
572.626	41893.73
572.987	41943.9
573.349	42089.66
573.71	42252.59
574.071	42379.82
574.432	42404.68
574.794	42768.28
575.155	42554.73
575.516	42576.65
575.877	42861.16
576.238	42968.73
576.599	42999.46
576.96	43044.43
577.32	43196.75
577.681	43114.94
578.042	43248.5
578.403	43261.83
578.763	43281.49
579.124	43323.75
579.485	43589.96
579.845	43604.64
580.206	43383.86
580.566	43561.71
580.927	43484.2
581.287	43702.27
581.648	43736.62
582.008	43819.1
582.368	43668.82
582.728	43792.21
583.089	43783.17
583.449	43796.5
583.809	43738.2
584.169	43894.81
584.529	43961.92
584.889	44196.04
585.249	43749.05
585.609	43801.02
585.969	43894.58
586.329	43799.44
586.688	43991.3
587.048	43826.33
587.408	43863.17
587.768	43770.97
588.127	43797.63
588.487	43851.19
588.846	44150.84
589.206	43829.95
589.565	43866.33
589.925	44100
590.284	43799.89
590.643	44017.74
591.003	44085.76
591.362	44126.89
591.721	44167.57
592.08	44094.58
592.44	44073.33
592.799	44137.06
593.158	44093.9
593.517	44056.16
593.876	44093.67
594.235	44049.15
594.593	44200.79
594.952	44231.52
595.311	44203.5
595.67	44262.03
596.029	44466.77
596.387	44407.11
596.746	44278.3
597.104	44249.83
597.463	44222.71
597.822	44462.25
598.18	44201.01
598.538	44295.7
598.897	44502.02
599.255	44160.79
599.613	44841
599.972	44448.69
600.33	44665.63
600.688	44494.79
601.046	44521.91
601.404	44734.11
601.762	44682.13
602.12	44818.17
602.478	44771.62
602.836	44708.34
603.194	44693.66
603.552	44596.93
603.91	44578.4
604.268	44879.41
604.625	44669.02
604.983	44963.7
605.341	44801.45
605.698	45134.55
606.056	45004.38
606.413	44906.98
606.771	45177.03
607.128	45101.55
607.485	44923.25
607.843	45129.58
608.2	45313.98
608.557	45386.74
608.914	45162.57
609.272	45394.65
609.629	45502.22
609.986	45579.06
610.343	45368.21
610.7	45743.8
611.057	45743.57
611.414	45593.07
611.771	45634.2
612.127	45784.02
612.484	45617.47
612.841	45880.52
613.198	45617.02
613.554	45769.56
613.911	46010
614.267	46029.21
614.624	45892.04
614.98	45834.19
615.337	46277.57
615.693	46108.53
616.05	46061.98
616.406	46282.31
616.762	46133.84
617.118	46255.65
617.475	46215.42
617.831	46265.14
618.187	46354.63
618.543	46357.34
618.899	46540.61
619.255	46372.71
619.611	46414.29
619.967	46482.99
620.323	46475.53
620.678	46471.91
621.034	46331.13
621.39	46406.6
621.746	46365.02
622.101	46828.06
622.457	46480.95
622.812	46475.98
623.168	46637.11
623.523	46613.83
623.879	46618.35
624.234	46459.48
624.589	46604.79
624.945	46628.07
625.3	46616.09
625.655	46707.16
626.01	46561.85
626.365	46560.95
626.72	46431.91
627.075	46506.26
627.43	46420.39
627.785	46453.61
628.14	46389.88
628.495	46518.24
628.85	46362.54
629.205	46200.96
629.559	46458.13
629.914	46176.55
630.269	46303.1
630.623	46156.67
630.978	46068.99
631.332	46273.05
631.687	46316.44
632.041	46146.95
632.396	46153.28
632.75	46084.35
633.104	46068.08
633.459	45959.16
633.813	45863.79
634.167	45901.99
634.521	45740.63
634.875	45879.39
635.229	45836
635.583	45532.28
635.937	45674.42
636.291	45627.42
636.645	45639.17
636.999	45521.43
637.352	45614.54
637.706	45299.29
638.06	45478.95
638.413	45313.53
638.767	45295.45
639.121	45266.3
639.474	45232.85
639.828	45080.09
640.181	44975
640.534	45171.38
640.888	44958.06
641.241	44719.87
641.594	44730.49
641.947	44976.59
642.301	44780.88
642.654	44810.71
643.007	44843.93
643.36	44717.38
643.713	44619.08
644.066	44669.25
644.419	44671.96
644.771	44332.99
645.124	43933.45
645.477	43894.81
645.83	43502.5
646.182	43367.36
646.535	43136.63
646.888	43247.37
647.24	43037.65
647.593	43219.8
647.945	43061.61
648.298	42885.12
648.65	43003.98
649.002	42775.97
649.355	42817.55
649.707	42719.24
650.059	42871.1
650.411	43462.05
650.763	43288.04
651.115	43745.43
651.467	43662.04
651.819	43645.55
652.171	43575.49
652.523	43389.96
652.875	43354.71
653.227	43358.55
653.578	43546.57
653.93	43390.19
654.282	43180.93
654.633	43056.64
654.985	43235.16
655.337	43256.18
655.688	43321.26
656.039	43289.4
656.391	42901.16
656.742	43111.55
657.094	43124.88
657.445	43044.21
657.796	42931.89
658.147	42964.66
658.498	42991.1
658.849	43165.11
659.2	42817.55
659.551	42814.61
659.902	42890.54
660.253	42803.31
660.604	42881.27
660.955	42616.65
661.306	42651.68
661.656	42746.59
662.007	42742.75
662.358	42740.49
662.708	42698.45
663.059	42718.57
663.409	42397.67
663.76	42711.11
664.11	42568.97
664.461	42716.53
664.811	42562.86
665.161	42506.59
665.511	42521.51
665.862	42395.86
666.212	42534.16
666.562	42592.69
666.912	42389.08
667.262	42434.28
667.612	42490.32
667.962	42482.64
668.312	42252.14
668.662	42471.11
669.011	42357.9
669.361	42437.67
669.711	42305.7
670.06	42220.5
670.41	42266.15
670.76	42103.89
671.109	42310.44
671.459	42414.62
671.808	42035.42
672.157	42126.04
672.507	41889.44
672.856	42000.17
673.205	41972.37
673.554	42074.06
673.904	41860.51
674.253	41929.43
674.602	41883.11
674.951	41235.44
675.3	41022.79
675.649	41799.49
675.998	41745.71
676.346	41671.81
676.695	41691.47
677.044	41516.79
677.393	41510.69
677.741	41547.3
678.09	41365.83
678.438	41373.52
678.787	41585.71
679.135	41531.25
679.484	41315.21
679.832	41417.13
680.181	41040.64
680.529	41201.09
680.877	41059.17
681.225	41116.35
681.573	41203.8
681.922	40969.23
682.27	40898.95
682.618	40797.03
682.966	40765.85
683.314	40884.72
683.661	40732.4
684.009	40482.01
684.357	40388.46
684.705	40347.1
685.053	40417.61
685.4	40297.16
685.748	40042.25
686.095	40111.63
686.443	39997.06
686.79	39879.09
687.138	39862.37
687.485	39929.71
687.832	39943.05
688.18	39781.69
688.527	39560.01
688.874	39502.83
689.221	39433
689.568	39425.77
689.915	39263.06
690.262	39281.14
690.609	39200.69
690.956	39004.31
691.303	39019.91
691.65	38776.3
691.997	38800.25
692.344	38565
692.69	38550.99
693.037	38573.82
693.383	38223.77
693.73	38478.9
694.077	38105.58
694.423	38105.58
694.769	38068.74
695.116	37853.38
695.462	37850.45
695.808	37821.97
696.155	37899.48
696.501	37574.07
696.847	37557.12
697.193	37206.17
697.539	37442.77
697.885	37008.66
698.231	36948.55
698.577	37021.09
698.923	36948.1
699.269	36729.34
699.614	36535.23
699.96	36416.36
700.306	36430.82
700.651	36324.38
700.997	36271.05
701.342	36184.95
701.688	36184.27
702.033	35944.96
702.379	35968.01
702.724	35813.21
703.069	35880.78
703.415	35405.99
703.76	35436.27
704.105	35533.22
704.45	35414.13
704.795	35057.98
705.14	35047.81
705.485	35152.66
705.83	34886.23
706.175	34976.17
706.52	34755.16
706.865	34710.87
707.209	34540.93
707.554	34571.89
707.899	34630.64
708.243	34490.08
708.588	34422.29
708.932	34302.74
709.277	34119.7
709.621	34117.66
709.966	33924.45
710.31	33963.77
710.654	33584.57
710.998	33710.89
711.342	33721.51
711.687	33562.87
712.031	33398.36
712.375	33396.1
712.719	33325.14
713.063	33321.75
713.407	33301.64
713.75	33119.27
714.094	33109.78
714.438	32970.35
714.782	32964.92
715.125	32776.23
715.469	32932.61
715.812	32706.17
716.156	32471.83
716.499	32588.21
716.843	32521.32
717.186	32350.7
717.53	32597.93
717.873	32480.42
718.216	32344.15
718.559	32092.4
718.902	32060.54
719.246	32134.66
719.589	31937.38
719.932	31836.37
720.275	31842.24
720.617	31738.97
720.96	31831.39
721.303	31786.88
721.646	31809.25
721.989	31737.39
722.331	31750.27
722.674	31420.11
723.016	31506.66
723.359	31462.82
723.701	31501.23
724.044	31324.74
724.386	31091.53
724.729	31249.26
725.071	31055.14
725.413	31218.76
725.755	31051.98
726.097	30941.25
726.439	30651.76
726.782	30821.48
727.124	30881.36
727.465	30760.69
727.807	30636.85
728.149	30571.31
728.491	30477.76
728.833	30560.69
729.175	30483.41
729.516	30365.22
729.858	30384.2
730.199	30338.1
730.541	30229.85
730.882	30097.65
731.224	30087.94
731.565	30031.89
731.906	30118.22
732.248	29988.05
732.589	29922.07
732.93	29738.12
733.271	29848.85
733.612	29871.22
733.953	29834.84
734.294	29666.93
734.635	29608.85
734.976	29773.14
735.317	29561.4
735.658	29520.95
735.999	29528.18
736.339	29342.19
736.68	29444.79
737.021	29361.4
737.361	29115.76
737.702	29326.38
738.042	29132.48
738.383	29071.69
738.723	29128.87
739.063	29027.85
739.404	29075.99
739.744	29031.02
740.084	28786.05
740.424	28890
740.764	28746.28
741.104	28868.08
741.444	28580.86
741.784	28504.25
742.124	28597.81
742.464	28525.49
742.804	28410.24
743.143	28315.33
743.483	28443.91
743.823	28281.21
744.162	28213.64
744.502	28289.79
744.841	28082.34
745.181	28191.26
745.52	28044.6
745.86	28117.82
746.199	27929.12
746.538	27951.5
746.877	27984.94
747.216	28083.92
747.556	27856.81
747.895	27868.79
748.234	27656.59
748.573	27747.21
748.911	27682.35
749.25	27650.94
749.589	27454.56
749.928	27547.89
750.267	27367.78
750.605	27354.68
750.944	27245.53
751.283	27071.07
751.621	27167.56
751.96	27041.46
752.298	27020.67
752.636	27112.2
752.975	26907
753.313	26792.66
753.651	26856.61
753.989	26682.15
754.327	26608.03
754.666	26587.46
755.004	26560.8
755.342	26528.48
755.679	26491.65
756.017	26297.75
756.355	26368.26
756.693	26068.16
757.031	26176.18
757.368	26122.84
757.706	26003.53
758.044	25900.7
758.381	26000.14
758.719	25853.02
759.056	25771.89
759.394	25891.89
759.731	25623.87
760.068	25523.99
760.405	25463.43
760.743	25405.57
761.08	25295.75
761.417	25190.89
761.754	25194.51
762.091	25238.35
762.428	25030.9
762.765	24910.9
763.102	25028.86
763.438	24903.22
763.775	24740.73
764.112	24600.4
764.449	24669.55
764.785	24585.48
765.122	24463.9
765.458	24236.34
765.795	24255.77
766.131	24310.69
766.467	24132.16
766.804	24040.19
767.14	23832.06
767.476	23862.11
767.812	23865.5
768.148	23710.03
768.485	23625.96
768.821	23487.66
769.157	23450.15
769.492	23397.72
769.828	23417.15
770.164	23185.52
770.5	23127.22
770.836	23091.96
771.171	22969.48
771.507	23039.76
771.842	22766.77
772.178	22682.48
772.513	22678.64
772.849	22521.13
773.184	22444.75
773.519	22488.36
773.855	22357.97
774.19	22202.27
774.525	22210.4
774.86	22091.31
775.195	22106.68
775.53	21966.8
775.865	21893.35
776.2	21679.35
776.535	21594.83
776.87	21651.78
777.205	21497.66
777.539	21398.45
777.874	21388.96
778.209	21182.86
778.543	21202.97
778.878	20976.76
779.212	20965.92
779.547	20867.62
779.881	20865.81
780.215	20744.91
780.55	20832.36
780.884	20583.78
781.218	20667.85
781.552	20633.27
781.886	20495.65
782.22	20368.19
782.554	20324.13
782.888	20100.18
783.222	20027.86
783.556	19888.43
783.889	19891.82
784.223	19892.05
784.557	19801.88
784.89	19857.25
785.224	19613.18
785.557	19524.6
785.891	19544.94
786.224	19446.18
786.558	19405.96
786.891	19162.35
787.224	19185.17
787.557	19131.16
787.891	19122.12
788.224	18984.27
788.557	18929.81
788.89	18918.06
789.223	18941.79
789.556	18818.4
789.888	18765.98
790.221	18637.62
790.554	18485.3
790.887	18521.01
791.219	18441.46
791.552	18392.88
791.884	18405.53
792.217	18167.8
792.549	18088.03
792.882	18057.07
793.214	18050.97
793.546	17976.17
793.879	17864.08
794.211	17827.47
794.543	17928.71
794.875	17746.34
795.207	17723.29
795.539	17630.41
795.871	17662.5
796.203	17425.22
796.535	17348.16
796.867	17432.45
797.198	17335.28
797.53	17247.37
797.862	17213.47
798.193	17131.22
798.525	17026.81
798.856	17067.26
799.188	16902.3
799.519	16914.95
799.85	16774.84
800.182	16806.25
800.513	16768.51
800.844	16632.92
801.175	16688.74
801.506	16586.82
801.837	16584.79
802.168	16514.96
802.499	16404.68
802.83	16339.37
803.161	16269.54
803.491	16333.72
803.822	16261.41
804.153	16106.16
804.483	16011.25
804.814	16050.57
805.145	16039.95
805.475	16011.47
805.805	15872.94
806.136	15869.55
806.466	15859.61
806.796	15905.26
807.126	15697.58
807.457	15663.91
807.787	15615.32
808.117	15648.77
808.447	15581.88
808.777	15589.11
809.107	15473.63
809.436	15335.78
809.766	15422.33
810.096	15345.5
810.426	15260.98
810.755	15359.06
811.085	15223.24
811.414	15257.59
811.744	15118.39
812.073	15086.3
812.403	15201.55
812.732	15002.23
813.061	14970.82
813.39	14950.48
813.719	14848.79
814.049	14855.34
814.378	14781.22
814.707	14780.54
815.036	14705.29
815.365	14622.36
815.693	14596.82
816.022	14485.41
816.351	14569.25
816.68	14524.05
817.008	14472.3
817.337	14433.21
817.665	14297.62
817.994	14463.72
818.322	14431.4
818.651	14222.59
818.979	14235.25
819.307	14308.24
819.636	14149.6
819.964	14098.08
820.292	14140.33
820.62	14095.14
820.948	14098.75
821.276	14134.01
821.604	14027.79
821.932	14078.64
822.259	14178.98
822.587	14033.22
822.915	13995.25
823.243	14011.52
823.57	13960.9
823.898	13995.48
824.225	13950.28
824.553	13910.06
824.88	13923.16
825.207	14084.52
825.535	13974.24
825.862	14027.12
826.189	14001.58
826.516	14053.56
826.843	14046.78
827.17	14052.2
827.497	14045.87
827.824	14065.76
828.151	14010.17
828.478	13927.23
828.805	13958.87
829.131	13929.27
829.458	14000.23
829.785	13925.88
830.111	13927.91
830.438	14010.17
830.764	13966.55
831.09	13928.81
831.417	13825.31
831.743	13900.34
832.069	13890.17
832.395	13721.59
832.722	13911.41
833.048	13844.52
833.374	13800
833.7	13744.41
834.026	13732.66
834.351	13763.62
834.677	13778.08
835.003	13765.88
835.329	13786.67
835.654	13702.38
835.98	13623.29
836.306	13675.04
836.631	13645.43
836.956	13656.96
837.282	13575.6
837.607	13582.38
837.932	13476.17
838.258	13543.97
838.583	13564.76
838.908	13474.59
839.233	13442.95
839.558	13427.13
839.883	13365.21
840.208	13355.95
840.533	13374.25
840.858	13272.56
841.182	13317.76
841.507	13332.22
841.832	13282.05
842.156	13124.77
842.481	13263.75
842.805	13208.83
843.13	13116.18
843.454	13104.66
843.778	13095.16
844.103	12950.76
844.427	13024.66
844.751	12986.47
845.075	12947.37
845.399	12921.16
845.723	12882.74
846.047	12821.95
846.371	12753.7
846.695	12701.73
847.019	12672.12
847.343	12553.94
847.666	12537.44
847.99	12504.45
848.313	12434.16
848.637	12379.25
848.96	12250.44
849.284	12329.08
849.607	12152.59
849.931	12168.63
850.254	12082.76
850.577	12082.31
850.9	12009.77
851.223	12006.83
851.546	11902.88
851.869	11794.63
852.192	11877.34
852.515	11737.91
852.838	11701.53
853.161	11750.79
853.483	11615.66
853.806	11570.91
854.129	11520.74
854.451	11567.07
854.774	11511.25
855.096	11393.97
855.419	11341.54
855.741	11415.21
856.063	11237.59
856.385	11306.96
856.708	11246.4
857.03	11202.33
857.352	11307.64
857.674	11160.53
857.996	11049.79
858.318	11040.98
858.64	11030.59
858.961	11014.77
859.283	11040.75
859.605	10937.03
859.926	11003.47
860.248	10880.99
860.57	10898.39
860.891	10802.34
861.212	10811.38
861.534	10809.35
861.855	10718.73
862.176	10733.42
862.498	10767.09
862.819	10711.72
863.14	10640.09
863.461	10731.16
863.782	10657.49
864.103	10631.95
864.424	10543.59
864.745	10615.23
865.065	10535.01
865.386	10508.57
865.707	10465.85
866.027	10531.84
866.348	10407.55
866.668	10508.57
866.989	10372.98
867.309	10327.1
867.63	10352.86
867.95	10328.68
868.27	10244.17
868.59	10297.95
868.91	10213.43
869.23	10221.34
869.55	10133.21
869.87	10200.1
870.19	10254.33
870.51	10217.73
870.83	10230.15
871.15	10185.41
871.469	10105.86
871.789	10147.22
872.109	10132.76
872.428	10074.9
872.748	10053.66
873.067	10041.69
873.386	9995.81
873.706	10074.45
874.025	9970.5
874.344	9953.1
874.663	9886.43
874.982	9893.89
875.301	9944.29
875.62	9867
875.939	9887.56
876.258	9819.09
876.577	9763.5
876.896	9824.06
877.214	9761.92
877.533	9774.57
877.852	9739.55
878.17	9766.66
878.489	9757.62
878.807	9740.45
879.125	9700.68
879.444	9690.73
879.762	9679.66
880.08	9686.67
880.398	9657.97
880.716	9647.57
881.034	9588.14
881.352	9606.22
881.67	9527.8
881.988	9525.31
882.306	9556.95
882.624	9493
882.941	9450.51
883.259	9406.22
883.577	9398.09
883.894	9439.44
884.212	9370.29
884.529	9379.33
884.846	9366.9
885.164	9346.34
885.481	9311.53
885.798	9307.24
886.115	9249.84
886.432	9220.92
886.75	9254.59
887.067	9238.54
887.383	9168.26
887.7	9225.44
888.017	9125.1
888.334	9138.88
888.651	9128.71
888.967	9160.8
889.284	9029.73
889.6	9006.23
889.917	8901.15
890.233	8992.45
890.55	8849.85
890.866	8887.59
891.182	8884.88
891.498	8883.07
891.815	8775.5
892.131	8763.07
892.447	8758.1
892.763	8713.81
893.079	8655.73
893.395	8603.3
893.71	8685.11
894.026	8607.6
894.342	8594.72
894.657	8579.8
894.973	8505.45
895.289	8533.93
895.604	8497.32
895.92	8461.16
896.235	8427.49
896.55	8416.42
896.865	8487.6
897.181	8318.11
897.496	8294.39
897.811	8318.79
898.126	8285.8
898.441	8267.49
898.756	8253.26
899.071	8202.86
899.386	8169.87
899.7	8178.01
900.015	8087.16
900.33	8006.71
900.644	8067.73
900.959	8029.76
901.273	8015.52
901.588	7953.15
901.902	7868.18
902.216	7854.85
902.531	7915.41
902.845	7851.46
903.159	7810.56
903.473	7786.38
903.787	7715.64
904.101	7693.72
904.415	7707.74
904.729	7710.22
905.042	7637.91
905.356	7632.03
905.67	7587.06
905.984	7599.49
906.297	7531.02
906.611	7512.71
906.924	7467.74
907.237	7480.4
907.551	7423.45
907.864	7419.83
908.177	7383.45
908.491	7298.03
908.804	7304.36
909.117	7243.34
909.43	7185.04
909.743	7171.7
910.056	7163.57
910.368	7157.47
910.681	7081.08
910.994	7074.76
911.307	7012.61
911.619	6958.38
911.932	7010.13
912.244	6921.99
912.557	6879.96
912.869	6909.56
913.181	6894.42
913.494	6806.29
913.806	6813.07
914.118	6827.31
914.43	6741.21
914.742	6702.11
915.054	6701.43
915.366	6705.5
915.678	6639.06
915.99	6627.99
916.302	6576.47
916.613	6550.93
916.925	6536.92
917.236	6560.65
917.548	6412.18
917.859	6467.77
918.171	6385.96
918.482	6406.3
918.794	6331.5
919.105	6339.86
919.416	6279.75
919.727	6314.55
920.038	6318.39
920.349	6237.94
920.66	6216.93
920.971	6230.49
921.282	6197.27
921.593	6156.36
921.903	6123.82
922.214	6053.09
922.525	6098.06
922.835	6006.31
923.146	5956.59
923.456	5988.91
923.767	5942.13
924.077	6030.49
924.387	5937.84
924.697	5873.66
925.008	5847.22
925.318	5817.62
925.628	5821.91
925.938	5792.76
926.248	5730.39
926.558	5724.74
926.867	5751.4
927.177	5653.78
927.487	5655.36
927.796	5587.79
928.106	5621.01
928.416	5544.63
928.725	5560.9
929.034	5513.89
929.344	5536.94
929.653	5467.79
929.962	5495.14
930.271	5478.87
930.581	5344.86
930.89	5442.71
931.199	5315.93
931.508	5326.1
931.817	5328.81
932.125	5317.29
932.434	5299.89
932.743	5242.49
933.051	5195.26
933.36	5239.1
933.669	5195.03
933.977	5164.3
934.286	5139.44
934.594	5154.58
934.902	5085.66
935.21	5037.97
935.519	5078.88
935.827	5066.9
936.135	4960.24
936.443	4927.7
936.751	4997.52
937.059	4932.89
937.367	4935.38
937.674	4923.18
937.982	4890.86
938.29	4810.86
938.597	4906
938.905	4826
939.213	4806.57
939.52	4790.3
939.827	4790.75
940.135	4749.39
940.442	4719.79
940.749	4673.92
941.056	4680.7
941.363	4637.76
941.67	4648.38
941.977	4602.51
942.284	4578.55
942.591	4569.06
942.898	4553.92
943.205	4545.11
943.511	4531.55
943.818	4464.2
944.125	4462.17
944.431	4471.44
944.738	4440.48
945.044	4456.97
945.35	4470.31
945.657	4395.96
945.963	4384.66
946.269	4353.7
946.575	4349.18
946.881	4326.81
947.187	4340.59
947.493	4311.44
947.799	4259.24
948.105	4264.89
948.41	4192.12
948.716	4183.76
949.022	4190.54
949.327	4219.69
949.633	4112.12
949.938	4140.82
950.244	4142.18
950.549	4103.08
950.854	4075.06
951.16	4080.71
951.465	3994.16
951.77	4000.49
952.075	4028.06
952.38	4008.17
952.685	3982.18
952.99	3963.65
953.294	3998.23
953.599	3940.15
953.904	3905.8
954.209	3855.86
954.513	3873.03
954.818	3869.42
955.122	3844.33
955.426	3765.24
955.731	3841.4
956.035	3807.27
956.339	3804.33
956.643	3741.29
956.948	3708.97
957.252	3713.72
957.556	3742.87
957.86	3687.05
958.163	3655.41
958.467	3648.63
958.771	3587.39
959.075	3632.81
959.378	3566.15
959.682	3646.6
959.985	3570.89
960.289	3566.83
960.592	3568.63
960.896	3516.66
961.199	3495.64
961.502	3475.76
961.805	3507.85
962.108	3454.97
962.411	3443.44
962.714	3419.94
963.017	3444.57
963.32	3420.62
963.623	3380.84
963.926	3374.97
964.228	3359.6
964.531	3384.46
964.833	3348.98
965.136	3313.95
965.438	3302.65
965.741	3268.98
966.043	3268.76
966.345	3239.6
966.648	3265.82
966.95	3235.31
967.252	3229.43
967.554	3186.72
967.856	3196.89
968.158	3134.52
968.46	3156.67
968.761	3113.51
969.063	3141.3
969.365	3106.95
969.666	3094.07
969.968	3085.26
970.269	3060.4
970.571	3026.28
970.872	3041.64
971.174	3017.24
971.475	3008.42
971.776	3024.92
972.077	3000.06
972.378	2986.05
972.679	2972.04
972.98	2966.84
973.281	2968.42
973.582	2939.95
973.883	2946.05
974.183	2907.41
974.484	2835.09
974.785	2868.99
975.085	2890.46
975.386	2857.02
975.686	2867.64
975.986	2841.87
976.287	2834.19
976.587	2776.34
976.887	2809.33
977.187	2771.37
977.487	2784.7
977.787	2778.83
978.087	2764.81
978.387	2753.29
978.687	2713.06
978.987	2694.31
979.286	2711.71
979.586	2678.49
979.885	2669.22
980.185	2649.79
980.484	2646.17
980.784	2607.76
981.083	2661.54
981.382	2626.06
981.682	2597.59
981.981	2594.42
982.28	2585.16
982.579	2560.07
982.878	2574.08
983.177	2554.42
983.475	2540.41
983.774	2525.5
984.073	2526.63
984.372	2509.45
984.67	2505.84
984.969	2509.45
985.267	2455.67
985.566	2485.27
985.864	2443.69
986.162	2469.68
986.461	2391.04
986.759	2403.92
987.057	2370.7
987.355	2403.02
987.653	2379.97
987.951	2413.19
988.249	2353.07
988.547	2330.48
988.844	2367.99
989.142	2331.61
989.44	2324.37
989.737	2319.85
990.035	2276.24
990.332	2292.06
990.63	2275.79
990.927	2269.46
991.224	2236.92
991.521	2224.94
991.819	2244.38
992.116	2264.04
992.413	2229.69
992.71	2200.54
993.006	2223.36
993.303	2207.31
993.6	2160.76
993.897	2163.25
994.193	2154.43
994.49	2145.85
994.787	2141.1
995.083	2138.39
995.379	2106.07
995.676	2124.38
995.972	2093.65
996.268	2059.75
996.565	2065.62
996.861	2093.65
997.157	2015
997.453	2048.67
997.749	2048.67
998.044	2020.88
998.34	2010.48
998.636	1996.7
998.932	1969.81
999.227	1933.88
999.523	1987.66
999.818	1964.38
1000.114	1968.68
1000.409	1948.79
1000.704	1919.86
1001	1927.1
1001.295	1918.06
1001.59	1904.27
1001.885	1878.74
1002.18	1874.67
1002.475	1881.9
1002.77	1869.02
1003.065	1857.95
1003.359	1851.17
1003.654	1857.04
1003.949	1812.07
1004.243	1800.32
1004.538	1808.68
1004.832	1792.18
1005.127	1780.21
1005.421	1755.35
1005.715	1731.17
1006.009	1752.19
1006.304	1744.95
1006.598	1734.11
1006.892	1735.01
1007.186	1679.19
1007.48	1693.43
1007.773	1699.31
1008.067	1658.4
1008.361	1664.5
1008.655	1664.96
1008.948	1637.61
1009.242	1658.4
1009.535	1658.18
1009.829	1629.25
1010.122	1617.27
1010.415	1595.13
1010.708	1599.65
1011.001	1600.33
1011.295	1552.87
1011.588	1574.34
1011.881	1579.99
1012.173	1546.99
1012.466	1553.32
1012.759	1548.35
1013.052	1511.06
1013.344	1546.54
1013.637	1526.43
1013.93	1518.52
1014.222	1495.02
1014.514	1477.84
1014.807	1501.8
1015.099	1449.37
1015.391	1443.49
1015.683	1437.84
1015.976	1463.38
1016.268	1425.64
1016.56	1407.79
1016.851	1420.22
1017.143	1397.62
1017.435	1401.23
1017.727	1389.48
1018.018	1363.5
1018.31	1365.3
1018.602	1382.48
1018.893	1343.83
1019.185	1340.44
1019.476	1346.55
1019.767	1355.81
1020.058	1335.25
1020.35	1318.52
1020.641	1307
1020.932	1308.13
1021.223	1289.82
1021.514	1270.84
1021.804	1290.73
1022.095	1241.69
1022.386	1243.27
1022.677	1268.81
1022.967	1229.49
1023.258	1233.1
1023.548	1219.77
1023.839	1229.94
1024.129	1227.91
1024.419	1188.36
1024.709	1211.86
1025	1172.99
1025.29	1173.9
1025.58	1179.55
1025.87	1146.78
1026.16	1145.87
1026.449	1172.54
1026.739	1170.96
1027.029	1139.77
1027.319	1132.99
1027.608	1117.4
1027.898	1099.1
1028.187	1092.54
1028.477	1099.77
1028.766	1093.22
1029.055	1080.79
1029.344	1091.86
1029.634	1075.82
1029.923	1080.79
1030.212	1062.49
1030.501	1078.53
1030.79	1055.48
1031.078	1046.22
1031.367	1062.71
1031.656	1044.41
1031.945	1039.66
1032.233	1041.7
1032.522	1012.32
1032.81	989.95
1033.099	1005.31
1033.387	997.18
1033.675	998.99
1033.963	953.34
1034.251	983.39
1034.54	951.98
1034.828	973.9
1035.116	935.03
1035.403	951.3
1035.691	913.56
1035.979	944.75
1036.267	911.98
1036.554	924.18
1036.842	907.91
1037.129	941.81
1037.417	895.71
1037.704	919.67
1037.992	895.48
1038.279	898.65
1038.566	879.67
1038.853	879.67
1039.14	879.67
