Data from breadboard_black_back_FLMS001491_00030.txt Node
Date: Wed Feb 08 10:50:11 GMT 2017
User: dcchb
Spectrometer: FLMS00149
Trigger mode: 0
Integration Time (sec): 2.000000E-2
Scans to average: 10
Electric dark correction enabled: true
Nonlinearity correction enabled: false
Boxcar width: 0
XAxis mode: Wavelengths
Number of Pixels in Spectrum: 2048
>>>>>Begin Spectral Data<<<<<
341.393	-15.37
341.776	-15.37
342.16	-15.37
342.543	-57.63
342.927	-52.43
343.31	-79.09
343.693	-64.63
344.077	-69.83
344.46	-47.68
344.843	-58.53
345.226	-57.63
345.61	-7.68
345.993	-11.98
346.376	-13.33
346.759	-8.59
347.142	17.17
347.525	42.03
347.908	67.34
348.291	75.48
348.674	90.62
349.057	126.32
349.44	123.61
349.823	146.66
350.206	167.91
350.588	188.47
350.971	209.26
351.354	229.37
351.737	246.55
352.119	251.74
352.502	249.94
352.884	276.6
353.267	297.39
353.65	301.69
354.032	276.6
354.414	319.77
354.797	317.05
355.179	331.52
355.562	311.86
355.944	316.83
356.326	353.66
356.709	340.56
357.091	333.1
357.473	343.95
357.855	370.61
358.238	340.1
358.62	344.62
359.002	355.7
359.384	344.4
359.766	337.84
360.148	344.4
360.53	356.83
360.912	363.38
361.294	339.88
361.676	342.36
362.057	345.75
362.439	351.86
362.821	343.04
363.203	332.42
363.584	342.14
363.966	342.59
364.348	328.13
364.729	364.06
365.111	346.66
365.493	341.01
365.874	342.14
366.256	338.07
366.637	330.39
367.019	335.36
367.4	323.83
367.781	348.01
368.163	364.06
368.544	332.42
368.925	349.82
369.306	349.37
369.688	358.63
370.069	332.42
370.45	344.17
370.831	342.59
371.212	324.96
371.593	342.59
371.974	355.24
372.355	378.52
372.736	361.12
373.117	350.27
373.498	373.55
373.879	351.18
374.26	349.82
374.641	353.66
375.021	337.62
375.402	365.41
375.783	377.84
376.163	378.52
376.544	357.05
376.925	388.92
377.305	383.49
377.686	385.98
378.066	379.43
378.447	388.69
378.827	398.18
379.208	379.65
379.588	385.53
379.968	393.21
380.349	406.99
380.729	392.76
381.109	398.86
381.489	398.41
381.87	415.13
382.25	391.18
382.63	412.42
383.01	416.94
383.39	413.77
383.77	404.06
384.15	422.59
384.53	432.53
384.91	433.43
385.29	422.59
385.67	429.59
386.049	427.33
386.429	439.99
386.809	441.12
387.189	447.22
387.568	423.49
387.948	437.28
388.328	448.58
388.707	460.1
389.087	453.1
389.466	455.58
389.846	468.91
390.225	474.56
390.605	463.94
390.984	463.94
391.363	484.28
391.743	475.69
392.122	497.16
392.501	492.19
392.881	479.99
393.26	509.59
393.639	504.62
394.018	516.6
394.397	498.97
394.776	513.88
395.155	523.38
395.534	510.5
395.913	529.7
396.292	533.32
396.671	516.37
397.05	541.68
397.429	542.58
397.808	542.81
398.186	531.06
398.565	552.75
398.944	575.8
399.323	565.63
399.701	553.21
400.08	565.18
400.458	583.04
400.837	571.28
401.215	595.69
401.594	588.46
401.972	613.77
402.351	590.49
402.729	609.7
403.107	598.85
403.486	617.61
403.864	619.64
404.242	621.68
404.62	637.95
404.999	627.55
405.377	634.11
405.755	661.23
406.133	649.02
406.511	678.4
406.889	663.49
407.267	687.67
407.645	677.04
408.023	683.6
408.401	671.17
408.779	686.54
409.156	713.88
409.534	705.07
409.912	730.6
410.29	734.22
410.667	764.27
411.045	739.64
411.422	742.81
411.8	785.29
412.178	794.78
412.555	782.8
412.933	800.2
413.31	812.63
413.687	816.7
414.065	828.9
414.442	838.85
414.819	835.01
415.197	846.31
415.574	860.99
415.951	825.97
416.328	866.87
416.705	890.82
417.082	884.27
417.46	901.9
417.837	926.3
418.214	902.12
418.591	931.73
418.967	922.69
419.344	930.82
419.721	935.34
420.098	934.21
420.475	961.1
420.852	975.34
421.228	969.69
421.605	982.12
421.982	982.8
422.358	1003.36
422.735	1024.38
423.111	1020.99
423.488	1073.42
423.864	1057.37
424.241	1071.84
424.617	1057.15
424.994	1062.34
425.37	1067.32
425.746	1098.28
426.123	1084.27
426.499	1117.71
426.875	1117.48
427.251	1151.38
427.627	1163.36
428.003	1170.82
428.379	1198.16
428.756	1212.85
429.132	1221.21
429.507	1230.7
429.883	1236.58
430.259	1233.41
430.635	1276.8
431.011	1279.06
431.387	1328.33
431.763	1324.03
432.138	1326.74
432.514	1355.44
432.89	1355.67
433.265	1352.51
433.641	1392.73
434.016	1424.82
434.392	1430.92
434.767	1452.62
435.143	1467.08
435.518	1479.74
435.894	1495.33
436.269	1503.92
436.644	1519.51
437.02	1558.38
437.395	1566.96
437.77	1556.34
438.145	1570.13
438.52	1627.75
438.895	1621.43
439.271	1644.48
439.646	1665.27
440.021	1694.42
440.395	1684.93
440.77	1671.59
441.145	1691.48
441.52	1722.67
441.895	1741.42
442.27	1750.69
442.645	1739.62
443.019	1780.74
443.394	1754.08
443.769	1800.86
444.143	1787.98
444.518	1835.43
444.892	1845.6
445.267	1828.65
445.641	1816.45
446.016	1910.91
446.39	1855.09
446.764	1901.42
447.139	1870.01
447.513	1911.36
447.887	1928.76
448.262	1940.74
448.636	1928.54
449.01	1988.87
449.384	1991.36
449.758	1974.19
450.132	2023
450.506	2014.64
450.88	2050.12
451.254	2030.46
451.628	2069.55
452.002	2092.6
452.376	2109.55
452.75	2125.37
453.123	2174.18
453.497	2181.86
453.871	2222.99
454.244	2243.56
454.618	2260.73
454.992	2278.13
455.365	2314.52
455.739	2345.25
456.112	2399.94
456.486	2390.9
456.859	2423.67
457.232	2514.51
457.606	2444.46
457.979	2506.83
458.352	2573.04
458.725	2570.78
459.099	2614.85
459.472	2678.35
459.845	2688.74
460.218	2689.42
460.591	2760.83
460.964	2751.57
461.337	2835.18
461.71	2847.61
462.083	2888.74
462.456	2921.96
462.829	2895.74
463.201	2946.14
463.574	2981.39
463.947	3036.53
464.32	3080.6
464.692	3096.64
465.065	3163.31
465.438	3202.18
465.81	3193.59
466.183	3267.03
466.555	3315.17
466.928	3398.78
467.3	3343.87
467.672	3375.96
468.045	3538.66
468.417	3506.12
468.789	3553.8
469.161	3542.73
469.534	3615.27
469.906	3718.09
470.278	3787.02
470.65	3759.68
471.022	3815.49
471.394	3910.18
471.766	3955.15
472.138	3989.5
472.51	4076.28
472.882	4142.94
473.253	4149.04
473.625	4198.08
473.997	4337.06
474.369	4334.8
474.74	4394.69
475.112	4512.65
475.484	4614.34
475.855	4626.77
476.227	4674.68
476.598	4810.04
476.97	4863.6
477.341	4935.24
477.713	5065.63
478.084	5048.45
478.455	5202.58
478.827	5201.22
479.198	5459.74
479.569	5425.85
479.94	5608.44
480.311	5585.62
480.682	5708.78
481.053	5867.87
481.424	5944.02
481.795	6010.24
482.166	6093.85
482.537	6138.37
482.908	6302.89
483.279	6327.52
483.65	6468.53
484.021	6604.57
484.391	6697.23
484.762	6758.47
485.133	6769.77
485.503	6914.62
485.874	6995.52
486.244	7086.59
486.615	7263.09
486.985	7307.6
487.356	7456.3
487.726	7548.5
488.097	7710.76
488.467	7740.81
488.837	7863.52
489.207	8020.35
489.578	8106.68
489.948	8157.3
490.318	8233.68
490.688	8317.75
491.058	8454.02
491.428	8589.83
491.798	8653.78
492.168	8811.07
492.538	8805.87
492.908	9002.7
493.278	9066.88
493.648	9063.49
494.017	9226.88
494.387	9369.92
494.757	9420.54
495.126	9549.58
495.496	9504.16
495.866	9623.25
496.235	9734.66
496.605	9762
496.974	9860.76
497.344	9921.32
497.713	10025.5
498.082	10109.34
498.452	10300.52
498.821	10325.38
499.19	10236.57
499.559	10418.48
499.928	10514.98
500.298	10557.69
500.667	10642.66
501.036	10657.57
501.405	10808.98
501.774	10729.44
502.143	10859.6
502.512	11028.41
502.88	11042.65
503.249	11138.46
503.618	11172.81
503.987	11282.42
504.356	11346.14
504.724	11370.1
505.093	11505.23
505.462	11530.32
505.83	11628.39
506.199	11688.05
506.567	11890.99
506.936	11912.46
507.304	12015.5
507.672	12018.44
508.041	12125.78
508.409	12238.32
508.777	12379.56
509.145	12440.8
509.514	12456.4
509.882	12582.95
510.25	12586.56
510.618	12785.2
510.986	12750.63
511.354	12968.92
511.722	12994.91
512.09	13174.79
512.458	13175.25
512.826	13150.84
513.193	13353.55
513.561	13403.49
513.929	13464.5
514.297	13631.28
514.664	13722.35
515.032	13849.13
515.4	13958.5
515.767	14031.95
516.135	14105.17
516.502	14087.09
516.869	14321.66
517.237	14451.82
517.604	14433.07
517.972	14647.98
518.339	14716.9
518.706	14716
519.073	14866.73
519.44	14918.25
519.808	15132.94
520.175	15088.42
520.542	15337
520.909	15493.6
521.276	15488.86
521.643	15659.48
522.009	15809.53
522.376	15886.14
522.743	16038
523.11	16106.92
523.477	16271.89
523.843	16383.98
524.21	16558.21
524.577	16690.18
524.943	16715.27
525.31	16793.91
525.676	17052.66
526.043	17136.95
526.409	17196.38
526.776	17443.38
527.142	17427.56
527.508	17608.12
527.874	17810.15
528.241	17849.93
528.607	17946.65
528.973	18071.62
529.339	18133.53
529.705	18362
530.071	18551.6
530.437	18562.9
530.803	18624.6
531.169	18739.62
531.535	18755.67
531.901	18926.51
532.267	18976.22
532.632	19015.09
532.998	19205.14
533.364	19331.47
533.73	19360.17
534.095	19433.39
534.461	19536.21
534.826	19666.38
535.192	19681.52
535.557	19945.01
535.923	19914.5
536.288	19977.78
536.653	20038.12
537.019	20061.85
537.384	20149.98
537.749	20378.45
538.114	20296.19
538.479	20440.82
538.845	20481.04
539.21	20531.21
539.575	20642.62
539.94	20698.44
540.305	20831.54
540.67	20864.76
541.034	20934.59
541.399	21066.34
541.764	21145.21
542.129	21163.51
542.494	21141.82
542.858	21353.11
543.223	21335.71
543.587	21518.53
543.952	21532.32
544.316	21655.93
544.681	21507.46
545.045	21827
545.41	21911.51
545.774	21917.39
546.138	21978.63
546.503	22121
546.867	22096.82
547.231	22237.83
547.595	22377.26
547.959	22441.22
548.324	22345.63
548.688	22362.35
549.052	22547.2
549.416	22590.59
549.779	22618.16
550.143	22709.01
550.507	22943.8
550.871	22926.18
551.235	22923.92
551.599	23197.58
551.962	23127.98
552.326	23358.03
552.689	23435.77
553.053	23370.46
553.417	23321.87
553.78	23779.49
554.143	23652.71
554.507	23730.9
554.87	23937.22
555.234	24091.57
555.597	24007.73
555.96	24184.45
556.323	24288.63
556.686	24299.25
557.05	24516.87
557.413	24578.56
557.776	24602.97
558.139	24731.78
558.502	24821.49
558.865	24986.01
559.228	25169.96
559.59	25136.51
559.953	25164.08
560.316	25421.7
560.679	25525.43
561.041	25663.05
561.404	25810.17
561.767	25880.45
562.129	25837.96
562.492	26233.66
562.854	26135.13
563.217	26161.8
563.579	26283.15
563.941	26574.89
564.304	26531.96
564.666	26712.29
565.028	26863.93
565.39	26870.71
565.753	27086.52
566.115	27146.86
566.477	27245.84
566.839	27258.94
567.201	27466.4
567.563	27575.09
567.925	27674.07
568.287	27660.06
568.648	27838.36
569.01	28012.6
569.372	28075.19
569.734	28060.28
570.095	28317.22
570.457	28438.8
570.819	28423.21
571.18	28367.16
571.542	28627.95
571.903	28766.02
572.265	28697.32
572.626	28996.75
572.987	28908.17
573.349	29063.19
573.71	29076.07
574.071	29230.64
574.432	29284.88
574.794	29585.66
575.155	29593.57
575.516	29362.39
575.877	29497.53
576.238	29666.11
576.599	29719.9
576.96	29837.18
577.32	29789.95
577.681	29863.85
578.042	29965.54
578.403	29968.93
578.763	29877.86
579.124	29994.24
579.485	30216.15
579.845	30231.07
580.206	30280.79
580.566	30101.13
580.927	30213.44
581.287	30424.96
581.648	30267.68
582.008	30450.27
582.368	30232.43
582.728	30405.53
583.089	30361.91
583.449	30269.94
583.809	30517.84
584.169	30372.53
584.529	30506.09
584.889	30735.46
585.249	30553.55
585.609	30400.56
585.969	30536.82
586.329	30594.68
586.688	30573.89
587.048	30453.44
587.408	30522.36
587.768	30672.64
588.127	30591.06
588.487	30403.27
588.846	30726.2
589.206	30616.37
589.565	30467
589.925	30766.42
590.284	30546.32
590.643	30747.44
591.003	30843.03
591.362	30772.75
591.721	30632.87
592.08	30740.89
592.44	30870.6
592.799	30834.44
593.158	30829.92
593.517	30829.47
593.876	30812.3
594.235	30775.46
594.593	30886.42
594.952	30965.06
595.311	30756.93
595.67	30874.67
596.029	31057.71
596.387	31005.74
596.746	31080.76
597.104	30957.15
597.463	31054.32
597.822	30992.41
598.18	30942.69
598.538	30916.7
598.897	31153.98
599.255	30850.94
599.613	31423.35
599.972	31080.09
600.33	31234.43
600.688	31250.03
601.046	31144.27
601.404	31302.45
601.762	31244.6
602.12	31487.99
602.478	31344.03
602.836	31438.5
603.194	31214.32
603.552	31375.67
603.91	31268.1
604.268	31398.04
604.625	31321.44
604.983	31595.55
605.341	31303.58
605.698	31505.16
606.056	31619.73
606.413	31474.43
606.771	31641.65
607.128	31628.32
607.485	31604.82
607.843	31638.04
608.2	31788.99
608.557	31947.63
608.914	31767.53
609.272	32010.91
609.629	32062.21
609.986	32203.9
610.343	31953.74
610.7	32317.57
611.057	32170
611.414	32087.97
611.771	32071.25
612.127	32219.27
612.484	32278.25
612.841	32316.89
613.198	32140.85
613.554	32195.31
613.911	32455.19
614.267	32464.91
614.624	32433.27
614.98	32454.51
615.337	32522.08
615.693	32596.43
616.05	32526.15
616.406	32737.67
616.762	32562.76
617.118	32627.16
617.475	32711.46
617.831	32746.71
618.187	32802.75
618.543	32756.88
618.899	32887.95
619.255	32829.65
619.611	32756.43
619.967	32930.89
620.323	32988.29
620.678	32886.37
621.034	32802.3
621.39	32819.93
621.746	32729.31
622.101	33062.41
622.457	32940.15
622.812	32973.6
623.168	32960.94
623.523	33117.55
623.879	33177.43
624.234	33020.83
624.589	33047.27
624.945	33134.95
625.3	33067.38
625.655	33033.03
626.01	32999.36
626.365	33052.24
626.72	32905.35
627.075	32937.89
627.43	32992.35
627.785	32896.54
628.14	32922.3
628.495	32981.28
628.85	32884.11
629.205	32763.43
629.559	33000.26
629.914	32852.02
630.269	32840.49
630.623	32686.15
630.978	32758.01
631.332	32847.5
631.687	32850.44
632.041	32710.1
632.396	32655.41
632.75	32602.31
633.104	32685.47
633.459	32489.54
633.813	32572.48
634.167	32457
634.521	32560.5
634.875	32487.96
635.229	32456.1
635.583	32353.95
635.937	32314.18
636.291	32308.75
636.645	32306.04
636.999	32186.72
637.352	32248.42
637.706	32115.54
638.06	32298.36
638.413	32138.14
638.767	31956
639.121	32036.22
639.474	31896.11
639.828	32009.78
640.181	32000.29
640.534	31982.66
640.888	31859.05
641.241	31611.6
641.594	31779.28
641.947	31800.29
642.301	31737.24
642.654	31789.67
643.007	31676.68
643.36	31666.74
643.713	31514.2
644.066	31806.85
644.419	31551.03
644.771	31347.65
645.124	31104.27
645.477	31093.42
645.83	30711.28
646.182	30731.17
646.535	30549.48
646.888	30548.12
647.24	30368.47
647.593	30588.8
647.945	30561.46
648.298	30272.65
648.65	30218.41
649.002	30194.23
649.355	30360.56
649.707	30150.85
650.059	30388.58
650.411	30776.37
650.763	30685.29
651.115	30814.33
651.467	30946.98
651.819	30948.11
652.171	30863.6
652.523	30825.4
652.875	30716.93
653.227	30686.2
653.578	30828.79
653.93	30787.44
654.282	30584.96
654.633	30513.32
654.985	30584.05
655.337	30638.97
655.688	30642.81
656.039	30663.37
656.391	30446.66
656.742	30451.63
657.094	30408.24
657.445	30499.09
657.796	30539.08
658.147	30318.98
658.498	30431.29
658.849	30410.27
659.2	30345.42
659.551	30341.35
659.902	30496.15
660.253	30380.9
660.604	30383.38
660.955	30211.18
661.306	30391.07
661.656	30216.38
662.007	30257.06
662.358	30048.7
662.708	30127.34
663.059	30190.84
663.409	30073.33
663.76	30241.92
664.11	30186.32
664.461	30242.14
664.811	30178.19
665.161	30236.27
665.511	30067.46
665.862	30176.83
666.212	30166.21
666.562	30298.64
666.912	30212.54
667.262	30071.75
667.612	29963.28
667.962	30110.85
668.312	30004.86
668.662	30141.13
669.011	30005.54
669.361	29921.93
669.711	29968.03
670.06	30023.62
670.41	29970.96
670.76	29713.57
671.109	30012.32
671.459	29982.04
671.808	29791.99
672.157	29856.39
672.507	29597.19
672.856	29699.56
673.205	29710.41
673.554	29810.52
673.904	29600.8
674.253	29908.82
674.602	29721.48
674.951	29368.49
675.3	29222.06
675.649	29563.74
675.998	29523.52
676.346	29642.61
676.695	29625.66
677.044	29466.34
677.393	29432.67
677.741	29520.35
678.09	29404.42
678.438	29413.24
678.787	29343.18
679.135	29352
679.484	29186.58
679.832	29350.87
680.181	29054.6
680.529	29217.31
680.877	29202.17
681.225	29086.92
681.573	29229.51
681.922	28972.12
682.27	28921.5
682.618	29076.98
682.966	28886.92
683.314	29000.59
683.661	28827.94
684.009	28661.39
684.357	28629.08
684.705	28628.85
685.053	28665.46
685.4	28571.68
685.748	28445.58
686.095	28456.43
686.443	28459.14
686.79	28168.52
687.138	28320.61
687.485	28234.96
687.832	28236.77
688.18	28238.13
688.527	28057.79
688.874	28091.01
689.221	27961.52
689.568	27900.96
689.915	27903.22
690.262	27752.49
690.609	27791.81
690.956	27760.85
691.303	27666.84
691.65	27487.86
691.997	27434.98
692.344	27275.67
692.69	27276.34
693.037	27322.9
693.383	27090.81
693.73	27239.51
694.077	26992.06
694.423	27053.07
694.769	26960.2
695.116	26913.42
695.462	26889.91
695.808	26725.62
696.155	26856.47
696.501	26547.55
696.847	26596.59
697.193	26381
697.539	26622.12
697.885	26341.45
698.231	26270.04
698.577	26228.69
698.923	26143.49
699.269	26128.58
699.614	25883.84
699.96	25901.69
700.306	25809.26
700.651	25696.73
700.997	25747.35
701.342	25758.87
701.688	25612.66
702.033	25544.64
702.379	25523.17
702.724	25400.69
703.069	25445.88
703.415	25044.54
703.76	25246.57
704.105	25155.04
704.45	25126.57
704.795	25026.46
705.14	24889.06
705.485	24747.37
705.83	24742.85
706.175	24852.23
706.52	24635.51
706.865	24649.52
707.209	24571.78
707.554	24579.47
707.899	24466.25
708.243	24387.83
708.588	24425.57
708.932	24158.91
709.277	24318.68
709.621	24253.83
709.966	24181.06
710.31	24110.33
710.654	23920.73
710.998	24066.94
711.342	24044.34
711.687	23944.68
712.031	23813.61
712.375	23759.15
712.719	23639.6
713.063	23722.99
713.407	23795.98
713.75	23531.13
714.094	23528.42
714.438	23478.7
714.782	23438.03
715.125	23345.15
715.469	23431.7
715.812	23262.89
716.156	23137.02
716.499	23176.11
716.843	23233.06
717.186	23066.29
717.53	23163.01
717.873	23186.51
718.216	22971.37
718.559	22937.7
718.902	22847.99
719.246	22795.56
719.589	22763.24
719.932	22695.67
720.275	22732.28
720.617	22726.63
720.96	22631.72
721.303	22611.61
721.646	22687.31
721.989	22378.85
722.331	22477.83
722.674	22487.54
723.016	22466.98
723.359	22458.62
723.701	22370.03
724.044	22241.68
724.386	22184.5
724.729	22250.26
725.071	22207.1
725.413	22150.6
725.755	22131.62
726.097	22030.61
726.439	22007.33
726.782	21909.71
727.124	21968.01
727.465	21992.87
727.807	21951.74
728.149	21760.11
728.491	21790.16
728.833	21751.97
729.175	21643.95
729.516	21682.59
729.858	21599.21
730.199	21760.11
730.541	21685.53
730.882	21569.15
731.224	21557.63
731.565	21380.23
731.906	21501.81
732.248	21443.28
732.589	21436.72
732.93	21261.14
733.271	21247.8
733.612	21365.31
733.953	21306.33
734.294	21172.1
734.635	21100.01
734.976	21245.32
735.317	21057.75
735.658	21097.52
735.999	21112.67
736.339	21020.24
736.68	21046.9
737.021	20934.82
737.361	20870.64
737.702	20977.3
738.042	20857.3
738.383	20941.37
738.723	20922.61
739.063	20777.76
739.404	20837.64
739.744	20777.53
740.084	20665.45
740.424	20758.78
740.764	20708.16
741.104	20648.72
741.444	20613.92
741.784	20563.98
742.124	20563.3
742.464	20434.04
742.804	20421.84
743.143	20524.21
743.483	20408.5
743.823	20265
744.162	20270.88
744.502	20385
744.841	20251.44
745.181	20285.34
745.52	20212.35
745.86	20125.12
746.199	20187.27
746.538	20159.24
746.877	20120.15
747.216	20201.73
747.556	20051
747.895	19984.11
748.234	19917.67
748.573	19842.87
748.911	19864.34
749.25	19888.06
749.589	19780.5
749.928	19836.54
750.267	19773.04
750.605	19739.59
750.944	19723.78
751.283	19651.69
751.621	19639.26
751.96	19475.42
752.298	19447.4
752.636	19530.56
752.975	19300.06
753.313	19308.42
753.651	19410.79
753.989	19250.12
754.327	19215.09
754.666	19109.78
755.004	19202.21
755.342	19188.42
755.679	19251.92
756.017	19057.58
756.355	19105.26
756.693	18890.8
757.031	18888.77
757.368	18912.5
757.706	18861.42
758.044	18780.07
758.381	18785.04
758.719	18757.47
759.056	18652.84
759.394	18649.45
759.731	18523.58
760.068	18493.53
760.405	18461.21
760.743	18307.32
761.08	18474.32
761.417	18276.58
761.754	18214.66
762.091	18211.27
762.428	18119.98
762.765	18005.18
763.102	18121.56
763.438	17974.89
763.775	17918.85
764.112	17926.53
764.449	17856.71
764.785	17864.84
765.122	17631.4
765.458	17617.16
765.795	17520.67
766.131	17444.29
766.467	17593.21
766.804	17391.41
767.14	17290.84
767.476	17296.72
767.812	17248.81
768.148	17256.04
768.485	17121.81
768.821	17027.8
769.157	16896.5
769.492	16910.52
769.828	16937.86
770.164	16697.87
770.5	16741.71
770.836	16693.57
771.171	16529.96
771.507	16610.64
771.842	16515.27
772.178	16456.06
772.513	16502.84
772.849	16378.1
773.184	16235.51
773.519	16276.86
773.855	16225.79
774.19	16197.77
774.525	16183.08
774.86	16094.72
775.195	16005.91
775.53	15903.54
775.865	15894.05
776.2	15691.11
776.535	15633.94
776.87	15646.14
777.205	15617.89
777.539	15437.79
777.874	15594.62
778.209	15455.41
778.543	15406.15
778.878	15319.15
779.212	15353.72
779.547	15219.03
779.881	15282.31
780.215	15170.67
780.55	15197.11
780.884	15069.21
781.218	14992.37
781.552	15066.27
781.886	14977.23
782.22	14891.13
782.554	14751.7
782.888	14642.33
783.222	14622.21
783.556	14523.91
783.889	14534.31
784.223	14460.18
784.557	14453.63
784.89	14377.25
785.224	14316.69
785.557	14286.18
785.891	14258.83
786.224	14096.35
786.558	14169.34
786.891	14035.11
787.224	14024.49
787.557	13946.98
787.891	13938.62
788.224	13940.88
788.557	13893.42
788.89	13751.95
789.223	13835.57
789.556	13668.12
789.888	13643.26
790.221	13683.03
790.554	13502.7
790.887	13514.45
791.219	13493.66
791.552	13461.79
791.884	13352.87
792.217	13353.77
792.549	13327.11
792.882	13176.6
793.214	13208.47
793.546	13185.64
793.879	13101.58
794.211	12935.93
794.543	12967.12
794.875	12975.7
795.207	12933.45
795.539	12942.71
795.871	12925.76
796.203	12786.78
796.535	12724.41
796.867	12752.21
797.198	12691.64
797.53	12654.13
797.862	12633.11
798.193	12670.18
798.525	12444.19
798.856	12618.43
799.188	12413.23
799.519	12387.02
799.85	12394.02
800.182	12319.45
800.513	12406.91
800.844	12223.18
801.175	12248.94
801.506	12200.58
801.837	12178.66
802.168	12109.51
802.499	12137.53
802.83	12036.07
803.161	12042.17
803.491	11982.06
803.822	12050.53
804.153	11890.08
804.483	11841.5
804.814	11847.82
805.145	11766.47
805.475	11828.39
805.805	11725.79
806.136	11726.25
806.466	11718.56
806.796	11648.51
807.126	11629.07
807.457	11568.96
807.787	11592.69
808.117	11525.35
808.447	11468.85
808.777	11487.61
809.107	11344.79
809.436	11413.03
809.766	11336.65
810.096	11338.01
810.426	11230.21
810.755	11314.73
811.085	11282.19
811.414	11251.23
811.744	11238.35
812.073	11232.7
812.403	11217.78
812.732	11033.61
813.061	11030.9
813.39	11045.36
813.719	10926.49
814.049	11015.08
814.378	10963.1
814.707	10970.33
815.036	10887.85
815.365	10902.31
815.693	10797.91
816.022	10805.59
816.351	10770.79
816.68	10650.12
817.008	10722.2
817.337	10673.39
817.665	10595.88
817.994	10640.17
818.322	10596.78
818.651	10535.77
818.979	10511.59
819.307	10596.33
819.636	10624.13
819.964	10445.6
820.292	10500.06
820.62	10516.33
820.948	10464.58
821.276	10507.97
821.604	10513.4
821.932	10448.76
822.259	10495.09
822.587	10453.96
822.915	10368.99
823.243	10427.97
823.57	10395.43
823.898	10390.01
824.225	10425.49
824.553	10373.51
824.88	10374.19
825.207	10421.87
825.535	10381.2
825.862	10366.96
826.189	10357.69
826.516	10443.34
826.843	10439.95
827.17	10344.81
827.497	10385.94
827.824	10407.86
828.151	10427.07
828.478	10411.93
828.805	10419.61
829.131	10399.05
829.458	10421.42
829.785	10374.42
830.111	10357.24
830.438	10428.2
830.764	10421.42
831.09	10416
831.417	10356.79
831.743	10368.09
832.069	10357.92
832.395	10283.8
832.722	10384.13
833.048	10400.4
833.374	10236.34
833.7	10298.49
834.026	10285.83
834.351	10287.64
834.677	10304.14
835.003	10288.77
835.329	10290.58
835.654	10290.35
835.98	10226.4
836.306	10214.19
836.631	10172.16
836.956	10218.71
837.282	10264.14
837.607	10204.25
837.932	10097.59
838.258	10118.83
838.583	10131.49
838.908	10010.81
839.233	10087.87
839.558	10069.34
839.883	9985.73
840.208	9971.94
840.533	9967.87
840.858	9961.32
841.182	9974.43
841.507	9962.22
841.832	9824.83
842.156	9936.46
842.481	9837.03
842.805	9840.19
843.13	9776.24
843.454	9761.78
843.778	9853.75
844.103	9739.63
844.427	9740.31
844.751	9714.77
845.075	9707.09
845.399	9715.9
845.723	9643.36
846.047	9609.92
846.371	9512.07
846.695	9575.34
847.019	9547.32
847.343	9484.95
847.666	9402.24
847.99	9398.4
848.313	9362.47
848.637	9310.49
848.96	9298.06
849.284	9263.26
849.607	9176.93
849.931	9191.85
850.254	9125.18
850.577	9051.51
850.9	9053.1
851.223	9044.06
851.546	8989.59
851.869	8942.59
852.192	9002.48
852.515	8884.51
852.838	8908.47
853.161	8879.54
853.483	8775.59
853.806	8707.57
854.129	8719.77
854.451	8695.59
854.774	8654.91
855.096	8656.95
855.419	8583.05
855.741	8609.27
856.063	8543.28
856.385	8576.05
856.708	8524.07
857.03	8480.45
857.352	8498.76
857.674	8404.3
857.996	8417.18
858.318	8393.9
858.64	8391.42
858.961	8403.39
859.283	8388.71
859.605	8288.14
859.926	8318.43
860.248	8307.8
860.57	8309.61
860.891	8256.51
861.212	8181.93
861.534	8210.18
861.855	8238.43
862.176	8126.57
862.498	8150.07
862.819	8131.99
863.14	8097.87
863.461	8129.5
863.782	8071.2
864.103	8063.29
864.424	8078.21
864.745	8071.88
865.065	8018.09
865.386	7979.23
865.707	7940.58
866.027	7997.53
866.348	8000.69
866.668	7916.63
866.989	7939
867.309	7887.48
867.63	7898.55
867.95	7929.51
868.27	7854.26
868.59	7912.79
868.91	7812.45
869.23	7852.45
869.55	7793.92
869.87	7833.92
870.19	7813.58
870.51	7801.38
870.83	7851.54
871.15	7746.24
871.469	7805.9
871.789	7772
872.109	7754.6
872.428	7694.03
872.748	7781.94
873.067	7724.99
873.386	7709.63
873.706	7698.55
874.025	7693.81
874.344	7623.75
874.663	7640.7
874.982	7584.66
875.301	7607.03
875.62	7579.91
875.939	7574.72
876.258	7567.94
876.577	7576.52
876.896	7508.5
877.214	7530.88
877.533	7534.72
877.852	7522.74
878.17	7507.37
878.489	7523.19
878.807	7525
879.125	7468.28
879.444	7441.16
879.762	7444.1
880.08	7460.59
880.398	7376.53
880.716	7466.47
881.034	7401.16
881.352	7331.56
881.67	7360.03
881.988	7360.26
882.306	7408.39
882.624	7302.41
882.941	7307.6
883.259	7274.84
883.577	7240.94
883.894	7233.26
884.212	7280.49
884.529	7223.76
884.846	7213.37
885.164	7194.61
885.481	7144.22
885.798	7214.95
886.115	7117.55
886.432	7132.02
886.75	7059.93
887.067	7127.27
887.383	7064
887.7	7073.26
888.017	7053.83
888.334	7054.28
888.651	7008.63
888.967	6939.93
889.284	6960.95
889.6	6921.4
889.917	6892.93
890.233	6876.66
890.55	6850.67
890.866	6850.89
891.182	6874.4
891.498	6811.35
891.815	6818.58
892.131	6817.67
892.447	6759.37
892.763	6732.48
893.079	6755.08
893.395	6754.85
893.71	6730.9
894.026	6706.26
894.342	6696.32
894.657	6624.01
894.973	6616.78
895.289	6624.46
895.604	6601.18
895.92	6518.47
896.235	6546.27
896.55	6549.21
896.865	6571.35
897.181	6516.89
897.496	6498.36
897.811	6449.77
898.126	6440.73
898.441	6400.06
898.756	6384.01
899.071	6348.76
899.386	6351.25
899.7	6308.08
900.015	6231.7
900.33	6270.8
900.644	6259.27
900.959	6264.02
901.273	6220.85
901.588	6210.46
901.902	6132.49
902.216	6152.38
902.531	6107.86
902.845	6112.83
903.159	6080.97
903.473	6002.78
903.787	5986.06
904.101	5977.92
904.415	5987.19
904.729	6014.08
905.042	5953.74
905.356	5975.89
905.67	5946.96
905.984	5876.91
906.297	5897.92
906.611	5858.15
906.924	5855.44
907.237	5807.53
907.551	5772.73
907.864	5757.14
908.177	5786.06
908.491	5733.41
908.804	5694.99
909.117	5716.46
909.43	5622.68
909.743	5689.34
910.056	5615.9
910.368	5602.11
910.681	5574.54
910.994	5579.29
911.307	5484.15
911.619	5478.5
911.932	5492.74
912.244	5426.98
912.557	5414.09
912.869	5417.94
913.181	5394.66
913.494	5403.25
913.806	5366.19
914.118	5370.03
914.43	5327.09
914.742	5334.1
915.054	5252.74
915.366	5270.6
915.678	5298.39
915.99	5226.3
916.302	5184.72
916.613	5171.39
916.925	5163.71
917.236	5126.19
917.548	5104.72
917.859	5087.55
918.171	5086.19
918.482	5036.7
918.794	5047.55
919.105	5047.55
919.416	5040.32
919.727	4982.47
920.038	4966.2
920.349	4897.27
920.66	4873.54
920.971	4859.99
921.282	4920.1
921.593	4853.88
921.903	4832.87
922.214	4838.52
922.525	4784.73
922.835	4799.42
923.146	4747.67
923.456	4730.95
923.767	4688.69
924.077	4708.12
924.387	4672.42
924.697	4648.92
925.008	4660.22
925.318	4601.01
925.628	4636.26
925.938	4556.26
926.248	4570.95
926.558	4537.51
926.867	4537.96
927.177	4513.78
927.487	4485.08
927.796	4437.17
928.106	4471.29
928.416	4471.75
928.725	4414.12
929.034	4447.34
929.344	4423.16
929.653	4359.89
929.962	4335.03
930.271	4289.38
930.581	4316.5
930.89	4302.26
931.199	4318.08
931.508	4247.35
931.817	4219.78
932.125	4239.66
932.434	4191.3
932.743	4153.79
933.051	4187.46
933.36	4168.93
933.669	4144.07
933.977	4115.15
934.286	4164.64
934.594	4090.06
934.902	4109.95
935.21	4072.66
935.519	4080.57
935.827	4034.92
936.135	4041.93
936.443	4039.44
936.751	3943.85
937.059	3947.69
937.367	3918.77
937.674	3947.01
937.982	3947.01
938.29	3890.75
938.597	3904.08
938.905	3837.19
939.213	3869.95
939.52	3802.16
939.827	3819.11
940.135	3782.95
940.442	3794.7
940.749	3781.37
941.056	3779.79
941.363	3707.93
941.67	3763.52
941.977	3707.47
942.284	3676.97
942.591	3670.19
942.898	3657.08
943.205	3661.6
943.511	3631.54
943.818	3602.17
944.125	3622.73
944.431	3576.63
944.738	3556.52
945.044	3537.76
945.35	3535.5
945.657	3515.16
945.963	3493.92
946.269	3476.07
946.575	3488.04
946.881	3453.47
947.187	3427.25
947.493	3440.81
947.799	3407.14
948.105	3385.9
948.41	3401.04
948.716	3408.05
949.022	3402.85
949.327	3402.85
949.633	3316.52
949.938	3311.33
950.244	3353.13
950.549	3311.1
950.854	3284.66
951.16	3270.42
951.465	3245.34
951.77	3276.52
952.075	3230.42
952.38	3224.77
952.685	3202.85
952.99	3186.81
953.294	3145.45
953.599	3170.54
953.904	3143.19
954.209	3113.59
954.513	3119.92
954.818	3134.38
955.122	3101.61
955.426	3116.98
955.731	3078.34
956.035	3098.45
956.339	3025.46
956.643	3032.69
956.948	3010.77
957.252	2994.05
957.556	2980.03
957.86	2998.11
958.163	2972.13
958.467	2972.35
958.771	2939.58
959.075	2955.4
959.378	2924.89
959.682	2910.21
959.985	2921.05
960.289	2908.85
960.592	2906.14
960.896	2851
961.199	2845.8
961.502	2850.55
961.805	2819.81
962.108	2798.57
962.411	2842.64
962.714	2806.48
963.017	2776.42
963.32	2806.03
963.623	2738.23
963.926	2750.21
964.228	2724.9
964.531	2716.09
964.833	2706.37
965.136	2727.39
965.438	2662.53
965.741	2693.94
966.043	2664.11
966.345	2658.69
966.648	2682.64
966.95	2664.79
967.252	2615.3
967.554	2610.78
967.856	2607.39
968.158	2562.87
968.46	2576.88
968.761	2565.81
969.063	2548.63
969.365	2572.59
969.666	2522.19
969.968	2526.71
970.269	2535.75
970.571	2510.89
970.872	2552.7
971.174	2497.34
971.475	2471.57
971.776	2453.27
972.077	2485.81
972.378	2475.87
972.679	2430.9
972.98	2443.33
973.281	2457.11
973.582	2415.3
973.883	2416.43
974.183	2405.59
974.484	2374.85
974.785	2352.25
975.085	2382.08
975.386	2409.65
975.686	2348.86
975.986	2361.52
976.287	2342.09
976.587	2328.07
976.887	2332.14
977.187	2320.62
977.487	2311.8
977.787	2265.03
978.087	2245.59
978.387	2251.01
978.687	2247.62
978.987	2245.82
979.286	2241.75
979.586	2213.95
979.885	2196.55
980.185	2202.88
980.484	2187.97
980.784	2196.78
981.083	2190.68
981.382	2175.54
981.682	2186.84
981.981	2144.35
982.28	2142.32
982.579	2133.73
982.878	2125.59
983.177	2117.68
983.475	2092.37
983.774	2072.71
984.073	2051.25
984.372	2075.88
984.67	2048.53
984.969	2056.9
985.267	2057.35
985.566	2039.72
985.864	2027.52
986.162	2031.59
986.461	1987.07
986.759	1995.2
987.057	1984.58
987.355	2014.86
987.653	1990.68
987.951	1971.02
988.249	2008.76
988.547	1990.46
988.844	1941.19
989.142	1980.96
989.44	1925.37
989.737	1940.29
990.035	1962.43
990.332	1936.45
990.63	1916.11
990.927	1890.12
991.224	1896.9
991.521	1868.43
991.819	1876.33
992.116	1857.13
992.413	1837.47
992.71	1845.15
993.006	1834.08
993.303	1806.51
993.6	1818.03
993.897	1798.37
994.193	1788.2
994.49	1778.26
994.787	1778.48
995.083	1782.55
995.379	1785.04
995.676	1752.72
995.972	1758.82
996.268	1746.17
996.565	1735.77
996.861	1744.59
997.157	1769.9
997.453	1738.03
997.749	1715.21
998.044	1698.03
998.34	1721.08
998.636	1705.04
998.932	1685.83
999.227	1682.44
999.523	1666.17
999.818	1647.41
1000.114	1663.01
1000.409	1644.48
1000.704	1632.95
1001	1617.36
1001.295	1601.99
1001.59	1619.84
1001.885	1601.09
1002.18	1605.61
1002.475	1602.22
1002.77	1599.28
1003.065	1580.52
1003.359	1547.53
1003.654	1567.87
1003.949	1526.06
1004.243	1539.17
1004.538	1486.29
1004.832	1513.63
1005.127	1537.59
1005.421	1524.71
1005.715	1505.05
1006.009	1491.71
1006.304	1482.67
1006.598	1463.24
1006.892	1483.58
1007.186	1468.66
1007.48	1455.55
1007.773	1445.16
1008.067	1473.63
1008.361	1439.74
1008.655	1421.66
1008.948	1425.27
1009.242	1423.47
1009.535	1373.07
1009.829	1396.35
1010.122	1383.01
1010.415	1367.2
1010.708	1391.15
1011.001	1388.44
1011.295	1345.95
1011.588	1351.83
1011.881	1348.44
1012.173	1311.38
1012.466	1335.56
1012.759	1309.57
1013.052	1325.61
1013.344	1309.12
1013.637	1306.86
1013.93	1313.19
1014.222	1251.27
1014.514	1266.63
1014.807	1264.37
1015.099	1246.75
1015.391	1261.66
1015.683	1244.49
1015.976	1232.06
1016.268	1230.02
1016.56	1208.56
1016.851	1197.93
1017.143	1221.21
1017.435	1217.37
1017.727	1197.48
1018.018	1212.4
1018.31	1195
1018.602	1194.54
1018.893	1189.8
1019.185	1168.1
1019.476	1186.41
1019.767	1143.92
1020.058	1166.3
1020.35	1126.3
1020.641	1126.98
1020.932	1136.02
1021.223	1106.64
1021.514	1115.68
1021.804	1115.68
1022.095	1100.31
1022.386	1069.8
1022.677	1084.94
1022.967	1097.82
1023.258	1089.69
1023.548	1072.97
1023.839	1082.46
1024.129	1069.58
1024.419	1039.07
1024.709	1045.85
1025	1027.32
1025.29	1034.32
1025.58	1053.53
1025.87	1005.85
1026.16	1004.27
1026.449	1016.24
1026.739	1004.95
1027.029	975.79
1027.319	1004.49
1027.608	1007.88
1027.898	985.06
1028.187	944.83
1028.477	964.27
1028.766	964.04
1029.055	959.3
1029.344	949.58
1029.634	962.01
1029.923	949.13
1030.212	919.52
1030.501	940.54
1030.79	900.54
1031.078	915.91
1031.367	901.67
1031.656	898.06
1031.945	891.95
1032.233	883.59
1032.522	885.85
1032.81	889.02
1033.099	871.62
1033.387	907.77
1033.675	854.44
1033.963	883.59
1034.251	855.12
1034.54	857.6
1034.828	844.72
1035.116	854.21
1035.403	858.51
1035.691	840.2
1035.979	858.28
1036.267	860.99
1036.554	822.58
1036.842	823.93
1037.129	828.45
1037.417	795.23
1037.704	815.12
1037.992	805.85
1038.279	798.4
1038.566	805.18
1038.853	805.18
1039.14	805.18
