Data from breadboard_white_FLMS001491_00028.txt Node
Date: Wed Feb 08 10:47:30 GMT 2017
User: dcchb
Spectrometer: FLMS00149
Trigger mode: 0
Integration Time (sec): 2.000000E-2
Scans to average: 10
Electric dark correction enabled: true
Nonlinearity correction enabled: false
Boxcar width: 0
XAxis mode: Wavelengths
Number of Pixels in Spectrum: 2048
>>>>>Begin Spectral Data<<<<<
341.393	-22.7
341.776	-22.7
342.16	-22.7
342.543	-60.66
342.927	-55.01
343.31	-73.09
343.693	-81.68
344.077	-66.76
344.46	-62.47
344.843	-48.91
345.226	-31.28
345.61	-42.58
345.993	-12.75
346.376	5.78
346.759	15.49
347.142	42.61
347.525	35.61
347.908	51.88
348.291	66.11
348.674	88.49
349.057	113.57
349.44	106.56
349.823	155.83
350.206	156.96
350.588	225.43
350.971	236.73
351.354	254.58
351.737	272.21
352.119	294.36
352.502	283.74
352.884	297.07
353.267	294.36
353.65	288.93
354.032	325.32
354.414	318.08
354.797	346.56
355.179	338.2
355.562	339.1
355.944	337.52
356.326	344.07
356.709	359.21
357.091	368.7
357.473	376.16
357.855	379.78
358.238	351.53
358.62	349.72
359.002	376.84
359.384	384.07
359.766	384.98
360.148	364.86
360.53	363.96
360.912	371.19
361.294	376.39
361.676	360.57
362.057	352.21
362.439	375.71
362.821	366.67
363.203	353.11
363.584	370.29
363.966	353.11
364.348	369.16
364.729	376.84
365.111	362.6
365.493	355.15
365.874	373.68
366.256	340.91
366.637	343.85
367.019	353.56
367.4	357.18
367.781	341.14
368.163	351.08
368.544	375.26
368.925	358.54
369.306	369.83
369.688	377.52
370.069	340.01
370.45	372.77
370.831	355.37
371.212	387.01
371.593	378.2
371.974	368.25
372.355	361.02
372.736	363.06
373.117	363.06
373.498	384.98
373.879	368.25
374.26	360.12
374.641	369.16
375.021	374.58
375.402	387.91
375.783	357.86
376.163	390.4
376.544	405.09
376.925	378.2
377.305	401.02
377.686	406.44
378.066	378.2
378.447	414.81
378.827	397.4
379.208	422.04
379.588	401.25
379.968	388.59
380.349	420.46
380.729	388.82
381.109	416.84
381.489	432.21
381.87	434.69
382.25	448.02
382.63	456.61
383.01	435.14
383.39	446.44
383.77	432.66
384.15	460
384.53	468.14
384.91	479.89
385.29	456.84
385.67	480.57
386.049	463.62
386.429	472.66
386.809	494.58
387.189	493.45
387.568	468.59
387.948	497.97
388.328	508.14
388.707	504.52
389.087	490.96
389.466	525.31
389.846	532.77
390.225	490.06
390.605	535.93
390.984	530.51
391.363	527.8
391.743	532.54
392.122	562.15
392.501	560.34
392.881	560.79
393.26	595.82
393.639	579.77
394.018	613.9
394.397	587
394.776	610.51
395.155	582.48
395.534	631.3
395.913	638.98
396.292	615.25
396.671	664.06
397.05	640.56
397.429	654.57
397.808	680.56
398.186	704.74
398.565	701.8
398.944	702.03
399.323	717.62
399.701	722.82
400.08	729.15
400.458	731.63
400.837	761.01
401.215	778.41
401.594	755.36
401.972	765.98
402.351	785.64
402.729	819.09
403.107	827.9
403.486	841.69
403.864	833.33
404.242	869.48
404.62	870.61
404.999	919.42
405.377	903.61
405.755	914.68
406.133	936.15
406.511	946.77
406.889	979.08
407.267	1003.04
407.645	1003.04
408.023	1026.54
408.401	1053.88
408.779	1062.47
409.156	1098.86
409.534	1103.15
409.912	1101.12
410.29	1145.18
410.667	1172.3
411.045	1219.76
411.422	1216.14
411.8	1229.7
412.178	1263.82
412.555	1284.84
412.933	1315.12
413.31	1368.68
413.687	1342.92
414.065	1373.2
414.442	1388.79
414.819	1433.31
415.197	1478.96
415.574	1507.21
415.951	1512.86
416.328	1528.45
416.705	1540.88
417.082	1564.83
417.46	1605.73
417.837	1632.4
418.214	1644.38
418.591	1653.42
418.967	1661.78
419.344	1690.48
419.721	1716.92
420.098	1722.79
420.475	1761.89
420.852	1792.4
421.228	1826.75
421.605	1848.89
421.982	1864.48
422.358	1883.92
422.735	1897.03
423.111	1931.15
423.488	1961.88
423.864	1951.49
424.241	2009.34
424.617	2038.94
424.994	2048.43
425.37	2106.51
425.746	2085.27
426.123	2130.24
426.499	2149.9
426.875	2172.73
427.251	2227.64
427.627	2239.84
428.003	2258.15
428.379	2326.17
428.756	2353.29
429.132	2327.07
429.507	2431.02
429.883	2429.44
430.259	2502.66
430.635	2529.78
431.011	2546.95
431.387	2621.53
431.763	2628.31
432.138	2654.52
432.514	2681.86
432.89	2727.74
433.265	2839.37
433.641	2873.05
434.016	2805.48
434.392	2890.67
434.767	2976.55
435.143	2962.76
435.518	3025.58
435.894	3047.96
436.269	3078.69
436.644	3189.42
437.02	3158.69
437.395	3191
437.77	3216.99
438.145	3255.18
438.52	3300.83
438.895	3359.59
439.271	3389.64
439.646	3434.84
440.021	3475.52
440.395	3480.49
440.77	3459.02
441.145	3513.93
441.52	3565.91
441.895	3605.23
442.27	3622.86
442.645	3651.1
443.019	3678.9
443.394	3713.25
443.769	3737.88
444.143	3730.88
444.518	3794.38
444.892	3789.86
445.267	3819.46
445.641	3860.36
446.016	3889.97
446.39	3937.2
446.764	3959.57
447.139	3917.31
447.513	4020.81
447.887	4044.77
448.262	4049.74
448.636	4088.83
449.01	4151.88
449.384	4143.07
449.758	4223.52
450.132	4254.93
450.506	4311.2
450.88	4297.87
451.254	4301.71
451.628	4369.96
452.002	4462.16
452.376	4486.11
452.75	4527.01
453.123	4548.03
453.497	4656.95
453.871	4687.69
454.244	4797.29
454.618	4831.64
454.992	4946.89
455.365	4966.32
455.739	5027.57
456.112	5129.03
456.486	5109.37
456.859	5185.08
457.232	5330.38
457.606	5290.84
457.979	5382.36
458.352	5471.4
458.725	5530.15
459.099	5541.22
459.472	5718.39
459.845	5811.73
460.218	5782.12
460.591	5868.22
460.964	5891.05
461.337	5994.77
461.71	6190.92
462.083	6229.12
462.456	6235.9
462.829	6322.22
463.201	6410.35
463.574	6434.99
463.947	6541.42
464.32	6726.96
464.692	6727.18
465.065	6713.17
465.438	6860.96
465.81	6988.42
466.183	7075.65
466.555	7221.86
466.928	7246.04
467.3	7231.58
467.672	7373.49
468.045	7562.64
468.417	7643.99
468.789	7674.95
469.161	7775.74
469.534	7962.86
469.906	8128.5
470.278	8128.05
470.65	8317.2
471.022	8427.48
471.394	8576.85
471.766	8625.89
472.138	8836.73
472.51	8984.75
472.882	9121.7
473.253	9254.8
473.625	9368.92
473.997	9536.83
474.369	9651.17
474.74	9812.75
475.112	9951.73
475.484	10065.63
475.855	10287.77
476.227	10368.67
476.598	10695.89
476.97	10723.23
477.341	11000.06
477.713	11155.09
478.084	11276.67
478.455	11626.94
478.827	11678.24
479.198	12061.73
479.569	12042.97
479.94	12332.23
480.311	12458.56
480.682	12836.85
481.053	13044.53
481.424	13396.16
481.795	13425.99
482.166	13664.4
482.537	13817.39
482.908	14136.48
483.279	14290.15
483.65	14550.03
484.021	14773.75
484.391	15002.22
484.762	15229.11
485.133	15261.65
485.503	15512.71
485.874	15859.37
486.244	15964.91
486.615	16208.29
486.985	16408.74
487.356	16819.8
487.726	16937.99
488.097	17340.46
488.467	17369.84
488.837	17848.25
489.207	17890.05
489.578	18244.62
489.948	18297.95
490.318	18678.96
490.688	18769.58
491.058	19136.12
491.428	19339.28
491.798	19482.33
492.168	19875.08
492.538	19980.17
492.908	20258.58
493.278	20435.3
493.648	20546.03
494.017	20852.91
494.387	21057.43
494.757	21094.94
495.126	21383.52
495.496	21515.49
495.866	21673.23
496.235	21915.94
496.605	22089.72
496.974	22262.82
497.344	22548.91
497.713	22555.47
498.082	22755.01
498.452	23053.53
498.821	23320.64
499.19	23294.43
499.559	23640.41
499.928	23641.31
500.298	23832.04
500.667	24148.42
501.036	24017.12
501.405	24384.57
501.774	24446.26
502.143	24668.63
502.512	24760.61
502.88	24894.84
503.249	25022.97
503.618	25234.27
503.987	25408.72
504.356	25679.68
504.724	25744.53
505.093	25926.23
505.462	25947.02
505.83	26246.67
506.199	26328.25
506.567	26857.73
506.936	26709.71
507.304	27129.36
507.672	27200.77
508.041	27365.74
508.409	27607.08
508.777	27906.96
509.145	28030.58
509.514	28021.99
509.882	28260.4
510.25	28438.7
510.618	28695.64
510.986	28858.58
511.354	29164.78
511.722	29276.87
512.09	29595.96
512.458	29576.98
512.826	29973.35
513.193	30065.55
513.561	30173.35
513.929	30408.59
514.297	30684.52
514.664	30918.41
515.032	31255.35
515.4	31389.58
515.767	31441.33
516.135	31814.88
516.502	31634.32
516.869	32262.78
517.237	32397.69
517.604	32266.17
517.972	32720.4
518.339	33037.22
518.706	33186.6
519.073	33255.3
519.44	33567.61
519.808	33847.6
520.175	33909.74
520.542	34347.02
520.909	34698.2
521.276	34644.41
521.643	34994.01
522.009	35231.97
522.376	35593.77
522.743	35828.34
523.11	36064.26
523.477	36361.88
523.843	36703.12
524.21	36985.14
524.577	37218.58
524.943	37489.31
525.31	37732.92
525.676	37923.88
526.043	38289.74
526.409	38289.97
526.776	38814.47
527.142	38935.15
527.508	39242.49
527.874	39539.88
528.241	39660.33
528.607	39924.5
528.973	40285.4
529.339	40269.35
529.705	40681.54
530.071	41034.3
530.437	41166.5
530.803	41412.15
531.169	41682.65
531.535	41665.47
531.901	41840.38
532.267	41977.78
532.632	42321.73
532.998	42417.54
533.364	42681.49
533.73	42807.14
534.095	43243.06
534.461	43217.52
534.826	43541.13
535.192	43582.48
535.557	44011.63
535.923	43982.02
536.288	44034.22
536.653	44413.65
537.019	44210.49
537.384	44656.58
537.749	44795.56
538.114	44871.94
538.479	45061.77
538.845	45151.93
539.21	45202.1
539.575	45410.68
539.94	45500.4
540.305	45755.99
540.67	45713.5
541.034	45876.21
541.399	46030.78
541.764	46329.08
542.129	46396.65
542.494	46646.36
542.858	46606.13
543.223	46648.17
543.587	46980.36
543.952	46965.22
544.316	47159.11
544.681	47226
545.045	47411.31
545.41	47629.38
545.774	47679.55
546.138	47751.64
546.503	47900.79
546.867	47955.48
547.231	48194.57
547.595	48268.91
547.959	48500.32
548.324	48514.56
548.688	48578.06
549.052	48838.62
549.416	48804.49
549.779	48985.73
550.143	48994.55
550.507	49223.01
550.871	49397.92
551.235	49337.13
551.599	49721.08
551.962	49718.14
552.326	49971.24
552.689	50255.98
553.053	50052.82
553.417	50091.01
553.78	50576.42
554.143	50376.43
554.507	50603.54
554.87	50794.72
555.234	51029.07
555.597	50880.6
555.96	51026.58
556.323	51281.26
556.686	51325.11
557.05	51521.94
557.413	51658.43
557.776	51782.04
558.139	51980.46
558.502	52006.67
558.865	52061.81
559.228	52353.78
559.59	52415.25
559.953	52589.93
560.316	52898.85
560.679	52753.54
561.041	53024.27
561.404	53090.03
561.767	53372.06
562.129	53265.85
562.492	53578.61
562.854	53617.93
563.217	53608.44
563.579	53743.57
563.941	53973.17
564.304	54082.55
564.666	54309.21
565.028	54341.52
565.39	54420.84
565.753	54643.44
566.115	54639.59
566.477	54783.32
566.839	54840.95
567.201	55080.94
567.563	55089.98
567.925	55271.44
568.287	55293.36
568.648	55482.96
569.01	55461.49
569.372	55662.17
569.734	55630.3
570.095	55734.25
570.457	55863.29
570.819	56009.73
571.18	55954.59
571.542	56144.87
571.903	56181.93
572.265	56295.82
572.626	56288.82
572.987	56397.97
573.349	56511.64
573.71	56643.61
574.071	56684.74
574.432	56654.23
574.794	56896.03
575.155	56821.68
575.516	56831.18
575.877	56996.14
576.238	57009.02
576.599	57098.29
576.96	57106.87
577.32	57220.09
577.681	57319.52
578.042	57304.38
578.403	57301.45
578.763	57329.24
579.124	57349.13
579.485	57439.29
579.845	57484.94
580.206	57475.9
580.566	57480.65
580.927	57474.55
581.287	57604.94
581.648	57511.16
582.008	57592.74
582.368	57494.66
582.728	57643.36
583.089	57604.26
583.449	57617.14
583.809	57613.53
584.169	57679.06
584.529	57631.38
584.889	57823.47
585.249	57614.66
585.609	57620.76
585.969	57817.59
586.329	57697.82
586.688	57736.01
587.048	57693.75
587.408	57646.29
587.768	57641.55
588.127	57715.67
588.487	57627.54
588.846	57811.71
589.206	57684.94
589.565	57742.79
589.925	57842.22
590.284	57793.18
590.643	57809.68
591.003	57786.63
591.362	57863.69
591.721	57846.52
592.08	57856.68
592.44	57897.36
592.799	57905.05
593.158	57914.08
593.517	57854.43
593.876	57898.04
594.235	57794.99
594.593	57900.3
594.952	57981.2
595.311	57851.94
595.67	57886.29
596.029	58036.57
596.387	58051.48
596.746	58019.39
597.104	57992.5
597.463	57890.36
597.822	58030.24
598.18	57933.97
598.538	57992.95
598.897	58107.75
599.255	57903.92
599.613	58231.82
599.972	58044.48
600.33	58106.17
600.688	58011.26
601.046	58157.92
601.404	58270.46
601.762	58234.08
602.12	58338.93
602.478	58315.43
602.836	58324.7
603.194	58203.57
603.552	58264.58
603.91	58159.5
604.268	58349.78
604.625	58278.37
604.983	58400.4
605.341	58286.5
605.698	58398.37
606.056	58444.69
606.413	58502.77
606.771	58534.63
607.128	58497.12
607.485	58437.46
607.843	58483.34
608.2	58554.52
608.557	58678.58
608.914	58580.51
609.272	58630.45
609.629	58679.04
609.986	58821.63
610.343	58690.11
610.7	58875.42
611.057	58826.15
611.414	58817.56
611.771	58742.09
612.127	58888.07
612.484	58835.19
612.841	58928.97
613.198	58856.21
613.554	58894.4
613.911	59080.38
614.267	59018.24
614.624	59031.8
614.98	59031.57
615.337	59227.5
615.693	59072.02
616.05	59106.6
616.406	59251.9
616.762	59206.48
617.118	59165.8
617.475	59104.79
617.831	59234.28
618.187	59276.53
618.543	59231.11
618.899	59421.62
619.255	59299.58
619.611	59291.45
619.967	59369.19
620.323	59507.04
620.678	59278.12
621.034	59213.03
621.39	59273.37
621.746	59239.93
622.101	59513.14
622.457	59343.88
622.812	59391.79
623.168	59417.55
623.523	59417.1
623.879	59499.81
624.234	59337.1
624.589	59448.51
624.945	59402.63
625.3	59419.58
625.655	59408.73
626.01	59471.33
626.365	59413.71
626.72	59368.06
627.075	59385.91
627.43	59373.93
627.785	59358.79
628.14	59366.48
628.495	59351.33
628.85	59382.97
629.205	59229.08
629.559	59292.13
629.914	59225.46
630.269	59295.97
630.623	59212.81
630.978	59146.59
631.332	59239.47
631.687	59268.85
632.041	59185.69
632.396	59198.12
632.75	59178.01
633.104	59211.23
633.459	59030.67
633.813	59036.54
634.167	58982.31
634.521	58998.58
634.875	58965.58
635.229	58875.64
635.583	58794.06
635.937	58848.07
636.291	58776.66
636.645	58790.9
636.999	58750.45
637.352	58848.98
637.706	58686.04
638.06	58792.93
638.413	58696.44
638.767	58604.24
639.121	58700.28
639.474	58428.65
639.828	58501.19
640.181	58556.33
640.534	58510
640.888	58382.77
641.241	58324.92
641.594	58378.93
641.947	58457.35
642.301	58320.18
642.654	58334.64
643.007	58338.71
643.36	58263
643.713	58174.64
644.066	58287.18
644.419	58205.83
644.771	58044.48
645.124	57774.2
645.477	57834.76
645.83	57570.82
646.182	57457.15
646.535	57395
646.888	57394.1
647.24	57269.13
647.593	57354.33
647.945	57336.92
648.298	57158.62
648.65	57068.68
649.002	57014.45
649.355	57212.86
649.707	57121.11
650.059	57255.12
650.411	57541.44
650.763	57497.37
651.115	57764.94
651.467	57733.98
651.819	57711.38
652.171	57595.45
652.523	57540.54
652.875	57549.12
653.227	57451.95
653.578	57598.39
653.93	57544.83
654.282	57404.49
654.633	57364.72
654.985	57423.93
655.337	57409.47
655.688	57355.91
656.039	57406.53
656.391	57234.55
656.742	57298.96
657.094	57354.33
657.445	57447.43
657.796	57271.84
658.147	57196.59
658.498	57170.15
658.849	57254.89
659.2	57212.86
659.551	57166.08
659.902	57303.71
660.253	57141
660.604	57268.45
660.955	57039.98
661.306	57108
661.656	57033.66
662.007	57049.7
662.358	57037.05
662.708	57051.73
663.059	57034.79
663.409	56817.16
663.76	57080.66
664.11	57081.34
664.461	57075.46
664.811	57072.98
665.161	57028.91
665.511	56888.35
665.862	57000.44
666.212	57036.37
666.562	56954.56
666.912	56946.2
667.262	56920.44
667.612	56920.44
667.962	56883.38
668.312	56855.58
668.662	56974.45
669.011	56899.2
669.361	56842.93
669.711	56824.85
670.06	56816.94
670.41	56742.82
670.76	56629.82
671.109	56747.56
671.459	56759.99
671.808	56670.5
672.157	56689.26
672.507	56524.97
672.856	56588.7
673.205	56568.36
673.554	56623.72
673.904	56492.65
674.253	56636.83
674.602	56518.64
674.951	56106.22
675.3	56056.51
675.649	56421.92
675.998	56484.07
676.346	56409.94
676.695	56512.77
677.044	56271.87
677.393	56374.01
677.741	56435.48
678.09	56316.39
678.438	56230.51
678.787	56285.2
679.135	56281.36
679.484	56086.11
679.832	56143.51
680.181	56090.63
680.529	56105.09
680.877	55960.69
681.225	55946.23
681.573	56116.62
681.922	55910.07
682.27	55818.32
682.618	55717.31
682.966	55836.17
683.314	55841.6
683.661	55810.41
684.009	55631.43
684.357	55482.28
684.705	55490.65
685.053	55529.51
685.4	55434.38
685.748	55271.44
686.095	55301.27
686.443	55178.79
686.79	55140.37
687.138	55188.28
687.485	55193.7
687.832	55105.8
688.18	55162.29
688.527	54911.23
688.874	54890.44
689.221	54871.9
689.568	54798.46
689.915	54745.58
690.262	54689.76
690.609	54685.69
690.956	54519.82
691.303	54562.53
691.65	54396.66
691.997	54355.08
692.344	54216.55
692.69	54177.69
693.037	54202.32
693.383	53918.94
693.73	53988.99
694.077	53784.93
694.423	53847.07
694.769	53688.43
695.116	53746.74
695.462	53632.62
695.808	53476.24
696.155	53532.05
696.501	53306.75
696.847	53357.82
697.193	53091.61
697.539	53259.29
697.885	52888
698.231	52856.14
698.577	52805.52
698.923	52864.27
699.269	52581.34
699.614	52405.08
699.96	52351.29
700.306	52439.43
700.651	52237.17
700.997	52201.69
701.342	52054.35
701.688	51988.36
702.033	51947.91
702.379	51915.37
702.724	51777.3
703.069	51844.19
703.415	51525.1
703.76	51551.54
704.105	51428.61
704.45	51359.91
704.795	51220.48
705.14	51159.69
705.485	51041.5
705.83	50877.21
706.175	50951.33
706.52	50838.56
706.865	50706.82
707.209	50649.87
707.554	50643.09
707.899	50695.97
708.243	50381.18
708.588	50339.82
708.932	50107.51
709.277	50176.89
709.621	50148.41
709.966	49832.49
710.31	49896.44
710.654	49521.08
710.998	49663.45
711.342	49745.71
711.687	49631.82
712.031	49399.96
712.375	49306.4
712.719	49349.11
713.063	49213.75
713.407	49258.94
713.75	49210.36
714.094	49161.55
714.438	48886.75
714.782	49029.12
715.125	48817.83
715.469	48787.32
715.812	48631.16
716.156	48358.86
716.499	48396.37
716.843	48545.52
717.186	48230.27
717.53	48406.09
717.873	48357.27
718.216	48264.85
718.559	48172.19
718.902	47844.29
719.246	47827.34
719.589	47824.63
719.932	47648.37
720.275	47608.82
720.617	47485.66
720.96	47479.33
721.303	47551.65
721.646	47525.66
721.989	47245.44
722.331	47326.11
722.674	47159.57
723.016	47177.42
723.359	47104.43
723.701	47121.15
724.044	46793.7
724.386	46654.72
724.729	46865.79
725.071	46776.75
725.413	46701.72
725.755	46530.43
726.097	46399.36
726.439	46186.26
726.782	46272.58
727.124	46327.72
727.465	46101.51
727.807	46088.41
728.149	45926.83
728.491	45960.73
728.833	45993.04
729.175	45759.38
729.516	45678.02
729.858	45654.29
730.199	45680.96
730.541	45471.47
730.882	45436.22
731.224	45574.3
731.565	45254.3
731.906	45419.72
732.248	45308.54
732.589	45069.22
732.93	45012.5
733.271	44979.06
733.612	45012.05
733.953	45036.68
734.294	44872.62
734.635	44718.05
734.976	44817.03
735.317	44565.73
735.658	44570.93
735.999	44522.35
736.339	44390.6
736.68	44597.37
737.021	44257.49
737.361	44139.08
737.702	44282.35
738.042	44109.02
738.383	44050.49
738.723	44021.34
739.063	43891.85
739.404	43857.96
739.744	43775.47
740.084	43792.87
740.424	43743.84
740.764	43552.2
741.104	43793.78
741.444	43470.62
741.784	43359.44
742.124	43491.86
742.464	43348.82
742.804	43116.51
743.143	43211.65
743.483	43091.2
743.823	42907.47
744.162	42910.64
744.502	43028.83
744.841	42650.76
745.181	42942.05
745.52	42698.67
745.86	42804.2
746.199	42566.69
746.538	42554.49
746.877	42559.23
747.216	42498.22
747.556	42277.21
747.895	42205.12
748.234	42123.54
748.573	42185.91
748.911	42096.65
749.25	41919.48
749.589	41692.36
749.928	41834.96
750.267	41708.41
750.605	41592.48
750.944	41460.96
751.283	41408.76
751.621	41398.59
751.96	41195.65
752.298	41093.51
752.636	41090.12
752.975	41013.74
753.313	40932.38
753.651	41033.17
753.989	40647.87
754.327	40548.44
754.666	40433.41
755.004	40558.61
755.342	40465.96
755.679	40258.28
756.017	40126.3
756.355	40223.93
756.693	39910.04
757.031	40061.67
757.368	39877.27
757.706	39917.95
758.044	39622.36
758.381	39510.95
758.719	39480.44
759.056	39375.14
759.394	39210.62
759.731	39063.96
760.068	39013.79
760.405	38842.95
760.743	38705.1
761.08	38741.93
761.417	38562.28
761.754	38381.04
762.091	38430.53
762.428	38299.23
762.765	38035.74
763.102	38196.64
763.438	37809.75
763.775	37759.59
764.112	37675.52
764.449	37757.55
764.785	37371.57
765.122	37287.73
765.458	37076.44
765.795	37128.64
766.131	37157.79
766.467	36970.23
766.804	36817.24
767.14	36582.22
767.476	36439.39
767.812	36422.67
768.148	36397.14
768.485	36146.52
768.821	35959.63
769.157	35969.12
769.492	35727.32
769.828	35728.68
770.164	35410.04
770.5	35393.55
770.836	35384.28
771.171	35032.2
771.507	35120.79
771.842	34781.13
772.178	34948.81
772.513	34749.27
772.849	34662.94
773.184	34353.57
773.519	34338.21
773.855	34184.31
774.19	34020.25
774.525	33910.2
774.86	33953.58
775.195	33784.32
775.53	33615.06
775.865	33424.56
776.2	33148.63
776.535	32982.54
776.87	32964.23
777.205	32855.53
777.539	32741.19
777.874	32792.03
778.209	32379.16
778.543	32423.91
778.878	32259.62
779.212	32309.33
779.547	32228.88
779.881	32174.87
780.215	31803.58
780.55	32019.85
780.884	31706.41
781.218	31712.97
781.552	31681.1
781.886	31510.49
782.22	31263.49
782.554	31224.39
782.888	30853.33
783.222	30775.82
783.556	30727.45
783.889	30630.28
784.223	30362.27
784.557	30363.17
784.89	30422.15
785.224	30148.26
785.557	30050.18
785.891	29973.35
786.224	29829.17
786.558	29859.23
786.891	29502.63
787.224	29416.75
787.557	29468.05
787.891	29355.74
788.224	29313.71
788.557	29149.64
788.89	29058.35
789.223	29084.56
789.556	28810.22
789.888	28864
790.221	28689.77
790.554	28385.6
790.887	28553.95
791.219	28250.68
791.552	28248.65
791.884	28096.34
792.217	28071.25
792.549	27997.58
792.882	27808.21
793.214	27669.68
793.546	27741.54
793.879	27504.49
794.211	27303.36
794.543	27468.33
794.875	27363.93
795.207	27415.23
795.539	27133.65
795.871	27100.88
796.203	26932.53
796.535	26765.3
796.867	26733.21
797.198	26600.33
797.53	26611.4
797.862	26323.5
798.193	26515.81
798.525	26285.99
798.856	26297.06
799.188	26039.67
799.519	25939.56
799.85	25851.65
800.182	25848.49
800.513	25764.42
800.844	25625.22
801.175	25641.26
801.506	25518.1
801.837	25502.73
802.168	25416.63
802.499	25356.3
802.83	25133.48
803.161	25108.85
803.491	25082.18
803.822	25099.35
804.153	24850.55
804.483	24722.41
804.814	24721.29
805.145	24709.08
805.475	24623.43
805.805	24520.39
806.136	24485.81
806.466	24431.58
806.796	24387.28
807.126	24211.02
807.457	24179.6
807.787	24105.71
808.117	23963.11
808.447	23922.66
808.777	24015.99
809.107	23797.24
809.436	23778.71
809.766	23866.39
810.096	23709.56
810.426	23448.32
810.755	23548.89
811.085	23451.26
811.414	23322
811.744	23203.36
812.073	23289.01
812.403	23215.11
812.732	23067.77
813.061	23006.98
813.39	22810.15
813.719	22847.44
814.049	23015.12
814.378	22891.5
814.707	22768.79
815.036	22743.71
815.365	22501.68
815.693	22319.99
816.022	22420.33
816.351	22483.83
816.68	22187.57
817.008	22348.24
817.337	22158.41
817.665	22065.31
817.994	22211.97
818.322	22144.18
818.651	22006.78
818.979	21997.29
819.307	22045.42
819.636	21875.26
819.964	21755.26
820.292	21848.82
820.62	21815.37
820.948	21818.31
821.276	21858.76
821.604	21731.31
821.932	21839.78
822.259	21728.37
822.587	21713
822.915	21622.84
823.243	21767.69
823.57	21520.01
823.898	21626.45
824.225	21541.26
824.553	21593.46
824.88	21561.59
825.207	21661.48
825.535	21609.95
825.862	21659.22
826.189	21482.27
826.516	21627.58
826.843	21649.95
827.17	21653.8
827.497	21605.21
827.824	21534.02
828.151	21549.84
828.478	21455.61
828.805	21646.79
829.131	21439.56
829.458	21508.71
829.785	21318.89
830.111	21402.28
830.438	21486.79
830.764	21422.16
831.09	21426.23
831.417	21333.58
831.743	21491.99
832.069	21398.89
832.395	21435.72
832.722	21510.07
833.048	21291.54
833.374	21397.08
833.7	21186.69
834.026	21201.38
834.351	21268.72
834.677	21227.59
835.003	21246.57
835.329	21142.85
835.654	21155.5
835.98	21089.74
836.306	20991.44
836.631	21014.72
836.956	21042.29
837.282	21094.71
837.607	20985.79
837.932	20868.73
838.258	20870.31
838.583	20821.95
838.908	20699.24
839.233	20731.33
839.558	20692.69
839.883	20685.91
840.208	20636.87
840.533	20560.49
840.858	20557.33
841.182	20614.27
841.507	20502.86
841.832	20419.03
842.156	20422.41
842.481	20249.09
842.805	20329.99
843.13	20214.51
843.454	20337.9
843.778	20024.91
844.103	20110.56
844.427	19985.14
844.751	20066.27
845.075	19836.67
845.399	19899.72
845.723	19779.95
846.047	19761.19
846.371	19665.6
846.695	19653.17
847.019	19476.23
847.343	19396.45
847.666	19264.71
847.99	19193.29
848.313	19246.4
848.637	19101.55
848.96	19017.71
849.284	18927.09
849.607	18808.67
849.931	18880.76
850.254	18630.82
850.577	18632.86
850.9	18397.16
851.223	18452.3
851.546	18393.32
851.869	18222.02
852.192	18281
852.515	18096.6
852.838	18025.87
853.161	17973.67
853.483	17904.06
853.806	17864.52
854.129	17824.74
854.451	17737.06
854.774	17628.14
855.096	17653.22
855.419	17559.21
855.741	17553.79
856.063	17437.86
856.385	17360.12
856.708	17267.7
857.03	17326.45
857.352	17314.47
857.674	17277.64
857.996	17144.76
858.318	17069.28
858.64	17080.58
858.961	17016.18
859.283	16982.05
859.605	16908.16
859.926	16996.97
860.248	16828.39
860.57	16765.11
860.891	16739.35
861.212	16669.52
861.534	16634.72
861.855	16446.47
862.176	16685.79
862.498	16522.63
862.819	16613.02
863.14	16419.13
863.461	16282.64
863.782	16326.7
864.103	16378
864.424	16358.34
864.745	16366.48
865.065	16154.05
865.386	16182.3
865.707	16186.14
866.027	16171
866.348	16091.68
866.668	16037.22
866.989	15998.8
867.309	15831.35
867.63	15926.04
867.95	15881.97
868.27	15839.26
868.59	15785.47
868.91	15804.68
869.23	15795.64
869.55	15771.24
869.87	15771.92
870.19	15745.93
870.51	15743.22
870.83	15709.09
871.15	15672.71
871.469	15564.01
871.789	15627.96
872.109	15613.73
872.428	15474.97
872.748	15503.22
873.067	15460.51
873.386	15489.44
873.706	15412.15
874.025	15308.43
874.344	15384.81
874.663	15327.86
874.982	15261.65
875.301	15343.45
875.62	15161.08
875.939	15233.85
876.258	15179.39
876.577	15109.79
876.896	15142.33
877.214	15071.14
877.533	15069.79
877.852	15006.06
878.17	15116.34
878.489	15158.6
878.807	15009.9
879.125	15046.96
879.444	14983.01
879.762	14972.61
880.08	14850.13
880.398	14786.86
880.716	14795.22
881.034	14762.68
881.352	14790.25
881.67	14710.7
881.988	14695.33
882.306	14669.12
882.624	14581.21
882.941	14568.78
883.259	14464.15
883.577	14486.07
883.894	14443.14
884.212	14430.93
884.529	14401.56
884.846	14369.47
885.164	14346.19
885.481	14321.11
885.798	14375.79
886.115	14169.25
886.432	14217.61
886.75	14250.15
887.067	14186.87
887.383	14146.87
887.7	14196.36
888.017	14119.98
888.334	13995.24
888.651	14056.48
888.967	14053.32
889.284	13934
889.6	13872.3
889.917	13841.35
890.233	13822.59
890.55	13754.79
890.866	13669.6
891.182	13720.9
891.498	13626.66
891.815	13541.24
892.131	13560.45
892.447	13523.16
892.763	13505.08
893.079	13402.71
893.395	13391.64
893.71	13341.47
894.026	13308.93
894.342	13316.84
894.657	13199.55
894.973	13153.91
895.289	13149.16
895.604	13126.11
895.92	13006.79
896.235	12968.83
896.55	12990.07
896.865	12943.29
897.181	12882.05
897.496	12852.9
897.811	12799.56
898.126	12762.96
898.441	12717.08
898.756	12668.95
899.071	12531.55
899.386	12549.63
899.7	12437.09
900.015	12418.11
900.33	12406.81
900.644	12386.47
900.959	12370.88
901.273	12255.17
901.588	12185.8
901.902	12125.23
902.216	12129.3
902.531	12162.07
902.845	12057.21
903.159	12032.58
903.473	12005.46
903.787	11877.33
904.101	11764.56
904.415	11872.81
904.729	11794.85
905.042	11747.61
905.356	11738.58
905.67	11700.38
905.984	11628.97
906.297	11567.28
906.611	11511.91
906.924	11388.98
907.237	11395.31
907.551	11456.32
907.864	11284.8
908.177	11264.46
908.491	11260.62
908.804	11169.1
909.117	11096.33
909.43	11112.15
909.743	11040.74
910.056	11008.88
910.368	10972.49
910.681	10921.2
910.994	10902.67
911.307	10811.59
911.619	10755.1
911.932	10746.96
912.244	10675.78
912.557	10679.39
912.869	10543.58
913.181	10488.21
913.494	10496.35
913.806	10444.37
914.118	10422.45
914.43	10319.18
914.742	10348.33
915.054	10308.56
915.366	10240.54
915.678	10125.28
915.99	10133.42
916.302	10096.13
916.613	10041.67
916.925	9999.41
917.236	10019.07
917.548	9919.41
917.859	9857.27
918.171	9881.22
918.482	9792.86
918.794	9772.53
919.105	9684.84
919.416	9681.68
919.727	9648.46
920.038	9645.3
920.349	9561.68
920.66	9498.63
920.971	9483.27
921.282	9427.9
921.593	9398.75
921.903	9234.01
922.214	9282.82
922.525	9253.67
922.835	9196.27
923.146	9182.71
923.456	9196.04
923.767	9107.23
924.077	9179.55
924.387	9108.14
924.697	8963.96
925.008	9003.96
925.318	8900.46
925.628	8859.1
925.938	8859.1
926.248	8779.33
926.558	8764.64
926.867	8792.21
927.177	8711.76
927.487	8701.82
927.796	8633.57
928.106	8539.79
928.416	8548.83
928.725	8493.46
929.034	8482.84
929.344	8471.54
929.653	8378.66
929.962	8319.46
930.271	8279.23
930.581	8270.87
930.89	8240.59
931.199	8202.85
931.508	8156.07
931.817	8149.07
932.125	8121.04
932.434	8040.37
932.743	7947.49
933.051	7988.39
933.36	7879.02
933.669	7822.97
933.977	7898.22
934.286	7829.3
934.594	7845.12
934.902	7719.7
935.21	7712.92
935.519	7737.55
935.827	7693.26
936.135	7688.29
936.443	7586.14
936.751	7524.45
937.059	7554.73
937.367	7479.25
937.674	7462.53
937.982	7403.55
938.29	7393.15
938.597	7380.72
938.905	7329.88
939.213	7290.56
939.52	7255.76
939.827	7293.04
940.135	7194.29
940.442	7140.28
940.749	7163.78
941.056	7102.09
941.363	7059.15
941.67	7065.03
941.977	7001.07
942.284	6970.11
942.591	6964.92
942.898	6980.28
943.205	6884.24
943.511	6837.91
943.818	6785.03
944.125	6768.76
944.431	6737.8
944.738	6761.53
945.044	6714.98
945.35	6693.06
945.657	6660.06
945.963	6656.9
946.269	6554.53
946.575	6638.6
946.881	6485.15
947.187	6496.23
947.493	6482.44
947.799	6485.15
948.105	6441.09
948.41	6350.69
948.716	6386.4
949.022	6334.65
949.327	6297.81
949.633	6220.3
949.938	6276.8
950.244	6146.18
950.549	6190.92
950.854	6167.2
951.16	6101.21
951.465	6065.28
951.77	6039.52
952.075	6078.39
952.38	6002.23
952.685	5987.31
952.99	5942.12
953.294	5965.17
953.599	5932.85
953.904	5883.59
954.209	5843.59
954.513	5892.18
954.818	5785.96
955.122	5825.51
955.426	5751.39
955.731	5705.29
956.035	5711.84
956.339	5697.6
956.643	5696.93
956.948	5664.61
957.252	5629.58
957.556	5578.29
957.86	5533.54
958.163	5519.76
958.467	5545.74
958.771	5524.05
959.075	5480.66
959.378	5461.68
959.682	5429.59
959.985	5353.43
960.289	5362.7
960.592	5312.08
960.896	5279.31
961.199	5261.68
961.502	5259.42
961.805	5243.15
962.108	5199.09
962.411	5178.75
962.714	5126.32
963.017	5153.66
963.32	5098.75
963.623	5132.2
963.926	5098.75
964.228	5034.57
964.531	5017.62
964.833	5014.01
965.136	4932.65
965.438	4954.8
965.741	4917.06
966.043	4929.04
966.345	4902.37
966.648	4889.94
966.95	4857.63
967.252	4832.77
967.554	4789.83
967.856	4795.48
968.158	4731.3
968.46	4759.55
968.761	4706.9
969.063	4715.03
969.365	4642.26
969.666	4654.47
969.968	4642.04
970.269	4608.59
970.571	4599.78
970.872	4590.97
971.174	4513.91
971.475	4564.53
971.776	4520.69
972.077	4479.33
972.378	4512.55
972.679	4465.32
972.98	4473.91
973.281	4391.2
973.582	4411.99
973.883	4358.2
974.183	4310.97
974.484	4357.07
974.785	4282.05
975.085	4290.41
975.386	4253.8
975.686	4256.06
975.986	4248.6
976.287	4202.28
976.587	4236.4
976.887	4167.7
977.187	4176.06
977.487	4139
977.787	4124.76
978.087	4103.3
978.387	4045.67
978.687	4086.35
978.987	4075.73
979.286	4056.07
979.586	4006.12
979.885	4022.17
980.185	3981.27
980.484	3933.81
980.784	3910.53
981.083	3939.46
981.382	3885.67
981.682	3907.37
981.981	3878.44
982.28	3853.13
982.579	3784.89
982.878	3835.28
983.177	3806.13
983.475	3777.43
983.774	3770.2
984.073	3750.54
984.372	3686.58
984.67	3686.58
984.969	3695.85
985.267	3686.58
985.566	3654.49
985.864	3644.1
986.162	3619.02
986.461	3599.13
986.759	3587.38
987.057	3550.99
987.355	3558.23
987.653	3520.94
987.951	3511.9
988.249	3490.43
988.547	3492.24
988.844	3491.33
989.142	3472.35
989.44	3477.55
989.737	3412.24
990.035	3382.19
990.332	3387.38
990.63	3408.63
990.927	3347.16
991.224	3325.92
991.521	3338.12
991.819	3306.93
992.116	3304.67
992.413	3234.39
992.71	3272.81
993.006	3238.01
993.303	3206.82
993.6	3244.79
993.897	3172.47
994.193	3193.49
994.49	3166.15
994.787	3080.05
995.083	3168.86
995.379	3135.86
995.676	3064.23
995.972	3079.37
996.268	3069.65
996.565	3022.42
996.861	3043.66
997.157	3035.75
997.453	2984.91
997.749	3009.09
998.044	2955.76
998.34	2937.23
998.636	2967.05
998.932	2936.1
999.227	2905.36
999.523	2869.66
999.818	2838.24
1000.114	2877.11
1000.409	2834.18
1000.704	2847.96
1001	2806.16
1001.295	2788.3
1001.59	2766.16
1001.885	2788.53
1002.18	2738.81
1002.475	2704.91
1002.77	2715.99
1003.065	2691.13
1003.359	2688.19
1003.654	2669.66
1003.949	2665.59
1004.243	2649.1
1004.538	2640.74
1004.832	2632.37
1005.127	2589.21
1005.421	2568.65
1005.715	2584.01
1006.009	2534.3
1006.304	2548.31
1006.598	2513.96
1006.892	2504.02
1007.186	2489.55
1007.48	2456.79
1007.773	2455.66
1008.067	2441.87
1008.361	2433.74
1008.655	2416.79
1008.948	2398.71
1009.242	2363.91
1009.535	2353.96
1009.829	2327.98
1010.122	2354.87
1010.415	2352.61
1010.708	2306.96
1011.001	2282.33
1011.295	2260.41
1011.588	2276.68
1011.881	2272.61
1012.173	2249.33
1012.466	2248.66
1012.759	2265.6
1013.052	2216.34
1013.344	2196.91
1013.637	2166.17
1013.93	2184.48
1014.222	2167.98
1014.514	2127.08
1014.807	2124.14
1015.099	2108.77
1015.391	2079.62
1015.683	2097.25
1015.976	2078.04
1016.268	2044.82
1016.56	2036.46
1016.851	1986.29
1017.143	2021.32
1017.435	1993.75
1017.727	1991.26
1018.018	1971.37
1018.31	1966.63
1018.602	1960.3
1018.893	1938.38
1019.185	1930.92
1019.476	1905.84
1019.767	1887.54
1020.058	1891.83
1020.35	1876.69
1020.641	1855.22
1020.932	1840.08
1021.223	1825.62
1021.514	1810.93
1021.804	1799.18
1022.095	1798.05
1022.386	1794.2
1022.677	1763.02
1022.967	1750.59
1023.258	1737.71
1023.548	1745.39
1023.839	1693.64
1024.129	1717.37
1024.419	1671.95
1024.709	1670.37
1025	1660.65
1025.29	1692.06
1025.58	1662.68
1025.87	1627.65
1026.16	1629.46
1026.449	1619.97
1026.739	1618.62
1027.029	1629.46
1027.319	1591.5
1027.608	1575.45
1027.898	1573.19
1028.187	1587.88
1028.477	1525.74
1028.766	1516.25
1029.055	1517.6
1029.344	1514.89
1029.634	1478.28
1029.923	1499.07
1030.212	1482.8
1030.501	1479.18
1030.79	1435.57
1031.078	1451.39
1031.367	1428.34
1031.656	1427.89
1031.945	1410.49
1032.233	1403.25
1032.522	1410.71
1032.81	1371.84
1033.099	1388.79
1033.387	1380.66
1033.675	1313.76
1033.963	1342.92
1034.251	1341.11
1034.54	1306.99
1034.828	1298.85
1035.116	1320.09
1035.403	1316.25
1035.691	1287.1
1035.979	1281.68
1036.267	1292.52
1036.554	1265.86
1036.842	1238.74
1037.129	1229.93
1037.417	1234.9
1037.704	1224.05
1037.992	1228.8
1038.279	1243.03
1038.566	1224.05
1038.853	1224.05
1039.14	1224.05
