Data from breadboard_black_back_FLMS001491_00074.txt Node
Date: Wed Feb 08 10:50:53 GMT 2017
User: dcchb
Spectrometer: FLMS00149
Trigger mode: 0
Integration Time (sec): 2.000000E-2
Scans to average: 10
Electric dark correction enabled: true
Nonlinearity correction enabled: false
Boxcar width: 0
XAxis mode: Wavelengths
Number of Pixels in Spectrum: 2048
>>>>>Begin Spectral Data<<<<<
341.393	-15.68
341.776	-15.68
342.16	-15.68
342.543	-50.7
342.927	-64.72
343.31	-50.48
343.693	-54.32
344.077	-60.2
344.46	-67.65
344.843	-71.72
345.226	-51.38
345.61	-35.56
345.993	-14.55
346.376	-4.6
346.759	14.83
347.142	17.32
347.525	54.6
347.908	59.8
348.291	71.78
348.674	89.18
349.057	102.96
349.44	125.11
349.823	137.31
350.206	167.82
350.588	189.97
350.971	202.4
351.354	232.68
351.737	242.39
352.119	252.34
352.502	241.94
352.884	264.99
353.267	297.76
353.65	301.83
354.032	301.15
354.414	297.76
354.797	321.26
355.179	341.6
355.562	326.69
355.944	346.35
356.326	327.59
356.709	351.54
357.091	335.27
357.473	344.76
357.855	344.99
358.238	354.71
358.62	349.74
359.002	343.86
359.384	344.54
359.766	354.71
360.148	355.39
360.53	371.88
360.912	339.79
361.294	326.46
361.676	345.22
362.057	344.76
362.439	312.9
362.821	337.76
363.203	367.59
363.584	343.86
363.966	318.78
364.348	322.17
364.729	357.65
365.111	340.92
365.493	354.26
365.874	340.02
366.256	336.18
366.637	328.72
367.019	342.28
367.4	328.95
367.781	348.83
368.163	337.76
368.544	335.73
368.925	338.44
369.306	365.78
369.688	337.76
370.069	345.44
370.45	349.96
370.831	345.44
371.212	335.73
371.593	329.85
371.974	338.44
372.355	366.23
372.736	352
373.117	347.48
373.498	358.55
373.879	348.15
374.26	356.74
374.641	345.67
375.021	369.17
375.402	375.27
375.783	388.83
376.163	392.22
376.544	383.41
376.925	378.89
377.305	367.14
377.686	363.97
378.066	386.35
378.447	394.48
378.827	377.98
379.208	367.14
379.588	375.05
379.968	390.41
380.349	392.22
380.729	385.44
381.109	401.03
381.489	384.31
381.87	392.45
382.25	405.33
382.63	406.68
383.01	373.24
383.39	405.33
383.77	420.47
384.15	427.47
384.53	420.92
384.91	420.92
385.29	414.59
385.67	411.66
386.049	431.32
386.429	446.91
386.809	441.03
387.189	444.88
387.568	456.4
387.948	448.49
388.328	436.97
388.707	442.39
389.087	462.95
389.466	451.43
389.846	455.95
390.225	460.47
390.605	495.72
390.984	453.24
391.363	460.02
391.743	491.88
392.122	481.71
392.501	475.61
392.881	501.15
393.26	495.95
393.639	508.38
394.018	502.5
394.397	490.98
394.776	508.38
395.155	513.12
395.534	526.23
395.913	526.68
396.292	524.2
396.671	539.56
397.05	527.13
397.429	547.92
397.808	520.35
398.186	554.25
398.565	559
398.944	548.83
399.323	552.44
399.701	551.09
400.08	553.12
400.458	568.71
400.837	584.76
401.215	581.59
401.594	580.24
401.972	579.34
402.351	582.27
402.729	612.55
403.107	596.28
403.486	609.16
403.864	617.07
404.242	624.98
404.62	622.72
404.999	624.98
405.377	614.81
405.755	637.64
406.133	638.09
406.511	655.94
406.889	668.82
407.267	683.97
407.645	680.35
408.023	690.07
408.401	675.15
408.779	707.47
409.156	717.18
409.534	714.7
409.912	697.75
410.29	727.35
410.667	738.88
411.045	751.53
411.422	737.97
411.8	765.09
412.178	780.69
412.555	781.36
412.933	783.85
413.31	781.36
413.687	791.31
414.065	819.55
414.442	836.28
414.819	827.24
415.197	839.89
415.574	869.5
415.951	824.53
416.328	856.16
416.705	856.39
417.082	874.69
417.46	870.17
417.837	886.22
418.214	877.18
418.591	925.09
418.967	915.6
419.344	918.54
419.721	930.06
420.098	932.55
420.475	937.74
420.852	949.72
421.228	973
421.605	977.97
421.982	967.8
422.358	999.44
422.735	993.79
423.111	997.4
423.488	1035.14
423.864	1025.88
424.241	1044.18
424.617	1048.25
424.994	1064.07
425.37	1042.37
425.746	1074.01
426.123	1064.07
426.499	1125.76
426.875	1089.15
427.251	1114.69
427.627	1156.04
428.003	1135.93
428.379	1149.72
428.756	1171.86
429.132	1204.4
429.507	1220.22
429.883	1244.4
430.259	1232.2
430.635	1245.98
431.011	1294.12
431.387	1282.14
431.763	1304.51
432.138	1285.98
432.514	1340.44
432.89	1355.59
433.265	1398.3
433.641	1399.88
434.016	1378.18
434.392	1401.23
434.767	1443.04
435.143	1452.53
435.518	1450.05
435.894	1490.72
436.269	1494.57
436.644	1486.43
437.02	1499.76
437.395	1531.17
437.77	1530.5
438.145	1573.21
438.52	1552.87
438.895	1599.65
439.271	1584.73
439.646	1637.39
440.021	1619.76
440.395	1684.62
440.77	1647.1
441.145	1681
441.52	1698.85
441.895	1683.03
442.27	1683.26
442.645	1700.66
443.019	1734.11
443.394	1733.2
443.769	1770.49
444.143	1726.42
444.518	1791.28
444.892	1792.41
445.267	1817.95
445.641	1800.32
446.016	1851.17
446.39	1906.31
446.764	1858.62
447.139	1856.82
447.513	1876.48
447.887	1886.19
448.262	1911.28
448.636	1913.76
449.01	1922.12
449.384	1939.75
449.758	1944.72
450.132	1984.5
450.506	2032.63
450.88	2007.32
451.254	2027.21
451.628	2055
452.002	2048.22
452.376	2110.82
452.75	2126.86
453.123	2158.95
453.497	2160.76
453.871	2198.05
454.244	2231.49
454.618	2229.46
454.992	2283.92
455.365	2297.71
455.739	2318.72
456.112	2347.65
456.486	2374.54
456.859	2391.26
457.232	2414.77
457.606	2445.27
457.979	2466.29
458.352	2527.98
458.725	2560.3
459.099	2559.4
459.472	2605.95
459.845	2633.52
460.218	2653.4
460.591	2669.45
460.964	2705.15
461.337	2780.18
461.71	2798.94
462.083	2862.66
462.456	2851.82
462.829	2886.39
463.201	2930.69
463.574	2927.75
463.947	2940.4
464.32	3040.51
464.692	3072.15
465.065	3092.26
465.438	3176.33
465.81	3182.2
466.183	3219.04
466.555	3248.19
466.928	3289.77
467.3	3318.02
467.672	3348.08
468.045	3487.06
468.417	3454.06
468.789	3463.33
469.161	3522.99
469.534	3593.04
469.906	3658.58
470.278	3678.91
470.65	3751.23
471.022	3806.37
471.394	3883.65
471.766	3894.73
472.138	3920.72
472.51	4029.87
472.882	4092.01
473.253	4119.81
473.625	4188.73
473.997	4288.62
474.369	4305.79
474.74	4339.46
475.112	4447.93
475.484	4502.17
475.855	4595.27
476.227	4568.38
476.598	4776.06
476.97	4781.03
477.341	4917.3
477.713	4965.66
478.084	5018.31
478.455	5123.17
478.827	5180.57
479.198	5353.22
479.569	5371.75
479.94	5496.27
480.311	5576.49
480.682	5690.16
481.053	5821.23
481.424	5910.72
481.795	5944.62
482.166	6022.58
482.537	6143.48
482.908	6258.28
483.279	6293.08
483.65	6381.22
484.021	6525.17
484.391	6599.06
484.762	6711.83
485.133	6718.61
485.503	6820.75
485.874	6994.08
486.244	7033.18
486.615	7153.17
486.985	7251.7
487.356	7409.66
487.726	7462.09
488.097	7633.16
488.467	7714.74
488.837	7851.46
489.207	7872.93
489.578	7999.25
489.948	8118.8
490.318	8294.39
490.688	8272.01
491.058	8394.04
491.428	8514.49
491.798	8593.81
492.168	8742.74
492.538	8748.39
492.908	8915.84
493.278	8971.2
493.648	9035.16
494.017	9168.04
494.387	9204.42
494.757	9274.25
495.126	9417.75
495.496	9491.42
495.866	9516.95
496.235	9677.17
496.605	9692.09
496.974	9792.2
497.344	9823.39
497.713	10036.71
498.082	9959.43
498.452	10228.35
498.821	10259.53
499.19	10286.42
499.559	10407.55
499.928	10409.36
500.298	10447.55
500.667	10586.76
501.036	10702.01
501.405	10745.4
501.774	10682.12
502.143	10823.81
502.512	10877.6
502.88	11002.34
503.249	11045.05
503.618	11106.29
503.987	11148.77
504.356	11275.32
504.724	11324.59
505.093	11375.66
505.462	11495.66
505.83	11515.54
506.199	11617.01
506.567	11786.05
506.936	11781.98
507.304	12018.13
507.672	11971.58
508.041	12057.9
508.409	12146.94
508.777	12315.98
509.145	12378.8
509.514	12340.61
509.882	12549.87
510.25	12514.84
510.618	12669.41
510.986	12682.97
511.354	12813.14
511.722	12952.57
512.09	13107.14
512.458	13108.72
512.826	13198.89
513.193	13307.36
513.561	13306.23
513.929	13431.43
514.297	13628.71
514.664	13681.82
515.032	13717.52
515.4	13854.01
515.767	13938.53
516.135	14049.26
516.502	13957.29
516.869	14268.69
517.237	14345.53
517.604	14346.2
517.972	14413.1
518.339	14590.04
518.706	14668
519.073	14758.4
519.44	14844.5
519.808	15002.01
520.175	15033.19
520.542	15250.81
520.909	15298.72
521.276	15345.27
521.643	15538.26
522.009	15656
522.376	15742.1
522.743	15940.51
523.11	16055.76
523.477	16168.98
523.843	16289.88
524.21	16483.32
524.577	16535.53
524.943	16631.34
525.31	16744.33
525.676	16930.09
526.043	17016.42
526.409	17145
526.776	17297.31
527.142	17372.34
527.508	17507.03
527.874	17595.16
528.241	17798.54
528.607	17916.96
528.973	18012.1
529.339	18016.16
529.705	18198.98
530.071	18309.49
530.437	18377.06
530.803	18601.69
531.169	18744.28
531.535	18656.6
531.901	18730.5
532.267	18847.1
532.632	19008.45
532.998	19085.97
533.364	19220.65
533.73	19288.22
534.095	19388.56
534.461	19506.3
534.826	19627.42
535.192	19664.03
535.557	19765.05
535.923	19777.7
536.288	19836.46
536.653	19983.8
537.019	19975.89
537.384	20050.91
537.749	20291.59
538.114	20213.4
538.479	20253.39
538.845	20389.21
539.21	20546.49
539.575	20557.11
539.94	20602.54
540.305	20759.6
540.67	20806.6
541.034	20800.27
541.399	20973.38
541.764	20991.23
542.129	21126.14
542.494	21222.63
542.858	21298.79
543.223	21273.03
543.587	21350.77
543.952	21518.9
544.316	21508.05
544.681	21549.86
545.045	21671.21
545.41	21816.29
545.774	21799.34
546.138	21840.7
546.503	21992.33
546.867	21894.71
547.231	22094.93
547.595	22225.55
547.959	22271.19
548.324	22381.25
548.688	22358.88
549.052	22425.54
549.416	22456.5
549.779	22620.79
550.143	22615.59
550.507	22799.77
550.871	22837.73
551.235	22758.41
551.599	23073.66
551.962	23211.73
552.326	23187.78
552.689	23396.81
553.053	23148.46
553.417	23336.93
553.78	23758.61
554.143	23530.37
554.507	23731.72
554.87	23714.77
555.234	23965.84
555.597	23907.31
555.96	24041.99
556.323	24163.35
556.686	24220.52
557.05	24259.16
557.413	24361.31
557.776	24473.4
558.139	24719.27
558.502	24750.9
558.865	24830.22
559.228	24977.56
559.59	24955.42
559.953	25170.33
560.316	25453.48
560.679	25340.49
561.041	25622.52
561.404	25591.78
561.767	25860.93
562.129	25764.89
562.492	26008.27
562.854	26030.64
563.217	26028.61
563.579	26304.76
563.941	26375.04
564.304	26358.77
564.666	26621.36
565.028	26772.54
565.39	26748.82
565.753	26912.65
566.115	26945.42
566.477	27277.62
566.839	27186.55
567.201	27495.24
567.563	27464.05
567.925	27636.25
568.287	27738.62
568.648	27639.19
569.01	27888.45
569.372	28098.39
569.734	27984.72
570.095	28066.75
570.457	28277.59
570.819	28338.61
571.18	28397.81
571.542	28475.78
571.903	28563.46
572.265	28777.01
572.626	28669.44
572.987	28838.03
573.349	28921.41
573.71	28994.86
574.071	29079.38
574.432	29151.92
574.794	29357.56
575.155	29342.42
575.516	29363.21
575.877	29351.69
576.238	29542.19
576.599	29637.55
576.96	29670.77
577.32	29713.26
577.681	29777.66
578.042	29825.12
578.403	29840.49
578.763	29992.12
579.124	30034.83
579.485	30084.1
579.845	30094.04
580.206	30043.65
580.566	30090.88
580.927	30070.09
581.287	30214.26
581.648	30165.22
582.008	30284.99
582.368	30270.08
582.728	30335.84
583.089	30320.7
583.449	30306.91
583.809	30291.32
584.169	30361.38
584.529	30453.58
584.889	30580.58
585.249	30356.18
585.609	30365.44
585.969	30644.53
586.329	30414.03
586.688	30474.14
587.048	30334.26
587.408	30300.36
587.768	30419
588.127	30411.32
588.487	30374.03
588.846	30659.22
589.206	30368.38
589.565	30378.78
589.925	30648.6
590.284	30501.71
590.643	30562.73
591.003	30545.78
591.362	30681.59
591.721	30667.58
592.08	30567.93
592.44	30675.72
592.799	30675.04
593.158	30606.12
593.517	30690.41
593.876	30718.2
594.235	30676.85
594.593	30639.11
594.952	30732.67
595.311	30759.33
595.67	30793.46
596.029	30931.08
596.387	30985.54
596.746	30948.71
597.104	30802.5
597.463	30759.33
597.822	30911.64
598.18	30986.9
598.538	30882.04
598.897	31070.74
599.255	30899.67
599.613	31258.98
599.972	31015.37
600.33	31211.52
600.688	31072.54
601.046	31038.2
601.404	31219.43
601.762	31124.07
602.12	31367.23
602.478	31256.49
602.836	31331.75
603.194	31115.48
603.552	31337.4
603.91	31223.28
604.268	31434.57
604.625	31279.54
604.983	31442.7
605.341	31233.9
605.698	31473.66
606.056	31458.3
606.413	31528.58
606.771	31618.29
607.128	31579.42
607.485	31527
607.843	31605.86
608.2	31745.3
608.557	31857.61
608.914	31787.1
609.272	31875.24
609.629	31962.24
609.986	32023.25
610.343	31939.64
610.7	32085.85
611.057	32054.89
611.414	32065.74
611.771	32091.05
612.127	32184.15
612.484	32103.25
612.841	32286.52
613.198	32185.06
613.554	32159.97
613.911	32294.66
614.267	32327.88
614.624	32432.28
614.98	32328.78
615.337	32650.81
615.693	32432.51
616.05	32460.3
616.406	32709.11
616.762	32481.1
617.118	32437.93
617.475	32542.34
617.831	32638.15
618.187	32634.54
618.543	32637.25
618.899	32919.5
619.255	32712.05
619.611	32745.72
619.967	32852.61
620.323	32878.37
620.678	32854.19
621.034	32694.42
621.39	32829.79
621.746	32680.86
622.101	33072.27
622.457	32745.27
622.812	32907.98
623.168	32975.32
623.523	33019.61
623.879	33179.83
624.234	32855.77
624.589	32971.25
624.945	32995.66
625.3	32967.41
625.655	32981.19
626.01	32946.62
626.365	32972.38
626.72	32921.54
627.075	32867.75
627.43	32901.42
627.785	32847.19
628.14	32831.37
628.495	32882.44
628.85	32878.37
629.205	32682.9
629.559	32963.57
629.914	32732.39
630.269	32792.95
630.623	32766.06
630.978	32695.1
631.332	32781.65
631.687	32799.05
632.041	32565.84
632.396	32722.44
632.75	32614.65
633.104	32646.51
633.459	32491.49
633.813	32545.95
634.167	32382.57
634.521	32396.58
634.875	32545.5
635.229	32499.63
635.583	32361.55
635.937	32354.77
636.291	32270.03
636.645	32229.35
636.999	32152.74
637.352	32267.54
637.706	32079.75
638.06	32253.08
638.413	32191.39
638.767	32091.73
639.121	32143.02
639.474	31946.87
639.828	31962.69
640.181	31948.68
640.534	31897.16
640.888	31796.59
641.241	31679.76
641.594	31740.32
641.947	31911.17
642.301	31705.52
642.654	31750.27
643.007	31645.86
643.36	31744.17
643.713	31510.73
644.066	31629.59
644.419	31513.66
644.771	31387.34
645.124	31083.84
645.477	31084.07
645.83	30773.57
646.182	30560.92
646.535	30443.41
646.888	30651.31
647.24	30214.94
647.593	30509.85
647.945	30349.63
648.298	30263.3
648.65	30137.88
649.002	30056.75
649.355	30233.92
649.707	30330.42
650.059	30391.21
650.411	30659.67
650.763	30838.2
651.115	31016.05
651.467	30826.9
651.819	30901.48
652.171	30879.78
652.523	30711.65
652.875	30884.53
653.227	30520.69
653.578	30831.87
653.93	30749.16
654.282	30686.11
654.633	30596.17
654.985	30628.26
655.337	30595.49
655.688	30583.07
656.039	30755.04
656.391	30428.27
656.742	30500.58
657.094	30539
657.445	30665.55
657.796	30521.82
658.147	30567.93
658.498	30350.3
658.849	30391.43
659.2	30402.51
659.551	30346.46
659.902	30439.34
660.253	30337.87
660.604	30282.06
660.955	30186.69
661.306	30314.37
661.656	30226.92
662.007	30346.46
662.358	30343.98
662.708	30188.5
663.059	30049.29
663.409	30096.53
663.76	30171.78
664.11	30066.7
664.461	30190.76
664.811	30260.59
665.161	30135.85
665.511	30044.1
665.862	30122.74
666.212	30160.48
666.562	30175.39
666.912	30002.06
667.262	29948.96
667.612	30048.62
667.962	30115.96
668.312	30081.38
668.662	30096.53
669.011	30030.54
669.361	29984.89
669.711	29982.86
670.06	29872.58
670.41	29852.46
670.76	29844.1
671.109	29873.93
671.459	29822.18
671.808	29876.19
672.157	29854.95
672.507	29768.17
672.856	29686.59
673.205	29749.19
673.554	29787.38
673.904	29738.79
674.253	29798.91
674.602	29704.67
674.951	29368.86
675.3	29104.69
675.649	29717.78
675.998	29539.7
676.346	29610.66
676.695	29560.04
677.044	29413.83
677.393	29446.37
677.741	29475.3
678.09	29403.66
678.438	29443.43
678.787	29383.32
679.135	29352.14
679.484	29200.28
679.832	29279.37
680.181	29159.83
680.529	29209.09
680.877	29245.02
681.225	29192.82
681.573	29326.6
681.922	29083.22
682.27	28946.27
682.618	28974.52
682.966	28909.66
683.314	28967.97
683.661	28850.91
684.009	28608.88
684.357	28693.62
684.705	28732.72
685.053	28566.4
685.4	28619.73
685.748	28386.06
686.095	28368.43
686.443	28231.94
686.79	28222.68
687.138	28378.6
687.485	28346.97
687.832	28307.87
688.18	28261.77
688.527	28063.58
688.874	28093.87
689.221	27925.28
689.568	27892.74
689.915	27787.21
690.262	27901.33
690.609	27857.49
690.956	27893.65
691.303	27640.77
691.65	27446.43
691.997	27606.65
692.344	27302.7
692.69	27269.48
693.037	27300.44
693.383	27153.33
693.73	27161.01
694.077	27090.05
694.423	27121.46
694.769	27003.95
695.116	26900.45
695.462	26885.54
695.808	26765.31
696.155	26749.72
696.501	26570.97
696.847	26659.1
697.193	26419.33
697.539	26419.56
697.885	26388.15
698.231	26158.1
698.577	26236.51
698.923	26197.19
699.269	25971.66
699.614	25842.63
699.96	25784.32
700.306	25759.24
700.651	25695.51
700.997	25747.94
701.342	25730.54
701.688	25596.53
702.033	25486.25
702.379	25535.06
702.724	25445.57
703.069	25375.75
703.415	25185.47
703.76	25145.02
704.105	25186.82
704.45	25007.39
704.795	25023.21
705.14	24989.31
705.485	24915.87
705.83	24727.17
706.175	24862.76
706.52	24604.92
706.865	24673.16
707.209	24626.16
707.554	24619.38
707.899	24493.06
708.243	24422.32
708.588	24451.25
708.932	24295.32
709.277	24266.17
709.621	24214.65
709.966	24106.4
710.31	24155.44
710.654	23916.57
710.998	23946.86
711.342	24008.55
711.687	23879.29
712.031	23839.97
712.375	23720.42
712.719	23737.82
713.063	23696.92
713.407	23807.42
713.75	23576.02
714.094	23576.02
714.438	23497.6
714.782	23471.39
715.125	23407.89
715.469	23373.76
715.812	23262.35
716.156	23213.54
716.499	23258.96
716.843	23268.91
717.186	23085.41
717.53	23119.99
717.873	23121.79
718.216	23067.33
718.559	23042.7
718.902	22818.07
719.246	22888.35
719.589	22840.9
719.932	22741.01
720.275	22766.55
720.617	22738.75
720.96	22678.64
721.303	22666.66
721.646	22597.29
721.989	22420.12
722.331	22542.6
722.674	22411.3
723.016	22454.24
723.359	22362.72
723.701	22351.19
724.044	22258.54
724.386	22169.73
724.729	22280.01
725.071	22205.89
725.413	22135.38
725.755	22203.85
726.097	22190.74
726.439	21990.07
726.782	22009.05
727.124	22138.99
727.465	21927.47
727.807	21942.84
728.149	21837.31
728.491	21768.16
728.833	21773.13
729.175	21652.91
729.516	21735.61
729.858	21652.23
730.199	21716.41
730.541	21698.78
730.882	21628.95
731.224	21691.77
731.565	21475.28
731.906	21564.77
732.248	21569.52
732.589	21401.39
732.93	21362.74
733.271	21388.28
733.612	21339.47
733.953	21414.49
734.294	21212.69
734.635	21216.53
734.976	21235.52
735.317	21211.11
735.658	21233.26
735.999	21245.01
736.339	21066.48
736.68	21110.55
737.021	21116.42
737.361	20893.38
737.702	21018.57
738.042	20991
738.383	20746.94
738.723	20920.95
739.063	20820.16
739.404	20865.13
739.744	20736.55
740.084	20657
740.424	20766.15
740.764	20644.57
741.104	20657.68
741.444	20540.84
741.784	20493.84
742.124	20589.43
742.464	20555.08
742.804	20527.74
743.143	20392.83
743.483	20499.49
743.823	20441.19
744.162	20275.99
744.502	20391.7
744.841	20301.08
745.181	20313.51
745.52	20193.28
745.86	20247.74
746.199	20188.54
746.538	20160.52
746.877	20133.17
747.216	20173.62
747.556	20101.76
747.895	20113.51
748.234	20080.74
748.573	19922.1
748.911	19940.63
749.25	19932.05
749.589	19887.98
749.928	19830.35
750.267	19851.37
750.605	19779.96
750.944	19715.78
751.283	19699.28
751.621	19730.92
751.96	19589.46
752.298	19534.99
752.636	19548.55
752.975	19454.09
753.313	19365.06
753.651	19377.48
753.989	19303.81
754.327	19197.15
754.666	19144.95
755.004	19182.01
755.342	19146.08
755.679	19086.87
756.017	19026.76
756.355	19128
756.693	18992.18
757.031	19120.32
757.368	18919.42
757.706	18883.94
758.044	18808.69
758.381	18748.35
758.719	18682.81
759.056	18760.1
759.394	18749.7
759.731	18638.97
760.068	18563.49
760.405	18529.15
760.743	18391.97
761.08	18375.03
761.417	18228.14
761.754	18309.04
762.091	18271.98
762.428	18134.58
762.765	18154.69
763.102	18145.43
763.438	18057.75
763.775	17913.34
764.112	17913.12
764.449	17915.15
764.785	17882.83
765.122	17735.04
765.458	17621.6
765.795	17606.23
766.131	17604.65
766.467	17613.92
766.804	17348.84
767.14	17357.42
767.476	17368.27
767.812	17354.26
768.148	17313.36
768.485	17177.54
768.821	17061.39
769.157	17052.12
769.492	17008.96
769.828	16971.9
770.164	16797.67
770.5	16815.52
770.836	16839.47
771.171	16703.88
771.507	16651.91
771.842	16464.57
772.178	16531.46
772.513	16458.47
772.849	16386.83
773.184	16349.54
773.519	16367.85
773.855	16279.04
774.19	16156.33
774.525	16098.25
774.86	16134.63
775.195	16151.13
775.53	16072.71
775.865	15955.43
776.2	15744.36
776.535	15625.04
776.87	15750.69
777.205	15688.32
777.539	15618.71
777.874	15521.54
778.209	15411.71
778.543	15454.88
778.878	15399.51
779.212	15287.2
779.547	15259.18
779.881	15297.37
780.215	15224.15
780.55	15215.33
780.884	15080.65
781.218	15085.17
781.552	15117.26
781.886	14908.9
782.22	14837.94
782.554	14858.73
782.888	14720.43
783.222	14667.1
783.556	14614.45
783.889	14625.52
784.223	14548.91
784.557	14449.48
784.89	14485.64
785.224	14356.83
785.557	14305.3
785.891	14270.27
786.224	14256.94
786.558	14232.76
786.891	14062.14
787.224	14065.31
787.557	14035.7
787.891	14004.74
788.224	13944.86
788.557	13962.49
788.89	13833
789.223	13858.76
789.556	13734.02
789.888	13694.24
790.221	13647.24
790.554	13608.37
790.887	13653.34
791.219	13621.03
791.552	13506.45
791.884	13495.83
792.217	13442.73
792.549	13368.38
792.882	13266.69
793.214	13223.07
793.546	13187.14
793.879	13176.07
794.211	13036.86
794.543	13084.54
794.875	13011.32
795.207	13043.41
795.539	12976.75
795.871	12989.18
796.203	12882.97
796.535	12837.54
796.867	12802.74
797.198	12747.38
797.53	12788.51
797.862	12776.75
798.193	12693.37
798.525	12593.26
798.856	12646.36
799.188	12571.34
799.519	12412.24
799.85	12379.25
800.182	12398.46
800.513	12418.35
800.844	12346.48
801.175	12366.14
801.506	12314.39
801.837	12242.98
802.168	12281.63
802.499	12190.78
802.83	12127.05
803.161	12102.42
803.491	12031.01
803.822	12050.9
804.153	11957.57
804.483	11893.61
804.814	11847.29
805.145	11806.16
805.475	11839.15
805.805	11814.07
806.136	11804.35
806.466	11714.18
806.796	11712.6
807.126	11615.66
807.457	11591.93
807.787	11644.81
808.117	11563.9
808.447	11530.01
808.777	11570.46
809.107	11515.77
809.436	11455.21
809.766	11440.07
810.096	11416.56
810.426	11374.98
810.755	11315.78
811.085	11311.71
811.414	11317.58
811.744	11202.56
812.073	11227.19
812.403	11162.79
812.732	11153.97
813.061	11131.37
813.39	11059.29
813.719	11036.91
814.049	11088.89
814.378	11075.78
814.707	11009.34
815.036	11033.98
815.365	10954.66
815.693	10873.98
816.022	10911.27
816.351	10811.83
816.68	10748.11
817.008	10767.09
817.337	10648.67
817.665	10659.97
817.994	10716.24
818.322	10670.6
818.651	10658.84
818.979	10604.38
819.307	10685.06
819.636	10576.36
819.964	10486.87
820.292	10648.9
820.62	10499.75
820.948	10532.75
821.276	10542.24
821.604	10539.3
821.932	10541.33
822.259	10561.9
822.587	10512.86
822.915	10537.49
823.243	10401.45
823.57	10473.54
823.898	10505.4
824.225	10492.07
824.553	10466.31
824.88	10473.99
825.207	10499.07
825.535	10496.36
825.862	10479.64
826.189	10455.69
826.516	10545.85
826.843	10533.42
827.17	10453.2
827.497	10476.25
827.824	10489.58
828.151	10519.41
828.478	10515.12
828.805	10552.86
829.131	10417.04
829.458	10484.61
829.785	10337.72
830.111	10471.05
830.438	10507.44
830.764	10506.08
831.09	10455.01
831.417	10410.49
831.743	10499.3
832.069	10393.77
832.395	10417.72
832.722	10447.1
833.048	10375.24
833.374	10427.44
833.7	10361.22
834.026	10386.76
834.351	10354.45
834.677	10340.21
835.003	10372.3
835.329	10335.91
835.654	10297.27
835.98	10330.27
836.306	10248.23
836.631	10262.24
836.956	10314.45
837.282	10218.4
837.607	10266.31
837.932	10172.76
838.258	10203.04
838.583	10194.9
838.908	10059.54
839.233	10166.43
839.558	10119.2
839.883	10118.52
840.208	10079.42
840.533	10061.12
840.858	10084.85
841.182	10047.56
841.507	10038.97
841.832	9963.95
842.156	9959.2
842.481	9950.16
842.805	9903.61
843.13	9875.59
843.454	9864.29
843.778	9871.29
844.103	9778.42
844.427	9801.92
844.751	9794.69
845.075	9719.43
845.399	9744.07
845.723	9711.52
846.047	9685.99
846.371	9696.16
846.695	9648.02
847.019	9549.04
847.343	9624.52
847.666	9488.93
847.99	9406.22
848.313	9460.46
848.637	9346.34
848.96	9359.22
849.284	9312.66
849.607	9290.07
849.931	9253.01
850.254	9208.03
850.577	9163.29
850.9	9109.28
851.223	9034.03
851.546	9030.41
851.869	8943.41
852.192	9004.42
852.515	8924.65
852.838	8893.01
853.161	8887.59
853.483	8856.41
853.806	8745
854.129	8784.09
854.451	8740.93
854.774	8746.13
855.096	8724.43
855.419	8654.83
855.741	8639.24
856.063	8613.7
856.385	8552.23
856.708	8603.98
857.03	8515.62
857.352	8559.24
857.674	8492.8
857.996	8451.44
858.318	8448.73
858.64	8442.41
858.961	8381.39
859.283	8368.96
859.605	8336.19
859.926	8365.35
860.248	8298.45
860.57	8301.39
860.891	8295.74
861.212	8220.49
861.534	8227.04
861.855	8167.38
862.176	8211.45
862.498	8137.1
862.819	8181.4
863.14	8155.86
863.461	8182.98
863.782	8144.11
864.103	8136.88
864.424	8097.33
864.745	8144.11
865.065	8037.44
865.386	8038.12
865.707	8075.18
866.027	8067.27
866.348	8002.42
866.668	8042.87
866.989	8015.98
867.309	7924
867.63	8007.16
867.95	7934.4
868.27	7886.71
868.59	7894.4
868.91	7924
869.23	7908.63
869.55	7858.47
869.87	7939.82
870.19	7879.71
870.51	7815.3
870.83	7826.15
871.15	7806.49
871.469	7787.73
871.789	7839.48
872.109	7828.18
872.428	7844.45
872.748	7802.2
873.067	7776.21
873.386	7739.15
873.706	7694.18
874.025	7716.32
874.344	7656.66
874.663	7731.01
874.982	7644.01
875.301	7683.78
875.62	7648.08
875.939	7568.3
876.258	7612.37
876.577	7587.51
876.896	7657.34
877.214	7584.57
877.533	7574.41
877.852	7581.64
878.17	7598.13
878.489	7575.99
878.807	7518.36
879.125	7555.2
879.444	7536.44
879.762	7514.29
880.08	7514.07
880.398	7496.89
880.716	7483.79
881.034	7433.84
881.352	7486.27
881.67	7437.46
881.988	7462.54
882.306	7387.97
882.624	7383.68
882.941	7358.37
883.259	7414.64
883.577	7344.58
883.894	7293.06
884.212	7286.5
884.529	7342.32
884.846	7273.4
885.164	7227.97
885.481	7245.37
885.798	7170.12
886.115	7175.55
886.432	7215.09
886.75	7110.46
887.067	7245.15
887.383	7110.24
887.7	7085.38
888.017	7116.11
888.334	7116.56
888.651	7096.68
888.967	7026.17
889.284	7010.35
889.6	6960.41
889.917	6946.63
890.233	7000.18
890.55	6907.3
890.866	6936.23
891.182	6917.25
891.498	6894.88
891.815	6834.09
892.131	6825.95
892.447	6828.66
892.763	6833.18
893.079	6780.08
893.395	6792.28
893.71	6728.55
894.026	6784.14
894.342	6757.48
894.657	6674.54
894.973	6656.46
895.289	6601.55
895.604	6668.44
895.92	6621.89
896.235	6586.18
896.55	6653.3
896.865	6562.68
897.181	6656.46
897.496	6535.34
897.811	6490.82
898.126	6464.83
898.441	6481.55
898.756	6484.49
899.071	6395.91
899.386	6412.85
899.7	6379.18
900.015	6336.92
900.33	6343.25
900.644	6279.52
900.959	6279.75
901.273	6228.23
901.588	6264.16
901.902	6184.16
902.216	6223.71
902.531	6174.22
902.845	6200.43
903.159	6106.2
903.473	6094.67
903.787	6098.51
904.101	6076.59
904.415	6082.24
904.729	6042.92
905.042	5999.98
905.356	6011.28
905.67	5969.7
905.984	5933.77
906.297	5924.05
906.611	5883.83
906.924	5878.18
907.237	5874.34
907.551	5814
907.864	5799.08
908.177	5823.04
908.491	5816.49
908.804	5790.5
909.117	5756.37
909.43	5719.76
909.743	5714.34
910.056	5613.1
910.368	5629.37
910.681	5660.33
910.994	5570.39
911.307	5572.2
911.619	5515.02
911.932	5583.5
912.244	5494.69
912.557	5422.37
912.869	5480
913.181	5458.53
913.494	5512.76
913.806	5413.78
914.118	5425.08
914.43	5417.63
914.742	5355.03
915.054	5390.51
915.366	5330.85
915.678	5255.6
915.99	5275.71
916.302	5217.18
916.613	5231.42
916.925	5197.74
917.236	5145.32
917.548	5193
917.859	5139.67
918.171	5128.82
918.482	5069.16
918.794	5014.25
919.105	5080.01
919.416	5039.1
919.727	4999.33
920.038	4988.48
920.349	4960.91
920.66	4942.61
920.971	4938.77
921.282	4881.14
921.593	4891.31
921.903	4863.06
922.214	4837.53
922.525	4855.61
922.835	4785.55
923.146	4741.49
923.456	4747.81
923.767	4734.25
924.077	4731.32
924.387	4724.99
924.697	4667.36
925.008	4655.61
925.318	4701.49
925.628	4668.72
925.938	4649.51
926.248	4616.29
926.558	4562.28
926.867	4580.13
927.177	4560.47
927.487	4567.93
927.796	4455.17
928.106	4501.49
928.416	4475.73
928.725	4480.25
929.034	4423.75
929.344	4480.93
929.653	4432.34
929.962	4385.34
930.271	4338.78
930.581	4388.5
930.89	4303.53
931.199	4274.15
931.508	4318.67
931.817	4288.62
932.125	4280.25
932.434	4241.84
932.743	4247.94
933.051	4240.26
933.36	4202.29
933.669	4201.84
933.977	4170.65
934.286	4185.12
934.594	4140.82
934.902	4070.77
935.21	4031.67
935.519	4141.73
935.827	4061.96
936.135	3996.19
936.443	4020.83
936.751	4026.25
937.059	4014.27
937.367	4006.82
937.674	4004.56
937.982	3934.95
938.29	3945.12
938.597	3924.56
938.905	3894.05
939.213	3866.71
939.52	3858.12
939.827	3878.23
940.135	3877.78
940.442	3819.25
940.749	3828.74
941.056	3788.06
941.363	3791.23
941.67	3763.66
941.977	3738.57
942.284	3715.3
942.591	3671.68
942.898	3669.42
943.205	3673.94
943.511	3671.01
943.818	3630.78
944.125	3621.74
944.431	3602.76
944.738	3645.47
945.044	3620.61
945.35	3605.47
945.657	3593.04
945.963	3538.81
946.269	3519.6
946.575	3508.75
946.881	3480.95
947.187	3488.86
947.493	3446.6
947.799	3443.89
948.105	3436.44
948.41	3435.08
948.716	3439.82
949.022	3459.94
949.327	3407.28
949.633	3372.26
949.938	3387.85
950.244	3362.99
950.549	3348.08
950.854	3351.24
951.16	3313.5
951.465	3300.17
951.77	3281.64
952.075	3287.74
952.38	3233.05
952.685	3215.42
952.99	3217.68
953.294	3203.45
953.599	3219.04
953.904	3204.12
954.209	3161.41
954.513	3156.22
954.818	3152.6
955.122	3126.61
955.426	3094.3
955.731	3131.81
956.035	3073.28
956.339	3116.22
956.643	3063.34
956.948	3041.42
957.252	3043.45
957.556	3080.29
957.86	3056.11
958.163	3019.27
958.467	2952.38
958.771	2984.92
959.075	2967.07
959.378	2955.32
959.682	2980.85
959.985	2913.74
960.289	2913.96
960.592	2923.45
960.896	2899.95
961.199	2861.53
961.502	2838.94
961.805	2855.66
962.108	2824.02
962.411	2878.71
962.714	2823.12
963.017	2829.67
963.32	2812.5
963.623	2784.47
963.926	2779.73
964.228	2783.57
964.531	2779.05
964.833	2766.85
965.136	2763.46
965.438	2707.64
965.741	2697.7
966.043	2675.1
966.345	2694.31
966.648	2690.69
966.95	2666.96
967.252	2692.95
967.554	2648.43
967.856	2617.47
968.158	2610.24
968.46	2601.65
968.761	2608.43
969.063	2619.28
969.365	2597.14
969.666	2584.25
969.968	2545.84
970.269	2582.9
970.571	2554.88
970.872	2527.53
971.174	2523.46
971.475	2500.64
971.776	2502.9
972.077	2481.43
972.378	2485.05
972.679	2451.83
972.98	2487.53
973.281	2426.07
973.582	2410.47
973.883	2456.57
974.183	2431.49
974.484	2409.8
974.785	2394.2
975.085	2384.03
975.386	2385.62
975.686	2386.07
975.986	2350.81
976.287	2364.15
976.587	2313.53
976.887	2334.77
977.187	2351.27
977.487	2303.58
977.787	2316.24
978.087	2298.39
978.387	2299.06
978.687	2285.73
978.987	2271.04
979.286	2276.24
979.586	2237.6
979.885	2233.53
980.185	2225.85
980.484	2186.52
980.784	2218.39
981.083	2200.08
981.382	2183.13
981.682	2173.19
981.981	2162.57
982.28	2170.03
982.579	2134.1
982.878	2130.48
983.177	2114.21
983.475	2130.03
983.774	2104.72
984.073	2107.66
984.372	2086.87
984.67	2067.43
984.969	2092.74
985.267	2095.23
985.566	2069.01
985.864	2043.25
986.162	2060.43
986.461	2037.15
986.759	2016.59
987.057	2023.59
987.355	2008.45
987.653	1997.83
987.951	2017.94
988.249	1996.02
988.547	1988.79
988.844	1968.9
989.142	2003.93
989.44	1930.49
989.737	1945.17
990.035	1931.84
990.332	1929.13
990.63	1907.66
990.927	1929.81
991.224	1907.21
991.521	1889.81
991.819	1898.17
992.116	1923.48
992.413	1865.18
992.71	1850.94
993.006	1834.44
993.303	1845.06
993.6	1861.11
993.897	1840.77
994.193	1874.67
994.49	1841.67
994.787	1815.91
995.083	1789.92
995.379	1810.49
995.676	1783.37
995.972	1773.65
996.268	1784.73
996.565	1763.94
996.861	1740.21
997.157	1727.1
997.453	1707.89
997.749	1749.47
998.044	1703.37
998.34	1725.75
998.636	1698.18
998.932	1695.69
999.227	1695.69
999.523	1684.62
999.818	1683.03
1000.114	1662.24
1000.409	1668.35
1000.704	1641.45
1001	1642.13
1001.295	1616.82
1001.59	1603.94
1001.885	1592.87
1002.18	1598.74
1002.475	1586.09
1002.77	1573.43
1003.065	1600.1
1003.359	1594.22
1003.654	1526.65
1003.949	1543.15
1004.243	1580.44
1004.538	1546.54
1004.832	1527.56
1005.127	1551.51
1005.421	1518.29
1005.715	1526.2
1006.009	1530.95
1006.304	1521.01
1006.598	1479.88
1006.892	1475.36
1007.186	1500.21
1007.48	1471.97
1007.773	1459.99
1008.067	1469.93
1008.361	1431.52
1008.655	1457.28
1008.948	1405.98
1009.242	1396.71
1009.535	1413.44
1009.829	1420.67
1010.122	1377.05
1010.415	1394.45
1010.708	1360.33
1011.001	1380.9
1011.295	1405.08
1011.588	1365.98
1011.881	1368.01
1012.173	1340.22
1012.466	1324.17
1012.759	1327.56
1013.052	1341.8
1013.344	1339.32
1013.637	1276.04
1013.93	1328.69
1014.222	1292.76
1014.514	1292.31
1014.807	1291.63
1015.099	1310.39
1015.391	1293.44
1015.683	1263.38
1015.976	1264.74
1016.268	1264.06
1016.56	1231.07
1016.851	1234.91
1017.143	1255.48
1017.435	1249.15
1017.727	1216.61
1018.018	1217.51
1018.31	1227.45
1018.602	1187.23
1018.893	1215.7
1019.185	1162.82
1019.476	1169.6
1019.767	1171.86
1020.058	1191.07
1020.35	1166.66
1020.641	1154.46
1020.932	1159.43
1021.223	1132.77
1021.514	1145.42
1021.804	1102.26
1022.095	1122.15
1022.386	1103.39
1022.677	1100.68
1022.967	1090.06
1023.258	1088.93
1023.548	1064.52
1023.839	1062.26
1024.129	1075.59
1024.419	1035.59
1024.709	1073.56
1025	1016.16
1025.29	1050.06
1025.58	1032.43
1025.87	1050.51
1026.16	1037.4
1026.449	1030.4
1026.739	1015.03
1027.029	994.24
1027.319	1014.8
1027.608	1024.75
1027.898	979.1
1028.187	990.62
1028.477	983.84
1028.766	961.47
1029.055	944.98
1029.344	963.28
1029.634	948.82
1029.923	928.93
1030.212	939.1
1030.501	963.51
1030.79	931.19
1031.078	935.71
1031.367	912.43
1031.656	934.81
1031.945	916.73
1032.233	923.96
1032.522	909.04
1032.81	894.81
1033.099	904.75
1033.387	872.21
1033.675	885.77
1033.963	872.66
1034.251	860.91
1034.54	864.53
1034.828	872.21
1035.116	854.36
1035.403	864.3
1035.691	845.99
1035.979	861.59
1036.267	813
1036.554	829.72
1036.842	826.11
1037.129	828.59
1037.417	822.49
1037.704	807.8
1037.992	798.31
1038.279	794.7
1038.566	807.13
1038.853	807.13
1039.14	807.13
