Data from breadboard_black_back_FLMS001491_00021.txt Node
Date: Wed Feb 08 10:50:09 GMT 2017
User: dcchb
Spectrometer: FLMS00149
Trigger mode: 0
Integration Time (sec): 2.000000E-2
Scans to average: 10
Electric dark correction enabled: true
Nonlinearity correction enabled: false
Boxcar width: 0
XAxis mode: Wavelengths
Number of Pixels in Spectrum: 2048
>>>>>Begin Spectral Data<<<<<
341.393	-32.84
341.776	-32.84
342.16	-32.84
342.543	-39.17
342.927	-50.46
343.31	-67.41
343.693	-71.03
344.077	-65.83
344.46	-47.98
344.843	-59.28
345.226	-26.74
345.61	-37.36
345.993	-26.51
346.376	-12.73
346.759	34.73
347.142	19.59
347.525	41.51
347.908	55.52
348.291	58.46
348.674	92.36
349.057	112.69
349.44	123.77
349.823	123.99
350.206	160.6
350.588	212.35
350.971	225.01
351.354	207.38
351.737	239.47
352.119	252.35
352.502	270.2
352.884	272.46
353.267	291.9
353.65	302.07
354.032	285.8
354.414	300.26
354.797	329.86
355.179	346.36
355.562	329.41
355.944	327.6
356.326	342.97
356.709	333.48
357.091	342.75
357.473	351.33
357.855	350.88
358.238	349.3
358.62	351.11
359.002	331.67
359.384	349.98
359.766	360.37
360.148	345.68
360.53	372.57
360.912	338
361.294	365.12
361.676	331.45
362.057	335.97
362.439	359.47
362.821	367.15
363.203	338.68
363.584	338
363.966	344.55
364.348	345.23
364.729	328.28
365.111	355.17
365.493	334.16
365.874	326.47
366.256	328.28
366.637	335.51
367.019	355.4
367.4	338.68
367.781	330.99
368.163	335.06
368.544	333.48
368.925	352.46
369.306	336.42
369.688	349.3
370.069	328.06
370.45	326.02
370.831	333.25
371.212	341.62
371.593	334.84
371.974	332.8
372.355	352.91
372.736	365.34
373.117	364.89
373.498	365.8
373.879	348.62
374.26	352.46
374.641	352.69
375.021	351.56
375.402	363.76
375.783	374.61
376.163	375.06
376.544	380.94
376.925	385.68
377.305	377.55
377.686	378.68
378.066	389.07
378.447	382.29
378.827	373.25
379.208	378.45
379.588	394.95
379.968	392.46
380.349	369.64
380.729	386.81
381.109	376.19
381.489	395.85
381.87	409.64
382.25	401.73
382.63	421.39
383.01	410.31
383.39	401.95
383.77	409.41
384.15	416.42
384.53	414.83
384.91	435.17
385.29	424.1
385.67	429.52
386.049	441.5
386.429	441.27
386.809	437.66
387.189	456.87
387.568	434.49
387.948	451.89
388.328	442.18
388.707	465.68
389.087	438.34
389.466	443.76
389.846	485.34
390.225	499.58
390.605	486.47
390.984	453.48
391.363	504.1
391.743	498.22
392.122	503.19
392.501	495.96
392.881	488.73
393.26	495.74
393.639	486.7
394.018	524.44
394.397	533.25
394.776	521.5
395.155	514.72
395.534	503.87
395.913	527.37
396.292	514.04
396.671	539.8
397.05	545
397.429	559.46
397.808	538.9
398.186	549.75
398.565	555.62
398.944	562.4
399.323	562.85
399.701	569.41
400.08	579.8
400.458	602.85
400.837	585.68
401.215	603.76
401.594	590.42
401.972	584.55
402.351	587.94
402.729	605.56
403.107	589.29
403.486	613.92
403.864	598.78
404.242	641.72
404.62	633.81
404.999	653.25
405.377	665.22
405.755	647.82
406.133	685.56
406.511	672.23
406.889	657.77
407.267	683.75
407.645	675.17
408.023	701.61
408.401	715.62
408.779	722.4
409.156	709.97
409.534	738.44
409.912	723.75
410.29	746.35
410.667	742.96
411.045	756.29
411.422	769.4
411.8	747.25
412.178	795.84
412.555	773.69
412.933	784.09
413.31	817.31
413.687	825.22
414.065	833.35
414.442	826.8
414.819	829.06
415.197	832.45
415.574	844.2
415.951	874.71
416.328	862.73
416.705	876.97
417.082	906.35
417.46	891.88
417.837	900.02
418.214	884.88
418.591	912.22
418.967	921.04
419.344	956.29
419.721	943.63
420.098	950.64
420.475	971.43
420.852	956.97
421.228	977.76
421.605	975.5
421.982	1005.55
422.358	1025.89
422.735	1021.37
423.111	1009.85
423.488	1045.33
423.864	1026.57
424.241	1058.43
424.617	1056.17
424.994	1072.22
425.37	1102.73
425.746	1064.53
426.123	1123.06
426.499	1105.21
426.875	1115.83
427.251	1127.81
427.627	1177.3
428.003	1182.05
428.379	1191.08
428.756	1195.15
429.132	1201.03
429.507	1220.69
429.883	1265.88
430.259	1261.59
430.635	1284.64
431.011	1264.3
431.387	1300.01
431.763	1334.58
432.138	1346.56
432.514	1337.52
432.89	1353.11
433.265	1397.41
433.641	1401.93
434.016	1393.11
434.392	1456.84
434.767	1461.36
435.143	1448.25
435.518	1464.07
435.894	1488.48
436.269	1509.72
436.644	1533.45
437.02	1530.06
437.395	1523.96
437.77	1598.76
438.145	1581.58
438.52	1622.03
438.895	1602.83
439.271	1613.22
439.646	1644.63
440.021	1675.14
440.395	1701.58
440.77	1681.69
441.145	1688.92
441.52	1715.82
441.895	1723.05
442.27	1713.56
442.645	1743.39
443.019	1796.27
443.394	1785.19
443.769	1808.24
444.143	1810.5
444.518	1841.24
444.892	1815.25
445.267	1843.95
445.641	1862.25
446.016	1855.93
446.39	1880.56
446.764	1895.92
447.139	1912.65
447.513	1932.53
447.887	1923.95
448.262	1955.13
448.636	1955.36
449.01	1986.77
449.384	2001.01
449.758	2001.46
450.132	2019.99
450.506	2039.88
450.88	2050.04
451.254	2053.21
451.628	2058.86
452.002	2116.71
452.376	2117.16
452.75	2122.81
453.123	2176.37
453.497	2215.92
453.871	2223.37
454.244	2246.65
454.618	2276.03
454.992	2318.74
455.365	2314.67
455.739	2379.98
456.112	2361.9
456.486	2433.76
456.859	2426.76
457.232	2441.9
457.606	2474.67
457.979	2507.43
458.352	2564.61
458.725	2572.52
459.099	2604.38
459.472	2678.95
459.845	2690.03
460.218	2687.99
460.591	2725.51
460.964	2750.82
461.337	2803.02
461.71	2837.59
462.083	2912.17
462.456	2864.26
462.829	2928.21
463.201	2957.59
463.574	2970.47
463.947	3018.61
464.32	3099.73
464.692	3097.48
465.065	3167.53
465.438	3214.31
465.81	3199.17
466.183	3253.4
466.555	3351.03
466.928	3306.28
467.3	3348.77
467.672	3441.65
468.045	3509.89
468.417	3461.08
468.789	3495.88
469.161	3563.45
469.534	3620.4
469.906	3720.51
470.278	3706.05
470.65	3761.41
471.022	3870.34
471.394	3896.1
471.766	3949.2
472.138	4030.56
472.51	4107.17
472.882	4138.58
473.253	4144.23
473.625	4212.93
473.997	4362.75
474.369	4372.24
474.74	4424.9
475.112	4493.82
475.484	4603.65
475.855	4609.75
476.227	4663.99
476.598	4820.82
476.97	4849.07
477.341	4954.6
477.713	5022.4
478.084	5042.06
478.455	5184.2
478.827	5249.06
479.198	5366.34
479.569	5409.28
479.94	5554.36
480.311	5611.31
480.682	5748.48
481.053	5941.02
481.424	5934.46
481.795	6008.36
482.166	6086.1
482.537	6145.08
482.908	6310.27
483.279	6362.7
483.65	6410.61
484.021	6661.45
484.391	6684.73
484.762	6773.31
485.133	6854.21
485.503	6887.43
485.874	7059.63
486.244	7091.27
486.615	7246.74
486.985	7329.68
487.356	7462.56
487.726	7497.59
488.097	7669.56
488.467	7725.83
488.837	7919.5
489.207	7981.41
489.578	8076.1
489.948	8137.57
490.318	8288.53
490.688	8289.43
491.058	8402.42
491.428	8508.63
491.798	8652.13
492.168	8803.77
492.538	8856.42
492.908	9024.55
493.278	9053.02
493.648	9125.34
494.017	9255.96
494.387	9265.45
494.757	9419.34
495.126	9502.28
495.496	9460.7
495.866	9564.42
496.235	9756.96
496.605	9817.75
496.974	9917.63
497.344	10036.73
497.713	10016.84
498.082	10078.08
498.452	10211.41
498.821	10239.66
499.19	10327.34
499.559	10432.65
499.928	10457.73
500.298	10534.79
500.667	10648.91
501.036	10630.61
501.405	10800.78
501.774	10826.76
502.143	10960.55
502.512	10969.58
502.88	11082.35
503.249	11142.24
503.618	11191.5
503.987	11280.54
504.356	11339.52
504.724	11472.62
505.093	11480.08
505.462	11549.91
505.83	11578.16
506.199	11659.74
506.567	11814.08
506.936	11859.96
507.304	12037.35
507.672	12080.29
508.041	12148.54
508.409	12219.72
508.777	12337.91
509.145	12423.33
509.514	12409.77
509.882	12464.01
510.25	12689.77
510.618	12745.58
510.986	12772.7
511.354	12922.08
511.722	12951.45
512.09	13154.61
512.458	13160.04
512.826	13252.91
513.193	13331.78
513.561	13415.4
513.929	13549.63
514.297	13766.57
514.664	13784.2
515.032	13783.3
515.4	14007.92
515.767	14031.65
516.135	14180.12
516.502	14092.44
516.869	14354.81
517.237	14413.11
517.604	14408.36
517.972	14600.22
518.339	14734.23
518.706	14731.29
519.073	14752.99
519.44	14928.8
519.808	15135.12
520.175	15116.82
520.542	15359.3
520.909	15481.56
521.276	15454.89
521.643	15538.96
522.009	15714.09
522.376	15910.47
522.743	15969.23
523.11	16142.33
523.477	16287.41
523.843	16415.99
524.21	16571.25
524.577	16661.19
524.943	16794.52
525.31	16867.51
525.676	17024.57
526.043	17131.68
526.409	17158.12
526.776	17445.12
527.142	17490.99
527.508	17603.76
527.874	17742.51
528.241	17847.14
528.607	17883.98
528.973	18068.38
529.339	18095.27
529.705	18245.55
530.071	18415.04
530.437	18530.52
530.803	18566.67
531.169	18772.54
531.535	18725.31
531.901	18878.76
532.267	18939.09
532.632	19135.25
532.998	19150.39
533.364	19241.68
533.73	19303.38
534.095	19442.58
534.461	19612.07
534.826	19588.79
535.192	19725.06
535.557	19885.51
535.923	19843.93
536.288	20016.13
536.653	20081.66
537.019	20095.67
537.384	20275.55
537.749	20309.9
538.114	20389.9
538.479	20453.18
538.845	20473.29
539.21	20529.11
539.575	20658.82
539.94	20715.09
540.305	20847.97
540.67	20849.55
541.034	20944.92
541.399	21101.52
541.764	21171.35
542.129	21066.72
542.494	21204.12
542.858	21324.34
543.223	21388.29
543.587	21422.64
543.952	21492.92
544.316	21571.79
544.681	21620.15
545.045	21719.58
545.41	21770.2
545.774	21991.67
546.138	22044.1
546.503	21943.76
546.867	22010.88
547.231	22198.22
547.595	22396.63
547.959	22440.92
548.324	22345.78
548.688	22437.76
549.052	22569.51
549.416	22584.19
549.779	22620.35
550.143	22833.45
550.507	22930.4
550.871	22933.34
551.235	22958.65
551.599	23187.79
551.962	23275.25
552.326	23296.94
552.689	23461.01
553.053	23292.2
553.417	23546.88
553.78	23679.31
554.143	23696.93
554.507	23802.69
554.87	23933.54
555.234	24112.74
555.597	24107.32
555.96	24048.34
556.323	24300.53
556.686	24298.95
557.05	24453.75
557.413	24512.51
557.776	24615.78
558.139	24768.54
558.502	24825.49
558.865	24839.73
559.228	25111.13
559.59	25162.43
559.953	25180.96
560.316	25528.52
560.679	25485.13
561.041	25575.98
561.404	25685.58
561.767	25927.84
562.129	25974.61
562.492	26042.63
562.854	26153.14
563.217	26200.37
563.579	26294.83
563.941	26461.61
564.304	26557.2
564.666	26718.77
565.028	26747.25
565.39	26937.53
565.753	27026.11
566.115	27189.04
566.477	27247.8
566.839	27390.62
567.201	27474.01
567.563	27517.17
567.925	27762.82
568.287	27759.88
568.648	27837.84
569.01	28037.61
569.372	28190.15
569.734	27977.72
570.095	28213.88
570.457	28368.45
570.819	28485.28
571.18	28484.83
571.542	28603.47
571.903	28746.07
572.265	28683.69
572.626	28851.15
572.987	28864.71
573.349	28971.6
573.71	29096.11
574.071	29257.69
574.432	29301.98
574.794	29623.33
575.155	29537.46
575.516	29415.2
575.877	29515.76
576.238	29529.32
576.599	29681.63
576.96	29722.54
577.32	29706.72
577.681	29877.79
578.042	29962.53
578.403	30092.47
578.763	29972.93
579.124	29970.44
579.485	30128.85
579.845	30179.47
580.206	30116.2
580.566	30167.27
580.927	30293.14
581.287	30304.67
581.648	30299.7
582.008	30441.39
582.368	30296.08
582.728	30556.19
583.089	30360.71
583.449	30379.92
583.809	30520.26
584.169	30480.94
584.529	30299.47
584.889	30579.24
585.249	30524.1
585.609	30521.61
585.969	30679.8
586.329	30484.33
586.688	30584.21
587.048	30436.87
587.408	30482.97
587.768	30545.57
588.127	30514.16
588.487	30550.99
588.846	30709.4
589.206	30436.19
589.565	30648.16
589.925	30708.73
590.284	30628.73
590.643	30616.3
591.003	30702.62
591.362	30746.01
591.721	30736.07
592.08	30712.34
592.44	30664.43
592.799	30760.93
593.158	30747.82
593.517	30708.95
593.876	30794.83
594.235	30734.49
594.593	30874.82
594.952	30943.97
595.311	30783.75
595.67	30947.14
596.029	31064.42
596.387	31035.72
596.746	31077.76
597.104	30840.93
597.463	30984.88
597.822	31081.37
598.18	31022.84
598.538	31060.13
598.897	31114.37
599.255	30952.56
599.613	31421.93
599.972	31137.42
600.33	31216.51
600.688	31205.44
601.046	31193.01
601.404	31276.17
601.762	31317.98
602.12	31405.88
602.478	31470.29
602.836	31493.34
603.194	31252.89
603.552	31258.77
603.91	31256.28
604.268	31494.47
604.625	31366.79
604.983	31625.99
605.341	31371.99
605.698	31469.84
606.056	31630.06
606.413	31533.34
606.771	31732.88
607.128	31588.93
607.485	31533.79
607.843	31673.22
608.2	31808.36
608.557	31918.19
608.914	31857.17
609.272	32087.22
609.629	32032.53
609.986	32157.28
610.343	31990.73
610.7	32276.59
611.057	32153.43
611.414	32091.74
611.771	32185.07
612.127	32275.92
612.484	32209.25
612.841	32308.23
613.198	32304.16
613.554	32249.93
613.911	32527.44
614.267	32383.26
614.624	32371.06
614.98	32512.52
615.337	32657.6
615.693	32553.65
616.05	32503.71
616.406	32767.2
616.762	32586.19
617.118	32601.11
617.475	32649.47
617.831	32644.95
618.187	32781.21
618.543	32798.16
618.899	32872.51
619.255	32945.28
619.611	32809.69
619.967	32901.66
620.323	32964.03
620.678	32848.11
621.034	32812.4
621.39	32829.8
621.746	32772.85
622.101	33185.95
622.457	32823.47
622.812	32908.89
623.168	33057.59
623.523	33029.12
623.879	33115.67
624.234	32865.73
624.589	33015.11
624.945	33008.1
625.3	32930.81
625.655	33018.27
626.01	32933.53
626.365	32919.74
626.72	32845.85
627.075	33007.42
627.43	33013.07
627.785	32962.9
628.14	33046.07
628.495	32969.01
628.85	32956.12
629.205	32752.97
629.559	32978.72
629.914	32799.74
630.269	32799.97
630.623	32760.65
630.978	32714.55
631.332	32895.79
631.687	32869.35
632.041	32605.85
632.396	32752.51
632.75	32691.05
633.104	32704.61
633.459	32391.85
633.813	32624.16
634.167	32499.19
634.521	32518.62
634.875	32535.35
635.229	32500.09
635.583	32275.69
635.937	32272.3
636.291	32303.94
636.645	32346.65
636.999	32241.12
637.352	32231.62
637.706	32098.97
638.06	32202.02
638.413	32190.95
638.767	32107.79
639.121	32141.91
639.474	31823.05
639.828	31878.64
640.181	32072.31
640.534	32008.35
640.888	31790.51
641.241	31678.19
641.594	31774.91
641.947	31886.32
642.301	31668.93
642.654	31821.24
643.007	31734.24
643.36	31640.45
643.713	31593.67
644.066	31706.21
644.419	31572.88
644.771	31253.34
645.124	31049.96
645.477	31116.4
645.83	30868.04
646.182	30649.52
646.535	30593.7
646.888	30565
647.24	30329.53
647.593	30495.85
647.945	30401.84
648.298	30322.75
648.65	30235.52
649.002	30147.84
649.355	30313.93
649.707	30295.18
650.059	30351.9
650.411	30838.67
650.763	30727.48
651.115	31105.55
651.467	30907.37
651.819	30945.56
652.171	30815.62
652.523	30755.28
652.875	30766.58
653.227	30696.98
653.578	30876.63
653.93	30850.19
654.282	30600.48
654.633	30692.23
654.985	30533.82
655.337	30640.25
655.688	30583.08
656.039	30739.01
656.391	30451.56
656.742	30450.65
657.094	30475.74
657.445	30666.24
657.796	30553.93
658.147	30505.79
658.498	30474.83
658.849	30419.69
659.2	30419.47
659.551	30320.71
659.902	30439.58
660.253	30396.64
660.604	30383.31
660.955	30336.98
661.306	30423.31
661.656	30250.89
662.007	30173.37
662.358	30213.37
662.708	30195.75
663.059	30108.97
663.409	29969.99
663.76	30380.6
664.11	30244.33
664.461	30238.68
664.811	30071.23
665.161	30247.27
665.511	30202.75
665.862	30199.59
666.212	30103.77
666.562	30249.98
666.912	30089.99
667.262	30025.81
667.612	29972.47
667.962	30069.87
668.312	30043.21
668.662	30140.61
669.011	29986.94
669.361	29961.63
669.711	29944.45
670.06	29920.72
670.41	29876.66
670.76	29828.07
671.109	29909.43
671.459	29925.47
671.808	29792.37
672.157	29830.33
672.507	29690.67
672.856	29670.34
673.205	29806.38
673.554	29784.46
673.904	29692.48
674.253	29895.87
674.602	29700.62
674.951	29264.92
675.3	29056.79
675.649	29632.82
675.998	29543.33
676.346	29562.09
676.695	29637.79
677.044	29433.05
677.393	29456.78
677.741	29341.3
678.09	29291.81
678.438	29409.55
678.787	29344.69
679.135	29389.89
679.484	29192.83
679.832	29220.86
680.181	29057.47
680.529	29355.54
680.877	29155.77
681.225	29088.2
681.573	29295.43
681.922	29012.05
682.27	28898.83
682.618	29083.46
682.966	28946.29
683.314	28933.41
683.661	28857.48
684.009	28715.56
684.357	28606.63
684.705	28650.93
685.053	28710.13
685.4	28636.46
685.748	28436.92
686.095	28448.67
686.443	28302.24
686.79	28166.42
687.138	28376.36
687.485	28259.53
687.832	28197.38
688.18	28141.56
688.527	28076.48
688.874	28107.66
689.221	28001.9
689.568	27969.82
689.915	27927.78
690.262	27865.41
690.609	27743.61
690.956	27759.88
691.303	27703.16
691.65	27465.65
691.997	27555.36
692.344	27314.01
692.69	27277.86
693.037	27284.18
693.383	27182.27
693.73	27196.28
694.077	27014.59
694.423	27071.99
694.769	26861.14
695.116	26847.81
695.462	26850.07
695.808	26714.48
696.155	26872.44
696.501	26621.83
696.847	26512.23
697.193	26358.11
697.539	26494.6
697.885	26301.61
698.231	26362.4
698.577	26130.54
698.923	26055.29
699.269	25969.42
699.614	25850.78
699.96	25857.78
700.306	25942.52
700.651	25817.1
700.997	25713.83
701.342	25597.67
701.688	25542.53
702.033	25512.03
702.379	25524
702.724	25417.11
703.069	25486.72
703.415	25145.26
703.76	25316.1
704.105	25192.04
704.45	25068.42
704.795	25006.28
705.14	24853.74
705.485	24917.69
705.83	24781.42
706.175	24830.24
706.52	24700.3
706.865	24819.84
707.209	24637.47
707.554	24463.92
707.899	24587.53
708.243	24454.65
708.588	24342.57
708.932	24117.71
709.277	24282.91
709.621	24228.67
709.966	23992.07
710.31	24052.86
710.654	23856.03
710.998	24014.67
711.342	24107.09
711.687	23852.41
712.031	23775.58
712.375	23737.38
712.719	23640.21
713.063	23749.14
713.407	23745.97
713.75	23542.36
714.094	23559.99
714.438	23423.95
714.782	23420.56
715.125	23391.4
715.469	23403.61
715.812	23253.33
716.156	23118.64
716.499	23214.91
716.843	23161.81
717.186	22963.85
717.53	23105.31
717.873	23133.33
718.216	23181.92
718.559	22958.42
718.902	22773.12
719.246	22865.32
719.589	22769.95
719.932	22679.56
720.275	22642.27
720.617	22635.49
720.96	22671.42
721.303	22639.56
721.646	22532.9
721.989	22517.08
722.331	22541.03
722.674	22449.96
723.016	22454.48
723.359	22424.65
723.701	22376.97
724.044	22239.12
724.386	22182.17
724.729	22185.79
725.071	22181.72
725.413	22121.38
725.755	22153.7
726.097	22112.79
726.439	22020.14
726.782	21982.85
727.124	22013.36
727.465	21993.02
727.807	21887.49
728.149	21889.75
728.491	21772.92
728.833	21662.18
729.175	21773.37
729.516	21576.09
729.858	21683.88
730.199	21683.65
730.541	21627.61
730.882	21562.07
731.224	21623.99
731.565	21364.11
731.906	21519.14
732.248	21467.84
732.589	21415.41
732.93	21330.67
733.271	21378.35
733.612	21415.64
733.953	21330.44
734.294	21236.43
734.635	21205.7
734.976	21192.59
735.317	21070.11
735.658	21188.3
735.999	21085.02
736.339	21031.01
736.68	21143.1
737.021	20957.8
737.361	20849.1
737.702	20955.99
738.042	20840.96
738.383	20768.42
738.723	20812.94
739.063	20720.74
739.404	20774.07
739.744	20810.46
740.084	20776.56
740.424	20679.61
740.764	20557.58
741.104	20743.56
741.444	20501.31
741.784	20462.22
742.124	20631.93
742.464	20607.3
742.804	20427.41
743.143	20393.29
743.483	20442.33
743.823	20368.43
744.162	20364.59
744.502	20332.28
744.841	20345.84
745.181	20327.08
745.52	20125.73
745.86	20218.38
746.199	20172.28
746.538	20172.96
746.877	20164.14
747.216	20134.32
747.556	20004.15
747.895	20051.83
748.234	20003.7
748.573	19980.42
748.911	19927.77
749.25	19913.08
749.589	19721.44
749.928	19881.21
750.267	19857.94
750.605	19730.94
750.944	19724.16
751.283	19617.72
751.621	19633.99
751.96	19501.56
752.298	19514.44
752.636	19557.38
752.975	19350.83
753.313	19307.44
753.651	19392.64
753.989	19200.1
754.327	19142.93
754.666	19192.19
755.004	19103.83
755.342	19167.11
755.679	19033.1
756.017	19081.69
756.355	19076.26
756.693	18890.96
757.031	18993.78
757.368	18884.4
757.706	18878.98
758.044	18743.39
758.381	18763.96
758.719	18659.55
759.056	18715.14
759.394	18586.33
759.731	18488.71
760.068	18526.67
760.405	18479.22
760.743	18292.33
761.08	18481.03
761.417	18280.8
761.754	18279.67
762.091	18245.55
762.428	18130.53
762.765	18006.46
763.102	18128.27
763.438	17916.29
763.775	17930.31
764.112	17879.01
764.449	17844.66
764.785	17793.13
765.122	17636.75
765.458	17599.92
765.795	17457.78
766.131	17582.52
766.467	17564.44
766.804	17295.75
767.14	17366.25
767.476	17322.41
767.812	17220.72
768.148	17179.36
768.485	17032.7
768.821	17033.61
769.157	17031.35
769.492	16914.29
769.828	16958.35
770.164	16847.62
770.5	16698.47
770.836	16786.83
771.171	16618.02
771.507	16601.75
771.842	16437.24
772.178	16495.99
772.513	16410.8
772.849	16245.6
773.184	16315.43
773.519	16296.9
773.855	16223.46
774.19	16087.42
774.525	16256
774.86	16071.15
775.195	16081.77
775.53	15918.83
775.865	15849.91
776.2	15762.68
776.535	15676.58
776.87	15690.36
777.205	15520.65
777.539	15558.16
777.874	15615.11
778.209	15428.9
778.543	15395.68
778.878	15363.14
779.212	15348
779.547	15196.37
779.881	15187.55
780.215	15211.73
780.55	15202.92
780.884	15014.68
781.218	14961.34
781.552	15048.35
781.886	14848.13
782.22	14799.54
782.554	14821.46
782.888	14625.53
783.222	14610.39
783.556	14536.95
783.889	14498.98
784.223	14429.83
784.557	14385.77
784.89	14440.68
785.224	14363.62
785.557	14325.43
785.891	14137.64
786.224	14217.63
786.558	14156.39
786.891	14051.09
787.224	14026
787.557	13960.47
787.891	13885.89
788.224	13880.92
788.557	13817.87
788.89	13782.62
789.223	13790.53
789.556	13611.77
789.888	13626.24
790.221	13571.78
790.554	13444.32
790.887	13561.83
791.219	13462.63
791.552	13382.4
791.884	13342.63
792.217	13313.48
792.549	13325.45
792.882	13213.82
793.214	13175.85
793.546	13253.82
793.879	13033.71
794.211	13002.3
794.543	13000.27
794.875	12965.69
795.207	12974.73
795.539	12887.27
795.871	12855.41
796.203	12765.92
796.535	12753.94
796.867	12736.32
797.198	12689.77
797.53	12731.35
797.862	12580.62
798.193	12640.27
798.525	12528.64
798.856	12519.37
799.188	12394.18
799.519	12405.93
799.85	12289.32
800.182	12307.85
800.513	12322.09
800.844	12218.14
801.175	12283.22
801.506	12315.09
801.837	12166.39
802.168	12172.04
802.499	12074.64
802.83	11970.24
803.161	11990.57
803.491	12033.51
803.822	11976.11
804.153	11885.04
804.483	11807.3
804.814	11691.37
805.145	11814.08
805.475	11781.99
805.805	11680.3
806.136	11778.83
806.466	11725.5
806.796	11645.05
807.126	11579.74
807.457	11552.17
807.787	11579.96
808.117	11512.17
808.447	11478.72
808.777	11493.19
809.107	11408.67
809.436	11366.86
809.766	11374.55
810.096	11326.64
810.426	11241.89
810.755	11276.47
811.085	11234.89
811.414	11251.84
811.744	11196.7
812.073	11192.4
812.403	11174.32
812.732	11112.41
813.061	11129.35
813.39	10991.73
813.719	10977.27
814.049	11022.01
814.378	10962.13
814.707	10884.39
815.036	10925.74
815.365	10863.6
815.693	10815.69
816.022	10836.25
816.351	10785.63
816.68	10727.56
817.008	10759.19
817.337	10648.01
817.665	10630.84
817.994	10659.99
818.322	10603.49
818.651	10557.84
818.979	10576.15
819.307	10570.05
819.636	10511.97
819.964	10472.2
820.292	10504.74
820.62	10519.43
820.948	10397.85
821.276	10518.3
821.604	10492.99
821.932	10530.95
822.259	10468.81
822.587	10442.59
822.915	10448.92
823.243	10472.87
823.57	10352.43
823.898	10379.32
824.225	10392.65
824.553	10383.16
824.88	10397.85
825.207	10395.81
825.535	10324.86
825.862	10455.93
826.189	10370.96
826.516	10421.35
826.843	10427.45
827.17	10414.12
827.497	10350.17
827.824	10426.55
828.151	10503.38
828.478	10448.02
828.805	10449.15
829.131	10399.88
829.458	10356.49
829.785	10387.68
830.111	10457.28
830.438	10387.9
830.764	10429.71
831.09	10374.8
831.417	10363.27
831.743	10370.73
832.069	10382.03
832.395	10410.96
832.722	10398.75
833.048	10326.66
833.374	10339.09
833.7	10308.13
834.026	10298.87
834.351	10356.95
834.677	10261.13
835.003	10325.08
835.329	10298.64
835.654	10299.55
835.98	10231.52
836.306	10247.34
836.631	10179.32
836.956	10212.54
837.282	10170.96
837.607	10093.45
837.932	10157.4
838.258	10075.37
838.583	10103.39
838.908	10023.39
839.233	10048.93
839.558	10021.59
839.883	9968.48
840.208	9943.4
840.533	9973.9
840.858	9982.72
841.182	9943.4
841.507	10021.59
841.832	9865.43
842.156	9820.24
842.481	9926.45
842.805	9858.2
843.13	9786.34
843.454	9793.8
843.778	9768.26
844.103	9750.18
844.427	9716.28
844.751	9762.38
845.075	9713.12
845.399	9689.39
845.723	9649.39
846.047	9637.87
846.371	9550.19
846.695	9607.81
847.019	9543.86
847.343	9501.83
847.666	9398.78
847.99	9368.5
848.313	9314.49
848.637	9304.77
848.96	9251.89
849.284	9305.22
849.607	9267.71
849.931	9186.58
850.254	9135.96
850.577	9063.87
850.9	9041.5
851.223	9025.68
851.546	8995.17
851.869	8968.73
852.192	8960.6
852.515	8861.84
852.838	8947.94
853.161	8885.35
853.483	8804.22
853.806	8743.2
854.129	8766.7
854.451	8732.81
854.774	8660.72
855.096	8589.08
855.419	8630.44
855.741	8557.9
856.063	8549.31
856.385	8563.55
856.708	8486.49
857.03	8484
857.352	8530.55
857.674	8450.78
857.996	8407.84
858.318	8338.69
858.64	8374.4
858.961	8370.33
859.283	8315.64
859.605	8279.03
859.926	8330.11
860.248	8302.76
860.57	8227.28
860.891	8255.08
861.212	8204.23
861.534	8221.63
861.855	8197
862.176	8180.05
862.498	8132.37
862.819	8126.95
863.14	8114.97
863.461	8137.12
863.782	8046.27
864.103	8123.78
864.424	8078.36
864.745	8063.45
865.065	8108.87
865.386	7968.31
865.707	8027.74
866.027	8008.31
866.348	7993.84
866.668	7968.53
866.989	7926.95
867.309	7917.69
867.63	7897.35
867.95	7931.92
868.27	7829.78
868.59	7901.42
868.91	7872.04
869.23	7854.41
869.55	7847.18
869.87	7874.98
870.19	7831.14
870.51	7787.97
870.83	7862.1
871.15	7733.74
871.469	7781.42
871.789	7792.27
872.109	7709.56
872.428	7726.05
872.748	7735.32
873.067	7740.97
873.386	7670.01
873.706	7719.05
874.025	7518.83
874.344	7629.79
874.663	7670.91
874.982	7637.24
875.301	7643.8
875.62	7612.38
875.939	7502.33
876.258	7603.12
876.577	7523.35
876.896	7544.82
877.214	7534.42
877.533	7563.12
877.852	7556.57
878.17	7505.49
878.489	7526.29
878.807	7475.21
879.125	7438.6
879.444	7427.3
879.762	7471.82
880.08	7407.87
880.398	7458.26
880.716	7430.69
881.034	7407.42
881.352	7399.51
881.67	7358.61
881.988	7393.63
882.306	7292.84
882.624	7324.26
882.941	7297.14
883.259	7227.76
883.577	7325.39
883.894	7291.49
884.212	7274.77
884.529	7271.15
884.846	7188.44
885.164	7157.26
885.481	7185.05
885.798	7169.91
886.115	7158.61
886.432	7115.22
886.75	7048.11
887.067	7115.22
887.383	7086.07
887.7	7061.89
888.017	7051.5
888.334	7060.08
888.651	7028.22
888.967	7011.04
889.284	6924.95
889.6	6945.28
889.917	6893.53
890.233	6920.88
890.55	6890.82
890.866	6888.56
891.182	6812.86
891.498	6880.65
891.815	6865.29
892.131	6781.22
892.447	6757.49
892.763	6755.46
893.079	6751.84
893.395	6746.64
893.71	6724.05
894.026	6704.39
894.342	6662.58
894.657	6655.35
894.973	6646.53
895.289	6651.73
895.604	6601.11
895.92	6544.62
896.235	6525.86
896.55	6518.85
896.865	6491.06
897.181	6495.13
897.496	6525.18
897.811	6474.79
898.126	6428.69
898.441	6407.22
898.756	6425.75
899.071	6317.5
899.386	6413.09
899.7	6337.39
900.015	6282.25
900.33	6275.02
900.644	6226.43
900.959	6308.92
901.273	6185.53
901.588	6218.97
901.902	6156.15
902.216	6139.43
902.531	6099.2
902.845	6089.94
903.159	6028.92
903.473	6043.61
903.787	5989.15
904.101	5950.96
904.415	6020.56
904.729	5977.63
905.042	5924.29
905.356	5951.41
905.67	5913.22
905.984	5902.15
906.297	5867.8
906.611	5867.12
906.924	5838.42
907.237	5815.6
907.551	5783.96
907.864	5740.8
908.177	5734.02
908.491	5784.86
908.804	5699.67
909.117	5695.6
909.43	5671.19
909.743	5644.75
910.056	5663.28
910.368	5589.39
910.681	5576.73
910.994	5539.9
911.307	5550.52
911.619	5461.25
911.932	5493.12
912.244	5459.22
912.557	5465.77
912.869	5408.15
913.181	5470.07
913.494	5438.43
913.806	5352.56
914.118	5370.86
914.43	5335.83
914.742	5343.07
915.054	5287.7
915.366	5244.09
915.678	5276.63
915.99	5199.34
916.302	5183.75
916.613	5147.59
916.925	5181.94
917.236	5155.05
917.548	5119.12
917.859	5134.71
918.171	5072.79
918.482	5035.96
918.794	5063.53
919.105	5046.12
919.416	5000.93
919.727	5008.16
920.038	4992.34
920.349	4927.48
920.66	4884.77
920.971	4898.11
921.282	4916.86
921.593	4859.01
921.903	4818.33
922.214	4823.76
922.525	4769.97
922.835	4769.75
923.146	4724.1
923.456	4770.65
923.767	4706.92
924.077	4708.28
924.387	4735.62
924.697	4665.34
925.008	4675.96
925.318	4654.27
925.628	4625.57
925.938	4595.06
926.248	4559.58
926.558	4489.53
926.867	4524.1
927.177	4521.62
927.487	4502.41
927.796	4488.62
928.106	4468.29
928.416	4396.2
928.725	4405.01
929.034	4391.68
929.344	4424.67
929.653	4365.24
929.962	4356.2
930.271	4352.13
930.581	4318.46
930.89	4282.3
931.199	4216.99
931.508	4250.67
931.817	4274.85
932.125	4224
932.434	4199.14
932.743	4159.82
933.051	4143.78
933.36	4139.93
933.669	4095.19
933.977	4104.23
934.286	4124.79
934.594	4089.99
934.902	4086.6
935.21	4051.8
935.519	4069.88
935.827	4057.9
936.135	4015.64
936.443	3965.93
936.751	3993.72
937.059	3979.26
937.367	3939.94
937.674	3941.75
937.982	3894.06
938.29	3880.96
938.597	3859.49
938.905	3835.53
939.213	3850.22
939.52	3787.63
939.827	3829.21
940.135	3828.53
940.442	3776.55
940.749	3742.88
941.056	3772.71
941.363	3735.2
941.67	3718.7
941.977	3677.8
942.284	3700.85
942.591	3642.09
942.898	3650
943.205	3631.02
943.511	3635.54
943.818	3582.43
944.125	3606.84
944.431	3558.71
944.738	3580.17
945.044	3536.79
945.35	3546.95
945.657	3512.83
945.963	3535.66
946.269	3493.62
946.575	3494.07
946.881	3443.91
947.187	3474.41
947.493	3447.97
947.799	3421.53
948.105	3443.23
948.41	3412.04
948.716	3377.92
949.022	3374.3
949.327	3342.44
949.633	3360.97
949.938	3327.98
950.244	3329.33
950.549	3276.91
950.854	3271.48
951.16	3293.4
951.465	3265.38
951.77	3256.79
952.075	3257.24
952.38	3223.35
952.685	3271.03
952.99	3200.3
953.294	3181.99
953.599	3178.15
953.904	3145.38
954.209	3130.24
954.513	3158.04
954.818	3118.04
955.122	3115.55
955.426	3092.96
955.731	3084.82
956.035	3090.47
956.339	3069.45
956.643	3047.31
956.948	3025.84
957.252	3013.64
957.556	2992.39
957.86	3012.05
958.163	2963.69
958.467	2986.74
958.771	2999.62
959.075	2965.28
959.378	2916.69
959.682	2955.33
959.985	2901.77
960.289	2874.2
960.592	2892.28
960.896	2878.72
961.199	2836.24
961.502	2855.22
961.805	2830.82
962.108	2826.07
962.411	2829.01
962.714	2817.71
963.017	2772.29
963.32	2767.77
963.623	2803.47
963.926	2753.98
964.228	2765.28
964.531	2721.89
964.833	2685.73
965.136	2686.19
965.438	2704.72
965.741	2695.23
966.043	2655.23
966.345	2679.18
966.648	2646.41
966.95	2636.24
967.252	2615.68
967.554	2656.58
967.856	2596.92
968.158	2597.38
968.46	2585.17
968.761	2603.02
969.063	2581.1
969.365	2590.14
969.666	2570.71
969.968	2520.32
970.269	2518.51
970.571	2493.65
970.872	2484.16
971.174	2477.83
971.475	2460.88
971.776	2444.61
972.077	2464.05
972.378	2489.36
972.679	2474.67
972.98	2439.41
973.281	2395.35
973.582	2401.67
973.883	2375.23
974.183	2390.6
974.484	2417.04
974.785	2355.35
975.085	2361
975.386	2350.38
975.686	2360.09
975.986	2306.76
976.287	2341.79
976.587	2323.26
976.887	2299.76
977.187	2346.76
977.487	2296.37
977.787	2299.08
978.087	2269.02
978.387	2261.79
978.687	2276.25
978.987	2250.27
979.286	2222.02
979.586	2245.97
979.885	2224.96
980.185	2196.26
980.484	2188.35
980.784	2181.79
981.083	2172.08
981.382	2198.74
981.682	2185.86
981.981	2158.29
982.28	2122.59
982.579	2126.88
982.878	2120.55
983.177	2105.41
983.475	2096.37
983.774	2089.82
984.073	2083.72
984.372	2081.91
984.67	2053.66
984.969	2043.49
985.267	2063.38
985.566	2054.34
985.864	2072.64
986.162	2037.84
986.461	2011.18
986.759	2017.05
987.057	2017.73
987.355	2003.72
987.653	1974.34
987.951	1987.22
988.249	1984.06
988.547	1975.24
988.844	1961.69
989.142	1980.22
989.44	1941.8
989.737	1928.01
990.035	1935.92
990.332	1916.26
990.63	1899.99
990.927	1907.68
991.224	1896.83
991.521	1879.2
991.819	1868.81
992.116	1878.07
992.413	1846.89
992.71	1844.17
993.006	1847.34
993.303	1818.64
993.6	1816.15
993.897	1826.1
994.193	1842.37
994.49	1806.66
994.787	1779.09
995.083	1794.68
995.379	1765.08
995.676	1771.86
995.972	1754.46
996.268	1778.19
996.565	1762.14
996.861	1759.66
997.157	1730.05
997.453	1717.62
997.749	1685.31
998.044	1691.64
998.34	1702.48
998.636	1700.9
998.932	1678.3
999.227	1632.65
999.523	1682.15
999.818	1652.54
1000.114	1636.04
1000.409	1639.21
1000.704	1623.62
1001	1606.21
1001.295	1623.39
1001.59	1604.18
1001.885	1615.25
1002.18	1585.42
1002.475	1597.18
1002.77	1578.64
1003.065	1557.63
1003.359	1561.7
1003.654	1526.89
1003.949	1572.09
1004.243	1542.71
1004.538	1545.65
1004.832	1522.83
1005.127	1517.4
1005.421	1521.92
1005.715	1497.07
1006.009	1508.36
1006.304	1481.47
1006.598	1493
1006.892	1479.21
1007.186	1442.6
1007.48	1471.08
1007.773	1467.46
1008.067	1434.02
1008.361	1432.66
1008.655	1415.49
1008.948	1409.84
1009.242	1404.19
1009.535	1408.93
1009.829	1406.22
1010.122	1384.53
1010.415	1376.16
1010.708	1380.68
1011.001	1370.97
1011.295	1336.39
1011.588	1355.83
1011.881	1368.25
1012.173	1345.43
1012.466	1330.97
1012.759	1315.83
1013.052	1320.57
1013.344	1289.61
1013.637	1305.66
1013.93	1312.21
1014.222	1293.45
1014.514	1306.56
1014.807	1282.16
1015.099	1255.94
1015.391	1281.48
1015.683	1240.12
1015.976	1263.85
1016.268	1249.16
1016.56	1223.63
1016.851	1229.95
1017.143	1210.97
1017.435	1238.31
1017.727	1212.1
1018.018	1187.24
1018.31	1212.1
1018.602	1223.4
1018.893	1174.59
1019.185	1165.55
1019.476	1147.92
1019.767	1155.38
1020.058	1157.64
1020.35	1132.78
1020.641	1135.04
1020.932	1142.05
1021.223	1135.49
1021.514	1080.58
1021.804	1104.31
1022.095	1104.53
1022.386	1110.18
1022.677	1079
1022.967	1107.47
1023.258	1054.36
1023.548	1062.73
1023.839	1050.98
1024.129	1043.74
1024.419	1050.52
1024.709	1070.64
1025	1059.34
1025.29	1036.74
1025.58	999.23
1025.87	1020.02
1026.16	1015.72
1026.449	988.6
1026.739	1017.98
1027.029	997.42
1027.319	973.24
1027.608	1004.65
1027.898	972.33
1028.187	969.62
1028.477	975.95
1028.766	977.3
1029.055	942.73
1029.344	942.5
1029.634	940.7
1029.923	953.58
1030.212	952.22
1030.501	906.8
1030.79	930.98
1031.078	936.63
1031.367	927.59
1031.656	925.33
1031.945	882.17
1032.233	881.71
1032.522	891.88
1032.81	890.98
1033.099	857.53
1033.387	880.58
1033.675	877.65
1033.963	863.86
1034.251	849.85
1034.54	862.73
1034.828	842.62
1035.116	839.23
1035.403	849.85
1035.691	844.65
1035.979	832.45
1036.267	831.09
1036.554	820.02
1036.842	820.7
1037.129	811.66
1037.417	822.73
1037.704	805.33
1037.992	793.81
1038.279	801.04
1038.566	797.42
1038.853	797.42
1039.14	797.42
