Data from breadboard_black_back_FLMS001491_00017.txt Node
Date: Wed Feb 08 10:50:01 GMT 2017
User: dcchb
Spectrometer: FLMS00149
Trigger mode: 0
Integration Time (sec): 2.000000E-2
Scans to average: 10
Electric dark correction enabled: true
Nonlinearity correction enabled: false
Boxcar width: 0
XAxis mode: Wavelengths
Number of Pixels in Spectrum: 2048
>>>>>Begin Spectral Data<<<<<
341.393	12.78
341.776	12.78
342.16	12.78
342.543	-66.31
342.927	-72.87
343.31	-83.94
343.693	-64.96
344.077	-62.24
344.46	-55.01
344.843	-30.15
345.226	-47.56
345.61	-41.91
345.993	-8.23
346.376	-14.56
346.759	6.68
347.142	31.99
347.525	53.91
347.908	50.75
348.291	80.13
348.674	86.23
349.057	98.88
349.44	118.32
349.823	129.84
350.206	163.06
350.588	217.52
350.971	216.84
351.354	230.4
351.737	233.34
352.119	272.44
352.502	258.2
352.884	271.98
353.267	273.34
353.65	316.5
354.032	291.42
354.414	311.98
354.797	319.89
355.179	330.51
355.562	327.58
355.944	331.87
356.326	336.84
356.709	336.39
357.091	339.55
357.473	355.37
357.855	330.97
358.238	348.14
358.62	352.43
359.002	349.04
359.384	350.4
359.766	347.91
360.148	334.81
360.53	342.04
360.912	357.63
361.294	319.21
361.676	340.23
362.057	335.71
362.439	344.3
362.821	357.18
363.203	354.92
363.584	325.54
363.966	340.01
364.348	344.98
364.729	345.2
365.111	332.77
365.493	337.97
365.874	336.16
366.256	316.28
366.637	351.98
367.019	323.73
367.4	335.26
367.781	337.52
368.163	344.75
368.544	327.35
368.925	335.03
369.306	347.24
369.688	343.17
370.069	337.07
370.45	353.56
370.831	352.66
371.212	334.13
371.593	353.11
371.974	339.55
372.355	351.53
372.736	352.43
373.117	332.32
373.498	342.49
373.879	343.62
374.26	367.35
374.641	365.77
375.021	335.26
375.402	358.08
375.783	370.06
376.163	363.73
376.544	369.83
376.925	354.47
377.305	389.72
377.686	373.9
378.066	365.09
378.447	387.46
378.827	388.59
379.208	380.46
379.588	383.85
379.968	375.94
380.349	376.39
380.729	387.01
381.109	401.47
381.489	385.43
381.87	425.2
382.25	418.2
382.63	418.2
383.01	416.39
383.39	401.47
383.77	409.16
384.15	422.26
384.53	414.81
384.91	414.81
385.29	425.43
385.67	423.17
386.049	433.79
386.429	460.23
386.809	454.58
387.189	459.32
387.568	437.86
387.948	459.1
388.328	448.25
388.707	460.45
389.087	474.01
389.466	471.98
389.846	468.59
390.225	469.72
390.605	477.18
390.984	481.92
391.363	477.85
391.743	484.86
392.122	466.78
392.501	490.74
392.881	525.76
393.26	505.88
393.639	511.98
394.018	528.93
394.397	519.66
394.776	542.26
395.155	519.89
395.534	523.5
395.913	525.31
396.292	535.48
396.671	525.31
397.05	548.59
397.429	562.15
397.808	546.55
398.186	568.02
398.565	570.06
398.944	583.16
399.323	565.54
399.701	572.09
400.08	579.32
400.458	599.43
400.837	591.75
401.215	572.77
401.594	584.07
401.972	602.37
402.351	610.51
402.729	617.96
403.107	615.93
403.486	628.13
403.864	652.77
404.242	647.34
404.62	642.82
404.999	651.64
405.377	664.06
405.755	642.6
406.133	657.06
406.511	655.7
406.889	700.22
407.267	689.15
407.645	692.99
408.023	707
408.401	730.96
408.779	708.13
409.156	721.01
409.534	725.08
409.912	742.03
410.29	739.09
410.667	774.34
411.045	771.86
411.422	793.1
411.8	808.47
412.178	796.26
412.555	801.91
412.933	807.79
413.31	809.6
413.687	808.47
414.065	837.17
414.442	837.39
414.819	854.34
415.197	875.58
415.574	868.58
415.951	893.66
416.328	890.27
416.705	897.73
417.082	889.6
417.46	898.86
417.837	924.17
418.214	928.69
418.591	926.88
418.967	955.81
419.344	937.28
419.721	973.66
420.098	974.56
420.475	972.08
420.852	983.15
421.228	994.9
421.605	1004.85
421.982	1017.5
422.358	1029.93
422.735	1029.25
423.111	1057.73
423.488	1031.74
423.864	1079.19
424.241	1067.9
424.617	1047.33
424.994	1098.4
425.37	1102.25
425.746	1107.67
426.123	1101.12
426.499	1131.85
426.875	1144.73
427.251	1168.23
427.627	1170.04
428.003	1190.15
428.379	1222.69
428.756	1197.16
429.132	1237.83
429.507	1242.81
429.883	1276.93
430.259	1284.84
430.635	1299.08
431.011	1302.92
431.387	1341.79
431.763	1365.74
432.138	1356.48
432.514	1379.53
432.89	1422.46
433.265	1417.49
433.641	1453.42
434.016	1441.45
434.392	1473.31
434.767	1503.36
435.143	1495.91
435.518	1493.42
435.894	1544.04
436.269	1542.23
436.644	1563.02
437.02	1604.38
437.395	1623.14
437.77	1641.21
438.145	1633.53
438.52	1634.21
438.895	1647.99
439.271	1690.93
439.646	1704.26
440.021	1716.69
440.395	1744.71
440.77	1692.29
441.145	1728.9
441.52	1759.4
441.895	1769.57
442.27	1804.6
442.645	1775
443.019	1819.74
443.394	1802.57
443.769	1851.38
444.143	1824.94
444.518	1846.86
444.892	1860.19
445.267	1900.19
445.641	1896.8
446.016	1907.2
446.39	1902
446.764	1929.12
447.139	1933.41
447.513	1977.7
447.887	1942
448.262	1979.06
448.636	2005.27
449.01	2040.75
449.384	2020.64
449.758	2056.57
450.132	2073.52
450.506	2085.5
450.88	2122.56
451.254	2120.07
451.628	2157.36
452.002	2167.08
452.376	2185.83
452.75	2191.93
453.123	2243.23
453.497	2226.51
453.871	2279.84
454.244	2336.11
454.618	2306.73
454.992	2377.92
455.365	2356.45
455.739	2421.76
456.112	2475.54
456.486	2505.6
456.859	2478.03
457.232	2537.46
457.606	2546.73
457.979	2588.08
458.352	2628.31
458.725	2672.15
459.099	2689.1
459.472	2774.07
459.845	2755.08
460.218	2788.75
460.591	2827.17
460.964	2791.92
461.337	2854.29
461.71	2936.77
462.083	2955.08
462.456	2977.22
462.829	3041.4
463.201	3069.65
463.574	3027.17
463.947	3098.35
464.32	3176.31
464.692	3212.02
465.065	3246.14
465.438	3244.56
465.81	3329.08
466.183	3366.37
466.555	3404.56
466.928	3449.08
467.3	3454.5
467.672	3519.13
468.045	3619.02
468.417	3622.18
468.789	3614.04
469.161	3719.35
469.534	3748.05
469.906	3841.83
470.278	3869.63
470.65	3926.58
471.022	3984.66
471.394	4017.2
471.766	4061.04
472.138	4149.4
472.51	4209.06
472.882	4258.77
473.253	4345.1
473.625	4384.42
473.997	4489.27
474.369	4472.1
474.74	4526.34
475.112	4638.65
475.484	4750.51
475.855	4786.44
476.227	4839.1
476.598	4979.66
476.97	5030.28
477.341	5112.54
477.713	5198.18
478.084	5194.34
478.455	5388.46
478.827	5410.38
479.198	5537.83
479.569	5580.55
479.94	5712.97
480.311	5838.17
480.682	5932.17
481.053	6038.39
481.424	6160.64
481.795	6204.03
482.166	6232.05
482.537	6357.25
482.908	6452.61
483.279	6580.29
483.65	6709.78
484.021	6783.68
484.391	6845.14
484.762	6914.97
485.133	7043.11
485.503	7126.95
485.874	7246.04
486.244	7391.35
486.615	7509.53
486.985	7617.55
487.356	7695.97
487.726	7805.35
488.097	7958.34
488.467	7992.69
488.837	8132.57
489.207	8195.39
489.578	8382.73
489.948	8458.66
490.318	8549.05
490.688	8606.68
491.058	8706.56
491.428	8799.44
491.798	8944.75
492.168	9079.66
492.538	9211.86
492.908	9188.81
493.278	9377.28
493.648	9354.46
494.017	9509.03
494.387	9684.84
494.757	9686.2
495.126	9770.04
495.496	9876.7
495.866	9934.33
496.235	9983.82
496.605	10119.18
496.974	10189.46
497.344	10266.52
497.713	10360.31
498.082	10440.98
498.452	10505.16
498.821	10611.83
499.19	10678.26
499.559	10813.63
499.928	10874.64
500.298	10871.25
500.667	11035.32
501.036	11024.24
501.405	11180.4
501.774	11270.79
502.143	11295.2
502.512	11355.76
502.88	11446.38
503.249	11457
503.618	11537.45
503.987	11666.04
504.356	11756.88
504.724	11786.03
505.093	11886.37
505.462	11883.2
505.83	12023.77
506.199	12154.38
506.567	12302.4
506.936	12336.98
507.304	12383.3
507.672	12438.67
508.041	12568.38
508.409	12693.8
508.777	12781.26
509.145	12853.35
509.514	12907.58
509.882	12991.65
510.25	13014.93
510.618	13143.51
510.986	13153.23
511.354	13292.21
511.722	13412.88
512.09	13656.49
512.458	13616.49
512.826	13764.96
513.193	13800.44
513.561	13878.18
513.929	14015.35
514.297	14123.82
514.664	14242.01
515.032	14297.38
515.4	14451.72
515.767	14482.91
516.135	14587.54
516.502	14558.16
516.869	14776.46
517.237	14872.96
517.604	14857.36
517.972	15044.25
518.339	15212.38
518.706	15205.38
519.073	15324.02
519.44	15456.9
519.808	15639.26
520.175	15695.99
520.542	15900.73
520.909	15982.31
521.276	15995.19
521.643	16137.33
522.009	16283.77
522.376	16370.32
522.743	16488.51
523.11	16657.54
523.477	16927.59
523.843	16979.34
524.21	17117.64
524.577	17235.38
524.943	17269.73
525.31	17389.05
525.676	17590.85
526.043	17704.07
526.409	17766.67
526.776	17944.29
527.142	18074.45
527.508	18146.77
527.874	18324.84
528.241	18406.65
528.607	18522.8
528.973	18739.3
529.339	18775.45
529.705	19040.08
530.071	19099.96
530.437	19142.9
530.803	19230.13
531.169	19209.34
531.535	19457.92
531.901	19536.56
532.267	19671.25
532.632	19744.01
532.998	19840.51
533.364	19955.76
533.73	19983.33
534.095	20197.34
534.461	20146.94
534.826	20411.12
535.192	20395.98
535.557	20565.24
535.923	20567.95
536.288	20699.02
536.653	20791.67
537.019	20785.34
537.384	20840.03
537.749	20911.67
538.114	21138.78
538.479	21138.78
538.845	21241.6
539.21	21212.9
539.575	21330.87
539.94	21516.62
540.305	21652.67
540.67	21548.26
541.034	21692.21
541.399	21670.52
541.764	21910.06
542.129	21939.89
542.494	21935.6
542.858	22038.42
543.223	22128.36
543.587	22216.94
543.952	22234.34
544.316	22326.32
544.681	22213.1
545.045	22534
545.41	22624.84
545.774	22612.87
546.138	22668.23
546.503	22802.01
546.867	22778.96
547.231	22953.42
547.595	23036.13
547.959	23184.6
548.324	23145.51
548.688	23092.63
549.052	23390.25
549.416	23425.95
549.779	23425.05
550.143	23532.39
550.507	23693.06
550.871	23760.63
551.235	23776
551.599	23987.74
551.962	23956.11
552.326	24176.44
552.689	24155.88
553.053	24109.1
553.417	24226.83
553.78	24583.89
554.143	24482.42
554.507	24600.84
554.87	24705.92
555.234	24910.43
555.597	24823.2
555.96	24935.06
556.323	25112.01
556.686	25220.93
557.05	25416.18
557.413	25490.53
557.776	25324.66
558.139	25636.52
558.502	25687.81
558.865	25713.35
559.228	26008.26
559.59	26146.11
559.953	26057.3
560.316	26340
560.679	26383.39
561.041	26522.82
561.404	26617.73
561.767	26915.8
562.129	26823.6
562.492	27012.3
562.854	26989.93
563.217	27106.98
563.579	27267.43
563.941	27426.07
564.304	27561.66
564.666	27732.96
565.028	27671.26
565.39	27848.89
565.753	27965.04
566.115	28032.38
566.477	28127.3
566.839	28264.47
567.201	28590.56
567.563	28474.18
567.925	28693.84
568.287	28696.55
568.648	28795.98
569.01	28989.42
569.372	29112.13
569.734	29005.24
570.095	29287.49
570.457	29367.72
570.819	29454.04
571.18	29500.59
571.542	29653.13
571.903	29647.03
572.265	29797.08
572.626	29817.87
572.987	29966.34
573.349	30115.49
573.71	30097.87
574.071	30244.53
574.432	30350.74
574.794	30589.61
575.155	30510.74
575.516	30312.55
575.877	30588.48
576.238	30694.01
576.599	30754.8
576.96	30823.05
577.32	30801.58
577.681	30940.56
578.042	31127.9
578.403	31076.82
578.763	31172.41
579.124	31144.62
579.485	31304.16
579.845	31472.07
580.206	31227.55
580.566	31346.65
580.927	31435.68
581.287	31509.81
581.648	31309.59
582.008	31579.41
582.368	31334.9
582.728	31553.42
583.089	31449.47
583.449	31538.28
583.809	31435.68
584.169	31602.46
584.529	31559.52
584.889	31878.84
585.249	31448.57
585.609	31510.03
585.969	31754.32
586.329	31545.29
586.688	31707.99
587.048	31559.3
587.408	31588.22
587.768	31600.43
588.127	31573.99
588.487	31618.96
588.846	31815.79
589.206	31614.66
589.565	31605.85
589.925	31686.75
590.284	31654.66
590.643	31703.25
591.003	31750.25
591.362	31833.64
591.721	31860.53
592.08	31830.7
592.44	31880.19
592.799	32010.58
593.158	31845.62
593.517	31749.8
593.876	31917.93
594.235	31854.88
594.593	31904.15
594.952	31905.73
595.311	31788.9
595.67	32054.2
596.029	32153.41
596.387	32107.53
596.746	32223.46
597.104	32095.78
597.463	32018.49
597.822	32155.67
598.18	31992.05
598.538	31924.26
598.897	32151.6
599.255	32000.87
599.613	32525.6
599.972	32201.54
600.33	32234.08
600.688	32175.33
601.046	32293.29
601.404	32505.94
601.762	32279.28
602.12	32541.19
602.478	32463.91
602.836	32613.28
603.194	32449.22
603.552	32506.17
603.91	32501.65
604.268	32648.99
604.625	32384.36
604.983	32708.87
605.341	32416.22
605.698	32704.13
606.056	32783.9
606.413	32707.06
606.771	32935.08
607.128	32766.27
607.485	32793.84
607.843	32692.15
608.2	32916.1
608.557	33007.85
608.914	33042.65
609.272	33138.24
609.629	33250.1
609.986	33092.14
610.343	32992.48
610.7	33322.87
611.057	33228.18
611.414	33192.93
611.771	33350.44
612.127	33280.38
612.484	33327.61
612.841	33482.64
613.198	33456.65
613.554	33436.08
613.911	33560.6
614.267	33509.3
614.624	33432.69
614.98	33597.66
615.337	33732.8
615.693	33719.47
616.05	33535.52
616.406	33940.93
616.762	33898.44
617.118	33708.17
617.475	33771.22
617.831	33892.12
618.187	33812.57
618.543	33896.41
618.899	34121.94
619.255	34036.29
619.611	33987.71
619.967	33986.13
620.323	34168.49
620.678	33924.66
621.034	33910.42
621.39	34050.08
621.746	33985.22
622.101	34331.43
622.457	33979.35
622.812	34045.56
623.168	34209.85
623.523	34168.72
623.879	34255.5
624.234	34063.86
624.589	34238.55
624.945	34314.93
625.3	34230.19
625.655	34159
626.01	34169.4
626.365	34163.52
626.72	34104.54
627.075	34019.8
627.43	33989.97
627.785	34084.2
628.14	34068.38
628.495	34114.94
628.85	34154.26
629.205	33961.04
629.559	34156.74
629.914	33906.13
630.269	33966.24
630.623	34028.61
630.978	33974.15
631.332	34047.82
631.687	34047.14
632.041	33759.01
632.396	33872.68
632.75	33814.83
633.104	33811.44
633.459	33685.34
633.813	33642.41
634.167	33632.69
634.521	33514.27
634.875	33642.86
635.229	33544.78
635.583	33410.55
635.937	33274.73
636.291	33408.97
636.645	33424.11
636.999	33327.61
637.352	33430.66
637.706	33271.79
638.06	33459.13
638.413	33279.7
638.767	33081.74
639.121	33152.7
639.474	33113.61
639.828	33061.18
640.181	33117.9
640.534	32990.67
640.888	32967.62
641.241	32786.61
641.594	32886.95
641.947	32873.84
642.301	32821.41
642.654	32913.39
643.007	32831.81
643.36	32761.3
643.713	32640.17
644.066	32733.73
644.419	32531.48
644.771	32336.23
645.124	32073.18
645.477	32101.2
645.83	31850.82
646.182	31907.31
646.535	31465.51
646.888	31619.86
647.24	31448.34
647.593	31507.1
647.945	31542.57
648.298	31364.95
648.65	31223.94
649.002	31099.65
649.355	31411.28
649.707	31328.57
650.059	31534.89
650.411	31900.31
650.763	31759.07
651.115	32169.45
651.467	32034.09
651.819	32098.49
652.171	31964.48
652.523	31814.88
652.875	31814.88
653.227	31773.53
653.578	31920.42
653.93	31759.97
654.282	31645.4
654.633	31611.73
654.985	31618.73
655.337	31758.61
655.688	31667.77
656.039	31733.08
656.391	31523.82
656.742	31557.94
657.094	31486.76
657.445	31645.85
657.796	31496.93
658.147	31477.04
658.498	31392.75
658.849	31563.82
659.2	31411.5
659.551	31384.39
659.902	31492.18
660.253	31385.74
660.604	31409.92
660.955	31301.9
661.306	31273.88
661.656	31413.09
662.007	31260.32
662.358	31270.49
662.708	31327.66
663.059	31155.92
663.409	31141.23
663.76	31319.76
664.11	31155.92
664.461	31237.5
664.811	31317.5
665.161	31196.82
665.511	31182.81
665.862	31094
666.212	31226.65
666.562	31200.44
666.912	31084.73
667.262	31150.95
667.612	30990.5
667.962	31116.82
668.312	30900.11
668.662	31122.25
669.011	31130.61
669.361	31009.26
669.711	30967.22
670.06	30998.18
670.41	30909.37
670.76	30885.87
671.109	30944.62
671.459	30850.84
671.808	30823.05
672.157	30921.57
672.507	30702.37
672.856	30724.74
673.205	30717.29
673.554	30893.78
673.904	30712.31
674.253	30870.95
674.602	30678.19
674.951	30304.87
675.3	30239.78
675.649	30831.18
675.998	30620.11
676.346	30664.63
676.695	30679.09
677.044	30345.54
677.393	30427.12
677.741	30432.1
678.09	30475.94
678.438	30350.74
678.787	30447.69
679.135	30353.68
679.484	30162.27
679.832	30257.64
680.181	30166.57
680.529	30144.87
680.877	30094.03
681.225	30077.98
681.573	30206.34
681.922	30048.38
682.27	29807.48
682.618	29962.73
682.966	29864.2
683.314	30033.69
683.661	29836.63
684.009	29790.3
684.357	29640.03
684.705	29589.86
685.053	29757.08
685.4	29620.59
685.748	29442.52
686.095	29373.14
686.443	29319.58
686.79	29216.53
687.138	29382.18
687.485	29362.52
687.832	29216.31
688.18	29264.89
688.527	29047.72
688.874	28992.59
689.221	28959.14
689.568	28886.83
689.915	28817
690.262	28792.36
690.609	28786.26
690.956	28755.98
691.303	28696.55
691.65	28499.72
691.997	28443.9
692.344	28259.5
692.69	28374.07
693.037	28278.03
693.383	28155.09
693.73	28205.94
694.077	28090.46
694.423	27939.96
694.769	27818.38
695.116	27854.08
695.462	27850.24
695.808	27754.88
696.155	27876
696.501	27529.57
696.847	27483.7
697.193	27324.83
697.539	27430.82
697.885	27160.32
698.231	27110.37
698.577	27132.75
698.923	27119.19
699.269	26874.67
699.614	26880.78
699.96	26884.17
700.306	26767.11
700.651	26749.03
700.997	26643.27
701.342	26625.19
701.688	26578.19
702.033	26445.76
702.379	26375.03
702.724	26245.09
703.069	26331.19
703.415	26070.85
703.76	25944.3
704.105	26087.12
704.45	25918.32
704.795	25867.47
705.14	25721.94
705.485	25787.02
705.83	25604.88
706.175	25612.56
706.52	25511.09
706.865	25513.13
707.209	25494.6
707.554	25452.34
707.899	25310.42
708.243	25253.25
708.588	25216.41
708.932	25154.04
709.277	25109.75
709.621	25270.2
709.966	24922.86
710.31	25028.85
710.654	24757.89
710.998	24838.12
711.342	24760.61
711.687	24759.93
712.031	24620.95
712.375	24502.76
712.719	24569.65
713.063	24527.84
713.407	24627.05
713.75	24311.58
714.094	24311.35
714.438	24290.79
714.782	24300.28
715.125	24124.01
715.469	24215.08
715.812	24059.83
716.156	23974.41
716.499	23968.54
716.843	24008.08
717.186	23782.33
717.53	23907.75
717.873	24077.46
718.216	23845.83
718.559	23724.7
718.902	23618.04
719.246	23651.93
719.589	23543.91
719.932	23505.05
720.275	23476.8
720.617	23384.6
720.96	23531.94
721.303	23402.68
721.646	23336.24
721.989	23208.78
722.331	23375.11
722.674	23194.55
723.016	23229.8
723.359	23244.49
723.701	23136.92
724.044	23039.52
724.386	22922.91
724.729	22978.73
725.071	22997.04
725.413	22875.91
725.755	22988.9
726.097	22771.28
726.439	22589.36
726.782	22755.01
727.124	22859.87
727.465	22569.7
727.807	22629.59
728.149	22618.29
728.491	22451.51
728.833	22659.64
729.175	22538.07
729.516	22399.76
729.858	22436.83
730.199	22431.63
730.541	22395.02
730.882	22330.61
731.224	22291.52
731.565	22241.58
731.906	22268.47
732.248	22172.88
732.589	22101.01
732.93	22123.16
733.271	22085.87
733.612	22075.48
733.953	22103.27
734.294	21901.02
734.635	21945.99
734.976	22010.4
735.317	21847.69
735.658	21838.2
735.999	21851.3
736.339	21708.03
736.68	21788.03
737.021	21684.53
737.361	21580.8
737.702	21825.09
738.042	21615.83
738.383	21648.6
738.723	21502.61
739.063	21589.62
739.404	21537.64
739.744	21461.26
740.084	21417.64
740.424	21488.83
740.764	21391.2
741.104	21431.43
741.444	21211.55
741.784	21234.6
742.124	21256.07
742.464	21280.47
742.804	21239.57
743.143	21114.15
743.483	21170.87
743.823	20960.25
744.162	21019.91
744.502	21035.28
744.841	20951.89
745.181	21014.04
745.52	20862.18
745.86	20872.12
746.199	20842.97
746.538	20832.8
746.877	20870.99
747.216	20803.65
747.556	20691.56
747.895	20754.16
748.234	20669.19
748.573	20624.22
748.911	20592.13
749.25	20536.08
749.589	20452.7
749.928	20449.76
750.267	20483.88
750.605	20348.74
750.944	20349.87
751.283	20305.36
751.621	20359.82
751.96	20291.34
752.298	20089.54
752.636	20098.36
752.975	20009.32
753.313	19910.56
753.651	19968.87
753.989	19879.15
754.327	19779.95
754.666	19748.08
755.004	19787.18
755.342	19847.29
755.679	19768.19
756.017	19701.98
756.355	19744.69
756.693	19580.63
757.031	19574.75
757.368	19598.93
757.706	19491.14
758.044	19382.89
758.381	19450.24
758.719	19469.67
759.056	19274.65
759.394	19341.09
759.731	19015.22
760.068	19120.98
760.405	19082.79
760.743	18959.4
761.08	19020.64
761.417	18851.83
761.754	18918.73
762.091	18805.96
762.428	18818.62
762.765	18616.81
763.102	18685.74
763.438	18657.72
763.775	18549.92
764.112	18542.24
764.449	18522.13
764.785	18418.17
765.122	18234.45
765.458	18237.84
765.795	18188.35
766.131	18253.66
766.467	18079.2
766.804	18018.18
767.14	17919.66
767.476	17915.81
767.812	17806.21
768.148	17834.23
768.485	17739.55
768.821	17687.57
769.157	17679.44
769.492	17484.19
769.828	17543.17
770.164	17424.08
770.5	17289.39
770.836	17299.33
771.171	17230.63
771.507	17207.81
771.842	17143.86
772.178	16999.91
772.513	17015.05
772.849	16855.5
773.184	16889.17
773.519	16913.13
773.855	16815.28
774.19	16703.42
774.525	16688.73
774.86	16665.45
775.195	16721.27
775.53	16497.09
775.865	16388.17
776.2	16316.99
776.535	16270.43
776.87	16261.17
777.205	16220.27
777.539	16177.55
777.874	16041.51
778.209	16068.41
778.543	15977.33
778.878	15925.58
779.212	15918.13
779.547	15711.35
779.881	15813.95
780.215	15609.89
780.55	15703.89
780.884	15583.9
781.218	15458.48
781.552	15492.83
781.886	15410.34
782.22	15284.25
782.554	15282.44
782.888	15173.74
783.222	15152.27
783.556	15089
783.889	15064.14
784.223	14954.08
784.557	14953.63
784.89	15016.23
785.224	14805.39
785.557	14788.66
785.891	14801.77
786.224	14780.76
786.558	14735.56
786.891	14529.91
787.224	14561.78
787.557	14447.43
787.891	14450.37
788.224	14329.47
788.557	14402.69
788.89	14291.05
789.223	14282.92
789.556	14162.47
789.888	14156.14
790.221	14120.89
790.554	14027.1
790.887	14065.52
791.219	13995.69
791.552	14006.09
791.884	13872.3
792.217	13754.57
792.549	13807.45
792.882	13719.31
793.214	13671.63
793.546	13738.07
793.879	13597.06
794.211	13526.1
794.543	13593.89
794.875	13531.52
795.207	13511.41
795.539	13328.82
795.871	13382.6
796.203	13278.87
796.535	13203.17
796.867	13192.1
797.198	13066.45
797.53	13141.02
797.862	13020.8
798.193	13059.67
798.525	13011.08
798.856	12997.75
799.188	12896.51
799.519	12874.82
799.85	12758.21
800.182	12759.57
800.513	12783.52
800.844	12719.79
801.175	12671.88
801.506	12722.73
801.837	12580.36
802.168	12648.16
802.499	12536.75
802.83	12423.3
803.161	12360.03
803.491	12446.81
803.822	12401.83
804.153	12352.34
804.483	12317.77
804.814	12219.01
805.145	12168.62
805.475	12160.94
805.805	12182.86
806.136	12161.84
806.466	12149.64
806.796	12071.67
807.126	12037.1
807.457	12013.6
807.787	12028.06
808.117	11931.34
808.447	11966.59
808.777	11830.78
809.107	11870.1
809.436	11745.36
809.766	11848.86
810.096	11711.91
810.426	11662.19
810.755	11771.79
811.085	11646.37
811.414	11681.85
811.744	11569.99
812.073	11546.94
812.403	11423.1
812.732	11486.6
813.061	11428.3
813.39	11304.01
813.719	11378.58
814.049	11484.34
814.378	11367.74
814.707	11369.55
815.036	11328.64
815.365	11264.24
815.693	11156.67
816.022	11243.67
816.351	11188.53
816.68	11036.22
817.008	11152.15
817.337	11045.49
817.665	10960.97
817.994	11014.53
818.322	11092.94
818.651	10911.03
818.979	10907.41
819.307	10962.32
819.636	10885.72
819.964	10837.81
820.292	10879.84
820.62	10917.35
820.948	10847.53
821.276	10870.58
821.604	10827.19
821.932	10857.92
822.259	10805.27
822.587	10827.64
822.915	10769.79
823.243	10801.88
823.57	10741.99
823.898	10762.78
824.225	10728.88
824.553	10784.48
824.88	10886.62
825.207	10828.77
825.535	10796.45
825.862	10758.71
826.189	10730.01
826.516	10782.44
826.843	10842.1
827.17	10838.94
827.497	10825.15
827.824	10827.19
828.151	10765.49
828.478	10792.61
828.805	10844.14
829.131	10828.54
829.458	10765.04
829.785	10729.56
830.111	10742.67
830.438	10718.04
830.764	10727.53
831.09	10768.66
831.417	10656.12
831.743	10781.99
832.069	10744.03
832.395	10739.96
832.722	10746.96
833.048	10735.44
833.374	10733.86
833.7	10675.78
834.026	10743.35
834.351	10727.3
834.677	10695.44
835.003	10649.56
835.329	10629
835.654	10559.62
835.98	10565.27
836.306	10612.73
836.631	10513.07
836.956	10606.4
837.282	10546.52
837.607	10576.35
837.932	10484.82
838.258	10490.7
838.583	10461.55
838.908	10424.26
839.233	10446.86
839.558	10369.57
839.883	10367.31
840.208	10401.89
840.533	10346.97
840.858	10405.73
841.182	10355.11
841.507	10333.41
841.832	10319.86
842.156	10238.5
842.481	10325.28
842.805	10172.06
843.13	10210.03
843.454	10141.1
843.778	10155.11
844.103	10163.7
844.427	10049.58
844.751	10089.58
845.075	10039.41
845.399	10047.32
845.723	10002.8
846.047	9955.35
846.371	9963.93
846.695	9931.17
847.019	9876.25
847.343	9744.5
847.666	9774.11
847.99	9743.83
848.313	9701.57
848.637	9618.18
848.96	9577.05
849.284	9646.2
849.607	9475.81
849.931	9528.69
850.254	9438.3
850.577	9387.45
850.9	9339.09
851.223	9426.32
851.546	9323.27
851.869	9234.91
852.192	9279.21
852.515	9138.64
852.838	9140.45
853.161	9205.08
853.483	9045.76
853.806	9035.37
854.129	9041.92
854.451	9005.99
854.774	9005.99
855.096	8956.95
855.419	8956.5
855.741	8933.45
856.063	8918.54
856.385	8860.91
856.708	8768.48
857.03	8776.17
857.352	8775.26
857.674	8714.02
857.996	8676.51
858.318	8677.87
858.64	8660.92
858.961	8698.2
859.283	8614.59
859.605	8581.14
859.926	8620.24
860.248	8660.46
860.57	8604.19
860.891	8520.58
861.212	8499.11
861.534	8495.95
861.855	8512.67
862.176	8529.39
862.498	8455.5
862.819	8481.71
863.14	8418.66
863.461	8402.17
863.782	8410.53
864.103	8392
864.424	8359.68
864.745	8396.74
865.065	8325.78
865.386	8286.91
865.707	8271.1
866.027	8299.34
866.348	8257.31
866.668	8287.37
866.989	8279.68
867.309	8196.97
867.63	8268.16
867.95	8235.39
868.27	8109.97
868.59	8158.1
868.91	8145.45
869.23	8181.38
869.55	8086.24
869.87	8149.52
870.19	8072.01
870.51	8092.34
870.83	8094.83
871.15	7998.79
871.469	8028.16
871.789	8087.15
872.109	7985
872.428	8040.37
872.748	8045.34
873.067	7950.65
873.386	7997.2
873.706	7989.3
874.025	7889.64
874.344	7888.28
874.663	7899.13
874.982	7892.57
875.301	7868.39
875.62	7903.65
875.939	7851.45
876.258	7860.49
876.577	7766.93
876.896	7821.62
877.214	7813.48
877.533	7842.18
877.852	7790.88
878.17	7788.17
878.489	7820.71
878.807	7776.87
879.125	7776.65
879.444	7700.49
879.762	7755.86
880.08	7761.5
880.398	7686.25
880.716	7693.26
881.034	7672.02
881.352	7643.09
881.67	7616.65
881.988	7678.12
882.306	7618.23
882.624	7599.25
882.941	7500.27
883.259	7532.58
883.577	7531.68
883.894	7521.06
884.212	7425.24
884.529	7480.16
884.846	7460.95
885.164	7457.78
885.481	7422.3
885.798	7417.56
886.115	7403.77
886.432	7342.08
886.75	7359.93
887.067	7362.19
887.383	7306.15
887.7	7364.45
888.017	7303.21
888.334	7336.43
888.651	7220.73
888.967	7321.06
889.284	7193.38
889.6	7219.37
889.917	7125.82
890.233	7144.8
890.55	7112.71
890.866	7152.71
891.182	7115.42
891.498	7083.56
891.815	7077.68
892.131	7052.82
892.447	7015.76
892.763	7016.21
893.079	6949.1
893.395	6979.38
893.71	6954.97
894.026	6917.23
894.342	6958.59
894.657	6863.45
894.973	6886.27
895.289	6811.02
895.604	6848.99
895.92	6817.12
896.235	6763.79
896.55	6764.02
896.865	6728.76
897.181	6721.31
897.496	6732.83
897.811	6709.1
898.126	6665.04
898.441	6646.28
898.756	6657.35
899.071	6533.74
899.386	6606.28
899.7	6554.76
900.015	6512.5
900.33	6485.38
900.644	6475.89
900.959	6526.96
901.273	6427.3
901.588	6442.9
901.902	6332.62
902.216	6347.08
902.531	6352.28
902.845	6319.73
903.159	6300.98
903.473	6262.34
903.787	6221.43
904.101	6134.88
904.415	6235.67
904.729	6181.66
905.042	6158.61
905.356	6175.78
905.67	6123.81
905.984	6123.36
906.297	6098.05
906.611	6049.91
906.924	6079.74
907.237	5993.19
907.551	5980.53
907.864	5934.21
908.177	5967.88
908.491	5994.32
908.804	5950.93
909.117	5879.75
909.43	5859.86
909.743	5806.53
910.056	5853.31
910.368	5853.76
910.681	5773.99
910.994	5732.86
911.307	5724.95
911.619	5682.01
911.932	5714.78
912.244	5677.72
912.557	5644.05
912.869	5590.71
913.181	5573.09
913.494	5574.67
913.806	5531.73
914.118	5498.97
914.43	5566.99
914.742	5498.97
915.054	5431.17
915.366	5436.37
915.678	5390.04
915.99	5404.96
916.302	5382.13
916.613	5341.91
916.925	5316.6
917.236	5277.28
917.548	5285.64
917.859	5253.77
918.171	5221.91
918.482	5248.35
918.794	5209.26
919.105	5171.52
919.416	5158.64
919.727	5117.28
920.038	5134
920.349	5139.88
920.66	5098.3
920.971	5097.62
921.282	4992.76
921.593	5019.2
921.903	4956.15
922.214	4932.2
922.525	4983.27
922.835	4970.62
923.146	4892.88
923.456	4927.46
923.767	4883.61
924.077	4882.03
924.387	4813.11
924.697	4813.33
925.008	4832.54
925.318	4747.57
925.628	4763.39
925.938	4757.52
926.248	4729.04
926.558	4684.3
926.867	4678.2
927.177	4642.72
927.487	4635.71
927.796	4621.02
928.106	4597.07
928.416	4610.4
928.725	4580.57
929.034	4536.73
929.344	4538.31
929.653	4515.49
929.962	4463.96
930.271	4449.73
930.581	4467.35
930.89	4443.17
931.199	4410.18
931.508	4421.25
931.817	4340.8
932.125	4372.67
932.434	4398.2
932.743	4303.97
933.051	4359.56
933.36	4255.61
933.669	4288.38
933.977	4258.77
934.286	4247.7
934.594	4208.83
934.902	4183.75
935.21	4157.53
935.519	4183.97
935.827	4145.55
936.135	4143.75
936.443	4135.84
936.751	4128.61
937.059	4119.57
937.367	4052.9
937.674	4032.34
937.982	4036.18
938.29	4041.38
938.597	4037.99
938.905	3962.28
939.213	3983.07
939.52	3889.74
939.827	3979.46
940.135	3939.01
940.442	3906.01
940.749	3922.96
941.056	3918.67
941.363	3848.39
941.67	3867.37
941.977	3862.17
942.284	3839.8
942.591	3768.62
942.898	3795.28
943.205	3748.73
943.511	3786.24
943.818	3727.94
944.125	3704.44
944.431	3700.14
944.738	3688.17
945.044	3657.43
945.35	3633.93
945.657	3635.29
945.963	3647.71
946.269	3661.73
946.575	3612.46
946.881	3605.46
947.187	3611.11
947.493	3564.55
947.799	3555.97
948.105	3521.39
948.41	3572.69
948.716	3532.01
949.022	3512.58
949.327	3471.22
949.633	3451.56
949.938	3448.62
950.244	3416.31
950.549	3422.18
950.854	3375.18
951.16	3415.63
951.465	3371.11
951.77	3349.42
952.075	3348.29
952.38	3325.01
952.685	3354.16
952.99	3313.03
953.294	3278.23
953.599	3299.93
953.904	3256.76
954.209	3240.49
954.513	3248.86
954.818	3205.92
955.122	3194.39
955.426	3212.92
955.731	3202.3
956.035	3126.82
956.339	3143.32
956.643	3156.65
956.948	3126.82
957.252	3124.34
957.556	3140.38
957.86	3070.78
958.163	3072.36
958.467	3083.21
958.771	3074.62
959.075	3039.37
959.378	3000.73
959.682	3052.02
959.985	3013.83
960.289	2983.33
960.592	2937.45
960.896	2943.33
961.199	2980.61
961.502	2916.21
961.805	2933.61
962.108	2907.17
962.411	2901.52
962.714	2903.55
963.017	2876.21
963.32	2843.67
963.623	2830.56
963.926	2844.12
964.228	2798.02
964.531	2843.22
964.833	2828.3
965.136	2810
965.438	2794.18
965.741	2778.59
966.043	2747.63
966.345	2772.26
966.648	2724.12
966.95	2748.53
967.252	2740.39
967.554	2661.53
967.856	2708.08
968.158	2657.91
968.46	2653.16
968.761	2626.95
969.063	2668.53
969.365	2635.99
969.666	2620.17
969.968	2623.56
970.269	2602.09
970.571	2589.21
970.872	2606.39
971.174	2587.4
971.475	2541.76
971.776	2537.01
972.077	2556.9
972.378	2555.31
972.679	2526.84
972.98	2534.3
973.281	2501.3
973.582	2495.2
973.883	2467.41
974.183	2493.17
974.484	2483.23
974.785	2441.19
975.085	2481.42
975.386	2413.62
975.686	2411.36
975.986	2397.13
976.287	2368.65
976.587	2358.03
976.887	2393.51
977.187	2390.12
977.487	2340.63
977.787	2330.46
978.087	2325.26
978.387	2312.83
978.687	2325.49
978.987	2337.47
979.286	2268.54
979.586	2300.86
979.885	2253.18
980.185	2238.94
980.484	2232.16
980.784	2265.15
981.083	2229.22
981.382	2233.97
981.682	2240.29
981.981	2167.53
982.28	2186.96
982.579	2188.09
982.878	2189.9
983.177	2188.77
983.475	2141.77
983.774	2113.07
984.073	2139.28
984.372	2117.13
984.67	2136.57
984.969	2092.73
985.267	2145.83
985.566	2084.82
985.864	2094.76
986.162	2104.03
986.461	2096.8
986.759	2097.7
987.057	2058.15
987.355	2029.9
987.653	2074.2
987.951	2049.11
988.249	2044.59
988.547	2005.95
988.844	2010.7
989.142	2018.15
989.44	1989.23
989.737	1972.73
990.035	1951.26
990.332	1971.37
990.63	1933.18
990.927	1944.48
991.224	1940.64
991.521	1900.42
991.819	1927.31
992.116	1903.81
992.413	1913.75
992.71	1874.88
993.006	1871.26
993.303	1885.28
993.6	1890.7
993.897	1858.84
994.193	1856.58
994.49	1882.34
994.787	1852.28
995.083	1850.7
995.379	1832.17
995.676	1809.35
995.972	1806.41
996.268	1766.18
996.565	1783.36
996.861	1793.07
997.157	1761.89
997.453	1771.15
997.749	1750.36
998.044	1713.98
998.34	1738.16
998.636	1729.8
998.932	1722.12
999.227	1720.53
999.523	1686.64
999.818	1689.8
1000.114	1678.5
1000.409	1690.48
1000.704	1678.73
1001	1663.81
1001.295	1655.22
1001.59	1632.4
1001.885	1636.47
1002.18	1648.67
1002.475	1635.11
1002.77	1601.67
1003.065	1608.22
1003.359	1591.95
1003.654	1605.51
1003.949	1577.71
1004.243	1561.67
1004.538	1566.41
1004.832	1575.45
1005.127	1561.67
1005.421	1536.13
1005.715	1546.53
1006.009	1529.13
1006.304	1515.12
1006.598	1550.59
1006.892	1516.92
1007.186	1471.27
1007.48	1494.78
1007.773	1489.58
1008.067	1474.89
1008.361	1449.13
1008.655	1426.98
1008.948	1448
1009.242	1445.74
1009.535	1433.31
1009.829	1429.24
1010.122	1421.56
1010.415	1408.9
1010.708	1419.98
1011.001	1393.08
1011.295	1413.2
1011.588	1377.04
1011.881	1363.93
1012.173	1345.85
1012.466	1362.13
1012.759	1335.69
1013.052	1369.81
1013.344	1342.24
1013.637	1335.46
1013.93	1331.62
1014.222	1311.28
1014.514	1315.12
1014.807	1308.79
1015.099	1297.27
1015.391	1269.25
1015.683	1285.07
1015.976	1281.68
1016.268	1259.3
1016.56	1278.29
1016.851	1262.24
1017.143	1256.14
1017.435	1248.23
1017.727	1233.99
1018.018	1220.66
1018.31	1226.31
1018.602	1220.66
1018.893	1220.21
1019.185	1188.8
1019.476	1191.28
1019.767	1155.58
1020.058	1173.43
1020.35	1171.17
1020.641	1137.72
1020.932	1162.36
1021.223	1147.67
1021.514	1118.06
1021.804	1138.18
1022.095	1141.34
1022.386	1129.14
1022.677	1129.36
1022.967	1100.89
1023.258	1099.53
1023.548	1093.66
1023.839	1098.4
1024.129	1085.75
1024.419	1069.48
1024.709	1063.6
1025	1083.04
1025.29	1048.91
1025.58	1036.26
1025.87	1037.61
1026.16	1041.68
1026.449	1024.51
1026.739	1017.05
1027.029	1015.24
1027.319	1026.09
1027.608	1002.36
1027.898	1013.89
1028.187	1016.6
1028.477	1007.33
1028.766	992.19
1029.055	954.68
1029.344	964.17
1029.634	950.61
1029.923	962.14
1030.212	948.8
1030.501	970.05
1030.79	954.23
1031.078	959.88
1031.367	952.64
1031.656	923.04
1031.945	952.87
1032.233	910.39
1032.522	911.06
1032.81	932.76
1033.099	890.5
1033.387	890.05
1033.675	911.74
1033.963	887.34
1034.251	886.66
1034.54	855.92
1034.828	850.95
1035.116	869.93
1035.403	864.96
1035.691	858.86
1035.979	846.43
1036.267	862.03
1036.554	832.42
1036.842	855.92
1037.129	837.17
1037.417	807.34
1037.704	844.85
1037.992	821.12
1038.279	812.31
1038.566	822.25
1038.853	822.25
1039.14	822.25
