Data from breadboard_white_FLMS001491_00035.txt Node
Date: Wed Feb 08 10:47:38 GMT 2017
User: dcchb
Spectrometer: FLMS00149
Trigger mode: 0
Integration Time (sec): 2.000000E-2
Scans to average: 10
Electric dark correction enabled: true
Nonlinearity correction enabled: false
Boxcar width: 0
XAxis mode: Wavelengths
Number of Pixels in Spectrum: 2048
>>>>>Begin Spectral Data<<<<<
341.393	-6.17
341.776	-6.17
342.16	-6.17
342.543	-53.85
342.927	-72.16
343.31	-70.58
343.693	-63.35
344.077	-66.51
344.46	-54.98
344.843	-50.92
345.226	-39.17
345.61	-16.79
345.993	-20.41
346.376	-21.54
346.759	9.42
347.142	29.76
347.525	44.22
347.908	49.42
348.291	66.82
348.674	98.68
349.057	105.92
349.44	126.48
349.823	159.7
350.206	164.44
350.588	200.6
350.971	215.29
351.354	232.47
351.737	237.44
352.119	276.98
352.502	281.28
352.884	265.91
353.267	273.59
353.65	298.45
354.032	306.59
354.414	302.07
354.797	324.44
355.179	310.43
355.562	331.67
355.944	349.98
356.326	342.75
356.709	347.49
357.091	351.33
357.473	344.78
357.855	357.89
358.238	347.04
358.62	362.63
359.002	334.84
359.384	359.69
359.766	357.66
360.148	352.69
360.53	338.23
360.912	352.01
361.294	338.9
361.676	345.91
362.057	335.74
362.439	330.32
362.821	342.07
363.203	341.39
363.584	340.03
363.966	345.01
364.348	352.24
364.729	349.52
365.111	368.28
365.493	341.16
365.874	332.8
366.256	337.1
366.637	335.06
367.019	337.77
367.4	333.93
367.781	343.42
368.163	345.23
368.544	332.35
368.925	341.84
369.306	330.54
369.688	343.65
370.069	331.67
370.45	370.09
370.831	340.71
371.212	345.46
371.593	337.77
371.974	322.41
372.355	338.23
372.736	353.37
373.117	331.22
373.498	327.38
373.879	331.45
374.26	340.71
374.641	338.9
375.021	349.07
375.402	354.27
375.783	347.04
376.163	333.71
376.544	349.98
376.925	363.99
377.305	368.51
377.686	358.56
378.066	342.97
378.447	340.03
378.827	350.88
379.208	347.26
379.588	380.26
379.968	348.62
380.349	364.44
380.729	376.42
381.109	383.87
381.489	375.74
381.87	370.09
382.25	362.63
382.63	378.22
383.01	393.37
383.39	378.68
383.77	390.43
384.15	403.53
384.53	397.21
384.91	404.21
385.29	409.18
385.67	398.11
386.049	420.71
386.429	391.56
386.809	394.95
387.189	398.11
387.568	415.51
387.948	411.67
388.328	419.35
388.707	440.14
389.087	423.65
389.466	456.41
389.846	436.98
390.225	425.23
390.605	424.33
390.984	455.74
391.363	437.21
391.743	453.48
392.122	441.95
392.501	466.13
392.881	473.59
393.26	478.33
393.639	494.15
394.018	496.64
394.397	493.7
394.776	485.34
395.155	509.29
395.534	495.28
395.913	510.2
396.292	515.17
396.671	525.11
397.05	529.86
397.429	548.84
397.808	535.06
398.186	565.34
398.565	546.58
398.944	546.36
399.323	549.29
399.701	553.36
400.08	584.55
400.458	575.51
400.837	579.35
401.215	599.91
401.594	608.95
401.972	605.56
402.351	625.9
402.729	642.62
403.107	627.48
403.486	655.28
403.864	680.36
404.242	667.03
404.62	684.66
404.999	693.24
405.377	699.8
405.755	708.39
406.133	723.98
406.511	739.57
406.889	766.91
407.267	762.85
407.645	777.99
408.023	772.34
408.401	793.35
408.779	811.21
409.156	819.57
409.534	842.85
409.912	847.82
410.29	874.93
410.667	881.94
411.045	881.94
411.422	918.55
411.8	920.13
412.178	949.28
412.555	987.7
412.933	976.63
413.31	1015.27
413.687	1028.83
414.065	1025.67
414.442	1022.28
414.819	1077.42
415.197	1088.94
415.574	1114.02
415.951	1161.93
416.328	1150.18
416.705	1148.15
417.082	1123.29
417.46	1140.46
417.837	1193.34
418.214	1222.5
418.591	1225.43
418.967	1241.25
419.344	1271.99
419.721	1271.99
420.098	1290.06
420.475	1316.96
420.852	1326
421.228	1359.44
421.605	1344.07
421.982	1349.05
422.358	1380.01
422.735	1404.86
423.111	1398.08
423.488	1428.59
423.864	1448.48
424.241	1455.26
424.617	1453.68
424.994	1495.71
425.37	1512.88
425.746	1515.14
426.123	1559.21
426.499	1573
426.875	1583.62
427.251	1606.67
427.627	1618.64
428.003	1617.97
428.379	1668.59
428.756	1684.63
429.132	1741.58
429.507	1726.66
429.883	1752.65
430.259	1793.33
430.635	1820.22
431.011	1812.09
431.387	1857.73
431.763	1925.98
432.138	1925.98
432.514	1901.57
432.89	1968.92
433.265	1995.13
433.641	2028.12
434.016	2035.13
434.392	2059.31
434.767	2104.73
435.143	2131.62
435.518	2163.04
435.894	2163.94
436.269	2175.69
436.644	2235.8
437.02	2252.98
437.395	2268.57
437.77	2253.2
438.145	2319.64
438.52	2353.99
438.895	2399.41
439.271	2396.48
439.646	2407.78
440.021	2462.69
440.395	2461.33
440.77	2444.16
441.145	2488.45
441.52	2545.85
441.895	2553.53
442.27	2579.07
442.645	2553.08
443.019	2603.02
443.394	2585.4
443.769	2642.8
444.143	2610.48
444.518	2667.2
444.892	2671.5
445.267	2687.77
445.641	2696.58
446.016	2742.23
446.39	2760.76
446.764	2752.85
447.139	2775.68
447.513	2818.84
447.887	2845.5
448.262	2843.24
448.636	2881.89
449.01	2899.06
449.384	2917.82
449.758	2986.97
450.132	3021.32
450.506	3034.65
450.88	3027.65
451.254	3044.14
451.628	3076.01
452.002	3137.7
452.376	3130.02
452.75	3179.96
453.123	3195.55
453.497	3224.7
453.871	3272.16
454.244	3351.93
454.618	3351.48
454.992	3398.48
455.365	3433.96
455.739	3519.16
456.112	3567.29
456.486	3567.97
456.859	3595.99
457.232	3665.6
457.606	3669.89
457.979	3713.5
458.352	3780.85
458.725	3837.79
459.099	3807.29
459.472	3959.83
459.845	3978.81
460.218	3990.56
460.591	4057.22
460.964	4053.61
461.337	4149.42
461.71	4197.56
462.083	4276.88
462.456	4277.33
462.829	4310.1
463.201	4417.21
463.574	4386.93
463.947	4507.38
464.32	4554.16
464.692	4632.35
465.065	4623.99
465.438	4714.61
465.81	4849.29
466.183	4840.48
466.555	4914.6
466.928	4954.15
467.3	4985.79
467.672	5049.74
468.045	5212.45
468.417	5159.34
468.789	5239.79
469.161	5315.72
469.534	5402.05
469.906	5530.86
470.278	5538.77
470.65	5597.07
471.022	5729.5
471.394	5818.31
471.766	5890.17
472.138	5932.2
472.51	6113.67
472.882	6157.06
473.253	6200.44
473.625	6308.01
473.997	6449.93
474.369	6439.99
474.74	6570.38
475.112	6702.58
475.484	6813.54
475.855	6923.59
476.227	7007.88
476.598	7153.64
476.97	7245.61
477.341	7481.54
477.713	7507.08
478.084	7545.49
478.455	7803.34
478.827	7865.26
479.198	8079.94
479.569	8070.45
479.94	8291.46
480.311	8373.72
480.682	8609.19
481.053	8764.22
481.424	8902.07
481.795	9016.19
482.166	9165.79
482.537	9265.22
482.908	9440.81
483.279	9597.87
483.65	9812.78
484.021	9917.63
484.391	9994.47
484.762	10107.46
485.133	10248.47
485.503	10359.43
485.874	10619.31
486.244	10675.58
486.615	10875.12
486.985	11040.32
487.356	11181.78
487.726	11298.16
488.097	11518.72
488.467	11564.37
488.837	11844.59
489.207	11965.72
489.578	12133.85
489.948	12238.93
490.318	12376.33
490.688	12465.82
491.058	12658.81
491.428	12896.31
491.798	13040.26
492.168	13262.41
492.538	13287.49
492.908	13497.88
493.278	13587.37
493.648	13617.42
494.017	13819.9
494.387	13917.76
494.757	13971.54
495.126	14228.03
495.496	14316.39
495.866	14396.84
496.235	14589.15
496.605	14662.37
496.974	14748.02
497.344	14917.5
497.713	14979.42
498.082	15183.48
498.452	15308.68
498.821	15380.09
499.19	15446.75
499.559	15629.12
499.928	15712.06
500.298	15841.09
500.667	16049.45
501.036	15973.97
501.405	16205.6
501.774	16312.27
502.143	16433.62
502.512	16388.65
502.88	16662.32
503.249	16663.9
503.618	16746.16
503.987	17012.36
504.356	16979.37
504.724	17087.16
505.093	17177.33
505.462	17348.4
505.83	17396.76
506.199	17592.01
506.567	17779.12
506.936	17763.3
507.304	18001.49
507.672	18073.58
508.041	18183.63
508.409	18324.19
508.777	18455.94
509.145	18569.16
509.514	18698.87
509.882	18845.76
510.25	18844.18
510.618	18987.45
510.986	19111.52
511.354	19290.04
511.722	19500.89
512.09	19591.05
512.458	19652.75
512.826	19822.91
513.193	20031.49
513.561	20099.51
513.929	20136.35
514.297	20487.75
514.664	20572.5
515.032	20624.47
515.4	20805.71
515.767	20909.44
516.135	21055.65
516.502	20915.54
516.869	21332.7
517.237	21408.18
517.604	21564.56
517.972	21676.87
518.339	21857.66
518.706	21988.73
519.073	22109.18
519.44	22282.96
519.808	22421.03
520.175	22476.17
520.542	22820.35
520.909	22992.55
521.276	22951.87
521.643	23288.13
522.009	23466.21
522.376	23501.01
522.743	23715.24
523.11	24002.46
523.477	24228.22
523.843	24387.31
524.21	24566.52
524.577	24870.69
524.943	24905.72
525.31	24990.01
525.676	25324.46
526.043	25442.65
526.409	25585.02
526.776	25880.6
527.142	25871.11
527.508	26087.83
527.874	26296.41
528.241	26323.76
528.607	26537.08
528.973	26752.9
529.339	26929.16
529.705	27132.78
530.071	27359.21
530.437	27276.05
530.803	27636.26
531.169	27824.06
531.535	27874.45
531.901	28074.67
532.267	28025.41
532.632	28206.42
532.998	28326.87
533.364	28454.32
533.73	28560.99
534.095	28805.95
534.461	29069.22
534.826	29090.46
535.192	29112.38
535.557	29494.52
535.923	29382.66
536.288	29601.18
536.653	29591.02
537.019	29597.34
537.384	29644.12
537.749	29928.63
538.114	29979.93
538.479	30095.64
538.845	30344.89
539.21	30181.96
539.575	30406.81
539.94	30542.86
540.305	30749.18
540.67	30705.34
541.034	30937.87
541.399	31010.19
541.764	31023.97
542.129	31127.7
542.494	31374.7
542.858	31291.99
543.223	31414.24
543.587	31624.86
543.952	31741.24
544.316	31768.81
544.681	31945.98
545.045	31888.36
545.41	32153.66
545.774	32314.56
546.138	32203.6
546.503	32488.57
546.867	32380.09
547.231	32695.11
547.595	32769.92
547.959	32876.81
548.324	32894.43
548.688	32884.71
549.052	33089.68
549.416	33166.74
549.779	33309.79
550.143	33347.75
550.507	33669.33
550.871	33614.41
551.235	33625.26
551.599	33975.31
551.962	34028.87
552.326	33999.26
552.689	34223.44
553.053	34083.33
553.417	34345.02
553.78	34730.09
554.143	34652.35
554.507	34966.69
554.87	35061.15
555.234	35253.92
555.597	35154.03
555.96	35281.71
556.323	35368.94
556.686	35501.82
557.05	35865.2
557.413	35878.53
557.776	35938.65
558.139	36182.48
558.502	36363.27
558.865	36404.85
559.228	36618.18
559.59	36680.09
559.953	36825.18
560.316	37163.47
560.679	37248.67
561.041	37434.65
561.404	37638.71
561.767	37728.2
562.129	37697.47
562.492	38079.61
562.854	38199.38
563.217	38099.72
563.579	38377
563.941	38611.34
564.304	38856.99
564.666	38833.48
565.028	38989.19
565.39	39172.01
565.753	39312.57
566.115	39529.29
566.477	39669.17
566.839	39936.28
567.201	40086.11
567.563	40043.62
567.925	40447.23
568.287	40299.66
568.648	40402.48
569.01	40751.63
569.372	40982.13
569.734	40879.76
570.095	40995.69
570.457	41253.76
570.819	41318.39
571.18	41381.44
571.542	41639.06
571.903	41674.54
572.265	41682.22
572.626	41873.18
572.987	41929.22
573.349	42050.35
573.71	42250.57
574.071	42289.89
574.432	42447.17
574.794	42665.02
575.155	42641.07
575.516	42604.68
575.877	42764.68
576.238	42794.06
576.599	42899.59
576.96	43028.63
577.32	43072.7
577.681	43170.77
578.042	43313.59
578.403	43177.1
578.763	43314.27
579.124	43375.29
579.485	43441.72
579.845	43546.36
580.206	43515.85
580.566	43517.88
580.927	43572.34
581.287	43690.31
581.648	43516.07
582.008	43770.08
582.368	43599.69
582.728	43782.28
583.089	43798.1
583.449	43829.51
583.809	43841.71
584.169	43828.61
584.529	43697.99
584.889	44148.37
585.249	43839.91
585.609	43784.54
585.969	43944.76
586.329	43877.19
586.688	43946.12
587.048	43812.79
587.408	43795.61
587.768	44017.08
588.127	43844.65
588.487	43685.33
588.846	44198.77
589.206	43889.85
589.565	43882.62
589.925	43964.2
590.284	43798.78
590.643	43979.34
591.003	44022.73
591.362	44257.97
591.721	44033.8
592.08	44050.07
592.44	44234.25
592.799	43975.95
593.158	44057.53
593.517	44080.35
593.876	44226.79
594.235	44158.99
594.593	44107.47
594.952	44250.97
595.311	44154.47
595.67	44175.04
596.029	44351.53
596.387	44359.89
596.746	44513.11
597.104	44315.6
597.463	44321.25
597.822	44358.99
598.18	44071.76
598.538	44239.67
598.897	44436.5
599.255	44114.93
599.613	44776.38
599.972	44347.01
600.33	44632.65
600.688	44453.45
601.046	44457.74
601.404	44807.56
601.762	44603.5
602.12	44734.35
602.478	44697.06
602.836	44808.92
603.194	44598.53
603.552	44680.56
603.91	44654.35
604.268	44777.74
604.625	44662.71
604.983	44843.27
605.341	44644.86
605.698	44977.73
606.056	44970.72
606.413	45012.76
606.771	45159.65
607.128	45021.8
607.485	44950.39
607.843	45024.28
608.2	45312.86
608.557	45493.65
608.914	45276.48
609.272	45370.04
609.629	45494.78
609.986	45557.6
610.343	45353.54
610.7	45706.07
611.057	45474.21
611.414	45582.69
611.771	45659.29
612.127	45747.65
612.484	45750.82
612.841	45873.98
613.198	45723.02
613.554	45577.49
613.911	46024.93
614.267	45850.93
614.624	45832.62
614.98	45988.32
615.337	46175.44
615.693	46052.73
616.05	46095.44
616.406	46308.32
616.762	46085.05
617.118	46214.99
617.475	46237.58
617.831	46290.24
618.187	46228.09
618.543	46359.61
618.899	46595.99
619.255	46429.44
619.611	46412.49
619.967	46455.66
620.323	46531.14
620.678	46407.3
621.034	46345.15
621.39	46308.54
621.746	46278.49
622.101	46675.31
622.457	46376.79
622.812	46408.65
623.168	46493.62
623.523	46521.19
623.879	46661.3
624.234	46447.52
624.589	46419.73
624.945	46573.85
625.3	46484.36
625.655	46558.71
626.01	46559.61
626.365	46577.24
626.72	46491.14
627.075	46548.08
627.43	46434.41
627.785	46314.87
628.14	46470.57
628.495	46460.85
628.85	46342.44
629.205	46154.87
629.559	46519.84
629.914	46277.81
630.269	46259.96
630.623	46177.25
630.978	46190.81
631.332	46283.68
631.687	46265.38
632.041	46151.48
632.396	46238.04
632.75	46005.73
633.104	46197.36
633.459	45829.46
633.813	45847.54
634.167	45913.98
634.521	45894.09
634.875	45903.58
635.229	45821.55
635.583	45542.23
635.937	45617.49
636.291	45547.43
636.645	45603.25
636.999	45600.31
637.352	45602.12
637.706	45406.65
638.06	45288.46
638.413	45389.92
638.767	45299.76
639.121	45320.55
639.474	44997.62
639.828	45036.94
640.181	45162.13
640.534	44971.63
640.888	44773.67
641.241	44802.37
641.594	44847.56
641.947	44969.14
642.301	44666.33
642.654	44674.01
643.007	44715.82
643.36	44544.52
643.713	44604.41
644.066	44734.8
644.419	44394.69
644.771	44260.46
645.124	43883.97
645.477	43698.67
645.83	43483.08
646.182	43222.52
646.535	43121.73
646.888	43274.72
647.24	42923.55
647.593	43204.44
647.945	43077.89
648.298	42978.91
648.65	42887.16
649.002	42797.9
649.355	42897.56
649.707	42705.47
650.059	42930.33
650.411	43357.43
650.763	43317.43
651.115	43779.8
651.467	43659.8
651.819	43651.66
652.171	43589.07
652.523	43506.58
652.875	43457.54
653.227	43226.36
653.578	43477.66
653.93	43337.32
654.282	43224.33
654.633	43068.18
654.985	43144.78
655.337	43086.25
655.688	43074.28
656.039	43377.55
656.391	42941.63
656.742	43018.23
657.094	42990.89
657.445	43103.88
657.796	43022.98
658.147	42942.76
658.498	42918.12
658.849	43111.34
659.2	42847.62
659.551	42831.12
659.902	42942.08
660.253	42870.67
660.604	42864.11
660.955	42589.77
661.306	42771.69
661.656	42678.58
662.007	42733.5
662.358	42640.62
662.708	42671.35
663.059	42574.4
663.409	42260.29
663.76	42730.11
664.11	42610.79
664.461	42476.1
664.811	42550
665.161	42576.89
665.511	42402.66
665.862	42544.57
666.212	42502.31
666.562	42595.19
666.912	42263.45
667.262	42393.62
667.612	42388.19
667.962	42411.02
668.312	42459.38
668.662	42462.32
669.011	42346.84
669.361	42268.42
669.711	42356.78
670.06	42290.79
670.41	42298.48
670.76	42189.55
671.109	42256.67
671.459	42170.12
671.808	42056
672.157	42190.68
672.507	41925.83
672.856	41948.66
673.205	41867.98
673.554	41958.15
673.904	41797.7
674.253	42035.89
674.602	41870.92
674.951	41312.06
675.3	41165.85
675.649	41653.3
675.998	41652.85
676.346	41665.73
676.695	41804.48
677.044	41383.47
677.393	41639.74
677.741	41576.24
678.09	41457.14
678.438	41439.29
678.787	41440.87
679.135	41501.21
679.484	41043.6
679.832	41169.92
680.181	41208.11
680.529	41167.89
680.877	41027.1
681.225	40926.08
681.573	41239.52
681.922	40995.24
682.27	40684.96
682.618	40836.14
682.966	40773.55
683.314	40843.38
683.661	40691.74
684.009	40456.27
684.357	40434.8
684.705	40442.71
685.053	40388.25
685.4	40288.14
685.748	40094.69
686.095	40129.72
686.443	39983.74
686.79	40042.49
687.138	39880.24
687.485	39868.94
687.832	39682.73
688.18	39873.23
688.527	39691.54
688.874	39628.27
689.221	39524.99
689.568	39390.76
689.915	39247.03
690.262	39328.84
690.609	39271.44
690.956	38877.33
691.303	38879.59
691.65	38723.88
691.997	38846.37
692.344	38566.15
692.69	38587.62
693.037	38484.12
693.383	38249.77
693.73	38451.35
694.077	38205.25
694.423	38085.48
694.769	38047.29
695.116	37868.76
695.462	38024.24
695.808	37733.85
696.155	37782.66
696.501	37465.84
696.847	37443.69
697.193	37055.9
697.539	37301.32
697.885	37102.23
698.231	36986.53
698.577	36996.92
698.923	36822.01
699.269	36792.41
699.614	36502.7
699.96	36474.22
700.306	36454.34
700.651	36176.38
700.997	36194.68
701.342	36132.54
701.688	36049.6
702.033	36048.93
702.379	35857.97
702.724	35695.49
703.069	35840.12
703.415	35590.18
703.76	35382.28
704.105	35509.73
704.45	35224.77
704.795	35204.88
705.14	35046.69
705.485	35051.44
705.83	34923.08
706.175	34980.93
706.52	34844.21
706.865	34680.37
707.209	34790.65
707.554	34504.56
707.899	34516.08
708.243	34407.16
708.588	34354.96
708.932	34096.66
709.277	34177.34
709.621	34037.68
709.966	33881.3
710.31	34003.33
710.654	33635.2
710.998	33606.05
711.342	33721.53
711.687	33589.55
712.031	33366.06
712.375	33291.03
712.719	33333.52
713.063	33310.47
713.407	33316.79
713.75	33137.36
714.094	33142.33
714.438	32981.21
714.782	33040.87
715.125	32827.31
715.469	32971.49
715.812	32660.54
716.156	32668
716.499	32616.02
716.843	32710.26
717.186	32294.22
717.53	32570.6
717.873	32479.98
718.216	32405.63
718.559	32108.92
718.902	32128.58
719.246	32129.25
719.589	31947.56
719.932	31822.6
720.275	31809.04
720.617	31730.17
720.96	31735.59
721.303	31785.31
721.646	31748.25
721.989	31523.39
722.331	31624.63
722.674	31514.58
723.016	31523.85
723.359	31409.95
723.701	31433
724.044	31103.97
724.386	31128.15
724.729	31168.83
725.071	31076.85
725.413	31094.03
725.755	30975.16
726.097	30859
726.439	30632.57
726.782	30769.97
727.124	30865.56
727.465	30614.72
727.807	30666.47
728.149	30644.1
728.491	30548.96
728.833	30459.92
729.175	30413.14
729.516	30313.93
729.858	30301.73
730.199	30245.01
730.541	30319.13
730.882	30048.4
731.224	30205.91
731.565	30096.77
731.906	30056.31
732.248	30072.58
732.589	29885.7
732.93	29737.23
733.271	29809.99
733.612	29839.6
733.953	29861.29
734.294	29651.58
734.635	29581.75
734.976	29731.8
735.317	29409.33
735.658	29511.47
735.999	29523.45
736.339	29396.67
736.68	29527.29
737.021	29343.79
737.361	29252.95
737.702	29194.19
738.042	29156.45
738.383	29108.54
738.723	29166.39
739.063	29012.5
739.404	28934.54
739.744	28922.11
740.084	28761.21
740.424	28845.72
740.764	28770.25
741.104	28813.64
741.444	28706.75
741.784	28394.89
742.124	28724.37
742.464	28475.79
742.804	28426.3
743.143	28342.91
743.483	28311.5
743.823	28160.54
744.162	28168.68
744.502	28241.67
744.841	28258.62
745.181	28248.23
745.52	28117.38
745.86	27990.83
746.199	27995.35
746.538	28049.14
746.877	27946.31
747.216	28028.34
747.556	27808.46
747.895	27834
748.234	27635.81
748.573	27660.67
748.911	27558.75
749.25	27551.52
749.589	27420.45
749.928	27441.02
750.267	27474.69
750.605	27278.31
750.944	27320.11
751.283	27156.28
751.621	27199.44
751.96	26991.99
752.298	27078.09
752.636	26942.5
752.975	26802.84
753.313	26840.13
753.651	26782.28
753.989	26710.64
754.327	26673.8
754.666	26573.69
755.004	26548.16
755.342	26594.71
755.679	26386.35
756.017	26292.57
756.355	26368.95
756.693	26236.75
757.031	26155.4
757.368	25988.62
757.706	26034.5
758.044	25939.36
758.381	25961.96
758.719	25767.16
759.056	25833.15
759.394	25715.41
759.731	25607.84
760.068	25423.22
760.405	25526.26
760.743	25308.42
761.08	25354.52
761.417	25237.68
761.754	25082.66
762.091	25159.27
762.428	24925.6
762.765	24848.54
763.102	24899.39
763.438	24826.62
763.775	24678.83
764.112	24704.36
764.449	24573.52
764.785	24453.3
765.122	24319.06
765.458	24252.85
765.795	24289.01
766.131	24189.35
766.467	24170.59
766.804	24071.39
767.14	23821.9
767.476	23825.29
767.812	23758.63
768.148	23764.05
768.485	23644.96
768.821	23467.56
769.157	23428.24
769.492	23337.62
769.828	23381.69
770.164	23061.47
770.5	23090.4
770.836	23085.42
771.171	22943.73
771.507	22851.98
771.842	22743.74
772.178	22736.05
772.513	22616.96
772.849	22576.74
773.184	22553.69
773.519	22442.73
773.855	22275.05
774.19	22247.25
774.525	22151.21
774.86	22158.89
775.195	22080.25
775.53	22054.04
775.865	21751.67
776.2	21795.06
776.535	21631.9
776.87	21519.36
777.205	21444.79
777.539	21371.34
777.874	21419.48
778.209	21229.88
778.543	21167.51
778.878	20975.42
779.212	21091.35
779.547	20890.91
779.881	20922.77
780.215	20720.97
780.55	20739.95
780.884	20641.42
781.218	20624.25
781.552	20666.96
781.886	20445.49
782.22	20367.76
782.554	20249.11
782.888	20050.02
783.222	20094.32
783.556	20077.14
783.889	19921.67
784.223	19808.67
784.557	19778.84
784.89	19808.9
785.224	19678.06
785.557	19604.16
785.891	19553.31
786.224	19326.2
786.558	19369.59
786.891	19171.4
787.224	19187.9
787.557	19067.22
787.891	19124.4
788.224	19007.11
788.557	18967.11
788.89	18857.96
789.223	18914.46
789.556	18732.32
789.888	18689.38
790.221	18731.19
790.554	18530.06
790.887	18457.52
791.219	18451.87
791.552	18306.34
791.884	18333.46
792.217	18217.08
792.549	18248.94
792.882	17998.33
793.214	18088.72
793.546	17941.38
793.879	17830.87
794.211	17751.78
794.543	17837.2
794.875	17764.43
795.207	17817.31
795.539	17632.01
795.871	17629.97
796.203	17460.49
796.535	17373.94
796.867	17374.16
797.198	17315.63
797.53	17359.7
797.862	17208.74
798.193	17142.53
798.525	17030.44
798.856	17092.36
799.188	16891.91
799.519	16863.44
799.85	16849.66
800.182	16776.66
800.513	16750.68
800.844	16640.17
801.175	16664.12
801.506	16579.15
801.837	16454.86
802.168	16485.82
802.499	16451.93
802.83	16346.62
803.161	16189.56
803.491	16220.75
803.822	16249.45
804.153	16081.77
804.483	16081.99
804.814	15989.79
805.145	15954.31
805.475	15913.64
805.805	15850.59
806.136	15859.17
806.466	15818.95
806.796	15839.74
807.126	15658.27
807.457	15596.81
807.787	15619.18
808.117	15518.39
808.447	15507.77
808.777	15591.16
809.107	15445.85
809.436	15463.25
809.766	15409.92
810.096	15294.22
810.426	15251.28
810.755	15378.73
811.085	15247.44
811.414	15098.52
811.744	15133.54
812.073	15066.43
812.403	15109.14
812.732	14925.86
813.061	14981.23
813.39	14867.56
813.719	14840.9
814.049	14911.63
814.378	14832.76
814.707	14791.18
815.036	14735.81
815.365	14668.7
815.693	14602.48
816.022	14545.08
816.351	14451.3
816.68	14412.88
817.008	14467.35
817.337	14255.15
817.665	14322.26
817.994	14344.86
818.322	14351.87
818.651	14202.49
818.979	14254.7
819.307	14222.61
819.636	14245.66
819.964	14042.72
820.292	14166.11
820.62	14170.18
820.948	14116.17
821.276	14075.49
821.604	14057.86
821.932	14071.42
822.259	13980.13
822.587	14037.98
822.915	14040.46
823.243	14047.47
823.57	13947.59
823.898	13959.56
824.225	13967.02
824.553	13993.23
824.88	13981.71
825.207	14098.99
825.535	14018.09
825.862	13974.7
826.189	13997.98
826.516	14023.52
826.843	14026
827.17	14038.43
827.497	14040.24
827.824	13909.62
828.151	13998.88
828.478	14052.22
828.805	14137.18
829.131	13939
829.458	13930.86
829.785	13825.1
830.111	13915.72
830.438	13927.7
830.764	13893.8
831.09	13902.84
831.417	13861.26
831.743	13968.83
832.069	13944.42
832.395	13800.24
832.722	13900.13
833.048	13835.72
833.374	13835.72
833.7	13752.79
834.026	13779.68
834.351	13788.27
834.677	13766.35
835.003	13804.09
835.329	13767.03
835.654	13716.86
835.98	13688.38
836.306	13722.28
836.631	13621.94
836.956	13667.59
837.282	13646.35
837.607	13563.87
837.932	13524.55
838.258	13558.22
838.583	13536.3
838.908	13348.73
839.233	13510.99
839.558	13463.98
839.883	13424.66
840.208	13291.56
840.533	13354.83
840.858	13335.17
841.182	13326.58
841.507	13260.15
841.832	13218.56
842.156	13209.07
842.481	13218.11
842.805	13143.76
843.13	13173.37
843.454	13080.26
843.778	12961.4
844.103	12991.68
844.427	12960.94
844.751	12927.73
845.075	12863.09
845.399	12881.85
845.723	12727.28
846.047	12749.42
846.371	12689.99
846.695	12700.61
847.019	12565.93
847.343	12593.72
847.666	12454.07
847.99	12483.22
848.313	12501.97
848.637	12417.91
848.96	12305.59
849.284	12407.74
849.607	12179.95
849.931	12199.16
850.254	12025.83
850.577	11963.46
850.9	11988.09
851.223	11987.86
851.546	11824.25
851.869	11860.18
852.192	11849.79
852.515	11720.75
852.838	11646.4
853.161	11679.85
853.483	11567.31
853.806	11554.43
854.129	11474.43
854.451	11523.69
854.774	11463.81
855.096	11405.73
855.419	11396.24
855.741	11358.73
856.063	11220.88
856.385	11234.66
856.708	11213.42
857.03	11177.26
857.352	11152.63
857.674	11170.71
857.996	11068.56
858.318	11107.43
858.64	10991.28
858.961	11041
859.283	10997.83
859.605	10942.47
859.926	10933.43
860.248	10887.33
860.57	10798.97
860.891	10853.2
861.212	10814.33
861.534	10745.64
861.855	10714.9
862.176	10735.47
862.498	10732.75
862.819	10736.14
863.14	10669.03
863.461	10659.76
863.782	10602.36
864.103	10621.35
864.424	10571.63
864.745	10573.89
865.065	10505.64
865.386	10503.61
865.707	10457.06
866.027	10514.91
866.348	10453.21
866.668	10483.72
866.989	10407.34
867.309	10304.07
867.63	10344.74
867.95	10294.57
868.27	10238.98
868.59	10253.22
868.91	10241.02
869.23	10291.41
869.55	10119.66
869.87	10270.39
870.19	10193.11
870.51	10202.37
870.83	10228.36
871.15	10019.78
871.469	10103.17
871.789	10128.02
872.109	10041.25
872.428	10057.74
872.748	10096.16
873.067	9983.62
873.386	10029.27
873.706	9922.83
874.025	9968.03
874.344	9973
874.663	9943.85
874.982	9909.05
875.301	9902.95
875.62	9862.49
875.939	9858.43
876.258	9816.62
876.577	9815.49
876.896	9722.16
877.214	9707.47
877.533	9733.46
877.852	9784.98
878.17	9791.99
878.489	9777.53
878.807	9739.79
879.125	9676.74
879.444	9677.19
879.762	9702.5
880.08	9658.66
880.398	9590.19
880.716	9656.4
881.034	9540.24
881.352	9592.67
881.67	9537.98
881.988	9558.77
882.306	9512.9
882.624	9447.36
882.941	9462.28
883.259	9441.94
883.577	9433.81
883.894	9405.11
884.212	9365.33
884.529	9371.66
884.846	9350.64
885.164	9363.3
885.481	9357.65
885.798	9326.69
886.115	9282.4
886.432	9308.61
886.75	9158.33
887.067	9219.12
887.383	9182.29
887.7	9240.82
888.017	9134.15
888.334	9136.64
888.651	9116.53
888.967	9062.74
889.284	9018.22
889.6	9007.38
889.917	8973.03
890.233	8981.84
890.55	8926.25
890.866	8907.04
891.182	8846.93
891.498	8846.93
891.815	8849.19
892.131	8782.3
892.447	8829.98
892.763	8785.24
893.079	8741.39
893.395	8676.54
893.71	8663.88
894.026	8621.17
894.342	8578.46
894.657	8502.08
894.973	8517.22
895.289	8568.29
895.604	8511.34
895.92	8403.78
896.235	8455.75
896.55	8385.47
896.865	8338.02
897.181	8382.31
897.496	8341.63
897.811	8306.15
898.126	8314.51
898.441	8255.31
898.756	8250.56
899.071	8199.49
899.386	8152.26
899.7	8123.78
900.015	8065.48
900.33	8036.1
900.644	8027.06
900.959	8038.59
901.273	8021.87
901.588	7921.98
901.902	7911.59
902.216	7955.2
902.531	7868.42
902.845	7869.55
903.159	7804.92
903.473	7827.29
903.787	7770.8
904.101	7693.96
904.415	7690.57
904.729	7641.08
905.042	7629.11
905.356	7583.91
905.67	7599.28
905.984	7566.06
906.297	7517.92
906.611	7470.69
906.924	7426.4
907.237	7506.62
907.551	7425.72
907.864	7339.17
908.177	7399.28
908.491	7295.33
908.804	7292.84
909.117	7281.77
909.43	7163.81
909.743	7162.68
910.056	7219.4
910.368	7131.95
910.681	7095.11
910.994	7073.87
911.307	7067.09
911.619	7021.67
911.932	7021.89
912.244	6954.32
912.557	6920.2
912.869	6849.24
913.181	6832.29
913.494	6833.42
913.806	6787.55
914.118	6765.4
914.43	6738.96
914.742	6739.19
915.054	6695.12
915.366	6686.53
915.678	6632.75
915.99	6613.54
916.302	6581.9
916.613	6550.27
916.925	6538.06
917.236	6588
917.548	6511.17
917.859	6458.97
918.171	6446.99
918.482	6419.87
918.794	6315.7
919.105	6353.89
919.416	6272.08
919.727	6309.82
920.038	6256.94
920.349	6232.53
920.66	6227.79
920.971	6218.52
921.282	6151.18
921.593	6139.88
921.903	6137.4
922.214	6090.62
922.525	6059.66
922.835	6016.27
923.146	5981.02
923.456	5977.85
923.767	5983.95
924.077	5986.44
924.387	5952.09
924.697	5918.87
925.008	5856.05
925.318	5815.82
925.628	5815.37
925.938	5752.55
926.248	5739.89
926.558	5742.15
926.867	5704.41
927.177	5666
927.487	5591.87
927.796	5564.98
928.106	5584.42
928.416	5576.51
928.725	5557.52
929.034	5546
929.344	5482.95
929.653	5465.1
929.962	5460.8
930.271	5469.16
930.581	5470.75
930.89	5374.7
931.199	5364.76
931.508	5330.41
931.817	5383.06
932.125	5319.34
932.434	5237.31
932.743	5240.02
933.051	5271.66
933.36	5195.72
933.669	5177.87
933.977	5163.41
934.286	5163.41
934.594	5186.91
934.902	5080.25
935.21	5046.12
935.519	5071.21
935.827	5027.14
936.135	4999.12
936.443	4921.61
936.751	5011.55
937.059	4968.16
937.367	4892.23
937.674	4913.92
937.982	4893.36
938.29	4840.25
938.597	4919.35
938.905	4771.1
939.213	4798.9
939.52	4765.23
939.827	4808.16
940.135	4722.97
940.442	4765.68
940.749	4732.69
941.056	4690.2
941.363	4651.11
941.67	4684.1
941.977	4631.45
942.284	4596.87
942.591	4609.75
942.898	4573.82
943.205	4549.87
943.511	4541.5
943.818	4502.18
944.125	4497.44
944.431	4511.9
944.738	4481.85
945.044	4440.04
945.35	4419.25
945.657	4395.07
945.963	4368.4
946.269	4345.58
946.575	4369.08
946.881	4329.76
947.187	4286.82
947.493	4298.57
947.799	4258.12
948.105	4246.37
948.41	4235.07
948.716	4205.02
949.022	4150.33
949.327	4163.21
949.633	4188.52
949.938	4120.95
950.244	4149.42
950.549	4057.9
950.854	4049.99
951.16	4050.22
951.465	4073.95
951.77	3959.6
952.075	4008.41
952.38	4021.97
952.685	3994.17
952.99	3948.75
953.294	3924.12
953.599	3939.49
953.904	3907.17
954.209	3897.68
954.513	3863.56
954.818	3815.2
955.122	3852.71
955.426	3802.54
955.731	3785.37
956.035	3748.08
956.339	3787.63
956.643	3768.42
956.948	3712.15
957.252	3732.26
957.556	3707.85
957.86	3699.95
958.163	3651.58
958.467	3645.03
958.771	3626.27
959.075	3597.12
959.378	3599.61
959.682	3605.71
959.985	3580.17
960.289	3559.61
960.592	3550.12
960.896	3499.72
961.199	3542.44
961.502	3525.94
961.805	3491.59
962.108	3435.32
962.411	3435.32
962.714	3421.08
963.017	3396.9
963.32	3436.45
963.623	3400.29
963.926	3342.89
964.228	3353.97
964.531	3348.99
964.833	3370.46
965.136	3328.2
965.438	3332.27
965.741	3302.22
966.043	3267.41
966.345	3252.05
966.648	3284.59
966.95	3255.21
967.252	3206.62
967.554	3198.04
967.856	3181.77
968.158	3153.07
968.46	3199.85
968.761	3135.21
969.063	3106.06
969.365	3149.23
969.666	3142.9
969.968	3093.86
970.269	3073.75
970.571	3037.36
970.872	3051.37
971.174	3022.45
971.475	3027.65
971.776	3039.4
972.077	2996.01
972.378	3020.87
972.679	2938.38
972.98	2996.69
973.281	2968.44
973.582	2921.89
973.883	2902.68
974.183	2888.22
974.484	2934.77
974.785	2874.66
975.085	2908.33
975.386	2894.77
975.686	2838.27
975.986	2873.98
976.287	2822.91
976.587	2823.81
976.887	2830.59
977.187	2809.57
977.487	2778.16
977.787	2761.66
978.087	2759.86
978.387	2733.64
978.687	2705.17
978.987	2752.85
979.286	2737.71
979.586	2694.32
979.885	2697.26
980.185	2661.33
980.484	2663.36
980.784	2646.41
981.083	2635.11
981.382	2622.69
981.682	2620.65
981.981	2583.14
982.28	2579.52
982.579	2565.74
982.878	2533.2
983.177	2536.36
983.475	2549.01
983.774	2504.95
984.073	2478.51
984.372	2497.72
984.67	2476.7
984.969	2446.64
985.267	2469.02
985.566	2471.5
985.864	2469.47
986.162	2425.63
986.461	2440.54
986.759	2392.63
987.057	2395.57
987.355	2381.56
987.653	2390.83
987.951	2386.76
988.249	2379.08
988.547	2368.68
988.844	2343.14
989.142	2354.9
989.44	2329.59
989.737	2344.05
990.035	2281.45
990.332	2287.55
990.63	2300.89
990.927	2291.62
991.224	2245.97
991.521	2270.83
991.819	2241
992.116	2225.63
992.413	2202.58
992.71	2226.31
993.006	2185.41
993.303	2152.64
993.6	2174.11
993.897	2175.92
994.193	2142.7
994.49	2110.38
994.787	2145.64
995.083	2129.59
995.379	2107.67
995.676	2111.29
995.972	2071.51
996.268	2080.78
996.565	2022.7
996.861	2026.54
997.157	2053.89
997.453	2023.15
997.749	2033.32
998.044	2009.59
998.34	1995.81
998.636	1984.06
998.932	1989.48
999.227	2007.33
999.523	1989.93
999.818	1941.8
1000.114	1955.81
1000.409	1940.67
1000.704	1887.79
1001	1895.02
1001.295	1874.68
1001.59	1928.92
1001.885	1879.2
1002.18	1899.54
1002.475	1856.83
1002.77	1835.14
1003.065	1834.46
1003.359	1855.47
1003.654	1808.92
1003.949	1798.3
1004.243	1807.79
1004.538	1787.9
1004.832	1799.88
1005.127	1796.49
1005.421	1802.14
1005.715	1756.49
1006.009	1753.56
1006.304	1775.48
1006.598	1729.15
1006.892	1694.35
1007.186	1725.31
1007.48	1737.96
1007.773	1692.99
1008.067	1695.7
1008.361	1688.47
1008.655	1644.63
1008.948	1666.1
1009.242	1661.13
1009.535	1641.92
1009.829	1635.59
1010.122	1614.35
1010.415	1631.52
1010.708	1603.28
1011.001	1599.21
1011.295	1598.31
1011.588	1566.89
1011.881	1543.62
1012.173	1556.5
1012.466	1570.96
1012.759	1530.28
1013.052	1533.67
1013.344	1515.82
1013.637	1537.97
1013.93	1516.05
1014.222	1487.35
1014.514	1491.19
1014.807	1494.35
1015.099	1453.9
1015.391	1478.99
1015.683	1448.7
1015.976	1467.46
1016.268	1420.23
1016.56	1408.93
1016.851	1426.33
1017.143	1407.58
1017.435	1401.7
1017.727	1392.21
1018.018	1385.43
1018.31	1373.9
1018.602	1374.58
1018.893	1366.67
1019.185	1365.54
1019.476	1330.74
1019.767	1333.68
1020.058	1324.19
1020.35	1337.3
1020.641	1289.84
1020.932	1323.06
1021.223	1289.39
1021.514	1302.95
1021.804	1297.97
1022.095	1271.76
1022.386	1264.53
1022.677	1253.68
1022.967	1238.31
1023.258	1257.75
1023.548	1235.6
1023.839	1244.64
1024.129	1215.49
1024.419	1207.13
1024.709	1203.74
1025	1165.55
1025.29	1196.06
1025.58	1164.87
1025.87	1128.94
1026.16	1163.74
1026.449	1133.23
1026.739	1161.71
1027.029	1131.65
1027.319	1124.65
1027.608	1127.58
1027.898	1107.7
1028.187	1099.34
1028.477	1110.41
1028.766	1092.33
1029.055	1085.55
1029.344	1104.53
1029.634	1050.75
1029.923	1066.12
1030.212	1081.93
1030.501	1025.67
1030.79	1040.81
1031.078	1065.44
1031.367	1024.31
1031.656	1015.27
1031.945	1043.52
1032.233	1032.67
1032.522	1008.49
1032.81	1008.26
1033.099	992.67
1033.387	981.6
1033.675	996.97
1033.963	970.98
1034.251	977.08
1034.54	963.07
1034.828	964.42
1035.116	955.38
1035.403	924.42
1035.691	939.57
1035.979	943.18
1036.267	933.69
1036.554	912.9
1036.842	911.77
1037.129	889.85
1037.417	903.63
1037.704	911.09
1037.992	910.41
1038.279	898.66
1038.566	902.28
1038.853	902.28
1039.14	902.28
