Data from breadboard_white_FLMS001491_00075.txt Node
Date: Wed Feb 08 10:48:14 GMT 2017
User: dcchb
Spectrometer: FLMS00149
Trigger mode: 0
Integration Time (sec): 2.000000E-2
Scans to average: 10
Electric dark correction enabled: true
Nonlinearity correction enabled: false
Boxcar width: 0
XAxis mode: Wavelengths
Number of Pixels in Spectrum: 2048
>>>>>Begin Spectral Data<<<<<
341.393	-16.43
341.776	-16.43
342.16	-16.43
342.543	-67.5
342.927	-66.59
343.31	-72.92
343.693	-79.02
344.077	-63.43
344.46	-66.37
344.843	-52.58
345.226	-33.37
345.61	-36.54
345.993	-11.91
346.376	5.04
346.759	14.99
347.142	12.27
347.525	36.45
347.908	48.66
348.291	79.62
348.674	90.01
349.057	129.11
349.44	127.52
349.823	139.28
350.206	167.98
350.588	198.48
350.971	212.04
351.354	233.06
351.737	242.78
352.119	276.45
352.502	258.14
352.884	273.28
353.267	284.58
353.65	284.13
354.032	301.53
354.414	294.75
354.797	321.87
355.179	325.94
355.562	323.9
355.944	327.97
356.326	333.85
356.709	348.54
357.091	337.46
357.473	359.84
357.855	346.73
358.238	353.51
358.62	364.35
359.002	334.07
359.384	356.67
359.766	351.7
360.148	370.68
360.53	354.64
360.912	340.63
361.294	354.64
361.676	330.46
362.057	332.49
362.439	326.16
362.821	346.95
363.203	319.38
363.584	352.15
363.966	352.38
364.348	354.64
364.729	331.59
365.111	345.15
365.493	334.07
365.874	334.3
366.256	343.56
366.637	336.56
367.019	350.34
367.4	329.1
367.781	360.29
368.163	343.56
368.544	346.73
368.925	343.34
369.306	341.08
369.688	330.68
370.069	323
370.45	330.91
370.831	334.98
371.212	357.35
371.593	330.91
371.974	333.4
372.355	372.94
372.736	358.93
373.117	353.28
373.498	350.34
373.879	366.39
374.26	329.1
374.641	330.23
375.021	351.93
375.402	360.06
375.783	369.33
376.163	355.99
376.544	370.23
376.925	373.39
377.305	367.74
377.686	364.58
378.066	372.26
378.447	390.57
378.827	357.35
379.208	378.14
379.588	380.17
379.968	389.66
380.349	399.83
380.729	364.13
381.109	392.83
381.489	388.31
381.87	396.44
382.25	399.83
382.63	384.47
383.01	388.08
383.39	381.98
383.77	400.29
384.15	398.48
384.53	386.05
384.91	404.81
385.29	422.21
385.67	440.29
386.049	439.61
386.429	417.01
386.809	443.22
387.189	420.85
387.568	441.19
387.948	437.57
388.328	438.7
388.707	435.31
389.087	426.5
389.466	469.21
389.846	459.04
390.225	473.05
390.605	470.34
390.984	467.63
391.363	457.23
391.743	473.96
392.122	469.21
392.501	490.45
392.881	488.65
393.26	481.41
393.639	503.79
394.018	513.05
394.397	518.93
394.776	515.99
395.155	525.48
395.534	521.41
395.913	515.54
396.292	550.34
396.671	548.08
397.05	559.6
397.429	570.23
397.808	569.32
398.186	559.83
398.565	588.53
398.944	603.67
399.323	586.72
399.701	581.3
400.08	626.95
400.458	636.21
400.837	631.69
401.215	648.87
401.594	638.25
401.972	638.02
402.351	668.98
402.729	654.52
403.107	671.69
403.486	695.87
403.864	715.31
404.242	704.23
404.62	703.78
404.999	767.06
405.377	759.15
405.755	771.12
406.133	779.26
406.511	796.66
406.889	791.24
407.267	832.14
407.645	835.53
408.023	846.6
408.401	854.96
408.779	862.65
409.156	885.7
409.534	887.96
409.912	913.72
410.29	949.2
410.667	952.14
411.045	979.48
411.422	975.19
411.8	998.69
412.178	1006.82
412.555	1044.56
412.933	1045.24
413.31	1078.69
413.687	1083.66
414.065	1115.52
414.442	1111
414.819	1131.34
415.197	1135.18
415.574	1203.65
415.951	1186.48
416.328	1230.09
416.705	1208.85
417.082	1242.98
417.46	1277.1
417.837	1299.02
418.214	1289.08
418.591	1324.1
418.967	1330.66
419.344	1328.17
419.721	1376.98
420.098	1358.68
420.475	1413.14
420.852	1407.72
421.228	1443.2
421.605	1453.59
421.982	1453.82
422.358	1475.06
422.735	1506.7
423.111	1494.95
423.488	1533.36
423.864	1548.96
424.241	1572.46
424.617	1626.24
424.994	1631.44
425.37	1596.86
425.746	1636.19
426.123	1661.27
426.499	1704.88
426.875	1713.47
427.251	1731.1
427.627	1773.81
428.003	1783.07
428.379	1793.47
428.756	1820.59
429.132	1864.88
429.507	1900.13
429.883	1902.62
430.259	1961.15
430.635	1946.91
431.011	1956.4
431.387	2000.47
431.763	2076.85
432.138	2082.95
432.514	2103.29
432.89	2128.15
433.265	2180.58
433.641	2212.89
434.016	2260.8
434.392	2277.52
434.767	2338.09
435.143	2294.7
435.518	2374.92
435.894	2334.25
436.269	2422.61
436.644	2451.53
437.02	2475.71
437.395	2477.75
437.77	2502.6
438.145	2571.98
438.52	2609.72
438.895	2602.71
439.271	2609.27
439.646	2690.17
440.021	2699.89
440.395	2766.1
440.77	2671.86
441.145	2725.2
441.52	2794.12
441.895	2803.84
442.27	2832.31
442.645	2823.27
443.019	2899.88
443.394	2882.71
443.769	2903.72
444.143	2887.9
444.518	2951.41
444.892	2934.46
445.267	2995.25
445.641	3029.6
446.016	3054
446.39	3037.28
446.764	3076.6
447.139	3100.33
447.513	3131.97
447.887	3152.08
448.262	3135.81
448.636	3193.66
449.01	3216.03
449.384	3284.96
449.758	3246.99
450.132	3319.31
450.506	3378.51
450.88	3369.7
451.254	3372.41
451.628	3416.25
452.002	3463.48
452.376	3536.47
452.75	3504.16
453.123	3572.86
453.497	3598.85
453.871	3651.95
454.244	3734.44
454.618	3771.72
454.992	3792.51
455.365	3817.6
455.739	3927.42
456.112	3963.36
456.486	4006.52
456.859	4083.35
457.232	4077.93
457.606	4130.13
457.979	4134.65
458.352	4332.84
458.725	4288.32
459.099	4345.49
459.472	4418.71
459.845	4472.04
460.218	4532.61
460.591	4545.49
460.964	4583.23
461.337	4660.74
461.71	4771.02
462.083	4855.99
462.456	4842.2
462.829	4830.9
463.201	5006.94
463.574	4981.63
463.947	5090.78
464.32	5210.33
464.692	5241.51
465.065	5312.93
465.438	5327.61
465.81	5431.57
466.183	5503.43
466.555	5619.81
466.928	5653.26
467.3	5664.33
467.672	5735.06
468.045	5898.45
468.417	5923.98
468.789	5993.36
469.161	6097.54
469.534	6111.77
469.906	6339.34
470.278	6366.23
470.65	6410.07
471.022	6495.49
471.394	6606
471.766	6727.8
472.138	6784.52
472.51	6916.5
472.882	7045.31
473.253	7130.96
473.625	7231.29
473.997	7361.46
474.369	7381.8
474.74	7521.45
475.112	7625.41
475.484	7790.6
475.855	7933.42
476.227	8010.03
476.598	8275.79
476.97	8285.28
477.341	8447.98
477.713	8678.49
478.084	8690.69
478.455	8985.37
478.827	8960.29
479.198	9276.44
479.569	9301.75
479.94	9603.89
480.311	9679.14
480.682	9922.52
481.053	10132.46
481.424	10264.43
481.795	10338.56
482.166	10484.09
482.537	10678.66
482.908	10931.31
483.279	10969.73
483.65	11211.75
484.021	11428.7
484.391	11584.4
484.762	11640.67
485.133	11760.44
485.503	11951.39
485.874	12227.09
486.244	12392.97
486.615	12661.88
486.985	12729.91
487.356	12975.1
487.726	13129.22
488.097	13361.98
488.467	13388.65
488.837	13749.09
489.207	13916.31
489.578	14037.67
489.948	14219.58
490.318	14448.05
490.688	14471.33
491.058	14736.18
491.428	14966.68
491.798	15044.42
492.168	15389.27
492.538	15489.38
492.908	15622.26
493.278	15930.5
493.648	15847.34
494.017	16098.4
494.387	16212.75
494.757	16359.41
495.126	16587.43
495.496	16717.82
495.866	16737.26
496.235	17010.47
496.605	17129.56
496.974	17279.39
497.344	17389.22
497.713	17575.65
498.082	17640.28
498.452	17867.4
498.821	17987.62
499.19	18022.2
499.559	18288.18
499.928	18371.11
500.298	18564.55
500.667	18778.56
501.036	18752.35
501.405	18952.57
501.774	18955.96
502.143	19168.15
502.512	19309.62
502.88	19354.59
503.249	19452.67
503.618	19613.34
503.987	19680.01
504.356	19949.83
504.724	19995.03
505.093	20043.61
505.462	20209.26
505.83	20524.28
506.199	20515.46
506.567	20823.03
506.936	20742.8
507.304	21048.1
507.672	21164.26
508.041	21317.7
508.409	21588.2
508.777	21630.69
509.145	21833.85
509.514	21764.24
509.882	22009.21
510.25	22198.81
510.618	22379.6
510.986	22506.15
511.354	22732.81
511.722	22899.81
512.09	23145.68
512.458	23012.35
512.826	23333.02
513.193	23435.16
513.561	23555.16
513.929	23682.61
514.297	23892.32
514.664	24117.4
515.032	24272.2
515.4	24474.23
515.767	24562.59
516.135	24715.35
516.502	24572.08
516.869	25029.47
517.237	25261.33
517.604	25276.92
517.972	25657.93
518.339	25775.89
518.706	25944.93
519.073	25975.66
519.44	26195.77
519.808	26426.95
520.175	26413.39
520.542	26842.53
520.909	27075.29
521.276	27106.93
521.643	27399.58
522.009	27647.48
522.376	27780.36
522.743	28024.64
523.11	28281.59
523.477	28612.43
523.843	28593.22
524.21	28969.03
524.577	29218.96
524.943	29388.22
525.31	29599.29
525.676	29741.44
526.043	30001.32
526.409	30015.33
526.776	30443.56
527.142	30623.9
527.508	30761.3
527.874	31109.08
528.241	31225.24
528.607	31335.29
528.973	31563.31
529.339	31630.65
529.705	31910.87
530.071	32194.93
530.437	32311.09
530.803	32479.22
531.169	32666.33
531.535	32715.14
531.901	32928.92
532.267	33105.19
532.632	33270.61
532.998	33610.03
533.364	33652.29
533.73	33845.51
534.095	34061.32
534.461	34153.97
534.826	34215.89
535.192	34366.85
535.557	34714.86
535.923	34685.03
536.288	34859.94
536.653	35079.83
537.019	35007.06
537.384	35339.71
537.749	35451.57
538.114	35519.36
538.479	35701.5
538.845	35688.4
539.21	35753.25
539.575	35971.1
539.94	36141.49
540.305	36297.87
540.67	36279.34
541.034	36495.83
541.399	36529.05
541.764	36723.17
542.129	36887.01
542.494	36856.5
542.858	37101.24
543.223	37156.16
543.587	37287.68
543.952	37366.32
544.316	37450.84
544.681	37596.14
545.045	37727.21
545.41	37778.29
545.774	38110.48
546.138	38099.63
546.503	38166.07
546.867	38170.37
547.231	38582.78
547.595	38677.25
547.959	38523.58
548.324	38797.24
548.688	38957.24
549.052	39048.54
549.416	39071.36
549.779	39186.38
550.143	39324.01
550.507	39764.22
550.871	39695.98
551.235	39666.15
551.599	40148.17
551.962	40052.58
552.326	40180.26
552.689	40494.15
553.053	40249.18
553.417	40359.46
553.78	40972.1
554.143	40784.53
554.507	40972.1
554.87	41105.2
555.234	41472.43
555.597	41358.08
555.96	41575.25
556.323	41775.02
556.686	41702.7
557.05	42160.54
557.413	42152.41
557.776	42419.75
558.139	42567.76
558.502	42686.41
558.865	42789.23
559.228	43132.04
559.59	43067.64
559.953	43115.32
560.316	43632.6
560.679	43628.53
561.041	43917.56
561.404	44014.51
561.767	44378.34
562.129	44220.6
562.492	44667.14
562.854	44658.56
563.217	44852.68
563.579	44905.1
563.941	45219.67
564.304	45317.52
564.666	45570.17
565.028	45631.87
565.39	45741.24
565.753	45971.07
566.115	46067.56
566.477	46255.8
566.839	46529.24
567.201	46676.58
567.563	46662.12
567.925	46952.28
568.287	47016.91
568.648	47014.88
569.01	47244.93
569.372	47504.36
569.734	47346.17
570.095	47617.12
570.457	47837.91
570.819	47924.69
571.18	47958.81
571.542	48102.53
571.903	48176.21
572.265	48388.18
572.626	48444.67
572.987	48526.7
573.349	48650.32
573.71	48687.15
574.071	48856.19
574.432	49031.32
574.794	49248.04
575.155	49142.06
575.516	49083.53
575.877	49236.29
576.238	49425.66
576.599	49587.24
576.96	49447.13
577.32	49601.7
577.681	49586.11
578.042	49816.39
578.403	49837.86
578.763	49842.38
579.124	49941.81
579.485	49976.84
579.845	50164.85
580.206	49963.5
580.566	50072.43
580.927	50050.05
581.287	50283.04
581.648	50056.83
582.008	50259.99
582.368	50204.85
582.728	50268.58
583.089	50205.08
583.449	50282.36
583.809	50262.7
584.169	50294.57
584.529	50270.61
584.889	50617.72
585.249	50295.92
585.609	50233.1
585.969	50372.08
586.329	50264.74
586.688	50401.01
587.048	50255.25
587.408	50288.24
587.768	50304.51
588.127	50278.07
588.487	50281.46
588.846	50585.41
589.206	50289.37
589.565	50299.09
589.925	50572.07
590.284	50273.1
590.643	50327.11
591.003	50516.93
591.362	50549.93
591.721	50488.69
592.08	50307
592.44	50567.78
592.799	50556.71
593.158	50476.94
593.517	50414.56
593.876	50586.99
594.235	50523.04
594.593	50528.69
594.952	50728
595.311	50586.76
595.67	50544.5
596.029	50873.54
596.387	50825.85
596.746	50769.58
597.104	50629.25
597.463	50759.87
597.822	50774.1
598.18	50696.59
598.538	50749.02
598.897	50907.66
599.255	50625.86
599.613	51000.54
599.972	50830.6
600.33	50956.7
600.688	50815.23
601.046	50962.8
601.404	51059.97
601.762	51008.45
602.12	51175.22
602.478	51122.57
602.836	51104.26
603.194	51019.75
603.552	51128.22
603.91	50958.28
604.268	51177.48
604.625	51083.93
604.983	51226.97
605.341	51033.76
605.698	51262
606.056	51368.21
606.413	51295.45
606.771	51435.78
607.128	51460.64
607.485	51378.38
607.843	51308.78
608.2	51506.06
608.557	51544.03
608.914	51471.49
609.272	51597.58
609.629	51687.98
609.986	51799.84
610.343	51623.8
610.7	51807.97
611.057	51821.08
611.414	51792.38
611.771	51813.85
612.127	51894.75
612.484	51975.2
612.841	52045.03
613.198	51983.79
613.554	51882.1
613.911	52179.72
614.267	52158.7
614.624	52138.59
614.98	52085.25
615.337	52279.6
615.693	52239.15
616.05	52164.35
616.406	52362.31
616.762	52339.94
617.118	52197.34
617.475	52244.35
617.831	52327.96
618.187	52364.34
618.543	52394.4
618.899	52547.84
619.255	52546.49
619.611	52490.44
619.967	52557.33
620.323	52590.1
620.678	52525.47
621.034	52501.29
621.39	52480.95
621.746	52502.64
622.101	52857.89
622.457	52559.82
622.812	52618.35
623.168	52596.43
623.523	52616.31
623.879	52793.71
624.234	52554.17
624.589	52646.37
624.945	52692.02
625.3	52674.84
625.655	52676.43
626.01	52639.82
626.365	52713.26
626.72	52527.28
627.075	52626.48
627.43	52506.94
627.785	52487.28
628.14	52557.56
628.495	52506.03
628.85	52463.32
629.205	52356.43
629.559	52574.73
629.914	52423.55
630.269	52447.28
630.623	52358.47
630.978	52283.67
631.332	52382.42
631.687	52446.6
632.041	52306.72
632.396	52254.29
632.75	52232.82
633.104	52274.85
633.459	52173.39
633.813	52226.72
634.167	52137.46
634.521	52084.12
634.875	52174.29
635.229	51955.54
635.583	51821.76
635.937	51919.38
636.291	51840.52
636.645	51872.15
636.999	51742.44
637.352	51862.66
637.706	51671.48
638.06	51818.82
638.413	51773.4
638.767	51651.37
639.121	51647.75
639.474	51398.04
639.828	51474.42
640.181	51553.29
640.534	51425.16
640.888	51417.25
641.241	51287.31
641.594	51337.25
641.947	51344.26
642.301	51313.75
642.654	51214.54
643.007	51251.83
643.36	51228.33
643.713	51052.74
644.066	51210.25
644.419	50978.84
644.771	50873.99
645.124	50678.06
645.477	50561
645.83	50228.81
646.182	49960.11
646.535	49784.75
646.888	49810.06
647.24	49587.24
647.593	49782.49
647.945	49724.41
648.298	49587.02
648.65	49553.34
649.002	49431.77
649.355	49688.03
649.707	49584.98
650.059	49691.19
650.411	50204.17
650.763	50112.88
651.115	50514.9
651.467	50402.81
651.819	50353.1
652.171	50158.75
652.523	50123.27
652.875	50114.23
653.227	49896.39
653.578	50175.7
653.93	50263.83
654.282	49875.6
654.633	49748.59
654.985	50036.27
655.337	49935.03
655.688	50063.61
656.039	50034.69
656.391	49769.16
656.742	49792.43
657.094	49843.96
657.445	49805.31
657.796	49794.92
658.147	49674.7
658.498	49645.32
658.849	49711.98
659.2	49565.1
659.551	49706.56
659.902	49658.88
660.253	49647.35
660.604	49599.44
660.955	49366.68
661.306	49529.16
661.656	49436.51
662.007	49517.41
662.358	49474.48
662.708	49396.51
663.059	49381.6
663.409	49224.09
663.76	49394.25
664.11	49324.42
664.461	49342.95
664.811	49370.52
665.161	49392.22
665.511	49312.9
665.862	49378.43
666.212	49355.16
666.562	49376.63
666.912	49187.7
667.262	49209.4
667.612	49179.57
667.962	49247.59
668.312	49046.01
668.662	49266.35
669.011	49118.1
669.361	49123.52
669.711	49112.23
670.06	49091.21
670.41	49161.49
670.76	49011.89
671.109	49128.72
671.459	49041.49
671.808	48945.9
672.157	49064.09
672.507	48778.22
672.856	48870.2
673.205	48904.77
673.554	48830.65
673.904	48714.72
674.253	48974.15
674.602	48781.16
674.951	48299.59
675.3	48156.54
675.649	48560.38
675.998	48544.56
676.346	48517.21
676.695	48667.04
677.044	48401.28
677.393	48422.3
677.741	48681.05
678.09	48449.87
678.438	48291.68
678.787	48401.51
679.135	48455.07
679.484	48119.94
679.832	48315.64
680.181	48012.59
680.529	48230.44
680.877	48113.83
681.225	47952.71
681.573	48236.54
681.922	47880.62
682.27	47695.31
682.618	47723.79
682.966	47665.26
683.314	47851.24
683.661	47514.75
684.009	47539.61
684.357	47347.98
684.705	47281.99
685.053	47384.59
685.4	47358.83
685.748	47113.63
686.095	46900.08
686.443	46845.17
686.79	46832.96
687.138	47013.98
687.485	46891.04
687.832	46753.19
688.18	46702.8
688.527	46494.44
688.874	46448.79
689.221	46339.42
689.568	46271.4
689.915	46219.65
690.262	46128.8
690.609	46059.2
690.956	45940.11
691.303	45904.17
691.65	45775.14
691.997	45651.98
692.344	45373.79
692.69	45358.88
693.037	45557.74
693.383	45105.1
693.73	45176.28
694.077	45028.72
694.423	45072.78
694.769	44849.96
695.116	44825.78
695.462	44767.93
695.808	44580.37
696.155	44682.51
696.501	44155.97
696.847	44369.07
697.193	44008.18
697.539	44122.3
697.885	43965.92
698.231	43727.96
698.577	43708.53
698.923	43465.14
699.269	43400.74
699.614	43197.8
699.96	43177.01
700.306	43303.79
700.651	43021.09
700.997	42942.44
701.342	42889.79
701.688	42712.85
702.033	42643.24
702.379	42671.49
702.724	42493.42
703.069	42565.96
703.415	42243.71
703.76	42097.04
704.105	42060.89
704.45	41965.29
704.795	41690.73
705.14	41652.53
705.485	41638.75
705.83	41414.12
706.175	41436.95
706.52	41303.39
706.865	41095.94
707.209	41204.86
707.554	40985.89
707.899	41072.21
708.243	40943.17
708.588	40870.86
708.932	40468.61
709.277	40604.65
709.621	40459.57
709.966	40149.52
710.31	40426.8
710.654	40151.78
710.998	40032.24
711.342	39971.45
711.687	40026.81
712.031	39770.32
712.375	39658.69
712.719	39709.99
713.063	39588.41
713.407	39782.98
713.75	39346.38
714.094	39373.95
714.438	39245.59
714.782	39263.9
715.125	39106.61
715.469	39107.52
715.812	38907.97
716.156	38793.4
716.499	38678.15
716.843	38658.04
717.186	38568.55
717.53	38729
717.873	38638.38
718.216	38526.06
718.559	38359.97
718.902	38086.53
719.246	38296.69
719.589	38118.16
719.932	37954.78
720.275	38086.3
720.617	37906.19
720.96	37818.74
721.303	37761.11
721.646	37711.4
721.989	37581
722.331	37733.09
722.674	37468.24
723.016	37576.71
723.359	37347.56
723.701	37366.77
724.044	37073.9
724.386	37026.44
724.729	37132.43
725.071	37080.9
725.413	36953.45
725.755	36922.94
726.097	36723.4
726.439	36538.77
726.782	36658.77
727.124	36815.37
727.465	36475.72
727.807	36582.39
728.149	36275.73
728.491	36395.5
728.833	36383.52
729.175	36208.84
729.516	36228.72
729.858	36167.71
730.199	36332.67
730.541	36090.65
730.882	36067.82
731.224	36061.72
731.565	35725.46
731.906	35769.3
732.248	35796.42
732.589	35714.16
732.93	35539.7
733.271	35561.4
733.612	35706.25
733.953	35564.11
734.294	35445.69
734.635	35312.81
734.976	35433.04
735.317	35234.4
735.658	35269.2
735.999	35166.38
736.339	34995.31
736.68	35152.14
737.021	34955.08
737.361	34779.95
737.702	35019.71
738.042	34846.84
738.383	34839.38
738.723	34740.17
739.063	34627.86
739.404	34764.58
739.744	34560.07
740.084	34508.09
740.424	34520.29
740.764	34345.38
741.104	34580.18
741.444	34275.33
741.784	34198.04
742.124	34329.34
742.464	34210.7
742.804	34189.23
743.143	34155.33
743.483	34015
743.823	33921.89
744.162	33904.72
744.502	33883.7
744.841	33710.14
745.181	33907.88
745.52	33645.51
745.86	33682.12
746.199	33559.19
746.538	33364.84
746.877	33487.78
747.216	33367.55
747.556	33447.78
747.895	33299.31
748.234	33342.92
748.573	33118.52
748.911	33148.13
749.25	32992.2
749.589	32880.11
749.928	33057.28
750.267	33048.47
750.605	32881.92
750.944	32670.85
751.283	32530.06
751.621	32649.38
751.96	32493.45
752.298	32436.51
752.636	32327.81
752.975	32092.33
753.313	32082.39
753.651	32304.98
753.989	32147.93
754.327	31921.94
754.666	31800.36
755.004	31881.49
755.342	31988.38
755.679	31765.79
756.017	31589.97
756.355	31719.24
756.693	31414.39
757.031	31644.66
757.368	31328.96
757.706	31255.97
758.044	31094.85
758.381	31162.64
758.719	31055.07
759.056	31016.88
759.394	30884.46
759.731	30621.19
760.068	30601.53
760.405	30611.47
760.743	30456.9
761.08	30515.2
761.417	30297.58
761.754	30200.41
762.091	30168.54
762.428	30008.1
762.765	29997.02
763.102	29994.08
763.438	29809
763.775	29632.06
764.112	29686.75
764.449	29578.5
764.785	29557.49
765.122	29116.82
765.458	29208.57
765.795	29126.99
766.131	29194.11
766.467	29004.73
766.804	28754.34
767.14	28712.99
767.476	28651.97
767.812	28526.33
768.148	28642.71
768.485	28356.84
768.821	28268.93
769.157	28256.73
769.492	28140.35
769.828	28029.84
770.164	27758.89
770.5	27828.04
770.836	27665.11
771.171	27444.09
771.507	27467.82
771.842	27325.91
772.178	27399.58
772.513	27169.53
772.849	27049.98
773.184	26975.86
773.519	27042.52
773.855	26778.12
774.19	26776.54
774.525	26655.87
774.86	26641.4
775.195	26602.08
775.53	26467.4
775.865	26165.26
776.2	26126.16
776.535	25896.34
776.87	25902.21
777.205	25808.66
777.539	25831.03
777.874	25724.14
778.209	25560.08
778.543	25485.28
778.878	25400.98
779.212	25325.73
779.547	25184.27
779.881	25189.46
780.215	25091.61
780.55	24986.31
780.884	24732.08
781.218	24739.08
781.552	24688.69
781.886	24583.15
782.22	24509.48
782.554	24383.16
782.888	24173.9
783.222	24099.1
783.556	24054.58
783.889	23952.21
784.223	23846.22
784.557	23846.45
784.89	23802.16
785.224	23555.16
785.557	23528.94
785.891	23578.66
786.224	23415.05
786.558	23436.52
786.891	23112.23
787.224	23085.57
787.557	23039.46
787.891	23037.2
788.224	22923.76
788.557	23053.48
788.89	22684.45
789.223	22728.74
789.556	22658.91
789.888	22561.74
790.221	22446.26
790.554	22366.49
790.887	22348.86
791.219	22193.16
791.552	22126.72
791.884	21941.87
792.217	22002.2
792.549	21904.13
792.882	21700.07
793.214	21681.08
793.546	21640.18
793.879	21567.64
794.211	21426.4
794.543	21468.88
794.875	21427.53
795.207	21373.97
795.539	21266.4
795.871	21225.73
796.203	21041.1
796.535	20963.81
796.867	20959.97
797.198	20816.02
797.53	20798.62
797.862	20630.94
798.193	20719.07
798.525	20643.14
798.856	20585.52
799.188	20401.12
799.519	20381.68
799.85	20296.71
800.182	20304.17
800.513	20189.14
800.844	20069.15
801.175	20174
801.506	20072.99
801.837	20042.93
802.168	19966.55
802.499	19927.23
802.83	19756.39
803.161	19680.68
803.491	19658.99
803.822	19702.83
804.153	19590.06
804.483	19365.89
804.814	19226.91
805.145	19305.78
805.475	19271.65
805.805	19204.09
806.136	19248.15
806.466	19247.25
806.796	19187.59
807.126	18949.18
807.457	18954.83
807.787	18927.48
808.117	18807.03
808.447	18767.49
808.777	18766.58
809.107	18679.81
809.436	18594.84
809.766	18602.75
810.096	18523.88
810.426	18481.62
810.755	18541.28
811.085	18452.24
811.414	18432.35
811.744	18205.02
812.073	18187.61
812.403	18185.81
812.732	18077.56
813.061	18049.09
813.39	17953.27
813.719	17950.79
814.049	18012.03
814.378	17947.85
814.707	17851.35
815.036	17861.52
815.365	17706.95
815.693	17601.19
816.022	17597.35
816.351	17594.41
816.68	17432.38
817.008	17602.55
817.337	17342.89
817.665	17302.44
817.994	17294.08
818.322	17402.32
818.651	17235.32
818.979	17228.09
819.307	17238.26
819.636	17207.98
819.964	17129.11
820.292	17065.61
820.62	17057.48
820.948	17034.88
821.276	17075.33
821.604	17041.88
821.932	17092.05
822.259	17044.59
822.587	17068.55
822.915	16976.12
823.243	16974.77
823.57	16970.02
823.898	17010.02
824.225	16920.08
824.553	16929.12
824.88	16894.32
825.207	17023.13
825.535	16982.45
825.862	16978.83
826.189	16884.15
826.516	17045.95
826.843	17029
827.17	17012.96
827.497	17026.52
827.824	17022.9
828.151	16934.09
828.478	16958.95
828.805	17008.66
829.131	16880.76
829.458	16904.94
829.785	16774.77
830.111	16775.45
830.438	16911.94
830.764	16803.24
831.09	16798.27
831.417	16814.09
831.743	16803.02
832.069	16917.14
832.395	16673.53
832.722	16807.76
833.048	16651.38
833.374	16777.26
833.7	16677.82
834.026	16730.48
834.351	16709.24
834.677	16636.47
835.003	16713.98
835.329	16627.2
835.654	16528.22
835.98	16586.98
836.306	16514.89
836.631	16440.99
836.956	16546.75
837.282	16565.96
837.607	16451.39
837.932	16378.85
838.258	16469.47
838.583	16402.58
838.908	16211.85
839.233	16335.46
839.558	16369.36
839.883	16228.12
840.208	16187.67
840.533	16243.49
840.858	16143.15
841.182	16103.15
841.507	16189.7
841.832	16093.43
842.156	16067.22
842.481	15963.72
842.805	15951.97
843.13	15842.37
843.454	15860.22
843.778	15798.98
844.103	15748.36
844.427	15731.63
844.751	15770.96
845.075	15693.44
845.399	15589.94
845.723	15551.3
846.047	15645.08
846.371	15422.26
846.695	15474.24
847.019	15370.97
847.343	15254.81
847.666	15179.56
847.99	15074.48
848.313	15043.74
848.637	15011.2
848.96	14974.59
849.284	14981.6
849.607	14892.79
849.931	14796.52
850.254	14690.98
850.577	14627.03
850.9	14494.38
851.223	14591.33
851.546	14372.8
851.869	14312.46
852.192	14453.7
852.515	14185.23
852.838	14219.81
853.161	14171.9
853.483	14152.47
853.806	14073.15
854.129	14060.04
854.451	13955.18
854.774	13902.53
855.096	13855.53
855.419	13832.48
855.741	13834.06
856.063	13706.83
856.385	13773.95
856.708	13660.73
857.03	13633.61
857.352	13641.29
857.674	13490.34
857.996	13486.04
858.318	13406.05
858.64	13441.3
858.961	13484.24
859.283	13311.13
859.605	13278.37
859.926	13407.63
860.248	13258.25
860.57	13225.71
860.891	13245.6
861.212	13177.35
861.534	13115.43
861.855	13110.01
862.176	13161.53
862.498	13043.57
862.819	13003.8
863.14	12971.03
863.461	13012.38
863.782	12858.72
864.103	12881.99
864.424	12819.85
864.745	12908.66
865.065	12826.17
865.386	12863.24
865.707	12765.61
866.027	12778.94
866.348	12764.48
866.668	12680.19
866.989	12702.34
867.309	12570.59
867.63	12595.22
867.95	12606.52
868.27	12502.34
868.59	12525.84
868.91	12429.57
869.23	12452.17
869.55	12391.61
869.87	12454.88
870.19	12412.17
870.51	12303.93
870.83	12385.28
871.15	12232.97
871.469	12306.64
871.789	12363.81
872.109	12334.89
872.428	12270.03
872.748	12197.94
873.067	12185.29
873.386	12177.6
873.706	12183.71
874.025	12103.93
874.344	12080.66
874.663	12123.59
874.982	12071.62
875.301	12140.32
875.62	11968.34
875.939	12020.77
876.258	11990.72
876.577	11955.91
876.896	11978.51
877.214	11929.47
877.533	11936.48
877.852	11869.59
878.17	11807.9
878.489	11797.73
878.807	11852.64
879.125	11853.09
879.444	11836.6
879.762	11795.92
880.08	11804.51
880.398	11724.28
880.716	11712.53
881.034	11715.47
881.352	11773.09
881.67	11594.34
881.988	11656.49
882.306	11587.56
882.624	11615.81
882.941	11509.6
883.259	11479.09
883.577	11398.41
883.894	11483.38
884.212	11451.75
884.529	11410.84
884.846	11438.87
885.164	11425.31
885.481	11287.91
885.798	11358.64
886.115	11293.33
886.432	11270.28
886.75	11178.31
887.067	11185.09
887.383	11233.45
887.7	11209.04
888.017	11164.52
888.334	11203.84
888.651	11120
888.967	11079.33
889.284	11029.61
889.6	10946
889.917	10965.66
890.233	10921.37
890.55	10831.88
890.866	10918.2
891.182	10850.18
891.498	10843.4
891.815	10817.64
892.131	10692.9
892.447	10725.21
892.763	10610.64
893.079	10543.97
893.395	10603.63
893.71	10473.92
894.026	10568.61
894.342	10490.42
894.657	10390.31
894.973	10423.07
895.289	10419.46
895.604	10338.33
895.92	10333.13
896.235	10253.13
896.55	10204.1
896.865	10213.36
897.181	10209.75
897.496	10258.11
897.811	10156.19
898.126	10134.27
898.441	10055.63
898.756	10040.26
899.071	9929.3
899.386	10007.27
899.7	9905.35
900.015	9864.44
900.33	9805.46
900.644	9779.93
900.959	9764.56
901.273	9738.35
901.588	9635.52
901.902	9673.04
902.216	9663.55
902.531	9598.46
902.845	9549.2
903.159	9496.77
903.473	9522.98
903.787	9503.1
904.101	9437.11
904.415	9458.13
904.729	9351.46
905.042	9362.99
905.356	9280.28
905.67	9293.61
905.984	9280.96
906.297	9190.79
906.611	9200.51
906.924	9114.18
907.237	9100.62
907.551	9059.04
907.864	8950.34
908.177	8970.46
908.491	8962.32
908.804	8881.42
909.117	8883.23
909.43	8846.39
909.743	8764.59
910.056	8868.09
910.368	8790.8
910.681	8696.34
910.994	8646.62
911.307	8621.99
911.619	8559.17
911.932	8544.93
912.244	8489.11
912.557	8568.88
912.869	8423.13
913.181	8381.77
913.494	8405.73
913.806	8289.57
914.118	8344.94
914.43	8299.51
914.742	8280.76
915.054	8213.19
915.366	8115.56
915.678	8141.55
915.99	8116.92
916.302	8027.2
916.613	7993.76
916.925	7993.76
917.236	7997.15
917.548	7920.77
917.859	7963.25
918.171	7859.52
918.482	7857.27
918.794	7779.75
919.105	7769.81
919.416	7679.64
919.727	7724.39
920.038	7662.47
920.349	7630.15
920.66	7608.23
920.971	7521.91
921.282	7573.66
921.593	7501.57
921.903	7452.3
922.214	7438.07
922.525	7376.15
922.835	7368.46
923.146	7303.61
923.456	7316.49
923.767	7346.09
924.077	7271.97
924.387	7269.26
924.697	7171.18
925.008	7170.28
925.318	7216.83
925.628	7091.41
925.938	7062.26
926.248	6990.17
926.558	7017.97
926.867	6975.48
927.177	6903.62
927.487	6944.52
927.796	6846.44
928.106	6864.07
928.416	6859.1
928.725	6860.46
929.034	6767.8
929.344	6741.81
929.653	6717.41
929.962	6711.08
930.271	6634.92
930.581	6579.11
930.89	6587.92
931.199	6544.76
931.508	6531.42
931.817	6472.67
932.125	6484.42
932.434	6432.22
932.743	6421.6
933.051	6379.79
933.36	6400.13
933.669	6363.75
933.977	6363.97
934.286	6303.86
934.594	6300.24
934.902	6218.89
935.21	6190.19
935.519	6183.86
935.827	6224.99
936.135	6094.15
936.443	6053.92
936.751	6053.47
937.059	6057.99
937.367	6014.38
937.674	5971.21
937.982	5953.59
938.29	5978.44
938.597	5913.14
938.905	5864.55
939.213	5826.58
939.52	5803.76
939.827	5802.18
940.135	5780.71
940.442	5697.1
940.749	5706.14
941.056	5681.28
941.363	5667.04
941.67	5684.44
941.977	5679.24
942.284	5575.29
942.591	5576.65
942.898	5563.54
943.205	5471.79
943.511	5497.1
943.818	5541.17
944.125	5453.71
944.431	5452.13
944.738	5479.25
945.044	5429.31
945.35	5371
945.657	5359.93
945.963	5367.16
946.269	5279.03
946.575	5297.11
946.881	5248.07
947.187	5249.2
947.493	5201.06
947.799	5189.99
948.105	5185.25
948.41	5172.36
948.716	5146.83
949.022	5109.99
949.327	5106.15
949.633	5054.85
949.938	5028.19
950.244	5052.59
950.549	5012.14
950.854	4973.05
951.16	4991.8
951.465	4930.11
951.77	4901.18
952.075	4881.52
952.38	4895.76
952.685	4854.41
952.99	4798.81
953.294	4803.11
953.599	4796.1
953.904	4769.66
954.209	4764.47
954.513	4711.59
954.818	4714.75
955.122	4684.92
955.426	4652.38
955.731	4664.13
956.035	4629.78
956.339	4594.98
956.643	4573.96
956.948	4537.58
957.252	4537.58
957.556	4523.34
957.86	4486.05
958.163	4480.18
958.467	4461.42
958.771	4449.22
959.075	4440.63
959.378	4359.05
959.682	4375.55
959.985	4388.66
960.289	4318.6
960.592	4315.21
960.896	4289
961.199	4284.7
961.502	4256.46
961.805	4267.98
962.108	4229.56
962.411	4197.93
962.714	4201.99
963.017	4202.45
963.32	4180.53
963.623	4177.59
963.926	4171.26
964.228	4084.48
964.531	4101.66
964.833	4041.55
965.136	3991.83
965.438	4060.75
965.741	4065.73
966.043	4020.98
966.345	3998.16
966.648	3980.98
966.95	3948.22
967.252	3960.87
967.554	3967.2
967.856	3923.58
968.158	3878.39
968.46	3900.76
968.761	3860.76
969.063	3812.17
969.365	3764.94
969.666	3794.32
969.968	3771.5
970.269	3733.76
970.571	3739.18
970.872	3746.64
971.174	3709.35
971.475	3709.35
971.776	3691.27
972.077	3696.47
972.378	3678.84
972.679	3672.97
972.98	3650.82
973.281	3592.52
973.582	3559.75
973.883	3581.67
974.183	3578.06
974.484	3538.73
974.785	3509.36
975.085	3539.41
975.386	3537.6
975.686	3497.61
975.986	3493.54
976.287	3453.54
976.587	3443.14
976.887	3420.09
977.187	3446.76
977.487	3383.48
977.787	3362.24
978.087	3352.3
978.387	3365.18
978.687	3324.95
978.987	3321.34
979.286	3291.51
979.586	3258.29
979.885	3265.97
980.185	3258.97
980.484	3224.39
980.784	3218.97
981.083	3192.53
981.382	3205.86
981.682	3169.93
981.981	3146.88
982.28	3134.9
982.579	3127.45
982.878	3140.78
983.177	3128.35
983.475	3103.49
983.774	3063.94
984.073	3098.75
984.372	3039.54
984.67	3044.51
984.969	3027.11
985.267	3008.13
985.566	2997.28
985.864	3008.81
986.162	2942.59
986.461	2927.68
986.759	2978.98
987.057	2929.71
987.355	2914.34
987.653	2892.2
987.951	2882.25
988.249	2830.96
988.547	2857.4
988.844	2835.7
989.142	2846.55
989.44	2825.08
989.737	2825.08
990.035	2807.23
990.332	2801.35
990.63	2816.49
990.927	2755.03
991.224	2700.56
991.521	2745.08
991.819	2702.15
992.116	2744.63
992.413	2656.5
992.71	2668.02
993.006	2644.07
993.303	2651.3
993.6	2647.01
993.897	2653.33
994.193	2626.89
994.49	2621.92
994.787	2600.91
995.083	2608.82
995.379	2567.69
995.676	2557.52
995.972	2550.29
996.268	2521.36
996.565	2508.48
996.861	2497.41
997.157	2492.21
997.453	2447.69
997.749	2467.8
998.044	2459.67
998.34	2448.37
998.636	2421.48
998.932	2414.47
999.227	2390.74
999.523	2360.91
999.818	2373.12
1000.114	2363.62
1000.409	2340.57
1000.704	2343.96
1001	2341.48
1001.295	2314.13
1001.59	2306
1001.885	2305.09
1002.18	2254.02
1002.475	2274.14
1002.77	2280.46
1003.065	2232.1
1003.359	2202.95
1003.654	2199.11
1003.949	2197.75
1004.243	2162.5
1004.538	2221.48
1004.832	2137.19
1005.127	2182.39
1005.421	2147.81
1005.715	2128.6
1006.009	2121.6
1006.304	2097.42
1006.598	2092.67
1006.892	2097.64
1007.186	2088.83
1007.48	2057.87
1007.773	2026.46
1008.067	2032.56
1008.361	2049.96
1008.655	2015.38
1008.948	2005.22
1009.242	1999.34
1009.535	1971.32
1009.829	1959.57
1010.122	1954.37
1010.415	1949.85
1010.708	1924.31
1011.001	1904.43
1011.295	1864.43
1011.588	1885.67
1011.881	1879.8
1012.173	1869.85
1012.466	1846.58
1012.759	1837.54
1013.052	1866.46
1013.344	1840.47
1013.637	1830.98
1013.93	1779.46
1014.222	1794.6
1014.514	1785.11
1014.807	1778.78
1015.099	1759.35
1015.391	1757.09
1015.683	1739.23
1015.976	1746.69
1016.268	1733.81
1016.56	1724.55
1016.851	1731.32
1017.143	1698.11
1017.435	1668.95
1017.727	1680.03
1018.018	1641.38
1018.31	1640.48
1018.602	1650.2
1018.893	1624.66
1019.185	1594.83
1019.476	1590.31
1019.767	1597.54
1020.058	1581.27
1020.35	1571.78
1020.641	1590.76
1020.932	1575.4
1021.223	1542.85
1021.514	1563.42
1021.804	1535.85
1022.095	1505.79
1022.386	1511.9
1022.677	1494.49
1022.967	1489.97
1023.258	1502.86
1023.548	1443.2
1023.839	1482.97
1024.129	1449.75
1024.419	1433.03
1024.709	1442.29
1025	1402.97
1025.29	1396.19
1025.58	1405.23
1025.87	1379.7
1026.16	1371.33
1026.449	1365.01
1026.739	1379.02
1027.029	1383.54
1027.319	1351.9
1027.608	1372.69
1027.898	1342.63
1028.187	1320.94
1028.477	1321.62
1028.766	1320.71
1029.055	1320.49
1029.344	1273.26
1029.634	1302.18
1029.923	1273.48
1030.212	1251.34
1030.501	1240.04
1030.79	1248.17
1031.078	1236.65
1031.367	1240.04
1031.656	1212.47
1031.945	1210.89
1032.233	1206.59
1032.522	1202.75
1032.81	1168.85
1033.099	1183.54
1033.387	1174.73
1033.675	1191.45
1033.963	1153.94
1034.251	1133.83
1034.54	1138.35
1034.828	1134.5
1035.116	1152.81
1035.403	1106.03
1035.691	1086.6
1035.979	1126.82
1036.267	1122.75
1036.554	1103.09
1036.842	1095.41
1037.129	1088.4
1037.417	1066.03
1037.704	1065.81
1037.992	1061.29
1038.279	1044.11
1038.566	1045.01
1038.853	1045.01
1039.14	1045.01
