Data from breadboard_black_back_FLMS001491_00007.txt Node
Date: Wed Feb 08 10:49:52 GMT 2017
User: dcchb
Spectrometer: FLMS00149
Trigger mode: 0
Integration Time (sec): 2.000000E-2
Scans to average: 10
Electric dark correction enabled: true
Nonlinearity correction enabled: false
Boxcar width: 0
XAxis mode: Wavelengths
Number of Pixels in Spectrum: 2048
>>>>>Begin Spectral Data<<<<<
341.393	-19.28
341.776	-19.28
342.16	-19.28
342.543	-71.26
342.927	-57.02
343.31	-45.27
343.693	-57.24
344.077	-81.65
344.46	-66.74
344.843	-44.82
345.226	-35.55
345.61	-44.59
345.993	-1.65
346.376	-3.01
346.759	18.69
347.142	29.31
347.525	26.37
347.908	51.45
348.291	62.75
348.674	84.67
349.057	107.27
349.44	101.17
349.823	142.07
350.206	151.34
350.588	223.43
350.971	206.48
351.354	234.73
351.737	233.37
352.119	242.18
352.502	269.53
352.884	280.83
353.267	301.62
353.65	289.64
354.032	313.59
354.414	313.82
354.797	311.79
355.179	338.9
355.562	329.64
355.944	344.78
356.326	328.73
356.709	353.82
357.091	359.69
357.473	353.59
357.855	369.19
358.238	366.47
358.62	335.97
359.002	363.08
359.384	355.85
359.766	350.88
360.148	339.36
360.53	340.26
360.912	345.68
361.294	334.84
361.676	355.4
362.057	349.98
362.439	340.49
362.821	355.17
363.203	327.15
363.584	357.43
363.966	342.97
364.348	354.72
364.729	356.3
365.111	353.59
365.493	332.12
365.874	322.18
366.256	327.15
366.637	338.45
367.019	332.58
367.4	328.73
367.781	330.99
368.163	340.26
368.544	325.12
368.925	331.45
369.306	355.4
369.688	336.19
370.069	335.06
370.45	321.95
370.831	342.75
371.212	353.59
371.593	328.28
371.974	368.51
372.355	343.42
372.736	337.55
373.117	367.15
373.498	353.59
373.879	348.39
374.26	369.41
374.641	347.26
375.021	328.51
375.402	353.37
375.783	377.55
376.163	370.32
376.544	361.05
376.925	361.5
377.305	385.46
377.686	356.76
378.066	365.34
378.447	370.54
378.827	374.61
379.208	403.31
379.588	395.4
379.968	379.13
380.349	385.46
380.729	382.07
381.109	399.24
381.489	396.76
381.87	383.87
382.25	386.36
382.63	426.58
383.01	412.12
383.39	423.42
383.77	415.51
384.15	396.76
384.53	410.54
384.91	410.77
385.29	418.68
385.67	420.48
386.049	415.06
386.429	427.26
386.809	446.92
387.189	445.79
387.568	436.53
387.948	441.5
388.328	449.64
388.707	442.18
389.087	450.31
389.466	456.64
389.846	471.33
390.225	457.77
390.605	443.99
390.984	474.95
391.363	482.4
391.743	479.92
392.122	484.66
392.501	507.94
392.881	502.74
393.26	496.41
393.639	482.85
394.018	513.81
394.397	495.51
394.776	531.89
395.155	531.21
395.534	519.24
395.913	533.93
396.292	529.18
396.671	525.34
397.05	535.73
397.429	531.67
397.808	530.31
398.186	555.17
398.565	528.5
398.944	553.59
399.323	569.86
399.701	577.32
400.08	558.78
400.458	575.06
400.837	561.95
401.215	590.87
401.594	587.94
401.972	587.71
402.351	617.54
402.729	597.43
403.107	611.66
403.486	598.56
403.864	620.7
404.242	598.56
404.62	646.47
404.999	649.63
405.377	665.22
405.755	647.37
406.133	672.45
406.511	679.69
406.889	653.02
407.267	684.43
407.645	682.17
408.023	669.74
408.401	680.82
408.779	730.53
409.156	700.02
409.534	711.78
409.912	716.97
410.29	753.81
410.667	763.75
411.045	746.58
411.422	755.62
411.8	736.18
412.178	762.17
412.555	785.45
412.933	805.78
413.31	792.22
413.687	808.72
414.065	833.81
414.442	826.35
414.819	859.12
415.197	849.4
415.574	855.73
415.951	855.27
416.328	856.4
416.705	870.41
417.082	877.65
417.46	873.58
417.837	918.55
418.214	872.22
418.591	918.32
418.967	954.03
419.344	930.3
419.721	940.92
420.098	927.36
420.475	972.33
420.852	980.69
421.228	975.72
421.605	979.56
421.982	1016.17
422.358	1009.17
422.735	1015.72
423.111	1033.8
423.488	1031.99
423.864	1052.11
424.241	1043.74
424.617	1055.95
424.994	1069.05
425.37	1084.42
425.746	1065.21
426.123	1122.39
426.499	1127.58
426.875	1117.64
427.251	1162.61
427.627	1178.43
428.003	1184.08
428.379	1189.95
428.756	1229.73
429.132	1234.25
429.507	1220.69
429.883	1249.16
430.259	1271.53
430.635	1286.68
431.011	1298.88
431.387	1339.56
431.763	1334.36
432.138	1322.15
432.514	1339.56
432.89	1396.05
433.265	1390.4
433.641	1415.49
434.016	1411.64
434.392	1437.18
434.767	1470.85
435.143	1440.8
435.518	1483.73
435.894	1503.84
436.269	1504.97
436.644	1511.08
437.02	1558.98
437.395	1560.57
437.77	1579.55
438.145	1603.96
438.52	1614.12
438.895	1623.39
439.271	1640.11
439.646	1647.57
440.021	1680.56
440.395	1690.05
440.77	1675.82
441.145	1706.33
441.52	1723.27
441.895	1724.63
442.27	1766.44
442.645	1755.14
443.019	1753.33
443.394	1791.75
443.769	1780.22
444.143	1774.8
444.518	1810.05
444.892	1817.96
445.267	1831.29
445.641	1815.47
446.016	1859.09
446.39	1881.69
446.764	1892.99
447.139	1882.82
447.513	1948.8
447.887	1938.41
448.262	1919.2
448.636	1949.93
449.01	1963.95
449.384	2001.23
449.758	2022.7
450.132	2037.39
450.506	2036.03
450.88	2036.26
451.254	2047.11
451.628	2092.98
452.002	2093.21
452.376	2096.82
452.75	2146.54
453.123	2158.74
453.497	2191.96
453.871	2230.83
454.244	2248.01
454.618	2291.62
454.992	2311.51
455.365	2333.65
455.739	2361.68
456.112	2410.04
456.486	2391.5
456.859	2437.61
457.232	2490.94
457.606	2474.67
457.979	2500.2
458.352	2531.16
458.725	2566.64
459.099	2591.05
459.472	2670.37
459.845	2718.95
460.218	2718.05
460.591	2718.5
460.964	2733.19
461.337	2841.44
461.71	2857.48
462.083	2920.3
462.456	2920.3
462.829	2931.15
463.201	2938.38
463.574	2989.46
463.947	3038.95
464.32	3118.04
464.692	3127.53
465.065	3139.28
465.438	3184.48
465.81	3255.44
466.183	3276.45
466.555	3320.07
466.928	3328.88
467.3	3366.62
467.672	3453.85
468.045	3483.23
468.417	3533.85
468.789	3511.48
469.161	3577.01
469.534	3674.41
469.906	3732.03
470.278	3780.17
470.65	3776.78
471.022	3836.21
471.394	3959.15
471.766	3985.36
472.138	4033.5
472.51	4135.19
472.882	4134.74
473.253	4179.25
473.625	4245.24
473.997	4356.43
474.369	4366.14
474.74	4436.87
475.112	4508.06
475.484	4566.81
475.855	4679.58
476.227	4743.99
476.598	4836.41
476.97	4899.91
477.341	4999.8
477.713	5047.48
478.084	5080.93
478.455	5200.47
478.827	5293.58
479.198	5444.08
479.569	5407.24
479.94	5558.43
480.311	5621.7
480.682	5786.22
481.053	5893.79
481.424	5949.83
481.795	6065.08
482.166	6111.18
482.537	6211.07
482.908	6270.95
483.279	6391.85
483.65	6477.5
484.021	6654.22
484.391	6746.87
484.762	6818.06
485.133	6839.75
485.503	6924.95
485.874	7117.03
486.244	7091.04
486.615	7290.59
486.985	7359.06
487.356	7501.43
487.726	7587.3
488.097	7719.5
488.467	7795.88
488.837	7948.87
489.207	8039.04
489.578	8159.26
489.948	8161.52
490.318	8362.65
490.688	8391.12
491.058	8520.16
491.428	8589.99
491.798	8677.44
492.168	8827.27
492.538	8957.21
492.908	8991.56
493.278	9140.71
493.648	9142.74
494.017	9268.16
494.387	9332.11
494.757	9446.01
495.126	9517.65
495.496	9529.62
495.866	9602.16
496.235	9765.32
496.605	9846.68
496.974	9926.9
497.344	9982.49
497.713	10089.16
498.082	10163.05
498.452	10286.21
498.821	10310.62
499.19	10361.92
499.559	10441.69
499.928	10528.69
500.298	10610.95
500.667	10791.74
501.036	10745.41
501.405	10854.56
501.774	10843.26
502.143	10925.74
502.512	11104.5
502.88	11172.52
503.249	11118.73
503.618	11206.87
503.987	11339.52
504.356	11412.51
504.724	11468.33
505.093	11500.87
505.462	11555.11
505.83	11687.53
506.199	11804.14
506.567	11957.13
506.936	11882.1
507.304	12119.84
507.672	12140.18
508.041	12208.2
508.409	12329.55
508.777	12387.17
509.145	12463.1
509.514	12459.71
509.882	12633.27
510.25	12667.62
510.618	12808.18
510.986	12851.34
511.354	12944.67
511.722	13071
512.09	13179.92
512.458	13272.8
512.826	13282.07
513.193	13418.79
513.561	13433.93
513.929	13595.05
514.297	13689.96
514.664	13787.36
515.032	13815.84
515.4	13964.53
515.767	14090.86
516.135	14137.64
516.502	14106.68
516.869	14458.53
517.237	14493.11
517.604	14489.49
517.972	14593.22
518.339	14771.29
518.706	14801.35
519.073	14858.52
519.44	15004.73
519.808	15181.68
520.175	15239.3
520.542	15405.17
520.909	15491.5
521.276	15447.43
521.643	15668.9
522.009	15706.41
522.376	15933.97
522.743	16060.52
523.11	16237.92
523.477	16283.57
523.843	16469.33
524.21	16611.92
524.577	16762.2
524.943	16797
525.31	16953.38
525.676	17110.44
526.043	17229.76
526.409	17234.05
526.776	17469.75
527.142	17487.38
527.508	17783.64
527.874	17777.77
528.241	17855.05
528.607	18013.47
528.973	18260.47
529.339	18151.09
529.705	18366.68
530.071	18585.43
530.437	18644.64
530.803	18735.48
531.169	18817.51
531.535	18937.51
531.901	18999.43
532.267	19023.84
532.632	19163.72
532.998	19219.76
533.364	19356.93
533.73	19335.24
534.095	19631.73
534.461	19626.08
534.826	19734.1
535.192	19813.65
535.557	20073.98
535.923	19996.47
536.288	20090.47
536.653	20219.74
537.019	20198.27
537.384	20265.16
537.749	20451.6
538.114	20485.27
538.479	20553.06
538.845	20661.53
539.21	20603.91
539.575	20680.52
539.94	20825.6
540.305	21007.96
540.67	20805.48
541.034	21016.1
541.399	21135.19
541.764	21148.07
542.129	21138.58
542.494	21161.18
542.858	21438.24
543.223	21390.33
543.587	21653.15
543.952	21637.55
544.316	21665.12
544.681	21723.88
545.045	21800.26
545.41	21916.87
545.774	21990.76
546.138	21877.77
546.503	22036.41
546.867	22122.51
547.231	22379.23
547.595	22460.81
547.959	22437.31
548.324	22492.45
548.688	22531.99
549.052	22673.01
549.416	22565.44
549.779	22721.59
550.143	22767.69
550.507	22985.31
550.871	22983.28
551.235	23018.53
551.599	23336.49
551.962	23283.84
552.326	23370.61
552.689	23562.93
553.053	23547.33
553.417	23493.1
553.78	23918.17
554.143	23754.11
554.507	23842.24
554.87	24012.63
555.234	24199.29
555.597	24011.05
555.96	24230.48
556.323	24237.71
556.686	24283.81
557.05	24645.84
557.413	24511.6
557.776	24695.55
558.139	24885.38
558.502	24905.04
558.865	24960.18
559.228	25214.18
559.59	25309.09
559.953	25250.34
560.316	25566.26
560.679	25640.39
561.041	25724.45
561.404	25835.63
561.767	26029.98
562.129	25966.03
562.492	26325.34
562.854	26076.98
563.217	26216.19
563.579	26462.74
563.941	26522.62
564.304	26667.7
564.666	26809.39
565.028	26910.41
565.39	27001.25
565.753	27086.67
566.115	27207.8
566.477	27325.99
566.839	27476.5
567.201	27580.45
567.563	27565.31
567.925	27923.26
568.287	27773.21
568.648	27866.77
569.01	28099.53
569.372	28238.28
569.734	28094.56
570.095	28325.29
570.457	28485.28
570.819	28647.31
571.18	28607.76
571.542	28784.26
571.903	28744.48
572.265	28919.39
572.626	28960.98
572.987	28913.97
573.349	29048.21
573.71	29285.71
574.071	29353.28
574.432	29418.14
574.794	29564.58
575.155	29532.03
575.516	29496.78
575.877	29769.32
576.238	29858.35
576.599	29846.83
576.96	29873.04
577.32	29936.77
577.681	30019.03
578.042	29979.03
578.403	30147.61
578.763	30054.28
579.124	30117.1
579.485	30217.21
579.845	30375.63
580.206	30364.55
580.566	30315.06
580.927	30326.82
581.287	30594.83
581.648	30301.28
582.008	30565.45
582.368	30454.5
582.728	30519.35
583.089	30465.79
583.449	30487.72
583.809	30536.98
584.169	30580.82
584.529	30536.3
584.889	30851.77
585.249	30584.21
585.609	30599.35
585.969	30716.64
586.329	30584.21
586.688	30740.36
587.048	30764.54
587.408	30525.23
587.768	30623.3
588.127	30610.42
588.487	30525.91
588.846	30798.22
589.206	30709.86
589.565	30631.21
589.925	30729.52
590.284	30619.01
590.643	30704.43
591.003	30892.45
591.362	30974.71
591.721	30830.76
592.08	30865.33
592.44	30768.16
592.799	30906.46
593.158	30830.53
593.517	30846.8
593.876	31016.06
594.235	30776.97
594.593	30878.21
594.952	30971.77
595.311	30955.73
595.67	30980.36
596.029	30993.46
596.387	31270.75
596.746	31200.01
597.104	31057.64
597.463	31138.55
597.822	31057.19
598.18	31144.87
598.538	31082.5
598.897	31289.73
599.255	30992.11
599.613	31440.23
599.972	31244.76
600.33	31237.98
600.688	31166.79
601.046	31308.94
601.404	31480.23
601.762	31412.66
602.12	31470.51
602.478	31459.67
602.836	31494.69
603.194	31301.48
603.552	31468.03
603.91	31495.15
604.268	31629.38
604.625	31498.31
604.983	31590.51
605.341	31412.21
605.698	31539.89
606.056	31650.17
606.413	31776.72
606.771	31756.61
607.128	31912.31
607.485	31748.47
607.843	31686.55
608.2	31914.12
608.557	31994.12
608.914	31808.36
609.272	31997.73
609.629	32226.88
609.986	32114.57
610.343	32085.64
610.7	32343.26
611.057	32245.86
611.414	32139.88
611.771	32209.7
612.127	32318.4
612.484	32273.88
612.841	32322.7
613.198	32251.96
613.554	32303.26
613.911	32478.62
614.267	32561.56
614.624	32524.5
614.98	32535.57
615.337	32678.17
615.693	32718.17
616.05	32630.94
616.406	32892.85
616.762	32678.62
617.118	32620.99
617.475	32611.95
617.831	32712.52
618.187	32815.11
618.543	32806.07
618.899	33004.03
619.255	32954.09
619.611	32985.5
619.967	32986.41
620.323	32987.31
620.678	32997.03
621.034	32983.92
621.39	32898.05
621.746	32844.72
622.101	33283.57
622.457	32946.63
622.812	33024.15
623.168	33124.93
623.523	33168.55
623.879	33124.48
624.234	33038.16
624.589	33086.74
624.945	33136.23
625.3	33108.89
625.655	33157.02
626.01	32991.38
626.365	33095.78
626.72	33109.12
627.075	33099.85
627.43	33129.45
627.785	32959.51
628.14	33001.32
628.495	32991.83
628.85	32966.97
629.205	32911.38
629.559	33072.51
629.914	32967.65
630.269	32911.38
630.623	32878.61
630.978	32899.86
631.332	32997.93
631.687	32983.92
632.041	32812.17
632.396	32758.84
632.75	32726.3
633.104	32710.26
633.459	32604.04
633.813	32565.63
634.167	32669.8
634.521	32568.56
634.875	32668
635.229	32472.52
635.583	32418.96
635.937	32491.28
636.291	32362.24
636.645	32405.18
636.999	32301.45
637.352	32371.73
637.706	32149.82
638.06	32338.97
638.413	32192.53
638.767	32142.81
639.121	32229.82
639.474	32045.64
639.828	31967
640.181	32166.32
640.534	32046.09
640.888	31971.74
641.241	31754.8
641.594	31830.73
641.947	31939.2
642.301	31739.89
642.654	31826.66
643.007	31838.41
643.36	31647.91
643.713	31659.21
644.066	31724.74
644.419	31653.11
644.771	31530.85
645.124	31154.36
645.477	31064.88
645.83	30852.45
646.182	30645.68
646.535	30611.78
646.888	30620.82
647.24	30531.1
647.593	30630.99
647.945	30507.38
648.298	30352.13
648.65	30294.05
649.002	30252.92
649.355	30379.47
649.707	30419.47
650.059	30434.84
650.411	30888.61
650.763	30716.86
651.115	31119.79
651.467	30883.86
651.819	30980.58
652.171	30981.94
652.523	30838.89
652.875	30928.83
653.227	30741.04
653.578	30836.63
653.93	30813.36
654.282	30683.19
654.633	30609.07
654.985	30661.5
655.337	30693.59
655.688	30692.46
656.039	30596.64
656.391	30393.03
656.742	30583.98
657.094	30620.37
657.445	30819.68
657.796	30545.34
658.147	30557.54
658.498	30425.8
658.849	30511.44
659.2	30465.79
659.551	30423.76
659.902	30543.31
660.253	30469.41
660.604	30412.46
660.955	30329.53
661.306	30541.5
661.656	30357.78
662.007	30373.82
662.358	30297.66
662.708	30287.04
663.059	30315.97
663.409	30131.79
663.76	30384.89
664.11	30193.49
664.461	30331.79
664.811	30223.54
665.161	30223.32
665.511	30194.62
665.862	30177.22
666.212	30171.11
666.562	30230.55
666.912	30121.17
667.262	30035.52
667.612	30020.61
667.962	30102.64
668.312	30127.95
668.662	30107.61
669.011	30076.65
669.361	29989.2
669.711	30017.22
670.06	29971.34
670.41	29978.12
670.76	29855.87
671.109	29958.92
671.459	29966.37
671.808	29949.88
672.157	29916.66
672.507	29716.66
672.856	29726.61
673.205	29937
673.554	29856.55
673.904	29666.27
674.253	29800.5
674.602	29704.91
674.951	29390.34
675.3	29204.81
675.649	29719.83
675.998	29626.04
676.346	29607.51
676.695	29601.18
677.044	29567.51
677.393	29555.31
677.741	29628.08
678.09	29342.66
678.438	29293.62
678.787	29497.23
679.135	29478.48
679.484	29286.39
679.832	29416.78
680.181	29165.94
680.529	29311.25
680.877	29187.86
681.225	29168.65
681.573	29249.1
681.922	29142.21
682.27	29084.59
682.618	29134.76
682.966	28885.5
683.314	29020.18
683.661	28961.65
684.009	28824.48
684.357	28693.19
684.705	28598.27
685.053	28650.25
685.4	28683.24
685.748	28420.2
686.095	28438.96
686.443	28369.13
686.79	28320.31
687.138	28410.48
687.485	28419.97
687.832	28197.83
688.18	28279.41
688.527	28121
688.874	28057.04
689.221	28094.33
689.568	28086.87
689.915	27925.07
690.262	27998.74
690.609	27911.06
690.956	27717.84
691.303	27838.29
691.65	27623.16
691.997	27442.6
692.344	27491.64
692.69	27444.41
693.037	27360.11
693.383	27233.11
693.73	27253.22
694.077	27072.21
694.423	27157.18
694.769	26953.34
695.116	26963.97
695.462	26912.22
695.808	26845.33
696.155	26821.6
696.501	26609.17
696.847	26710.41
697.193	26412.12
697.539	26467.93
697.885	26328.95
698.231	26343.64
698.577	26206.47
698.923	26288.5
699.269	26085.12
699.614	25964.9
699.96	25888.06
700.306	25947.04
700.651	25837.67
700.997	25695.07
701.342	25670.21
701.688	25698.24
702.033	25660.27
702.379	25524.46
702.724	25464.8
703.069	25476.32
703.415	25260.73
703.76	25318.59
704.105	25226.16
704.45	25159.72
704.795	25079.95
705.14	24829.33
705.485	24937.13
705.83	24855.55
706.175	24875.43
706.52	24847.86
706.865	24652.39
707.209	24606.51
707.554	24650.58
707.899	24579.85
708.243	24617.81
708.588	24425.05
708.932	24287.43
709.277	24310.02
709.621	24312.51
709.966	24100.76
710.31	24231.38
710.654	23969.02
710.998	24083.59
711.342	24059.64
711.687	23865.74
712.031	23793.43
712.375	23843.82
712.719	23884.5
713.063	23837.27
713.407	23944.84
713.75	23636.82
714.094	23634.79
714.438	23565.64
714.782	23464.62
715.125	23366.77
715.469	23457.17
715.812	23238.64
716.156	23140.56
716.499	23174.01
716.843	23304.18
717.186	23070.51
717.53	23148.25
717.873	23135.14
718.216	23084.07
718.559	22958.87
718.902	22814.24
719.246	22923.39
719.589	22811.08
719.932	22751.65
720.275	22771.08
720.617	22688.15
720.96	22753
721.303	22754.13
721.646	22780.35
721.989	22531.31
722.331	22599.56
722.674	22568.83
723.016	22478.43
723.359	22536.29
723.701	22470.98
724.044	22265.78
724.386	22175.62
724.729	22379
725.071	22234.82
725.413	22078.9
725.755	22197.76
726.097	22115.05
726.439	21942.4
726.782	22060.59
727.124	22132.23
727.465	21945.79
727.807	21972.23
728.149	21876.87
728.491	21861.05
728.833	21893.37
729.175	21815.85
729.516	21755.97
729.858	21718.68
730.199	21776.98
730.541	21663.99
730.882	21614.73
731.224	21656.54
731.565	21496.09
731.906	21474.17
732.248	21565.69
732.589	21436.43
732.93	21385.58
733.271	21341.74
733.612	21501.74
733.953	21371.57
734.294	21296.32
734.635	21296.09
734.976	21283.21
735.317	21049.55
735.658	21142.88
735.999	21134.06
736.339	21125.02
736.68	21177.68
737.021	21041.41
737.361	20917.12
737.702	21091.35
738.042	20977.23
738.383	20913.73
738.723	20984.91
739.063	20849.78
739.404	20789.44
739.744	20640.29
740.084	20650.69
740.424	20784.02
740.764	20692.94
741.104	20692.04
741.444	20626.28
741.784	20539.28
742.124	20654.75
742.464	20488.2
742.804	20472.61
743.143	20492.5
743.483	20482.1
743.823	20363.24
744.162	20304.03
744.502	20409.79
744.841	20281.43
745.181	20465.83
745.52	20269.68
745.86	20255.44
746.199	20119.85
746.538	20215.9
746.877	20162.11
747.216	20186.74
747.556	20147.42
747.895	20102.9
748.234	20002.34
748.573	19932.74
748.911	19930.7
749.25	19817.71
749.589	19815.23
749.928	19897.49
750.267	19878.5
750.605	19749.47
750.944	19696.36
751.283	19630.6
751.621	19668.11
751.96	19562.8
752.298	19600.77
752.636	19562.8
752.975	19361.68
753.313	19393.54
753.651	19393.09
753.989	19317.39
754.327	19336.14
754.666	19148.8
755.004	19159.88
755.342	19201.68
755.679	19139.77
756.017	18977.96
756.355	19109.03
756.693	19008.02
757.031	18963.5
757.368	18864.29
757.706	18810.96
758.044	18821.36
758.381	18746.56
758.719	18836.72
759.056	18718.08
759.394	18696.16
759.731	18559.89
760.068	18559.89
760.405	18458.65
760.743	18384.3
761.08	18446.68
761.417	18358.32
761.754	18294.59
762.091	18302.05
762.428	18233.8
762.765	18065.67
763.102	18112
763.438	18007.37
763.775	17939.8
764.112	17935.5
764.449	17924.43
764.785	17773.25
765.122	17734.6
765.458	17692.35
765.795	17589.75
766.131	17634.72
766.467	17510.66
766.804	17437.89
767.14	17389.08
767.476	17279.02
767.812	17229.53
768.148	17343.43
768.485	17188.86
768.821	17135.3
769.157	17045.58
769.492	16943.66
769.828	17022.08
770.164	16845.81
770.5	16713.84
770.836	16795.42
771.171	16723.78
771.507	16677.68
771.842	16545.26
772.178	16493.73
772.513	16548.87
772.849	16473.85
773.184	16345.26
773.519	16334.87
773.855	16259.39
774.19	16158.15
774.525	16175.55
774.86	16075.21
775.195	16122.44
775.53	16081.31
775.865	15825.73
776.2	15761.55
776.535	15709.8
776.87	15784.15
777.205	15721.32
777.539	15596.36
777.874	15636.81
778.209	15488.11
778.543	15456.25
778.878	15411.95
779.212	15395.91
779.547	15166.99
779.881	15230.72
780.215	15229.81
780.55	15252.64
780.884	15087.67
781.218	15006.77
781.552	15025.52
781.886	14947.11
782.22	14850.84
782.554	14847
782.888	14649.71
783.222	14622.82
783.556	14609.49
783.889	14542.37
784.223	14479.1
784.557	14392.77
784.89	14550.51
785.224	14369.27
785.557	14244.07
785.891	14226.9
786.224	14260.57
786.558	14179.44
786.891	14156.39
787.224	14073.23
787.557	14094.25
787.891	14082.5
788.224	13947.81
788.557	13894.48
788.89	13902.16
789.223	13830.07
789.556	13774.93
789.888	13720.7
790.221	13604.54
790.554	13545.11
790.887	13604.32
791.219	13588.05
791.552	13557.99
791.884	13528.84
792.217	13430.99
792.549	13365.45
792.882	13196.87
793.214	13209.53
793.546	13273.48
793.879	13238.9
794.211	13096.99
794.543	13130.21
794.875	13076.42
795.207	13100.83
795.539	12932.24
795.871	12918.46
796.203	12822.64
796.535	12782.64
796.867	12825.58
797.198	12784
797.53	12701.06
797.862	12649.77
798.193	12630.78
798.525	12616.77
798.856	12577.9
799.188	12503.1
799.519	12402.99
799.85	12431.69
800.182	12365.03
800.513	12434.86
800.844	12284.13
801.175	12323.22
801.506	12297.46
801.837	12196.67
802.168	12169.78
802.499	12112.83
802.83	12087.75
803.161	12050.91
803.491	11961.42
803.822	12010.46
804.153	11973.17
804.483	11854.31
804.814	11881.88
805.145	11802.1
805.475	11878.94
805.805	11744.93
806.136	11794.87
806.466	11641.43
806.796	11728.89
807.126	11640.08
807.457	11582.22
807.787	11607.53
808.117	11496.8
808.447	11528.44
808.777	11463.13
809.107	11451.61
809.436	11407.77
809.766	11415.9
810.096	11447.31
810.426	11318.5
810.755	11329.8
811.085	11318.05
811.414	11257.03
811.744	11241.22
812.073	11198.05
812.403	11166.87
812.732	11094.55
813.061	11126.42
813.39	11058.17
813.719	11020.43
814.049	11091.84
814.378	11040.32
814.707	10998.96
815.036	10924.16
815.365	10892.75
815.693	10846.2
816.022	10840.55
816.351	10818.63
816.68	10716.48
817.008	10735.69
817.337	10671.97
817.665	10674.22
817.994	10758.29
818.322	10646.43
818.651	10627.9
818.979	10557.84
819.307	10678.74
819.636	10574.79
819.964	10474
820.292	10576.15
820.62	10535.02
820.948	10512.2
821.276	10476.26
821.604	10487.11
821.932	10566.21
822.259	10585.87
822.587	10559.43
822.915	10494.57
823.243	10509.94
823.57	10501.35
823.898	10451.18
824.225	10421.8
824.553	10441.91
824.88	10530.05
825.207	10472.42
825.535	10399.43
825.862	10497.51
826.189	10432.88
826.516	10465.42
826.843	10461.35
827.17	10485.76
827.497	10497.73
827.824	10428.13
828.151	10500.67
828.478	10417.73
828.805	10557.84
829.131	10488.47
829.458	10460.9
829.785	10370.73
830.111	10369.6
830.438	10453.89
830.764	10450.95
831.09	10440.33
831.417	10363.5
831.743	10508.81
832.069	10428.36
832.395	10404.18
832.722	10375.25
833.048	10338.19
833.374	10483.5
833.7	10417.73
834.026	10370.28
834.351	10365.31
834.677	10310.84
835.003	10366.89
835.329	10344.52
835.654	10274.01
835.98	10244.18
836.306	10245.99
836.631	10243.05
836.956	10308.81
837.282	10227.46
837.607	10217.29
837.932	10147.69
838.258	10159.44
838.583	10174.58
838.908	10153.79
839.233	10134.13
839.558	10124.41
839.883	10091.19
840.208	10047.35
840.533	10033.79
840.858	10046.22
841.182	9977.52
841.507	9936.62
841.832	9930.74
842.156	9918.99
842.481	9882.61
842.805	9888.71
843.13	9922.15
843.454	9859.11
843.778	9873.79
844.103	9808.94
844.427	9790.41
844.751	9778.2
845.075	9727.81
845.399	9745.89
845.723	9653.69
846.047	9622.5
846.371	9634.93
846.695	9600.13
847.019	9580.47
847.343	9461.38
847.666	9474.71
847.99	9375.28
848.313	9316.97
848.637	9281.04
848.96	9295.73
849.284	9270.87
849.607	9206.24
849.931	9221.83
850.254	9230.42
850.577	9128.73
850.9	9032.46
851.223	9086.47
851.546	8925.34
851.869	8930.54
852.192	9049.41
852.515	8860.49
852.838	8862.3
853.161	8883.76
853.483	8822.07
853.806	8786.37
854.129	8735.52
854.451	8732.36
854.774	8685.58
855.096	8667.72
855.419	8620.04
855.741	8659.81
856.063	8600.83
856.385	8612.58
856.708	8564
857.03	8448.75
857.352	8530.1
857.674	8507.95
857.996	8400.61
858.318	8358.81
858.64	8389.77
858.961	8383.66
859.283	8374.4
859.605	8292.37
859.926	8436.32
860.248	8350.67
860.57	8265.47
860.891	8306.15
861.212	8206.72
861.534	8249.43
861.855	8147.06
862.176	8268.64
862.498	8180.73
862.819	8137.57
863.14	8161.07
863.461	8171.69
863.782	8135.31
864.103	8164.01
864.424	8059.6
864.745	8079.72
865.065	8050.57
865.386	8006.95
865.707	8056.44
866.027	8052.82
866.348	7980.06
866.668	8009.44
866.989	7990
867.309	7887.41
867.63	7932.6
867.95	7964.92
868.27	7881.08
868.59	7906.84
868.91	7916.11
869.23	7885.82
869.55	7871.81
869.87	7847.86
870.19	7869.1
870.51	7827.07
870.83	7824.36
871.15	7805.15
871.469	7761.99
871.789	7790.46
872.109	7790.46
872.428	7724.7
872.748	7798.37
873.067	7783.23
873.386	7759.05
873.706	7725.38
874.025	7689.67
874.344	7644.93
874.663	7690.57
874.982	7670.01
875.301	7656.68
875.62	7665.26
875.939	7554.98
876.258	7581.42
876.577	7565.15
876.896	7540.07
877.214	7604.25
877.533	7537.81
877.852	7555.89
878.17	7589.11
878.489	7559.05
878.807	7561.31
879.125	7499.17
879.444	7453.52
879.762	7469.79
880.08	7453.74
880.398	7393.63
880.716	7414.65
881.034	7386.4
881.352	7407.87
881.67	7370.58
881.988	7445.84
882.306	7403.58
882.624	7284.26
882.941	7325.61
883.259	7302.11
883.577	7286.74
883.894	7300.53
884.212	7267.76
884.529	7239.29
884.846	7235.9
885.164	7220.3
885.481	7158.16
885.798	7203.36
886.115	7168.1
886.432	7116.8
886.75	7138.05
887.067	7074.77
887.383	7104.6
887.7	7119.29
888.017	7066.41
888.334	7008.78
888.651	7010.59
888.967	7004.72
889.284	6970.82
889.6	6966.07
889.917	6919.52
890.233	6946.87
890.55	6899.41
890.866	6889.01
891.182	6917.71
891.498	6897.38
891.815	6839.07
892.131	6830.48
892.447	6801.78
892.763	6746.42
893.079	6770.6
893.395	6768.79
893.71	6707.78
894.026	6728.11
894.342	6690.83
894.657	6661.22
894.973	6596.14
895.289	6618.06
895.604	6628.68
895.92	6581.68
896.235	6537.61
896.55	6562.24
896.865	6562.24
897.181	6534.45
897.496	6486.31
897.811	6485.86
898.126	6497.16
898.441	6430.72
898.756	6389.59
899.071	6360.44
899.386	6344.4
899.7	6347.33
900.015	6339.88
900.33	6298.97
900.644	6265.3
900.959	6289.48
901.273	6270.72
901.588	6202.25
901.902	6214
902.216	6121.35
902.531	6134.46
902.845	6133.55
903.159	6074.35
903.473	6088.81
903.787	6049.04
904.101	6016.95
904.415	6046.32
904.729	6021.92
905.042	5971.98
905.356	5985.31
905.67	5944.63
905.984	5929.49
906.297	5881.81
906.611	5870.28
906.924	5867.57
907.237	5853.56
907.551	5795.26
907.864	5803.84
908.177	5760.91
908.491	5795.26
908.804	5729.04
909.117	5708.93
909.43	5681.59
909.743	5636.39
910.056	5663.96
910.368	5616.5
910.681	5589.39
910.994	5553.23
911.307	5575.38
911.619	5520.69
911.932	5541.7
912.244	5483.18
912.557	5431.65
912.869	5472.33
913.181	5463.74
913.494	5428.71
913.806	5387.81
914.118	5352.78
914.43	5342.16
914.742	5369.73
915.054	5325.89
915.366	5289.28
915.678	5267.81
915.99	5194.82
916.302	5164.31
916.613	5188.95
916.925	5194.6
917.236	5128.38
917.548	5112.11
917.859	5071.43
918.171	5097.2
918.482	5048.84
918.794	5010.19
919.105	4994.15
919.416	5037.54
919.727	4998.44
920.038	4975.17
920.349	4967.71
920.66	4925.9
920.971	4900.37
921.282	4951.89
921.593	4885.22
921.903	4840.71
922.214	4850.42
922.525	4814.94
922.835	4828.28
923.146	4745.79
923.456	4753.48
923.767	4767.49
924.077	4690.65
924.387	4714.83
924.697	4672.12
925.008	4642.07
925.318	4636.19
925.628	4649.98
925.938	4603.65
926.248	4547.61
926.558	4529.08
926.867	4541.28
927.177	4503.99
927.487	4489.53
927.796	4503.09
928.106	4436.42
928.416	4490.66
928.725	4434.16
929.034	4397.78
929.344	4409.08
929.653	4365.69
929.962	4402.3
930.271	4357.33
930.581	4287.5
930.89	4325.24
931.199	4234.62
931.508	4290.89
931.817	4266.26
932.125	4232.59
932.434	4251.57
932.743	4200.95
933.051	4174.73
933.36	4154.17
933.669	4129.99
933.977	4125.7
934.286	4152.36
934.594	4121.18
934.902	4083.21
935.21	4110.33
935.519	4067.39
935.827	4000.5
936.135	4011.35
936.443	3987.4
936.751	3993.04
937.059	3960.73
937.367	4010.67
937.674	3961.63
937.982	3921.41
938.29	3897.45
938.597	3929.54
938.905	3878.92
939.213	3872.82
939.52	3849.55
939.827	3831.24
940.135	3833.27
940.442	3800.06
940.749	3794.41
941.056	3788.3
941.363	3760.06
941.67	3714.63
941.977	3745.82
942.284	3697.01
942.591	3692.49
942.898	3672.15
943.205	3720.06
943.511	3632.6
943.818	3613.39
944.125	3620.85
944.431	3600.51
944.738	3575.43
945.044	3603.22
945.35	3527.52
945.657	3524.81
945.963	3522.32
946.269	3476
946.575	3527.29
946.881	3434.64
947.187	3460.4
947.493	3437.81
947.799	3448.65
948.105	3419.27
948.41	3392.61
948.716	3395.09
949.022	3350.12
949.327	3376.56
949.633	3328.66
949.938	3377.47
950.244	3337.02
950.549	3283.91
950.854	3283.68
951.16	3263.12
951.465	3301.99
951.77	3277.58
952.075	3247.53
952.38	3198.04
952.685	3244.14
952.99	3217.92
953.294	3181.09
953.599	3215.21
953.904	3148.1
954.209	3179.96
954.513	3155.55
954.818	3128.43
955.122	3118.49
955.426	3093.41
955.731	3095.89
956.035	3066.74
956.339	3088.21
956.643	3082.11
956.948	3026.52
957.252	2997.82
957.556	2997.14
957.86	3002.11
958.163	2956.69
958.467	2978.16
958.771	2960.53
959.075	2940.87
959.378	2932.28
959.682	2958.72
959.985	2905.84
960.289	2897.48
960.592	2871.49
960.896	2854.77
961.199	2861.32
961.502	2867.88
961.805	2871.72
962.108	2825.84
962.411	2793.98
962.714	2809.12
963.017	2743.13
963.32	2799.18
963.623	2774.09
963.926	2761.89
964.228	2766.86
964.531	2730.25
964.833	2714.89
965.136	2695.45
965.438	2699.97
965.741	2692.29
966.043	2656.36
966.345	2690.93
966.648	2648.67
966.95	2662.91
967.252	2636.7
967.554	2629.01
967.856	2657.94
968.158	2597.38
968.46	2598.05
968.761	2541.11
969.063	2589.92
969.365	2566.42
969.666	2494.33
969.968	2529.35
970.269	2543.37
970.571	2522.12
970.872	2493.2
971.174	2462.24
971.475	2474.44
971.776	2489.36
972.077	2472.18
972.378	2424.72
972.679	2437.61
972.98	2443.71
973.281	2435.8
973.582	2406.87
973.883	2425.18
974.183	2406.42
974.484	2379.98
974.785	2386.76
975.085	2369.81
975.386	2386.53
975.686	2337.72
975.986	2326.2
976.287	2306.99
976.587	2332.52
976.887	2289.13
977.187	2297.5
977.487	2291.39
977.787	2301.56
978.087	2309.7
978.387	2293.43
978.687	2260.21
978.987	2267.89
979.286	2233.77
979.586	2230.38
979.885	2249.14
980.185	2229.48
980.484	2205.07
980.784	2186.09
981.083	2188.12
981.382	2175.69
981.682	2165.3
981.981	2139.76
982.28	2125.75
982.579	2125.3
982.878	2121.91
983.177	2104.51
983.475	2135.47
983.774	2119.2
984.073	2088.46
984.372	2085.52
984.67	2075.36
984.969	2081.91
985.267	2090.95
985.566	2048.01
985.864	2051.85
986.162	2023.38
986.461	2014.57
986.759	2037.62
987.057	1998.97
987.355	2029.48
987.653	2010.5
987.951	2005.3
988.249	1983.61
988.547	1966.43
988.844	1957.17
989.142	1951.74
989.44	1926.43
989.737	1914
990.035	1956.26
990.332	1912.65
990.63	1933.66
990.927	1923.27
991.224	1876.49
991.521	1916.49
991.819	1886.43
992.116	1894.34
992.413	1850.95
992.71	1874
993.006	1825.42
993.303	1838.75
993.6	1843.95
993.897	1815.47
994.193	1787
994.49	1798.75
994.787	1800.79
995.083	1793.55
995.379	1794.01
995.676	1774.57
995.972	1765.98
996.268	1764.18
996.565	1725.08
996.861	1734.8
997.157	1718.98
997.453	1687.12
997.749	1688.47
998.044	1694.35
998.34	1714.46
998.636	1683.73
998.932	1688.02
999.227	1662.94
999.523	1683.73
999.818	1656.83
1000.114	1661.13
1000.409	1660.45
1000.704	1618.64
1001	1617.97
1001.295	1626.78
1001.59	1615.48
1001.885	1621.36
1002.18	1605.31
1002.475	1577.74
1002.77	1565.54
1003.065	1569.38
1003.359	1580.9
1003.654	1579.1
1003.949	1552.43
1004.243	1543.62
1004.538	1510.62
1004.832	1533.67
1005.127	1537.74
1005.421	1504.07
1005.715	1506.78
1006.009	1530.28
1006.304	1489.16
1006.598	1481.47
1006.892	1480.79
1007.186	1457.74
1007.48	1446.45
1007.773	1442.38
1008.067	1444.41
1008.361	1421.13
1008.655	1455.48
1008.948	1460
1009.242	1423.85
1009.535	1401.7
1009.829	1410.51
1010.122	1381.59
1010.415	1412.55
1010.708	1374.58
1011.001	1378.2
1011.295	1362.38
1011.588	1347.69
1011.881	1325.32
1012.173	1328.93
1012.466	1335.71
1012.759	1326.45
1013.052	1342.27
1013.344	1309.5
1013.637	1320.8
1013.93	1281.93
1014.222	1298.88
1014.514	1278.77
1014.807	1269.5
1015.099	1260.91
1015.391	1250.74
1015.683	1240.12
1015.976	1241.48
1016.268	1250.29
1016.56	1234.02
1016.851	1214.36
1017.143	1232.21
1017.435	1204.64
1017.727	1187.24
1018.018	1205.55
1018.31	1175.94
1018.602	1209.84
1018.893	1198.32
1019.185	1196.06
1019.476	1176.17
1019.767	1130.3
1020.058	1126.91
1020.35	1147.7
1020.641	1130.52
1020.932	1108.6
1021.223	1134.14
1021.514	1115.38
1021.804	1102.73
1022.095	1119
1022.386	1114.02
1022.677	1086
1022.967	1093.46
1023.258	1059.79
1023.548	1077.42
1023.839	1086.45
1024.129	1095.95
1024.419	1065.66
1024.709	1018.89
1025	1031.77
1025.29	1053.01
1025.58	1044.65
1025.87	1036.06
1026.16	1008.94
1026.449	1029.05
1026.739	1007.81
1027.029	1015.27
1027.319	1009.85
1027.608	985.67
1027.898	973.24
1028.187	993.8
1028.477	983.63
1028.766	965.33
1029.055	976.63
1029.344	960.58
1029.634	958.1
1029.923	944.09
1030.212	951.99
1030.501	923.29
1030.79	917.42
1031.078	907.7
1031.367	889.4
1031.656	921.49
1031.945	898.89
1032.233	890.08
1032.522	886.46
1032.81	884.65
1033.099	878.78
1033.387	878.55
1033.675	862.51
1033.963	859.12
1034.251	855.5
1034.54	855.27
1034.828	864.31
1035.116	842.17
1035.403	841.04
1035.691	842.85
1035.979	827.03
1036.267	820.25
1036.554	805.33
1036.842	806.69
1037.129	810.3
1037.417	805.33
1037.704	803.98
1037.992	790.87
1038.279	789.74
1038.566	774.82
1038.853	774.82
1039.14	774.82
