Data from breadboard_white_FLMS001491_00074.txt Node
Date: Wed Feb 08 10:48:14 GMT 2017
User: dcchb
Spectrometer: FLMS00149
Trigger mode: 0
Integration Time (sec): 2.000000E-2
Scans to average: 10
Electric dark correction enabled: true
Nonlinearity correction enabled: false
Boxcar width: 0
XAxis mode: Wavelengths
Number of Pixels in Spectrum: 2048
>>>>>Begin Spectral Data<<<<<
341.393	3.11
341.776	3.11
342.16	3.11
342.543	-52.03
342.927	-73.27
343.31	-70.11
343.693	-68.3
344.077	-84.57
344.46	-39.6
344.843	-67.17
345.226	-42.09
345.61	-37.34
345.993	-8.42
346.376	0.62
346.759	15.31
347.142	15.54
347.525	52.37
347.908	57.12
348.291	73.39
348.674	96.44
349.057	106.83
349.44	133.5
349.823	151.35
350.206	167.62
350.588	208.53
350.971	215.98
351.354	258.02
351.737	246.26
352.119	249.43
352.502	268.41
352.884	302.53
353.267	273.61
353.65	313.61
354.032	316.77
354.414	317.22
354.797	331.01
355.179	325.13
355.562	353.83
355.944	355.41
356.326	351.8
356.709	352.93
357.091	360.39
357.473	372.36
357.855	335.3
358.238	361.29
358.62	349.09
359.002	377.79
359.384	338.01
359.766	366.49
360.148	353.61
360.53	357.45
360.912	384.57
361.294	365.36
361.676	355.87
362.057	339.82
362.439	360.84
362.821	350.89
363.203	342.76
363.584	341.4
363.966	348.41
364.348	350.22
364.729	373.72
365.111	348.86
365.493	352.48
365.874	352.7
366.256	352.93
366.637	331.23
367.019	335.08
367.4	350.67
367.781	373.04
368.163	366.26
368.544	323.32
368.925	338.92
369.306	354.28
369.688	334.85
370.069	349.54
370.45	346.6
370.831	344.34
371.212	343.89
371.593	329.2
371.974	349.31
372.355	352.25
372.736	349.99
373.117	357.22
373.498	346.6
373.879	379.59
374.26	356.77
374.641	370.56
375.021	353.38
375.402	356.54
375.783	356.09
376.163	384.79
376.544	362.87
376.925	374.4
377.305	355.87
377.686	378.46
378.066	370.78
378.447	381.63
378.827	388.18
379.208	380.05
379.588	378.92
379.968	407.39
380.349	374.17
380.729	385.7
381.109	384.11
381.489	390.22
381.87	395.64
382.25	397.9
382.63	400.84
383.01	398.13
383.39	402.64
383.77	398.35
384.15	400.84
384.53	434.06
384.91	413.04
385.29	419.59
385.67	417.56
386.049	439.03
386.429	423.89
386.809	433.38
387.189	441.29
387.568	440.38
387.948	458.24
388.328	453.49
388.707	459.14
389.087	450.55
389.466	455.75
389.846	460.72
390.225	482.64
390.605	468.41
390.984	476.54
391.363	474.73
391.743	475.64
392.122	503.21
392.501	494.85
392.881	514.96
393.26	506.37
393.639	508.18
394.018	516.77
394.397	525.81
394.776	547.05
395.155	561.28
395.534	541.4
395.913	549.76
396.292	547.73
396.671	533.26
397.05	531.68
397.429	595.18
397.808	603.77
398.186	599.02
398.565	604.67
398.944	592.92
399.323	614.16
399.701	595.41
400.08	615.97
400.458	627.72
400.837	655.07
401.215	649.42
401.594	658.01
401.972	667.27
402.351	691.45
402.729	686.93
403.107	694.61
403.486	695.74
403.864	697.1
404.242	734.39
404.62	732.58
404.999	749.3
405.377	764.67
405.755	780.94
406.133	804.44
406.511	786.82
406.889	799.92
407.267	823.42
407.645	841.28
408.023	826.81
408.401	852.35
408.779	871.33
409.156	911.11
409.534	902.97
409.912	931.44
410.29	963.53
410.667	968.05
411.045	990.65
411.422	995.85
411.8	1006.24
412.178	1046.47
412.555	1055.73
412.933	1059.12
413.31	1102.51
413.687	1104.55
414.065	1110.87
414.442	1140.7
414.819	1194.04
415.197	1198.56
415.574	1202.17
415.951	1232.68
416.328	1227.71
416.705	1236.52
417.082	1249.85
417.46	1272.45
417.837	1304.32
418.214	1293.92
418.591	1340.02
418.967	1326.46
419.344	1345.44
419.721	1405.78
420.098	1396.74
420.475	1427.48
420.852	1436.06
421.228	1419.57
421.605	1465.22
421.982	1489.62
422.358	1511.54
422.735	1517.87
423.111	1533.01
423.488	1546.12
423.864	1549.73
424.241	1555.38
424.617	1584.76
424.994	1624.31
425.37	1611.65
425.746	1619.34
426.123	1694.81
426.499	1703.18
426.875	1744.76
427.251	1752.67
427.627	1819.56
428.003	1812.1
428.379	1836.05
428.756	1835.15
429.132	1876.05
429.507	1925.09
429.883	1913.34
430.259	1941.81
430.635	1961.7
431.011	1992.89
431.387	2046.9
431.763	2079.21
432.138	2106.78
432.514	2126.67
432.89	2160.11
433.265	2184.29
433.641	2228.36
434.016	2217.06
434.392	2300
434.767	2320.56
435.143	2337.28
435.518	2341.12
435.894	2357.17
436.269	2423.38
436.644	2443.95
437.02	2485.08
437.395	2477.39
437.77	2507
438.145	2521.46
438.52	2567.79
438.895	2606.88
439.271	2637.16
439.646	2665.41
440.021	2712.64
440.395	2729.36
440.77	2683.49
441.145	2747.89
441.52	2805.52
441.895	2790.38
442.27	2817.5
442.645	2826.54
443.019	2916.03
443.394	2892.97
443.769	2918.74
444.143	2923.26
444.518	2928.45
444.892	3003.03
445.267	3013.65
445.641	3000.32
446.016	3058.17
446.39	3083.93
446.764	3068.34
447.139	3113.08
447.513	3180.88
447.887	3162.35
448.262	3184.04
448.636	3185.4
449.01	3244.6
449.384	3297.48
449.758	3288.67
450.132	3361.89
450.506	3358.5
450.88	3376.8
451.254	3401.44
451.628	3459.29
452.002	3543.81
452.376	3531.15
452.75	3519.17
453.123	3544.03
453.497	3631.94
453.871	3649.57
454.244	3770.24
454.618	3781.76
454.992	3830.13
455.365	3826.51
455.739	3928.2
456.112	3999.39
456.486	3989.44
456.859	4045.03
457.232	4134.07
457.606	4101.98
457.979	4195.77
458.352	4268.08
458.725	4341.07
459.099	4341.07
459.472	4421.3
459.845	4490.67
460.218	4550.11
460.591	4568.86
460.964	4644.57
461.337	4685.24
461.71	4829.65
462.083	4878.23
462.456	4862.87
462.829	4867.39
463.201	4972.69
463.574	4964.11
463.947	5057.44
464.32	5193.71
464.692	5218.56
465.065	5255.17
465.438	5331.78
465.81	5411.33
466.183	5504.21
466.555	5667.82
466.928	5616.52
467.3	5675.05
467.672	5746.23
468.045	5892.22
468.417	5903.74
468.789	5984.19
469.161	6066.9
469.534	6182.83
469.906	6286.78
470.278	6341.92
470.65	6388.93
471.022	6521.58
471.394	6653.78
471.766	6741.01
472.138	6813.55
472.51	6938.07
472.882	7059.64
473.253	7075.69
473.625	7259.19
473.997	7384.83
474.369	7483.14
474.74	7543.02
475.112	7664.83
475.484	7764.71
475.855	7941.66
476.227	8047.19
476.598	8226.62
476.97	8320.85
477.341	8533.28
477.713	8687.85
478.084	8716.32
478.455	8994.74
478.827	8998.12
479.198	9330.55
479.569	9258.46
479.94	9557.21
480.311	9622.74
480.682	9919.23
481.053	10072.9
481.424	10338.2
481.795	10313.57
482.166	10504.75
482.537	10701.81
482.908	10878.3
483.279	11004.63
483.65	11205.07
484.021	11400.32
484.391	11611.39
484.762	11621.78
485.133	11777.71
485.503	12006.63
485.874	12182.9
486.244	12324.14
486.615	12550.12
486.985	12760.06
487.356	13054.06
487.726	13113.5
488.097	13347.84
488.467	13380.61
488.837	13752.35
489.207	13826.92
489.578	14087.71
489.948	14157.09
490.318	14322.5
490.688	14433.24
491.058	14735.15
491.428	14904.86
491.798	15042.03
492.168	15429.59
492.538	15430.27
492.908	15670.04
493.278	15869.81
493.648	15870.03
494.017	16053.98
494.387	16250.82
494.757	16449.45
495.126	16611.94
495.496	16710.01
495.866	16790.24
496.235	17020.29
496.605	17163.11
496.974	17225.93
497.344	17501.86
497.713	17585.24
498.082	17680.61
498.452	17959.02
498.821	18005.12
499.19	17999.02
499.559	18275.85
499.928	18307.26
500.298	18472.9
500.667	18696.63
501.036	18676.29
501.405	18944.08
501.774	18920.58
502.143	19134.13
502.512	19290.74
502.88	19409.15
503.249	19507.91
503.618	19615.25
503.987	19711.52
504.356	19857.73
504.724	19979.31
505.093	20094.78
505.462	20255.91
505.83	20405.28
506.199	20533.19
506.567	20891.37
506.936	20797.14
507.304	21046.85
507.672	21122.55
508.041	21294.07
508.409	21446.39
508.777	21682.99
509.145	21777.22
509.514	21948.52
509.882	22096.76
510.25	22073.49
510.618	22462.63
510.986	22409.3
511.354	22685
511.722	22831.89
512.09	23126.57
512.458	23046.12
512.826	23271.87
513.193	23417.63
513.561	23515.71
513.929	23763.16
514.297	23902.14
514.664	24146.65
515.032	24262.36
515.4	24504.84
515.767	24479.98
516.135	24738.05
516.502	24628.45
516.869	25082.22
517.237	25357.92
517.604	25238.6
517.972	25532.61
518.339	25664.58
518.706	25815.08
519.073	25942.09
519.44	26270.44
519.808	26571.45
520.175	26486.93
520.542	26797.43
520.909	27026.35
521.276	27055.5
521.643	27347.92
522.009	27507.92
522.376	27813
522.743	27976.61
523.11	28227.68
523.477	28555.8
523.843	28646.65
524.21	29044.38
524.577	29186.29
524.943	29362.11
525.31	29520.3
525.676	29702.67
526.043	30012.94
526.409	30103.78
526.776	30502.87
527.142	30678.91
527.508	30694.05
527.874	30963.88
528.241	31202.51
528.607	31350.98
528.973	31547.81
529.339	31429.17
529.705	31963.4
530.071	32217.63
530.437	32362.93
530.803	32512.08
531.169	32647.9
531.535	32685.86
531.901	32914.56
532.267	33044.95
532.632	33224.83
532.998	33380.31
533.364	33729.68
533.73	33730.36
534.095	34062.32
534.461	34132.83
534.826	34241.53
535.192	34421.86
535.557	34715.87
535.923	34698.69
536.288	34918.57
536.653	35059.59
537.019	35021.4
537.384	35242.18
537.749	35433.59
538.114	35626.13
538.479	35559.23
538.845	35742.73
539.21	35799.68
539.575	36010.52
539.94	36036.74
540.305	36328.71
540.67	36273.11
541.034	36432.66
541.399	36466.33
541.764	36502.26
542.129	36925.98
542.494	36872.19
542.858	37118.52
543.223	37092.53
543.587	37405.06
543.952	37314.89
544.316	37566.87
544.681	37615.9
545.045	37808.67
545.41	37905.84
545.774	37933.18
546.138	38052.73
546.503	38182.67
546.867	38248.43
547.231	38439.16
547.595	38587.18
547.959	38690.68
548.324	38811.8
548.688	38925.47
549.052	38974.74
549.416	38983.1
549.779	39187.16
550.143	39304.9
550.507	39663.08
550.871	39765
551.235	39729.29
551.599	40004.32
551.962	40037.08
552.326	40129.74
552.689	40360.69
553.053	40374.25
553.417	40445.43
553.78	40879.32
554.143	40846.78
554.507	41025.08
554.87	41262.36
555.234	41429.36
555.597	41332.19
555.96	41594.56
556.323	41743.25
556.686	41768.11
557.05	42186.63
557.413	42250.58
557.776	42229.34
558.139	42587.98
558.502	42721.31
558.865	42782.32
559.228	43148.64
559.59	43145.93
559.953	43299.14
560.316	43655.29
560.679	43594.05
561.041	43916.08
561.404	44127.37
561.767	44337.53
562.129	44126.47
562.492	44689.16
562.854	44654.36
563.217	44671.76
563.579	44762.38
563.941	45141.36
564.304	45312.88
564.666	45510.84
565.028	45535.47
565.39	45746.76
565.753	46029.69
566.115	46131.61
566.477	46251.16
566.839	46420.64
567.201	46727.53
567.563	46670.13
567.925	46870.35
568.287	47016.11
568.648	47085.49
569.01	47311.24
569.372	47475.98
569.734	47381.75
570.095	47655.87
570.457	47814.73
570.819	47862.64
571.18	47862.41
571.542	48085.91
571.903	48154.84
572.265	48238
572.626	48352.57
572.987	48651.32
573.349	48568.61
573.71	48716.85
574.071	48827.13
574.432	48920.24
574.794	49109.61
575.155	49169.5
575.516	49020.58
575.877	49324.75
576.238	49338.08
576.599	49563.84
576.96	49426.67
577.32	49535.14
577.681	49681.58
578.042	49852.42
578.403	49807.22
578.763	49854
579.124	49858.97
579.485	50017.16
579.845	50078.85
580.206	49965.64
580.566	50149.59
580.927	50058.06
581.287	50327.43
581.648	50116.14
582.008	50319.07
582.368	50324.95
582.728	50315.46
583.089	50168.34
583.449	50220.09
583.809	50371.95
584.169	50354.33
584.529	50127.44
584.889	50429.58
585.249	50231.39
585.609	50182.8
585.969	50444.72
586.329	50269.36
586.688	50322.91
587.048	50183.71
587.408	50203.6
587.768	50323.37
588.127	50307.77
588.487	50178.51
588.846	50508.45
589.206	50222.13
589.565	50283.82
589.925	50493.31
590.284	50284.5
590.643	50470.48
591.003	50488.33
591.362	50620.53
591.721	50512.97
592.08	50453.53
592.44	50570.82
592.799	50474.32
593.158	50552.74
593.517	50500.08
593.876	50452.63
594.235	50551.83
594.593	50634.09
594.952	50584.15
595.311	50500.99
595.67	50646.3
596.029	50766.74
596.387	50809.68
596.746	50838.61
597.104	50708.89
597.463	50685.62
597.822	50896.91
598.18	50630.48
598.538	50729.01
598.897	50936.01
599.255	50616.24
599.613	51040.86
599.972	50837.48
600.33	50915.21
600.688	50853.52
601.046	50985.04
601.404	51032.05
601.762	50985.27
602.12	51108.2
602.478	51086.74
602.836	51221.2
603.194	51056
603.552	51076.57
603.91	51003.35
604.268	51209.44
604.625	51018.94
604.983	51204.02
605.341	51009
605.698	51238.37
606.056	51319.5
606.413	51375.32
606.771	51371.47
607.128	51454.18
607.485	51298.93
607.843	51366.28
608.2	51525.59
608.557	51670.22
608.914	51398.14
609.272	51693.73
609.629	51700.96
609.986	51814.85
610.343	51719.26
610.7	51839.48
611.057	51779.15
611.414	51764.68
611.771	51910.89
612.127	51841.07
612.484	51961.74
612.841	51975.53
613.198	51952.7
613.554	51958.58
613.911	52209.42
614.267	52132.58
614.624	52132.58
614.98	52117.44
615.337	52286.03
615.693	52284.9
616.05	52135.07
616.406	52332.35
616.762	52224.79
617.118	52253.03
617.475	52308.62
617.831	52421.16
618.187	52489.64
618.543	52488.73
618.899	52598.33
619.255	52459.81
619.611	52474.04
619.967	52477.21
620.323	52575.74
620.678	52503.42
621.034	52425.23
621.39	52411.22
621.746	52376.19
622.101	52794.49
622.457	52493.93
622.812	52615.74
623.168	52660.03
623.523	52671.1
623.879	52712.68
624.234	52505.91
624.589	52631.78
624.945	52711.78
625.3	52663.64
625.655	52630.2
626.01	52637.43
626.365	52629.29
626.72	52759.23
627.075	52509.75
627.43	52556.53
627.785	52523.31
628.14	52497.77
628.495	52483.99
628.85	52497.09
629.205	52411.67
629.559	52558.79
629.914	52436.98
630.269	52452.8
630.623	52373.26
630.978	52287.16
631.332	52416.64
631.687	52455.74
632.041	52260.72
632.396	52318.12
632.75	52165.8
633.104	52314.05
633.459	52110.44
633.813	52131.23
634.167	52145.01
634.521	52072.02
634.875	52166.93
635.229	52034.28
635.583	51849.88
635.937	51898.01
636.291	51744.8
636.645	51854.4
636.999	51671.58
637.352	51812.59
637.706	51601.3
638.06	51726.04
638.413	51828.86
638.767	51653.95
639.121	51740.96
639.474	51440.62
639.828	51538.7
640.181	51474.3
640.534	51483.11
640.888	51315.2
641.241	51297.8
641.594	51298.71
641.947	51392.04
642.301	51229.78
642.654	51343.23
643.007	51315.2
643.36	51192.95
643.713	50987.08
644.066	51119.28
644.419	51006.96
644.771	50881.32
645.124	50557.26
645.477	50483.14
645.83	50306.64
646.182	50130.6
646.535	49864.17
646.888	49939.42
647.24	49634.34
647.593	49844.06
647.945	49862.59
648.298	49582.37
648.65	49509.83
649.002	49396.84
649.355	49562.03
649.707	49616.72
650.059	49697.39
650.411	50105.97
650.763	50184.84
651.115	50514.1
651.467	50317.72
651.819	50323.37
652.171	50162.47
652.523	50093.99
652.875	50110.49
653.227	50049.7
653.578	50157.49
653.93	50157.27
654.282	49936.94
654.633	49843.83
654.985	49801.57
655.337	49965.41
655.688	49815.13
656.039	49991.4
656.391	49721.35
656.742	49801.35
657.094	49753.66
657.445	49919.31
657.796	49706.66
658.147	49697.39
658.498	49624.85
658.849	49754.12
659.2	49668.92
659.551	49588.02
659.902	49649.71
660.253	49630.73
660.604	49687.22
660.955	49476.38
661.306	49437.97
661.656	49404.97
662.007	49484.52
662.358	49544.86
662.708	49340.57
663.059	49461.69
663.409	49183.06
663.76	49491.52
664.11	49265.09
664.461	49334.92
664.811	49317.06
665.161	49306.22
665.511	49224.19
665.862	49294.24
666.212	49353
666.562	49266.9
666.912	49189.61
667.262	49040.69
667.612	49064.87
667.962	49158.65
668.312	49118.43
668.662	49254.02
669.011	49208.82
669.361	49123.85
669.711	49127.24
670.06	49051.08
670.41	49058.31
670.76	49054.25
671.109	49126.56
671.459	48977.19
671.808	48900.8
672.157	49008.82
672.507	48701.94
672.856	48786.46
673.205	48870.97
673.554	48883.86
673.904	48643.86
674.253	48894.7
674.602	48815.16
674.951	48201.16
675.3	47970.66
675.649	48700.36
675.998	48623.75
676.346	48611.32
676.695	48624.65
677.044	48432.12
677.393	48389.41
677.741	48503.07
678.09	48542.4
678.438	48355.96
678.787	48414.94
679.135	48370.88
679.484	47997.1
679.832	48277.32
680.181	48113.93
680.529	48107.15
680.877	48069.64
681.225	47985.35
681.573	48266.02
681.922	47952.35
682.27	47669.65
682.618	47810.44
682.966	47701.97
683.314	47841.85
683.661	47624.45
684.009	47424.46
684.357	47338.59
684.705	47343.33
685.053	47347.4
685.4	47261.53
685.748	46967.3
686.095	47049.55
686.443	46817.7
686.79	46887.52
687.138	46835.77
687.485	46764.59
687.832	46742.44
688.18	46579.28
688.527	46408.44
688.874	46497.93
689.221	46380.87
689.568	46412.06
689.915	46148.56
690.262	46106.3
690.609	45939.07
690.956	45992.86
691.303	45898.62
691.65	45699.98
691.997	45793.77
692.344	45362.37
692.69	45393.78
693.037	45378.86
693.383	45160.34
693.73	45342.03
694.077	45011.19
694.423	44907.46
694.769	44827.69
695.116	44689.62
695.462	44597.64
695.808	44559.9
696.155	44689.84
696.501	44203.98
696.847	44207.59
697.193	43900.26
697.539	44167.37
697.885	43823.2
698.231	43636.08
698.577	43831.33
698.923	43675.41
699.269	43356.09
699.614	43181.86
699.96	43219.37
700.306	43187.73
700.651	43054.63
700.997	42912.71
701.342	42714.98
701.688	42616
702.033	42503.01
702.379	42637.01
702.724	42475.44
703.069	42545.49
703.415	42036.13
703.76	42173.52
704.105	42051.72
704.45	42005.84
704.795	41800.88
705.14	41660.32
705.485	41560.21
705.83	41362.25
706.175	41387.1
706.52	41313.21
706.865	41036.83
707.209	41214.68
707.554	41030.28
707.899	41269.14
708.243	40906.21
708.588	40811.75
708.932	40648.82
709.277	40460.12
709.621	40507.13
709.966	40311.88
710.31	40382.16
710.654	40007.03
710.998	40110.3
711.342	40047.7
711.687	39996.41
712.031	39773.81
712.375	39745.57
712.719	39581.73
713.063	39518.45
713.407	39705.79
713.75	39505.57
714.094	39437.32
714.438	39310.1
714.782	39168.41
715.125	39162.3
715.469	39225.13
715.812	38968.64
716.156	38606.16
716.499	38663.11
716.843	38730.68
717.186	38637.57
717.53	38621.07
717.873	38618.36
718.216	38459.72
718.559	38421.08
718.902	38189.22
719.246	38277.13
719.589	38164.14
719.932	37990.58
720.275	37850.02
720.617	37775.67
720.96	37838.04
721.303	37826.52
721.646	37819.74
721.989	37610.03
722.331	37680.76
722.674	37435.12
723.016	37504.04
723.359	37424.95
723.701	37397.15
724.044	37089.36
724.386	37093.88
724.729	37190.6
725.071	37079.65
725.413	36999.42
725.755	36899.09
726.097	36792.87
726.439	36656.83
726.782	36629.94
727.124	36864.28
727.465	36564.18
727.807	36533.67
728.149	36487.35
728.491	36408.25
728.833	36505.2
729.175	36208.48
729.516	36248.71
729.858	36219.78
730.199	36167.58
730.541	36104.53
730.882	36006.23
731.224	36168.48
731.565	35757.87
731.906	35817.08
732.248	35908.6
732.589	35718.55
732.93	35576.41
733.271	35591.32
733.612	35522.85
733.953	35556.07
734.294	35428.39
734.635	35315.17
734.976	35334.16
735.317	35319.69
735.658	35208.06
735.999	35214.38
736.339	34942.75
736.68	35188.62
737.021	34947.27
737.361	34835.41
737.702	34940.27
738.042	34814.85
738.383	34722.87
738.723	34839.71
739.063	34653.5
739.404	34753.61
739.744	34677
740.084	34493.95
740.424	34500.96
740.764	34378.7
741.104	34368.31
741.444	34179.84
741.784	34208.54
742.124	34243.34
742.464	34223.22
742.804	34131.7
743.143	34030.69
743.483	34049.22
743.823	33879.73
744.162	33855.32
744.502	33872.95
744.841	33748.43
745.181	33847.42
745.52	33590.02
745.86	33665.05
746.199	33728.55
746.538	33579.63
746.877	33535.78
747.216	33411.95
747.556	33280.88
747.895	33422.79
748.234	33253.76
748.573	33271.39
748.911	33114.78
749.25	32958.4
749.589	32850.83
749.928	32912.07
750.267	32992.52
750.605	32781.23
750.944	32729.48
751.283	32554.34
751.621	32709.14
751.96	32297.85
752.298	32494.68
752.636	32488.81
752.975	32203.39
753.313	31948.26
753.651	32258.08
753.989	31979.22
754.327	31961.59
754.666	31769.28
755.004	31946.67
755.342	31766.79
755.679	31840.91
756.017	31632.56
756.355	31679.34
756.693	31373.81
757.031	31486.8
757.368	31357.99
757.706	31264.43
758.044	31095.17
758.381	31181.95
758.719	30923.65
759.056	31014.04
759.394	30888.62
759.731	30495.86
760.068	30715.75
760.405	30469.65
760.743	30538.35
761.08	30491.57
761.417	30332.25
761.754	30292.71
762.091	30151.24
762.428	30065.14
762.765	29925.94
763.102	29914.86
763.438	29805.26
763.775	29648.2
764.112	29610.69
764.449	29448.43
764.785	29442.33
765.122	29161.66
765.458	29158.27
765.795	29157.82
766.131	29210.93
766.467	29013.19
766.804	28777.04
767.14	28675.12
767.476	28641.45
767.812	28542.02
768.148	28563.26
768.485	28397.39
768.821	28166.89
769.157	28292.31
769.492	28184.51
769.828	28010.96
770.164	27834.92
770.5	27709.05
770.836	27734.81
771.171	27613.91
771.507	27486.23
771.842	27295.72
772.178	27361.26
772.513	27143.41
772.849	27112.45
773.184	26981.15
773.519	27008.5
773.855	26850.76
774.19	26770.09
774.525	26616.87
774.86	26629.07
775.195	26493.71
775.53	26465.91
775.865	26309.76
776.2	26015.98
776.535	25941.63
776.87	25876.33
777.205	25865.48
777.539	25740.74
777.874	25767.85
778.209	25510.69
778.543	25479.95
778.878	25290.58
779.212	25462.55
779.547	25058.72
779.881	25251.93
780.215	24971.72
780.55	25052.84
780.884	24830.25
781.218	24820.08
781.552	24724.72
781.886	24668
782.22	24512.07
782.554	24401.79
782.888	24207.67
783.222	24126.54
783.556	24092.42
783.889	23980.78
784.223	23856.04
784.557	23943.72
784.89	23874.8
785.224	23766.1
785.557	23508.93
785.891	23543.73
786.224	23382.38
786.558	23389.84
786.891	23254.93
787.224	23000.24
787.557	23119.34
787.891	22986.01
788.224	22890.64
788.557	22940.13
788.89	22847.7
789.223	22789.4
789.556	22624.21
789.888	22527.49
790.221	22473.25
790.554	22291.33
790.887	22322.75
791.219	22244.33
791.552	22143.32
791.884	21924.34
792.217	22024.9
792.549	21887.73
792.882	21818.13
793.214	21700.39
793.546	21715.98
793.879	21594.63
794.211	21497.68
794.543	21475.31
794.875	21460.85
795.207	21414.97
795.539	21326.61
795.871	21291.36
796.203	20982.89
796.535	20902.44
796.867	20886.17
797.198	20833.07
797.53	20882.78
797.862	20725.5
798.193	20705.84
798.525	20673.52
798.856	20645.95
799.188	20415.45
799.519	20452.06
799.85	20276.7
800.182	20282.8
800.513	20212.75
800.844	20098.85
801.175	20146.08
801.506	20133.43
801.837	20080.55
802.168	20088
802.499	19932.07
802.83	19737.28
803.161	19727.33
803.491	19705.64
803.822	19618.64
804.153	19562.14
804.483	19467.68
804.814	19405.76
805.145	19317.63
805.475	19337.51
805.805	19194.92
806.136	19219.33
806.466	19294.13
806.796	19130.74
807.126	18933.68
807.457	18933.01
807.787	18974.59
808.117	18890.07
808.447	18776.17
808.777	18777.53
809.107	18672.67
809.436	18627.48
809.766	18588.61
810.096	18495.95
810.426	18487.59
810.755	18420.25
811.085	18500.93
811.414	18363.53
811.744	18257.77
812.073	18219.13
812.403	18223.65
812.732	18107.94
813.061	18141.16
813.39	17982.97
813.719	17947.49
814.049	18040.6
814.378	17983.65
814.707	17839.93
815.036	17808.06
815.365	17718.57
815.693	17622.98
816.022	17603.1
816.351	17507.28
816.68	17440.39
817.008	17466.6
817.337	17334.18
817.665	17314.97
817.994	17354.74
818.322	17397
818.651	17217.8
818.979	17236.78
819.307	17262.09
819.636	17173.96
819.964	17105.71
820.292	17156.33
820.62	17174.41
820.948	17072.49
821.276	17093.05
821.604	16998.14
821.932	17119.04
822.259	17094.86
822.587	17085.82
822.915	16979.38
823.243	17127.4
823.57	16986.84
823.898	16989.33
824.225	16911.14
824.553	16997.91
824.88	17012.6
825.207	17075.88
825.535	16954.98
825.862	16958.59
826.189	16873.62
826.516	17070.91
826.843	17016.9
827.17	16950.91
827.497	16997.91
827.824	17002.89
828.151	17003.56
828.478	16952.72
828.805	16978.03
829.131	16922.44
829.458	16847.41
829.785	16815.32
830.111	16825.26
830.438	16885.83
830.764	16841.53
831.09	16834.76
831.417	16750.46
831.743	16784.36
832.069	16810.57
832.395	16740.97
832.722	16804.93
833.048	16773.51
833.374	16752.72
833.7	16641.09
834.026	16684.25
834.351	16637.25
834.677	16578.72
835.003	16703.23
835.329	16701.2
835.654	16522.45
835.98	16614.65
836.306	16563.8
836.631	16468.21
836.956	16630.92
837.282	16569
837.607	16491.71
837.932	16445.16
838.258	16425.73
838.583	16369.46
838.908	16258.27
839.233	16412.85
839.558	16292.85
839.883	16224.38
840.208	16217.82
840.533	16103.47
840.858	16194.09
841.182	16128.11
841.507	16095.11
841.832	16088.11
842.156	15958.85
842.481	16014.66
842.805	15948.22
843.13	15871.16
843.454	15866.64
843.778	15815.57
844.103	15779.42
844.427	15732.19
844.751	15772.18
845.075	15658.29
845.399	15591.4
845.723	15535.13
846.047	15552.75
846.371	15451.97
846.695	15438.41
847.019	15251.07
847.343	15286.55
847.666	15135.82
847.99	15062.6
848.313	15101.69
848.637	15036.61
848.96	14995.03
849.284	14904.18
849.607	14861.93
849.931	14737.86
850.254	14776.05
850.577	14598.2
850.9	14528.15
851.223	14497.64
851.546	14379.9
851.869	14287.48
852.192	14417.64
852.515	14255.61
852.838	14113.7
853.161	14160.7
853.483	14072.57
853.806	14077.31
854.129	14007.03
854.451	14032.12
854.774	13841.61
855.096	13881.61
855.419	13849.07
855.741	13759.36
856.063	13668.96
856.385	13661.96
856.708	13639.13
857.03	13684.56
857.352	13521.62
857.674	13591.22
857.996	13468.52
858.318	13429.19
858.64	13481.17
858.961	13383.77
859.283	13381.29
859.605	13319.37
859.926	13433.49
860.248	13297.45
860.57	13213.16
860.891	13235.08
861.212	13148.07
861.534	13116.21
861.855	13070.11
862.176	13101.29
862.498	13039.15
862.819	13095.19
863.14	12980.17
863.461	12904.01
863.782	12871.02
864.103	12864.46
864.424	12905.59
864.745	12918.47
865.065	12790.12
865.386	12782.21
865.707	12866.72
866.027	12780.85
866.348	12725.03
866.668	12673.51
866.989	12661.76
867.309	12541.31
867.63	12562.33
867.95	12550.12
868.27	12472.61
868.59	12507.86
868.91	12448.88
869.23	12515.55
869.55	12441.88
869.87	12476.23
870.19	12441.2
870.51	12351.26
870.83	12383.8
871.15	12294.31
871.469	12318.94
871.789	12312.39
872.109	12312.16
872.428	12225.61
872.748	12311.71
873.067	12266.97
873.386	12164.82
873.706	12196.01
874.025	12172.5
874.344	12098.83
874.663	12125.73
874.982	12071.04
875.301	12116.69
875.62	11974.09
875.939	12035.79
876.258	11962.11
876.577	11949.46
876.896	11923.47
877.214	11942
877.533	11920.31
877.852	11890.93
878.17	11904.26
878.489	11924.83
878.807	11851.38
879.125	11815.45
879.444	11830.82
879.762	11751.27
880.08	11738.39
880.398	11725.51
880.716	11742.46
881.034	11698.17
881.352	11700.88
881.67	11618.4
881.988	11650.03
882.306	11593.54
882.624	11551.5
882.941	11511.05
883.259	11511.96
883.577	11466.99
883.894	11442.58
884.212	11404.16
884.529	11416.82
884.846	11370.49
885.164	11446.65
885.481	11363.26
885.798	11369.81
886.115	11263.15
886.432	11325.75
886.75	11264.51
887.067	11244.17
887.383	11196.49
887.7	11202.59
888.017	11077.17
888.334	11133.44
888.651	11077.84
888.967	11141.57
889.284	11010.5
889.6	10989.94
889.917	10967.56
890.233	10931.41
890.55	10945.19
890.866	10911.07
891.182	10843.73
891.498	10859.32
891.815	10738.42
892.131	10732.77
892.447	10711.75
892.763	10639.44
893.079	10668.14
893.395	10621.59
893.71	10584.52
894.026	10450.74
894.342	10519.89
894.657	10418.65
894.973	10452.78
895.289	10362.38
895.604	10406.45
895.92	10309.05
896.235	10301.59
896.55	10260.24
896.865	10235.61
897.181	10199
897.496	10240.13
897.811	10119
898.126	10094.14
898.441	10081.03
898.756	10071.09
899.071	9991.77
899.386	10005.33
899.7	9879.46
900.015	9819.8
900.33	9792
900.644	9801.49
900.959	9829.74
901.273	9792.23
901.588	9766.92
901.902	9679.01
902.216	9643.76
902.531	9593.36
902.845	9562.18
903.159	9496.42
903.473	9526.25
903.787	9436.31
904.101	9471.78
904.415	9400.6
904.729	9385.46
905.042	9364.22
905.356	9362.86
905.67	9292.81
905.984	9253.71
906.297	9197.22
906.611	9173.49
906.924	9096.88
907.237	9134.17
907.551	9075.64
907.864	9001.29
908.177	8963.1
908.491	8983.89
908.804	8925.13
909.117	8889.43
909.43	8815.08
909.743	8795.87
910.056	8770.33
910.368	8743.89
910.681	8691.92
910.994	8682.88
911.307	8679.49
911.619	8611.02
911.932	8547.97
912.244	8517.01
912.557	8483.34
912.869	8470
913.181	8419.38
913.494	8326.5
913.806	8363.57
914.118	8304.58
914.43	8276.11
914.742	8278.37
915.054	8213.29
915.366	8164.7
915.678	8174.42
915.99	8045.38
916.302	7982.33
916.613	8046.74
916.925	8066.85
917.236	7967.42
917.548	7973.97
917.859	7977.81
918.171	7875.67
918.482	7885.84
918.794	7787.54
919.105	7816.46
919.416	7740.53
919.727	7738.27
920.038	7674.32
920.349	7640.87
920.66	7644.71
920.971	7556.35
921.282	7630.7
921.593	7466.64
921.903	7454.66
922.214	7420.54
922.525	7393.65
922.835	7420.09
923.146	7366.3
923.456	7307.55
923.767	7303.48
924.077	7225.06
924.387	7238.62
924.697	7228.68
925.008	7197.49
925.318	7132.86
925.628	7157.72
925.938	7161.79
926.248	7012.41
926.558	6993.66
926.867	6974.45
927.177	6983.94
927.487	6902.36
927.796	6844.06
928.106	6861.46
928.416	6887.45
928.725	6815.13
929.034	6702.14
929.344	6757.51
929.653	6771.97
929.962	6714.8
930.271	6594.8
930.581	6614.01
930.89	6560
931.199	6542.37
931.508	6553.67
931.817	6488.81
932.125	6498.76
932.434	6491.52
932.743	6485.65
933.051	6376.05
933.36	6395.26
933.669	6324.07
933.977	6340.57
934.286	6303.96
934.594	6262.6
934.902	6268.25
935.21	6198.2
935.519	6239.78
935.827	6191.19
936.135	6169.05
936.443	6084.98
936.751	6051.76
937.059	6068.94
937.367	5983.29
937.674	6062.83
937.982	5979.45
938.29	5916.85
938.597	5933.57
938.905	5876.17
939.213	5917.3
939.52	5854.25
939.827	5820.13
940.135	5792.33
940.442	5787.59
940.749	5771.77
941.056	5753.92
941.363	5669.4
941.67	5650.87
941.977	5649.96
942.284	5619.46
942.591	5627.59
942.898	5576.52
943.205	5577.88
943.511	5490.65
943.818	5514.15
944.125	5486.8
944.431	5468.5
944.738	5452
945.044	5428.5
945.35	5385.56
945.657	5374.94
945.963	5361.61
946.269	5275.06
946.575	5278
946.881	5259.69
947.187	5241.61
947.493	5270.31
947.799	5197.09
948.105	5184.67
948.41	5143.54
948.716	5120.71
949.022	5144.44
949.327	5127.27
949.633	5090.66
949.938	5071.45
950.244	5050.66
950.549	5032.58
950.854	4999.81
951.16	4981.06
951.465	4926.59
951.77	4913.26
952.075	4899.48
952.38	4913.49
952.685	4910.55
952.99	4818.12
953.294	4835.3
953.599	4800.95
953.904	4795.3
954.209	4749.2
954.513	4762.53
954.818	4722.08
955.122	4698.35
955.426	4672.81
955.731	4603.21
956.035	4626.71
956.339	4575.42
956.643	4604.34
956.948	4598.47
957.252	4541.52
957.556	4527.06
957.86	4470.33
958.163	4478.24
958.467	4475.53
958.771	4469.2
959.075	4465.81
959.378	4408.42
959.682	4430.56
959.985	4366.83
960.289	4361.64
960.592	4267.18
960.896	4283.9
961.199	4349.66
961.502	4312.6
961.805	4271.7
962.108	4287.51
962.411	4213.62
962.714	4191.25
963.017	4179.95
963.32	4165.48
963.623	4114.41
963.926	4106.5
964.228	4081.19
964.531	4099.5
964.833	4121.42
965.136	4046.39
965.438	4073.73
965.741	4030.8
966.043	3990.12
966.345	4007.75
966.648	3984.02
966.95	3962.1
967.252	3939.5
967.554	3931.37
967.856	3907.86
968.158	3856.34
968.46	3873.29
968.761	3807.98
969.063	3824.48
969.365	3825.38
969.666	3829.45
969.968	3781.76
970.269	3747.64
970.571	3729.79
970.872	3705.38
971.174	3709.22
971.475	3680.3
971.776	3701.54
972.077	3630.58
972.378	3663.35
972.679	3657.02
972.98	3627.87
973.281	3599.17
973.582	3582.22
973.883	3589.45
974.183	3568.44
974.484	3589.45
974.785	3544.26
975.085	3540.42
975.386	3539.74
975.686	3497.48
975.986	3471.94
976.287	3448.21
976.587	3394.43
976.887	3432.17
977.187	3430.59
977.487	3432.62
977.787	3374.77
978.087	3332.06
978.387	3364.6
978.687	3339.06
978.987	3348.33
979.286	3317.14
979.586	3328.22
979.885	3293.42
980.185	3257.94
980.484	3237.82
980.784	3224.72
981.083	3244.15
981.382	3210.71
981.682	3210.71
981.981	3178.62
982.28	3174.78
982.579	3145.85
982.878	3144.95
983.177	3138.84
983.475	3134.32
983.774	3087.77
984.073	3067.66
984.372	3027.21
984.67	3071.5
984.969	3047.32
985.267	3054.78
985.566	2997.83
985.864	2990.6
986.162	2974.33
986.461	2971.84
986.759	2955.8
987.057	2942.69
987.355	2941.34
987.653	2924.39
987.951	2915.12
988.249	2876.7
988.547	2883.48
988.844	2870.6
989.142	2840.77
989.44	2832.64
989.737	2806.88
990.035	2818.17
990.332	2790.15
990.63	2798.74
990.927	2758.29
991.224	2792.64
991.521	2766.42
991.819	2699.53
992.116	2718.06
992.413	2703.38
992.71	2675.13
993.006	2692.08
993.303	2671.06
993.6	2676.03
993.897	2640.1
994.193	2649.59
994.49	2641.23
994.787	2593.77
995.083	2573.66
995.379	2582.25
995.676	2576.82
995.972	2555.13
996.268	2547.67
996.565	2556.71
996.861	2483.95
997.157	2489.37
997.453	2489.6
997.749	2456.6
998.044	2439.88
998.34	2452.76
998.636	2396.26
998.932	2415.02
999.227	2394.91
999.523	2389.26
999.818	2387.45
1000.114	2402.14
1000.409	2348.36
1000.704	2378.41
1001	2352.42
1001.295	2301.13
1001.59	2305.42
1001.885	2297.96
1002.18	2270.39
1002.475	2288.24
1002.77	2275.82
1003.065	2236.49
1003.359	2236.04
1003.654	2219.09
1003.949	2234.24
1004.243	2188.13
1004.538	2178.19
1004.832	2165.08
1005.127	2160.56
1005.421	2169.83
1005.715	2149.49
1006.009	2115.37
1006.304	2136.84
1006.598	2109.27
1006.892	2101.36
1007.186	2072.66
1007.48	2094.8
1007.773	2048.93
1008.067	2028.59
1008.361	2020.91
1008.655	2029.27
1008.948	2037.86
1009.242	2018.87
1009.535	1998.54
1009.829	1955.82
1010.122	1995.15
1010.415	1923.96
1010.708	1897.75
1011.001	1969.38
1011.295	1903.17
1011.588	1894.58
1011.881	1884.87
1012.173	1880.35
1012.466	1904.07
1012.759	1867.47
1013.052	1906.79
1013.344	1829.5
1013.637	1829.95
1013.93	1805.55
1014.222	1820.01
1014.514	1804.42
1014.807	1777.3
1015.099	1800.35
1015.391	1755.15
1015.683	1764.19
1015.976	1760.8
1016.268	1735.72
1016.56	1725.77
1016.851	1735.94
1017.143	1704.08
1017.435	1714.25
1017.727	1690.75
1018.018	1660.92
1018.31	1672.22
1018.602	1619.56
1018.893	1640.13
1019.185	1638.09
1019.476	1617.75
1019.767	1619.79
1020.058	1585.89
1020.35	1582.27
1020.641	1584.08
1020.932	1588.38
1021.223	1558.55
1021.514	1536.85
1021.804	1514.93
1022.095	1509.51
1022.386	1502.05
1022.677	1512.67
1022.967	1520.36
1023.258	1493.24
1023.548	1482.39
1023.839	1465.89
1024.129	1454.82
1024.419	1471.32
1024.709	1443.07
1025	1417.53
1025.29	1426.8
1025.58	1391.32
1025.87	1396.06
1026.16	1385.67
1026.449	1385.9
1026.739	1367.82
1027.029	1360.81
1027.319	1351.09
1027.608	1343.41
1027.898	1351.09
1028.187	1332.56
1028.477	1344.31
1028.766	1317.87
1029.055	1297.08
1029.344	1280.81
1029.634	1282.85
1029.923	1248.27
1030.212	1277.42
1030.501	1274.94
1030.79	1247.14
1031.078	1247.14
1031.367	1235.39
1031.656	1231.78
1031.945	1222.28
1032.233	1204.21
1032.522	1202.17
1032.81	1187.71
1033.099	1194.71
1033.387	1188.16
1033.675	1157.88
1033.963	1177.31
1034.251	1179.35
1034.54	1160.59
1034.828	1134.83
1035.116	1121.95
1035.403	1144.09
1035.691	1110.65
1035.979	1118.33
1036.267	1088.73
1036.554	1078.56
1036.842	1093.93
1037.129	1082.63
1037.417	1075.17
1037.704	1074.04
1037.992	1086.02
1038.279	1046.24
1038.566	1055.73
1038.853	1055.73
1039.14	1055.73
