Data from breadboard_black_back_FLMS001491_00063.txt Node
Date: Wed Feb 08 10:50:43 GMT 2017
User: dcchb
Spectrometer: FLMS00149
Trigger mode: 0
Integration Time (sec): 2.000000E-2
Scans to average: 10
Electric dark correction enabled: true
Nonlinearity correction enabled: false
Boxcar width: 0
XAxis mode: Wavelengths
Number of Pixels in Spectrum: 2048
>>>>>Begin Spectral Data<<<<<
341.393	-12.75
341.776	-12.75
342.16	-12.75
342.543	-59.76
342.927	-63.83
343.31	-65.18
343.693	-61.34
344.077	-77.38
344.46	-77.16
344.843	-34.22
345.226	-46.65
345.61	-34
345.993	-9.82
346.376	8.04
346.759	2.16
347.142	4.42
347.525	64.31
347.908	47.58
348.291	74.02
348.674	90.52
349.057	114.7
349.44	118.32
349.823	129.39
350.206	158.32
350.588	189.5
350.971	205.09
351.354	209.61
351.737	247.13
352.119	239.67
352.502	257.52
352.884	257.3
353.267	282.83
353.65	286.9
354.032	283.51
354.414	307.69
354.797	327.12
355.179	304.98
355.562	315.15
355.944	314.24
356.326	338.2
356.709	315.83
357.091	346.56
357.473	347.24
357.855	323.06
358.238	333.9
358.62	330.97
359.002	339.55
359.384	337.75
359.766	357.18
360.148	369.83
360.53	357.18
360.912	346.56
361.294	335.03
361.676	354.02
362.057	326.67
362.439	314.02
362.821	319.44
363.203	323.96
363.584	335.49
363.966	317.86
364.348	327.35
364.729	325.99
365.111	340.91
365.493	330.06
365.874	332.1
366.256	328.48
366.637	321.25
367.019	329.84
367.4	324.19
367.781	320.12
368.163	340.23
368.544	313.57
368.925	323.96
369.306	320.12
369.688	309.05
370.069	325.77
370.45	323.96
370.831	344.07
371.212	343.17
371.593	316.28
371.974	337.29
372.355	339.1
372.736	355.82
373.117	347.01
373.498	337.07
373.879	351.53
374.26	327.8
374.641	347.24
375.021	335.94
375.402	352.89
375.783	345.43
376.163	361.25
376.544	367.8
376.925	372.09
377.305	353.56
377.686	367.12
378.066	375.03
378.447	376.39
378.827	369.38
379.208	381.13
379.588	367.58
379.968	370.51
380.349	370.51
380.729	361.93
381.109	387.46
381.489	368.48
381.87	366.67
382.25	384.75
382.63	402.83
383.01	401.02
383.39	413.68
383.77	391.53
384.15	403.05
384.53	401.7
384.91	407.12
385.29	406.22
385.67	407.57
386.049	414.58
386.429	399.21
386.809	419.1
387.189	405.77
387.568	424.52
387.948	411.42
388.328	452.54
388.707	432.66
389.087	451.19
389.466	427.69
389.846	450.74
390.225	441.25
390.605	442.38
390.984	454.58
391.363	464.97
391.743	454.58
392.122	461.36
392.501	462.94
392.881	473.34
393.26	464.3
393.639	488.02
394.018	471.3
394.397	490.96
394.776	499.55
395.155	498.65
395.534	498.65
395.913	507.01
396.292	489.83
396.671	514.46
397.05	494.35
397.429	530.06
397.808	521.47
398.186	553.56
398.565	512.43
398.944	525.76
399.323	555.59
399.701	553.33
400.08	520.11
400.458	540.9
400.837	549.72
401.215	531.64
401.594	556.5
401.972	560.11
402.351	567.8
402.729	558.53
403.107	597.63
403.486	561.92
403.864	593.78
404.242	601.24
404.62	608.47
404.999	598.76
405.377	624.52
405.755	587
406.133	617.06
406.511	615.48
406.889	659.77
407.267	633.33
407.645	660.45
408.023	656.38
408.401	657.28
408.779	669.04
409.156	664.29
409.534	678.53
409.912	705.65
410.29	693.67
410.667	686.44
411.045	706.55
411.422	714.46
411.8	711.75
412.178	749.71
412.555	767.79
412.933	746.55
413.31	761.46
413.687	754.01
414.065	787
414.442	774.34
414.819	812.54
415.197	798.07
415.574	818.41
415.951	811.86
416.328	822.25
416.705	831.52
417.082	823.38
417.46	825.42
417.837	851.86
418.214	869.48
418.591	866.32
418.967	823.61
419.344	891.63
419.721	883.49
420.098	894.34
420.475	896.83
420.852	908.35
421.228	914.68
421.605	916.04
421.982	933.44
422.358	923.49
422.735	956.03
423.111	946.09
423.488	966.88
423.864	976.82
424.241	989.93
424.617	993.55
424.994	1003.72
425.37	1008.01
425.746	1023.6
426.123	1038.97
426.499	1032.64
426.875	1045.52
427.251	1069.93
427.627	1079.19
428.003	1089.14
428.379	1121
428.756	1120.1
429.132	1113.09
429.507	1148.35
429.883	1146.76
430.259	1206.42
430.635	1180.66
431.011	1206.88
431.387	1223.82
431.763	1250.49
432.138	1233.32
432.514	1251.39
432.89	1288.45
433.265	1314.44
433.641	1318.28
434.016	1329.36
434.392	1358.51
434.767	1358.74
435.143	1357.38
435.518	1384.5
435.894	1399.64
436.269	1410.71
436.644	1398.28
437.02	1455
437.395	1468.79
437.77	1468.56
438.145	1494.55
438.52	1481.67
438.895	1492.52
439.271	1503.14
439.646	1544.49
440.021	1566.19
440.395	1567.09
440.77	1555.11
441.145	1587.2
441.52	1600.99
441.895	1618.39
442.27	1641.21
442.645	1587.43
443.019	1634.89
443.394	1661.78
443.769	1664.72
444.143	1668.78
444.518	1714.21
444.892	1715.79
445.267	1699.97
445.641	1733.41
446.016	1713.98
446.39	1750.14
446.764	1760.98
447.139	1781.55
447.513	1763.47
447.887	1820.42
448.262	1810.02
448.636	1796.69
449.01	1843.24
449.384	1853.64
449.758	1863.35
450.132	1902.22
450.506	1910.59
450.88	1923.92
451.254	1929.12
451.628	1943.58
452.002	1943.8
452.376	1982.22
452.75	2052.73
453.123	2030.58
453.497	2046.4
453.871	2029
454.244	2120.52
454.618	2103.35
454.992	2126.85
455.365	2137.02
455.739	2200.3
456.112	2245.94
456.486	2265.15
456.859	2276.68
457.232	2306.51
457.606	2296.56
457.979	2342.21
458.352	2414.07
458.725	2401.65
459.099	2443.23
459.472	2489.1
459.845	2506.5
460.218	2525.48
460.591	2551.47
460.964	2561.87
461.337	2614.52
461.71	2671.47
462.083	2692.49
462.456	2713.95
462.829	2725.25
463.201	2779.72
463.574	2789.66
463.947	2828.98
464.32	2861.07
464.692	2877.34
465.065	2955.76
465.438	2921.86
465.81	3002.53
466.183	3053.83
466.555	3099.93
466.928	3135.41
467.3	3120.95
467.672	3160.04
468.045	3245.01
468.417	3266.26
468.789	3329.98
469.161	3336.54
469.534	3382.86
469.906	3402.98
470.278	3467.83
470.65	3544.67
471.022	3557.32
471.394	3634.16
471.766	3638.9
472.138	3710.76
472.51	3770.65
472.882	3877.77
473.253	3853.59
473.625	3981.49
473.997	4030.53
474.369	4060.36
474.74	4074.82
475.112	4161.6
475.484	4218.77
475.855	4324.31
476.227	4330.86
476.598	4466.9
476.97	4523.62
477.341	4578.09
477.713	4698.53
478.084	4741.25
478.455	4834.35
478.827	4868.93
479.198	5037.28
479.569	5046.1
479.94	5206.32
480.311	5231.63
480.682	5291.97
481.053	5439.53
481.424	5541.9
481.795	5583.26
482.166	5675.23
482.537	5753.2
482.908	5890.14
483.279	5970.37
483.65	6071.83
484.021	6145.28
484.391	6213.3
484.762	6274.54
485.133	6324.25
485.503	6455.32
485.874	6588.88
486.244	6598.37
486.615	6747.75
486.985	6839.5
487.356	7021.19
487.726	6992.49
488.097	7134.4
488.467	7178.47
488.837	7339.82
489.207	7448.29
489.578	7568.29
489.948	7559.7
490.318	7703.88
490.688	7704.33
491.058	7909.75
491.428	8004.21
491.798	8056.19
492.168	8239.01
492.538	8287.37
492.908	8332.56
493.278	8429.96
493.648	8486.68
494.017	8585.21
494.387	8667.47
494.757	8758.09
495.126	8816.62
495.496	8877.63
495.866	8907.46
496.235	9132.09
496.605	9126.44
496.974	9170.96
497.344	9346.32
497.713	9332.31
498.082	9376.6
498.452	9543.38
498.821	9539.09
499.19	9633.32
499.559	9678.06
499.928	9763.03
500.298	9841.68
500.667	9929.81
501.036	9920.77
501.405	10067.66
501.774	10158.73
502.143	10203.02
502.512	10212.74
502.88	10325.73
503.249	10327.77
503.618	10418.61
503.987	10481.21
504.356	10577.25
504.724	10596.01
505.093	10652.28
505.462	10733.18
505.83	10794.87
506.199	10953.74
506.567	11087.07
506.936	11055.2
507.304	11205.03
507.672	11213.62
508.041	11250
508.409	11449.54
508.777	11511.01
509.145	11624.45
509.514	11589.2
509.882	11692.02
510.25	11821.74
510.618	11818.35
510.986	11937.89
511.354	12041.62
511.722	12149.86
512.09	12186.25
512.458	12256.75
512.826	12344.66
513.193	12329.29
513.561	12550.53
513.929	12607.93
514.297	12720.47
514.664	12743.07
515.032	12927.92
515.4	13021.93
515.767	13078.43
516.135	13109.61
516.502	13174.24
516.869	13325.2
517.237	13369.72
517.604	13326.1
517.972	13572.65
518.339	13700.11
518.706	13745.08
519.073	13758.64
519.44	13904.85
519.808	14124.05
520.175	13980.32
520.542	14284.72
520.909	14371.05
521.276	14444.95
521.643	14524.26
522.009	14635.67
522.376	14739.63
522.743	14846.97
523.11	15060.75
523.477	15098.26
523.843	15292.61
524.21	15406.95
524.577	15507.74
524.943	15630.68
525.31	15731.69
525.676	15940.27
526.043	15947.73
526.409	16005.36
526.776	16238.57
527.142	16245.58
527.508	16399.92
527.874	16475.17
528.241	16584.1
528.607	16703.87
528.973	16901.83
529.339	16929.17
529.705	17032.22
530.071	17224.53
530.437	17253.68
530.803	17402.83
531.169	17501.59
531.535	17476.28
531.901	17631.98
532.267	17683.5
532.632	17829.94
532.998	17912.2
533.364	17973.89
533.73	18017.96
534.095	18157.84
534.461	18229.7
534.826	18283.26
535.192	18387.21
535.557	18572.97
535.923	18575.46
536.288	18680.09
536.653	18790.59
537.019	18686.87
537.384	18816.81
537.749	18935.67
538.114	19008.67
538.479	18997.37
538.845	19108.1
539.21	19140.64
539.575	19298.15
539.94	19367.53
540.305	19492.95
540.67	19444.59
541.034	19585.37
541.399	19616.33
541.764	19736.78
542.129	19724.81
542.494	19805.03
542.858	19917.12
543.223	19883.45
543.587	20142.87
543.952	20066.49
544.316	20125.02
544.681	20139.26
545.045	20249.99
545.41	20409.08
545.774	20389.42
546.138	20512.81
546.503	20541.06
546.867	20554.61
547.231	20700.83
547.595	20740.37
547.959	20764.1
548.324	20780.15
548.688	20888.39
549.052	21002.29
549.416	21103.53
549.779	21112.34
550.143	21218.55
550.507	21407.47
550.871	21496.29
551.235	21470.07
551.599	21603.63
551.962	21686.34
552.326	21679.56
552.689	21903.05
553.053	21771.98
553.417	21886.56
553.78	22211.07
554.143	22059.66
554.507	22108.25
554.87	22296.04
555.234	22439.09
555.597	22355.02
555.96	22555.92
556.323	22611.06
556.686	22692.41
557.05	22847.66
557.413	22908
557.776	22925.63
558.139	23097.37
558.502	23105.51
558.865	23236.58
559.228	23510.47
559.59	23501.2
559.953	23466.63
560.316	23605.38
560.679	23724.7
561.041	23897.8
561.404	23931.93
561.767	24141.87
562.129	24131.92
562.492	24324.91
562.854	24375.76
563.217	24456.89
563.579	24480.16
563.941	24665.47
564.304	24788.18
564.666	24913.37
565.028	24957.21
565.39	25115.62
565.753	25226.81
566.115	25349.97
566.477	25393.58
566.839	25553.13
567.201	25710.41
567.563	25627.93
567.925	25774.59
568.287	25935.94
568.648	25931.65
569.01	26121.25
569.372	26169.38
569.734	26287.12
570.095	26403.73
570.457	26426.55
570.819	26417.96
571.18	26607.56
571.542	26775.92
571.903	26784.73
572.265	26875.58
572.626	26838.74
572.987	27061.56
573.349	27100.43
573.71	27242.35
574.071	27186.53
574.432	27366.87
574.794	27543.58
575.155	27429.01
575.516	27494.55
575.877	27535.45
576.238	27519.63
576.599	27835.1
576.96	27733.41
577.32	27731.83
577.681	27970.01
578.042	27973.4
578.403	27929.11
578.763	27870.58
579.124	28003.68
579.485	28125.72
579.845	28237.12
580.206	28246.84
580.566	28210.68
580.927	28355.54
581.287	28421.07
581.648	28283.45
582.008	28363.68
582.368	28257.01
582.728	28403.45
583.089	28388.08
583.449	28344.24
583.809	28334.07
584.169	28605.02
584.529	28419.72
584.889	28640.05
585.249	28466.27
585.609	28288.65
585.969	28575.42
586.329	28445.03
586.688	28604.8
587.048	28461.98
587.408	28518.02
587.768	28502.65
588.127	28519.38
588.487	28432.15
588.846	28582.65
589.206	28514.63
589.565	28504.46
589.925	28729.09
590.284	28567.29
590.643	28565.25
591.003	28675.76
591.362	28730.45
591.721	28622.2
592.08	28588.08
592.44	28851.12
592.799	28742.2
593.158	28731.8
593.517	28661.75
593.876	28700.16
594.235	28643.22
594.593	28784.91
594.952	28728.19
595.311	28732.93
595.67	28847.5
596.029	28938.35
596.387	28924.79
596.746	29090.21
597.104	28942.19
597.463	28856.09
597.822	29025.13
598.18	28895.64
598.538	28829.2
598.897	28991.68
599.255	28840.72
599.613	29198.68
599.972	29077.55
600.33	29107.84
600.688	28967.95
601.046	29081.62
601.404	29251.56
601.762	29176.08
602.12	29187.38
602.478	29291.56
602.836	29261.5
603.194	29076.42
603.552	29245.46
603.91	29241.17
604.268	29298.79
604.625	29262.86
604.983	29450.2
605.341	29280.49
605.698	29406.59
606.056	29407.94
606.413	29480.48
606.771	29673.25
607.128	29577.2
607.485	29520.71
607.843	29580.14
608.2	29734.26
608.557	29806.35
608.914	29821.04
609.272	29848.16
609.629	29854.26
609.986	29848.16
610.343	29806.8
610.7	29890.64
611.057	30001.6
611.414	29874.37
611.771	30073.69
612.127	30083.63
612.484	30036.4
612.841	30169.28
613.198	30109.17
613.554	29983.75
613.911	30330.63
614.267	30230.29
614.624	30233.68
614.98	30231.2
615.337	30344.87
615.693	30362.49
616.05	30349.16
616.406	30443.85
616.762	30551.87
617.118	30391.87
617.475	30381.02
617.831	30606.55
618.187	30564.75
618.543	30576.05
618.899	30779.88
619.255	30642.94
619.611	30668.02
619.967	30700.79
620.323	30838.19
620.678	30557.06
621.034	30644.75
621.39	30588.7
621.746	30572.66
622.101	30896.26
622.457	30620.56
622.812	30671.19
623.168	30835.93
623.523	30764.29
623.879	30931.52
624.234	30715.03
624.589	30852.42
624.945	30845.87
625.3	30899.88
625.655	30781.01
626.01	30677.29
626.365	30753.22
626.72	30764.06
627.075	30707.79
627.43	30755.02
627.785	30692.43
628.14	30752.99
628.495	30727.45
628.85	30720.9
629.205	30676.61
629.559	30802.93
629.914	30754.12
630.269	30698.53
630.623	30606.1
630.978	30513.68
631.332	30771.52
631.687	30603.84
632.041	30482.94
632.396	30711.86
632.75	30522.71
633.104	30619.21
633.459	30333.57
633.813	30419.89
634.167	30386.67
634.521	30422.83
634.875	30320.69
635.229	30338.09
635.583	30150.75
635.937	30173.12
636.291	30263.96
636.645	30162.72
636.999	30146
637.352	30108.94
637.706	30073.46
638.06	30168.37
638.413	29906.69
638.767	29901.94
639.121	29955.95
639.474	29826.46
639.828	29922.73
640.181	29771.77
640.534	29794.6
640.888	29737.65
641.241	29513.7
641.594	29638.67
641.947	29735.39
642.301	29621.5
642.654	29629.63
643.007	29672.57
643.36	29566.13
643.713	29483.19
644.066	29566.58
644.419	29470.99
644.771	29223.54
645.124	29011.57
645.477	29001.85
645.83	28749.2
646.182	28507.4
646.535	28525.48
646.888	28577.23
647.24	28231.7
647.593	28452.03
647.945	28383.56
648.298	28168.88
648.65	28249.78
649.002	28161.42
649.355	28261.76
649.707	28220.63
650.059	28310.34
650.411	28739.03
650.763	28812.7
651.115	29039.82
651.467	28856.09
651.819	28939.93
652.171	28764.57
652.523	28712.14
652.875	28756.66
653.227	28605.25
653.578	28721.63
653.93	28665.14
654.282	28549.66
654.633	28482.54
654.985	28679.82
655.337	28554.4
655.688	28551.24
656.039	28640.5
656.391	28431.02
656.742	28421.53
657.094	28458.14
657.445	28464.92
657.796	28443.67
658.147	28343.56
658.498	28362.09
658.849	28399.61
659.2	28273.96
659.551	28410.23
659.902	28331.81
660.253	28375.88
660.604	28338.82
660.955	28101.99
661.306	28265.82
661.656	28286.84
662.007	28286.61
662.358	28201.65
662.708	28257.92
663.059	28200.06
663.409	28072.84
663.76	28150.57
664.11	28223.79
664.461	28240.97
664.811	28153.06
665.161	28169.1
665.511	28024.02
665.862	28117.81
666.212	28111.48
666.562	28177.92
666.912	28041.65
667.262	27995.78
667.612	27955.32
667.962	28025.15
668.312	28030.8
668.662	28166.62
669.011	27883.24
669.361	27965.72
669.711	27997.13
670.06	27878.94
670.41	27940.86
670.76	27774.31
671.109	27963.01
671.459	27897.25
671.808	27816.34
672.157	27835.55
672.507	27694.31
672.856	27667.42
673.205	27611.38
673.554	27878.94
673.904	27622
674.253	27788.77
674.602	27645.05
674.951	27323.48
675.3	27038.06
675.649	27512.62
675.998	27496.35
676.346	27489.12
676.695	27676.01
677.044	27408.9
677.393	27409.35
677.741	27514.88
678.09	27480.31
678.438	27351.05
678.787	27352.85
679.135	27335.45
679.484	27180.66
679.832	27336.13
680.181	27077.16
680.529	27205.29
680.877	27107.44
681.225	27125.29
681.573	27248.68
681.922	27085.06
682.27	26984.73
682.618	26938.63
682.966	26996.25
683.314	26910.38
683.661	26917.39
684.009	26700.22
684.357	26708.58
684.705	26625.87
685.053	26657.05
685.4	26662.48
685.748	26407.34
686.095	26399.21
686.443	26351.52
686.79	26306.33
687.138	26418.19
687.485	26331.41
687.832	26258.42
688.18	26336.16
688.527	26154.24
688.874	26173
689.221	26121.7
689.568	25956.05
689.915	25873.12
690.262	25932.78
690.609	25874.7
690.956	25646.46
691.303	25716.29
691.65	25583.86
691.997	25646.46
692.344	25491.21
692.69	25429.51
693.037	25472.68
693.383	25180.93
693.73	25337.31
694.077	25129.18
694.423	25161.95
694.769	25019.36
695.116	24955.86
695.462	25000.83
695.808	24732.58
696.155	24903.2
696.501	24797.44
696.847	24708.63
697.193	24514.28
697.539	24667.5
697.885	24566.94
698.231	24416.43
698.577	24403.55
698.923	24255.08
699.269	24227.74
699.614	24062.09
699.96	24128.98
700.306	24159.94
700.651	24010.34
700.997	23877.92
701.342	23921.98
701.688	23804.02
702.033	23696.45
702.379	23720.63
702.724	23628.43
703.069	23801.99
703.415	23463.92
703.76	23432.28
704.105	23475.44
704.45	23409
704.795	23221.66
705.14	23077.03
705.485	23106.41
705.83	23107.77
706.175	23155.9
706.52	23062.8
706.865	22899.41
707.209	22855.12
707.554	22820.09
707.899	22783.93
708.243	22800.43
708.588	22688.8
708.932	22544.62
709.277	22512.08
709.621	22644.96
709.966	22375.58
710.31	22446.99
710.654	22274.34
710.998	22285.42
711.342	22327.9
711.687	22169.94
712.031	22119.77
712.375	22140.79
712.719	22154.57
713.063	21953.9
713.407	22136.27
713.75	21943.5
714.094	21962.49
714.438	21872.77
714.782	21878.42
715.125	21740.35
715.469	21803.4
715.812	21693.79
716.156	21665.55
716.499	21642.04
716.843	21525.21
717.186	21536.96
717.53	21521.6
717.873	21582.61
718.216	21440.24
718.559	21357.76
718.902	21115.05
719.246	21282.05
719.589	21273.69
719.932	21102.62
720.275	21109.4
720.617	21066.92
720.96	21107.14
721.303	21084.09
721.646	21040.7
721.989	20881.61
722.331	21002.74
722.674	20828.05
723.016	20852.91
723.359	20800.94
723.701	20804.1
724.044	20743.31
724.386	20615.86
724.729	20706.93
725.071	20612.01
725.413	20637.1
725.755	20549.42
726.097	20426.71
726.439	20381.96
726.782	20453.15
727.124	20590.55
727.465	20417.22
727.807	20418.35
728.149	20235.53
728.491	20348.29
728.833	20349.2
729.175	20153.95
729.516	20215.41
729.858	20139.48
730.199	20200.27
730.541	20143.78
730.882	20119.82
731.224	20166.15
731.565	19940.85
731.906	20045.25
732.248	20030.56
732.589	19901.98
732.93	19917.57
733.271	19892.49
733.612	19904.91
733.953	19973.39
734.294	19727.29
734.635	19719.38
734.976	19772.49
735.317	19726.84
735.658	19628.09
735.999	19634.87
736.339	19700.63
736.68	19547.64
737.021	19594.87
737.361	19405.49
737.702	19594.64
738.042	19444.59
738.383	19554.42
738.723	19510.12
739.063	19406.85
739.404	19414.98
739.744	19303.8
740.084	19211.15
740.424	19364.59
740.764	19201.88
741.104	19329.79
741.444	19124.6
741.784	19119.62
742.124	19073.98
742.464	18968.67
742.804	19073.3
743.143	18996.46
743.483	19052.73
743.823	18926.86
744.162	18975.67
744.502	18823.59
744.841	18854.55
745.181	18919.18
745.52	18792.4
745.86	18878.73
746.199	18812.51
746.538	18737.71
746.877	18782.46
747.216	18804.15
747.556	18677.83
747.895	18583.14
748.234	18539.75
748.573	18487.32
748.911	18493.43
749.25	18422.92
749.589	18426.54
749.928	18423.37
750.267	18401
750.605	18285.3
750.944	18348.8
751.283	18198.74
751.621	18218.18
751.96	18163.04
752.298	18100.22
752.636	18076.71
752.975	18060.9
753.313	17962.59
753.651	17943.38
753.989	17927.11
754.327	17799.21
754.666	17762.37
755.004	17801.24
755.342	17881.46
755.679	17828.13
756.017	17614.58
756.355	17728.47
756.693	17526.9
757.031	17635.82
757.368	17543.85
757.706	17488.93
758.044	17410.74
758.381	17402.83
758.719	17421.59
759.056	17380.01
759.394	17280.8
759.731	17187.7
760.068	17232.44
760.405	17089.17
760.743	17074.03
761.08	17076.97
761.417	17002.84
761.754	16928.04
762.091	16955.61
762.428	16822.74
762.765	16746.13
763.102	16938.89
763.438	16789.06
763.775	16632.46
764.112	16600.82
764.449	16533.25
764.785	16536.19
765.122	16330.77
765.458	16356.99
765.795	16328.06
766.131	16267.95
766.467	16223.2
766.804	16204.22
767.14	16050.78
767.476	16081.51
767.812	16085.81
768.148	16058.46
768.485	15896.43
768.821	15792.93
769.157	15826.83
769.492	15828.86
769.828	15813.5
770.164	15644.46
770.5	15602.65
770.836	15540.06
771.171	15374.64
771.507	15488.31
771.842	15326.05
772.178	15393.39
772.513	15281.08
772.849	15202.21
773.184	15150.46
773.519	15166.96
773.855	15073.86
774.19	14981.65
774.525	15048.32
774.86	15047.87
775.195	14876.35
775.53	14931.94
775.865	14745.05
776.2	14647.2
776.535	14683.13
776.87	14565.17
777.205	14457.15
777.539	14438.17
777.874	14468
778.209	14277.04
778.543	14295.57
778.878	14283.82
779.212	14250.6
779.547	14119.08
779.881	14212.18
780.215	14037.95
780.55	14148.91
780.884	13958.18
781.218	13948.46
781.552	13960.89
781.886	13825.75
782.22	13829.37
782.554	13707.56
782.888	13640.45
783.222	13536.72
783.556	13584.18
783.889	13495.37
784.223	13493.33
784.557	13442.03
784.89	13371.75
785.224	13336.05
785.557	13274.35
785.891	13189.38
786.224	13169.95
786.558	13116.17
786.891	13037.07
787.224	13032.55
787.557	12976.96
787.891	12979.9
788.224	12937.41
788.557	12892.67
788.89	12884.99
789.223	12909.84
789.556	12694.03
789.888	12769.06
790.221	12668.04
790.554	12565.67
790.887	12678.44
791.219	12547.82
791.552	12569.06
791.884	12402.06
792.217	12426.92
792.549	12334.94
792.882	12247.26
793.214	12373.14
793.546	12288.17
793.879	12192.57
794.211	12133.82
794.543	12164.1
794.875	12092.24
795.207	12086.14
795.539	12040.94
795.871	11998.46
796.203	12019.47
796.535	11838.69
796.867	11828.97
797.198	11846.14
797.53	11744.23
797.862	11667.84
798.193	11710.1
798.525	11669.65
798.856	11602.53
799.188	11492.25
799.519	11543.33
799.85	11422.43
800.182	11443.44
800.513	11404.8
800.844	11423.1
801.175	11416.1
801.506	11386.04
801.837	11329.09
802.168	11293.16
802.499	11270.34
802.83	11151.92
803.161	11160.96
803.491	11123.9
803.822	11095.43
804.153	11131.36
804.483	10998.71
804.814	10985.37
805.145	10925.49
805.475	10946.51
805.805	10876
806.136	10909.67
806.466	10907.64
806.796	10855.43
807.126	10777.24
807.457	10780.18
807.787	10755.1
808.117	10701.77
808.447	10746.06
808.777	10716.23
809.107	10565.5
809.436	10609.34
809.766	10653.18
810.096	10595.33
810.426	10493.41
810.755	10492.28
811.085	10497.25
811.414	10398.95
811.744	10397.37
812.073	10337.93
812.403	10384.94
812.732	10338.84
813.061	10316.92
813.39	10245.96
813.719	10209.8
814.049	10270.14
814.378	10179.97
814.707	10189.92
815.036	10168.22
815.365	10035.8
815.693	10006.64
816.022	10066.98
816.351	9944.27
816.68	9874.22
817.008	9909.92
817.337	9879.87
817.665	9825.86
817.994	9872.64
818.322	9905.63
818.651	9888.45
818.979	9838.74
819.307	9844.39
819.636	9793.54
819.964	9749.93
820.292	9757.16
820.62	9731.4
820.948	9730.94
821.276	9778.85
821.604	9763.26
821.932	9737.05
822.259	9704.28
822.587	9689.59
822.915	9685.75
823.243	9731.62
823.57	9677.16
823.898	9703.6
824.225	9648.69
824.553	9615.69
824.88	9748.35
825.207	9724.17
825.535	9717.16
825.862	9653.66
826.189	9627.67
826.516	9650.49
826.843	9699.99
827.17	9642.81
827.497	9714.9
827.824	9667.22
828.151	9739.31
828.478	9656.14
828.805	9778.4
829.131	9668.12
829.458	9719.87
829.785	9620.89
830.111	9650.95
830.438	9699.31
830.764	9642.81
831.09	9637.84
831.417	9593.55
831.743	9714.45
832.069	9610.5
832.395	9603.26
832.722	9708.8
833.048	9619.76
833.374	9573.21
833.7	9602.13
834.026	9653.66
834.351	9572.76
834.677	9583.6
835.003	9583.15
835.329	9542.93
835.654	9553.55
835.98	9456.38
836.306	9521.23
836.631	9490.27
836.956	9537.5
837.282	9455.02
837.607	9415.92
837.932	9420.44
838.258	9478.07
838.583	9372.76
838.908	9308.36
839.233	9386.1
839.558	9331.41
839.883	9266.32
840.208	9301.13
840.533	9321.92
840.858	9276.49
841.182	9269.71
841.507	9229.94
841.832	9271.52
842.156	9233.1
842.481	9221.35
842.805	9144.75
843.13	9118.08
843.454	9125.99
843.778	9148.14
844.103	9086.44
844.427	9057.52
844.751	9070.17
845.075	9040.12
845.399	8981.36
845.723	9094.13
846.047	8964.19
846.371	8941.81
846.695	8882.15
847.019	8835.83
847.343	8797.86
847.666	8776.62
847.99	8792.66
848.313	8733
848.637	8618.66
848.96	8659.11
849.284	8604.42
849.607	8581.82
849.931	8525.1
850.254	8557.64
850.577	8523.07
850.9	8384.54
851.223	8341.83
851.546	8392.22
851.869	8253.02
852.192	8408.95
852.515	8255.73
852.838	8320.13
853.161	8142.51
853.483	8213.7
853.806	8161.49
854.129	8083.3
854.451	8140.48
854.774	8080.82
855.096	8017.54
855.419	8015.74
855.741	7980.48
856.063	7973.7
856.385	7956.53
856.708	7933.03
857.03	7907.72
857.352	7909.52
857.674	7863.2
857.996	7842.41
858.318	7834.5
858.64	7803.31
858.961	7812.58
859.283	7779.81
859.605	7700.04
859.926	7693.03
860.248	7722.86
860.57	7693.26
860.891	7675.18
861.212	7634.05
861.534	7653.49
861.855	7644.67
862.176	7626.14
862.498	7562.64
862.819	7531.45
863.14	7517.44
863.461	7473.6
863.782	7549.08
864.103	7521.51
864.424	7459.14
864.745	7487.39
865.065	7483.77
865.386	7429.76
865.707	7480.16
866.027	7521.96
866.348	7439.71
866.668	7363.55
866.989	7403.32
867.309	7375.07
867.63	7365.13
867.95	7359.48
868.27	7305.7
868.59	7285.59
868.91	7320.61
869.23	7294.85
869.55	7288.75
869.87	7305.25
870.19	7239.26
870.51	7318.58
870.83	7248.52
871.15	7233.61
871.469	7168.07
871.789	7197.23
872.109	7177.34
872.428	7169.88
872.748	7233.16
873.067	7129.43
873.386	7138.24
873.706	7157.68
874.025	7150.67
874.344	7099.38
874.663	7070.68
874.982	7117
875.301	7106.38
875.62	7080.39
875.939	7063.22
876.258	7033.84
876.577	7009.89
876.896	6999.04
877.214	7047.4
877.533	7042.43
877.852	7014.18
878.17	7001.98
878.489	6955.65
878.807	6928.76
879.125	6902.09
879.444	6968.31
879.762	6894.41
880.08	6927.63
880.398	6863
880.716	6925.82
881.034	6845.82
881.352	6792.49
881.67	6860.51
881.988	6887.63
882.306	6814.86
882.624	6816.22
882.941	6768.08
883.259	6733.96
883.577	6754.07
883.894	6760.4
884.212	6761.31
884.529	6716.56
884.846	6710.46
885.164	6703.23
885.481	6673.62
885.798	6703
886.115	6702.1
886.432	6627.52
886.75	6585.49
887.067	6578.03
887.383	6542.55
887.7	6602.44
888.017	6559.73
888.334	6594.08
888.651	6544.59
888.967	6498.49
889.284	6503.91
889.6	6476.57
889.917	6462.78
890.233	6476.57
890.55	6391.82
890.866	6367.64
891.182	6366.97
891.498	6283.58
891.815	6337.14
892.131	6320.86
892.447	6332.39
892.763	6267.08
893.079	6267.08
893.395	6234.31
893.71	6242.9
894.026	6200.19
894.342	6200.87
894.657	6173.07
894.973	6159.06
895.289	6082.91
895.604	6138.04
895.92	6155.9
896.235	6103.02
896.55	6093.07
896.865	6069.35
897.181	6046.52
897.496	6047.43
897.811	6008.1
898.126	5955.68
898.441	5983.25
898.756	5896.47
899.071	5925.17
899.386	5907.54
899.7	5880.42
900.015	5867.32
900.33	5867.32
900.644	5847.21
900.959	5820.77
901.273	5788.22
901.588	5734.67
901.902	5774.66
902.216	5707.32
902.531	5665.97
902.845	5686.53
903.159	5648.34
903.473	5557.95
903.787	5566.53
904.101	5588
904.415	5548.68
904.729	5554.78
905.042	5562.69
905.356	5522.02
905.67	5511.17
905.984	5490.15
906.297	5462.13
906.611	5430.04
906.924	5440.21
907.237	5406.31
907.551	5405.18
907.864	5399.99
908.177	5319.08
908.491	5372.42
908.804	5265.75
909.117	5317.73
909.43	5245.41
909.743	5277.05
910.056	5268.69
910.368	5215.58
910.681	5194.11
910.994	5207.22
911.307	5129.03
911.619	5080.9
911.932	5110.28
912.244	5085.87
912.557	5099.2
912.869	5082.93
913.181	5023.27
913.494	5054.01
913.806	5055.36
914.118	5011.52
914.43	4986.44
914.742	4931.3
915.054	4943.5
915.366	4893.11
915.678	4880.22
915.99	4907.79
916.302	4814.24
916.613	4798.87
916.925	4779.21
917.236	4788.48
917.548	4740.79
917.859	4753.67
918.171	4690.63
918.482	4732.21
918.794	4699.66
919.105	4690.63
919.416	4682.49
919.727	4658.54
920.038	4639.1
920.349	4569.72
920.66	4538.54
920.971	4593.68
921.282	4536.51
921.593	4550.97
921.903	4487.24
922.214	4496.73
922.525	4483.4
922.835	4477.52
923.146	4442.95
923.456	4447.69
923.767	4408.15
924.077	4416.51
924.387	4377.41
924.697	4356.17
925.008	4314.59
925.318	4293.12
925.628	4277.53
925.938	4254.25
926.248	4284.99
926.558	4250.18
926.867	4207.7
927.177	4184.42
927.487	4174.03
927.796	4141.49
928.106	4183.97
928.416	4136.97
928.725	4176.74
929.034	4102.39
929.344	4082.73
929.653	4065.1
929.962	4064.43
930.271	4022.39
930.581	4025.33
930.89	3968.38
931.199	3966.58
931.508	3939.68
931.817	4002.73
932.125	3968.84
932.434	3917.09
932.743	3910.08
933.051	3879.12
933.36	3888.39
933.669	3830.76
933.977	3845.9
934.286	3824.21
934.594	3830.53
934.902	3802.74
935.21	3763.87
935.519	3793.7
935.827	3754.6
936.135	3773.81
936.443	3682.97
936.751	3739.92
937.059	3692.23
937.367	3658.11
937.674	3635.29
937.982	3679.13
938.29	3646.13
938.597	3622.86
938.905	3594.38
939.213	3558.23
939.52	3570.43
939.827	3537.21
940.135	3539.92
940.442	3546.25
940.749	3494.27
941.056	3476.87
941.363	3509.19
941.67	3466.25
941.977	3435.52
942.284	3445.91
942.591	3407.5
942.898	3399.59
943.205	3408.63
943.511	3386.7
943.818	3365.46
944.125	3350.32
944.431	3343.32
944.738	3327.27
945.044	3337.89
945.35	3314.84
945.657	3296.31
945.963	3252.92
946.269	3256.31
946.575	3212.7
946.881	3238.01
947.187	3237.56
947.493	3175.86
947.799	3192.36
948.105	3202.08
948.41	3182.19
948.716	3195.07
949.022	3139.25
949.327	3126.15
949.633	3114.17
949.938	3096.09
950.244	3129.76
950.549	3072.14
950.854	3076.88
951.16	3069.65
951.465	3023.78
951.77	3060.39
952.075	3028.97
952.38	2979.48
952.685	2995.98
952.99	2954.17
953.294	3010.44
953.599	2972.48
953.904	2933.84
954.209	2944.68
954.513	2956.66
954.818	2901.29
955.122	2902.42
955.426	2896.55
955.731	2885.25
956.035	2846.83
956.339	2860.39
956.643	2840.28
956.948	2848.19
957.252	2816.1
957.556	2778.36
957.86	2767.29
958.163	2814.74
958.467	2789.21
958.771	2779.49
959.075	2764.57
959.378	2735.42
959.682	2715.99
959.985	2746.72
960.289	2722.54
960.592	2689.55
960.896	2668.53
961.199	2664.24
961.502	2672.83
961.805	2644.58
962.108	2651.13
962.411	2648.19
962.714	2615.43
963.017	2607.29
963.32	2621.08
963.623	2573.84
963.926	2591.02
964.228	2564.81
964.531	2558.48
964.833	2541.76
965.136	2554.41
965.438	2517.8
965.741	2538.14
966.043	2495.65
966.345	2488.65
966.648	2490.01
966.95	2477.8
967.252	2443.9
967.554	2473.06
967.856	2450.46
968.158	2407.52
968.46	2411.14
968.761	2388.09
969.063	2438.48
969.365	2395.09
969.666	2334.3
969.968	2344.7
970.269	2363.23
970.571	2371.36
970.872	2365.71
971.174	2342.44
971.475	2290.46
971.776	2317.58
972.077	2275.55
972.378	2269.22
972.679	2293.63
972.98	2284.81
973.281	2258.15
973.582	2271.25
973.883	2252.5
974.183	2243.23
974.484	2236
974.785	2215.21
975.085	2204.59
975.386	2211.82
975.686	2206.17
975.986	2153.74
976.287	2146.74
976.587	2205.27
976.887	2158.71
977.187	2134.99
977.487	2155.55
977.787	2140.41
978.087	2113.29
978.387	2124.37
978.687	2090.24
978.987	2096.57
979.286	2068.55
979.586	2081.88
979.885	2065.61
980.185	2072.39
980.484	2062.9
980.784	2061.77
981.083	2031.94
981.382	2040.3
981.682	2006.4
981.981	2033.52
982.28	1998.04
982.579	1980.64
982.878	2007.98
983.177	1993.97
983.475	1965.05
983.774	1993.07
984.073	1984.48
984.372	1930.02
984.67	1949.23
984.969	1977.25
985.267	1944.26
985.566	1918.04
985.864	1895.67
986.162	1899.29
986.461	1919.17
986.759	1898.83
987.057	1869.23
987.355	1882.56
987.653	1866.74
987.951	1856.58
988.249	1856.35
988.547	1808.89
988.844	1850.47
989.142	1838.5
989.44	1810.25
989.737	1845.28
990.035	1799.4
990.332	1802.79
990.63	1785.16
990.927	1797.59
991.224	1779.29
991.521	1772.06
991.819	1749.23
992.116	1746.3
992.413	1746.97
992.71	1709.01
993.006	1727.54
993.303	1689.35
993.6	1705.84
993.897	1702.91
994.193	1707.43
994.49	1684.38
994.787	1702
995.083	1655.9
995.379	1661.1
995.676	1693.19
995.972	1680.76
996.268	1631.27
996.565	1636.24
996.861	1654.77
997.157	1602.12
997.453	1633.76
997.749	1607.54
998.044	1621.1
998.34	1564.61
998.636	1586.3
998.932	1587.88
999.227	1587.66
999.523	1568
999.818	1544.49
1000.114	1516.25
1000.409	1552.63
1000.704	1518.05
1001	1540.43
1001.295	1518.05
1001.59	1532.52
1001.885	1535.91
1002.18	1461.33
1002.475	1490.48
1002.77	1476.92
1003.065	1476.02
1003.359	1480.77
1003.654	1475.79
1003.949	1464.5
1004.243	1440.09
1004.538	1433.08
1004.832	1420.88
1005.127	1441.67
1005.421	1412.52
1005.715	1426.76
1006.009	1417.49
1006.304	1388.79
1006.598	1388.34
1006.892	1383.82
1007.186	1351.05
1007.48	1383.14
1007.773	1368.23
1008.067	1352.18
1008.361	1344.5
1008.655	1318.96
1008.948	1319.19
1009.242	1322.13
1009.535	1323.93
1009.829	1297.72
1010.122	1309.02
1010.415	1303.14
1010.708	1283.03
1011.001	1296.36
1011.295	1265.63
1011.588	1252.07
1011.881	1237.16
1012.173	1264.95
1012.466	1270.6
1012.759	1225.41
1013.052	1256.37
1013.344	1219.08
1013.637	1237.16
1013.93	1227.21
1014.222	1213.65
1014.514	1214.56
1014.807	1187.44
1015.099	1193.54
1015.391	1179.98
1015.683	1189.7
1015.976	1174.56
1016.268	1163.03
1016.56	1164.62
1016.851	1156.93
1017.143	1140.44
1017.435	1135.69
1017.727	1133.88
1018.018	1116.93
1018.31	1132.98
1018.602	1118.29
1018.893	1115.8
1019.185	1117.61
1019.476	1108.57
1019.767	1092.75
1020.058	1092.3
1020.35	1071.29
1020.641	1072.87
1020.932	1077.39
1021.223	1043.04
1021.514	1040.55
1021.804	1069.93
1022.095	1044.39
1022.386	1038.52
1022.677	1018.86
1022.967	1019.76
1023.258	1011.85
1023.548	1022.25
1023.839	1005.98
1024.129	1018.18
1024.419	1019.08
1024.709	978.86
1025	985.41
1025.29	993.1
1025.58	968.92
1025.87	954.68
1026.16	977.05
1026.449	963.04
1026.739	961.01
1027.029	938.63
1027.319	966.2
1027.608	930.72
1027.898	929.37
1028.187	914.45
1028.477	933.21
1028.766	925.3
1029.055	921.01
1029.344	905.41
1029.634	897.05
1029.923	874.68
1030.212	874.68
1030.501	890.27
1030.79	897.5
1031.078	875.81
1031.367	901.8
1031.656	865.64
1031.945	854.12
1032.233	850.95
1032.522	846.21
1032.81	837.39
1033.099	832.42
1033.387	835.59
1033.675	814.79
1033.963	836.94
1034.251	823.16
1034.54	814.12
1034.828	818.18
1035.116	794
1035.403	820.9
1035.691	804.17
1035.979	810.05
1036.267	782.48
1036.554	788.58
1036.842	780.45
1037.129	778.86
1037.417	780.67
1037.704	776.6
1037.992	765.3
1038.279	753.78
1038.566	761.24
1038.853	761.24
1039.14	761.24
