Data from breadboard_white_FLMS001491_00005.txt Node
Date: Wed Feb 08 10:47:09 GMT 2017
User: dcchb
Spectrometer: FLMS00149
Trigger mode: 0
Integration Time (sec): 2.000000E-2
Scans to average: 10
Electric dark correction enabled: true
Nonlinearity correction enabled: false
Boxcar width: 0
XAxis mode: Wavelengths
Number of Pixels in Spectrum: 2048
>>>>>Begin Spectral Data<<<<<
341.393	7.3
341.776	7.3
342.16	7.3
342.543	-54.39
342.927	-54.62
343.31	-77.44
343.693	-75.18
344.077	-85.35
344.46	-59.59
344.843	-53.26
345.226	-22.08
345.61	-10.55
345.993	-30.89
346.376	1.65
346.759	4.36
347.142	27.87
347.525	39.17
347.908	61.54
348.291	72.84
348.674	97.47
349.057	109.45
349.44	118.71
349.823	148.77
350.206	159.16
350.588	221.31
350.971	247.75
351.354	267.63
351.737	258.82
352.119	277.8
352.502	282.32
352.884	293.85
353.267	307.41
353.65	308.54
354.032	320.51
354.414	318.71
354.797	334.07
355.179	350.57
355.562	354.19
355.944	362.32
356.326	359.38
356.709	368.87
357.091	380.85
357.473	368.2
357.855	350.34
358.238	364.35
358.62	375.43
359.002	357.35
359.384	360.06
359.766	366.39
360.148	360.51
360.53	377.91
360.912	374.3
361.294	381.08
361.676	365.71
362.057	355.99
362.439	339.27
362.821	354.64
363.203	361.19
363.584	351.25
363.966	348.99
364.348	367.07
364.729	357.58
365.111	354.86
365.493	358.71
365.874	332.27
366.256	356.9
366.637	360.74
367.019	354.64
367.4	353.51
367.781	378.82
368.163	364.13
368.544	351.93
368.925	338.14
369.306	334.07
369.688	365.26
370.069	368.2
370.45	339.95
370.831	347.18
371.212	348.99
371.593	332.72
371.974	360.29
372.355	343.56
372.736	337.91
373.117	381.76
373.498	342.89
373.879	379.72
374.26	372.26
374.641	365.71
375.021	352.6
375.402	364.81
375.783	365.26
376.163	380.4
376.544	403
376.925	394.18
377.305	371.36
377.686	383.79
378.066	380.63
378.447	385.6
378.827	388.99
379.208	381.76
379.588	378.37
379.968	376.33
380.349	402.09
380.729	402.55
381.109	396.44
381.489	400.51
381.87	394.64
382.25	416.33
382.63	403
383.01	423.11
383.39	419.72
383.77	418.14
384.15	424.24
384.53	428.53
384.91	428.08
385.29	441.87
385.67	433.73
386.049	431.25
386.429	432.38
386.809	469.21
387.189	438.48
387.568	447.97
387.948	447.29
388.328	468.98
388.707	475.76
389.087	480.51
389.466	478.25
389.846	479.15
390.225	447.52
390.605	468.08
390.984	472.83
391.363	503.79
391.743	500.85
392.122	510.34
392.501	498.14
392.881	522.09
393.26	527.29
393.639	514.63
394.018	537.46
394.397	528.64
394.776	577.46
395.155	570.9
395.534	563.45
395.913	552.82
396.292	567.74
396.671	590.34
397.05	609.32
397.429	607.96
397.808	593.05
398.186	603.44
398.565	636.66
398.944	635.08
399.323	629.88
399.701	655.42
400.08	659.49
400.458	670.56
400.837	678.02
401.215	691.8
401.594	709.2
401.972	696.55
402.351	714.85
402.729	731.12
403.107	762.76
403.486	737.9
403.864	761.41
404.242	780.62
404.62	767.73
404.999	818.13
405.377	832.82
405.755	852.25
406.133	859.48
406.511	862.19
406.889	890.89
407.267	882.08
407.645	914.85
408.023	949.65
408.401	936.32
408.779	973.83
409.156	976.54
409.534	999.37
409.912	1014.73
410.29	1039.37
410.667	1060.61
411.045	1093.83
411.422	1082.53
411.8	1116.2
412.178	1158.23
412.555	1184.22
412.933	1207.95
413.31	1233.94
413.687	1231.22
414.065	1267.16
414.442	1314.39
414.819	1318.68
415.197	1311.22
415.574	1342.18
415.951	1382.18
416.328	1383.76
416.705	1394.61
417.082	1416.08
417.46	1456.76
417.837	1467.6
418.214	1486.59
418.591	1493.14
418.967	1506.02
419.344	1548.28
419.721	1582.4
420.098	1574.04
420.475	1612.68
420.852	1630.99
421.228	1642.29
421.605	1656.07
421.982	1682.06
422.358	1697.43
422.735	1724.09
423.111	1736.07
423.488	1743.75
423.864	1812.9
424.241	1821.04
424.617	1844.09
424.994	1846.58
425.37	1865.11
425.746	1887.48
426.123	1932.22
426.499	1951.88
426.875	1965.22
427.251	1981.26
427.627	2059.68
428.003	2067.36
428.379	2112.11
428.756	2164.08
429.132	2148.71
429.507	2199.56
429.883	2190.52
430.259	2252.89
430.635	2291.76
431.011	2272.55
431.387	2327.69
431.763	2398.2
432.138	2392.78
432.514	2459.89
432.89	2462.6
433.265	2509.84
433.641	2513.45
434.016	2588.25
434.392	2610.62
434.767	2656.95
435.143	2664.18
435.518	2704.18
435.894	2726.78
436.269	2760.9
436.644	2779.66
437.02	2844.52
437.395	2862.14
437.77	2890.39
438.145	2946.89
438.52	2956.83
438.895	3006.32
439.271	3005.64
439.646	3085.19
440.021	3072.98
440.395	3086.77
440.77	3105.07
441.145	3134
441.52	3194.79
441.895	3194.11
442.27	3212.42
442.645	3256.26
443.019	3279.53
443.394	3314.11
443.769	3357.04
444.143	3355.01
444.518	3364.73
444.892	3384.61
445.267	3407.44
445.641	3415.35
446.016	3469.58
446.39	3490.15
446.764	3519.07
447.139	3510.03
447.513	3521.56
447.887	3524.27
448.262	3577.38
448.636	3604.5
449.01	3639.52
449.384	3711.39
449.758	3668.9
450.132	3774.66
450.506	3794.77
450.88	3841.1
451.254	3820.76
451.628	3861.89
452.002	3960.42
452.376	3956.8
452.75	4025.5
453.123	4053.98
453.497	4134.88
453.871	4135.33
454.244	4249.68
454.618	4234.31
454.992	4286.06
455.365	4348.43
455.739	4456.9
456.112	4509.78
456.486	4513.62
456.859	4563.57
457.232	4598.59
457.606	4624.13
457.979	4688.76
458.352	4772.6
458.725	4857.8
459.099	4888.3
459.472	4952.03
459.845	5053.5
460.218	5063.67
460.591	5127.39
460.964	5182.99
461.337	5220.95
461.71	5315.86
462.083	5427.05
462.456	5421.62
462.829	5437.44
463.201	5556.08
463.574	5618
463.947	5671.79
464.32	5801.27
464.692	5869.29
465.065	5859.13
465.438	5974.6
465.81	6039.23
466.183	6178.21
466.555	6288.04
466.928	6311.09
467.3	6320.36
467.672	6426.79
468.045	6584.53
468.417	6617.52
468.789	6644.64
469.161	6670.18
469.534	6878.31
469.906	7038.3
470.278	7087.12
470.65	7167.11
471.022	7266.09
471.394	7404.17
471.766	7478.74
472.138	7525.3
472.51	7754.44
472.882	7835.57
473.253	7953.31
473.625	8048.67
473.997	8160.53
474.369	8267.2
474.74	8373.18
475.112	8543.12
475.484	8661.54
475.855	8871.48
476.227	8894.53
476.598	9178.13
476.97	9257
477.341	9425.36
477.713	9567.5
478.084	9656.09
478.455	9894.95
478.827	10013.59
479.198	10263.53
479.569	10327.93
479.94	10579.23
480.311	10689.96
480.682	10938.31
481.053	11155.48
481.424	11373.56
481.795	11470.28
482.166	11571.52
482.537	11758.41
482.908	12039.3
483.279	12168.34
483.65	12331.95
484.021	12682.67
484.391	12769.9
484.762	12900.75
485.133	13059.39
485.503	13268.42
485.874	13506.61
486.244	13661.41
486.615	13872.47
486.985	14101.17
487.356	14283.76
487.726	14429.3
488.097	14712.9
488.467	14691.21
488.837	15111.54
489.207	15371.64
489.578	15450.96
489.948	15593.11
490.318	15848.69
490.688	15916.04
491.058	16210.04
491.428	16407.77
491.798	16469.02
492.168	16914.43
492.538	16869.91
492.908	17112.84
493.278	17322.55
493.648	17341.76
494.017	17581.98
494.387	17777.91
494.757	17873.95
495.126	18100.84
495.496	18216.31
495.866	18325.69
496.235	18501.73
496.605	18668.51
496.974	18703.31
497.344	19029.17
497.713	19070.98
498.082	19283.18
498.452	19473.46
498.821	19680.68
499.19	19651.31
499.559	19862.83
499.928	19961.13
500.298	20101.24
500.667	20317.28
501.036	20311.4
501.405	20598.63
501.774	20606.31
502.143	20725.63
502.512	20793.65
502.88	21196.35
503.249	21098.5
503.618	21272.96
503.987	21281.32
504.356	21540.52
504.724	21632.04
505.093	21768.54
505.462	21888.99
505.83	22046.5
506.199	22212.59
506.567	22535.75
506.936	22489.2
507.304	22768.29
507.672	22837.89
508.041	23094.6
508.409	23250.08
508.777	23347.25
509.145	23523.75
509.514	23420.92
509.882	23742.72
510.25	23922.61
510.618	24144.97
510.986	24225.42
511.354	24387.9
511.722	24615.02
512.09	24819.53
512.458	24833.54
512.826	24987.44
513.193	25138.17
513.561	25332.96
513.929	25431.04
514.297	25701.99
514.664	25953.51
515.032	25979.95
515.4	26214.52
515.767	26381.3
516.135	26618.58
516.502	26419.94
516.869	27015.18
517.237	26960.27
517.604	26952.81
517.972	27346.92
518.339	27485
518.706	27719.79
519.073	27861.26
519.44	28040.46
519.808	28339.44
520.175	28364.97
520.542	28585.76
520.909	28832.53
521.276	28893.1
521.643	29171.06
522.009	29400.88
522.376	29687.88
522.743	29844.03
523.11	30073.4
523.477	30309.1
523.843	30514.52
524.21	30853.72
524.577	31059.59
524.943	31305.46
525.31	31454.38
525.676	31661.39
526.043	32017.08
526.409	31988.16
526.776	32303.63
527.142	32457.75
527.508	32693.22
527.874	32808.93
528.241	33069.03
528.607	33164.85
528.973	33550.6
529.339	33459.98
529.705	33907.65
530.071	34206.18
530.437	34271.26
530.803	34423.8
531.169	34713.96
531.535	34527.98
531.901	34803.22
532.267	34993.95
532.632	35233.95
532.998	35418.57
533.364	35573.15
533.73	35614.5
534.095	35997.32
534.461	35961.38
534.826	36310.75
535.192	36329.74
535.557	36631.2
535.923	36585.1
536.288	36722.72
536.653	36851.98
537.019	36825.54
537.384	37096.72
537.749	37178.75
538.114	37326.09
538.479	37373.33
538.845	37670.72
539.21	37620.78
539.575	37841.56
539.94	37929.47
540.305	38173.98
540.67	38134.44
541.034	38293.3
541.399	38420.3
541.764	38459.85
542.129	38719.96
542.494	38907.3
542.858	38827.07
543.223	38972.15
543.587	39219.6
543.952	39119.72
544.316	39449.43
544.681	39247.85
545.045	39734.39
545.41	39719.7
545.774	39874.95
546.138	39871.11
546.503	40020.94
546.867	40122.41
547.231	40408.27
547.595	40466.13
547.959	40633.58
548.324	40516.29
548.688	40806.91
549.052	40768.04
549.416	40943.4
549.779	41029.27
550.143	41253
550.507	41326.44
550.871	41407.34
551.235	41540
551.599	41852.76
551.962	41865.64
552.326	42024.5
552.689	42250.71
553.053	42116.7
553.417	42326.42
553.78	42704.94
554.143	42700.87
554.507	42967.08
554.87	42963.01
555.234	43488.19
555.597	43150.8
555.96	43396.22
556.323	43465.82
556.686	43683.22
557.05	43936.09
557.413	43967.05
557.776	44184.9
558.139	44437.09
558.502	44502.86
558.865	44639.35
559.228	44979.9
559.59	44985.55
559.953	45131.31
560.316	45434.58
560.679	45499.44
561.041	45850.16
561.404	45740.56
561.767	46023.04
562.129	45970.39
562.492	46349.13
562.854	46420.77
563.217	46421.22
563.579	46653.31
563.941	46906.86
564.304	47112.5
564.666	47397.92
565.028	47419.39
565.39	47483.34
565.753	47724.24
566.115	47852.82
566.477	48021.86
566.839	48092.82
567.201	48432.92
567.563	48376.43
567.925	48692.12
568.287	48641.28
568.648	48940.03
569.01	49089.4
569.372	49125.33
569.734	49091.66
570.095	49327.81
570.457	49417.53
570.819	49592.66
571.18	49524.19
571.542	49760.34
571.903	49872.66
572.265	49936.84
572.626	50099.54
572.987	50187
573.349	50272.65
573.71	50367.79
574.071	50480.33
574.432	50528.91
574.794	50724.16
575.155	50705.63
575.516	50638.29
575.877	50833.31
576.238	50931.84
576.599	51026.75
576.96	51100.87
577.32	51030.37
577.681	51268.78
578.042	51238.05
578.403	51205.96
578.763	51248.44
579.124	51289.57
579.485	51524.14
579.845	51456.34
580.206	51407.31
580.566	51517.81
580.927	51576.57
581.287	51645.94
581.648	51580.64
582.008	51748.99
582.368	51678.94
582.728	51661.99
583.089	51601.88
583.449	51669.45
583.809	51680.52
584.169	51694.53
584.529	51680.97
584.889	51902.66
585.249	51674.42
585.609	51677.81
585.969	51751.03
586.329	51680.07
586.688	51678.94
587.048	51714.19
587.408	51761.65
587.768	51621.99
588.127	51750.57
588.487	51595.78
588.846	51817.69
589.206	51616.57
589.565	51697.02
589.925	51783.12
590.284	51683.01
590.643	51684.36
591.003	51757.81
591.362	51876.9
591.721	51869.22
592.08	51786.05
592.44	51981.98
592.799	51856.33
593.158	51801.65
593.517	51870.12
593.876	51971.13
594.235	51873.96
594.593	51831.02
594.952	51829.22
595.311	51800.74
595.67	51852.49
596.029	51917.35
596.387	52066.27
596.746	52078.02
597.104	52010.91
597.463	52042.77
597.822	52085.48
598.18	51989.89
598.538	51894.98
598.897	52189.66
599.255	51920.74
599.613	52274.18
599.972	52154.63
600.33	52170.9
600.688	52092.71
601.046	52142.43
601.404	52271.24
601.762	52229.43
602.12	52344.68
602.478	52353.5
602.836	52354.63
603.194	52200.96
603.552	52322.31
603.91	52244.35
604.268	52366.6
604.625	52322.54
604.983	52443.66
605.341	52285.93
605.698	52411.35
606.056	52466.49
606.413	52467.17
606.771	52551.91
607.128	52588.74
607.485	52451.35
607.843	52485.47
608.2	52695.63
608.557	52699.25
608.914	52673.26
609.272	52804.33
609.629	52821.73
609.986	52959.13
610.343	52741.51
610.7	52925.46
611.057	52980.6
611.414	52945.8
611.771	52844.1
612.127	52985.34
612.484	52915.74
612.841	52994.61
613.198	52914.39
613.554	52977.66
613.911	53138.56
614.267	53169.97
614.624	53024.44
614.98	53101.05
615.337	53273.02
615.693	53191.21
616.05	53204.1
616.406	53395.73
616.762	53176.53
617.118	53315.28
617.475	53267.14
617.831	53399.34
618.187	53368.84
618.543	53308.95
618.899	53511.88
619.255	53526.57
619.611	53439.8
619.967	53536.74
620.323	53510.98
620.678	53415.84
621.034	53331.78
621.39	53368.38
621.746	53330.19
622.101	53637.53
622.457	53446.35
622.812	53517.53
623.168	53602.5
623.523	53526.57
623.879	53651.32
624.234	53387.14
624.589	53595.5
624.945	53596.63
625.3	53579.23
625.655	53563.63
626.01	53431.89
626.365	53534.03
626.72	53479.57
627.075	53501.26
627.43	53495.61
627.785	53318.22
628.14	53330.19
628.495	53478.21
628.85	53427.37
629.205	53290.87
629.559	53486.12
629.914	53242.96
630.269	53251.1
630.623	53120.93
630.978	53096.08
631.332	53255.62
631.687	53244.55
632.041	53148.5
632.396	53164.77
632.75	53016.76
633.104	53133.81
633.459	52959.58
633.813	52917.1
634.167	52874.84
634.521	52924.55
634.875	52874.16
635.229	52777.21
635.583	52617.22
635.937	52684.79
636.291	52665.8
636.645	52682.08
636.999	52506.94
637.352	52644.56
637.706	52479.37
638.06	52606.82
638.413	52430.1
638.767	52276.44
639.121	52446.83
639.474	52256.32
639.828	52283.22
640.181	52268.75
640.534	52266.94
640.888	52189.88
641.241	51998.03
641.594	52031.24
641.947	52163.44
642.301	52099.49
642.654	52030.57
643.007	52033.28
643.36	51958.25
643.713	51848.42
644.066	52044.8
644.419	51767.3
644.771	51532.27
645.124	51118.05
645.477	51200.08
645.83	50975.68
646.182	50802.35
646.535	50700.43
646.888	50899.3
647.24	50491.85
647.593	50810.26
647.945	50585.63
648.298	50364.85
648.65	50402.36
649.002	50266.09
649.355	50456.15
649.707	50401.91
650.059	50653.65
650.411	50901.78
650.763	50896.59
651.115	51217.71
651.467	50988.33
651.819	51067.2
652.171	50931.16
652.523	50947.43
652.875	50872.86
653.227	50832.86
653.578	51020.2
653.93	50829.02
654.282	50668.57
654.633	50483.94
654.985	50713.54
655.337	50690.94
655.688	50595.58
656.039	50665.18
656.391	50473.32
656.742	50483.49
657.094	50497.95
657.445	50690.04
657.796	50549.7
658.147	50455.47
658.498	50422.7
658.849	50398.07
659.2	50345.87
659.551	50247.79
659.902	50452.76
660.253	50285.75
660.604	50364.62
660.955	50232.87
661.306	50288.24
661.656	50218.64
662.007	50222.03
662.358	50173.67
662.708	50211.18
663.059	50115.82
663.409	49849.83
663.76	50040.56
664.11	50018.64
664.461	50168.47
664.811	50080.79
665.161	49977.51
665.511	49891.64
665.862	49980
666.212	50028.13
666.562	49990.17
666.912	49893
667.262	49752.66
667.612	49920.79
667.962	49832.21
668.312	49818.42
668.662	49936.84
669.011	49715.37
669.361	49697.07
669.711	49709.72
670.06	49754.24
670.41	49657.52
670.76	49589.5
671.109	49788.59
671.459	49671.53
671.808	49538.88
672.157	49620.23
672.507	49407.36
672.856	49406.46
673.205	49441.48
673.554	49559.22
673.904	49374.82
674.253	49551.99
674.602	49404.87
674.951	48906.36
675.3	48622.97
675.649	49244.88
675.998	49212.79
676.346	49168.95
676.695	49300.47
677.044	49006.24
677.393	49098.89
677.741	49126.69
678.09	48974.15
678.438	48866.36
678.787	49001.49
679.135	49028.61
679.484	48676.08
679.832	48863.42
680.181	48626.59
680.529	48658
680.877	48528.51
681.225	48569.87
681.573	48754.72
681.922	48342.3
682.27	48211.23
682.618	48346.82
682.966	48286.26
683.314	48322.64
683.661	48228.63
684.009	47958.36
684.357	47801.98
684.705	47804.69
685.053	47828.19
685.4	47778.7
685.748	47594.07
686.095	47465.04
686.443	47404.7
686.79	47375.55
687.138	47507.3
687.485	47403.12
687.832	47182.56
688.18	47275.89
688.527	47039.96
688.874	47022.11
689.221	46968.1
689.568	46736.69
689.915	46741.89
690.262	46675.45
690.609	46620.99
690.956	46461.67
691.303	46343.71
691.65	46115.02
691.997	46177.61
692.344	45876.15
692.69	45898.75
693.037	45837.51
693.383	45607.68
693.73	45681.58
694.077	45403.62
694.423	45262.16
694.769	45320.91
695.116	45155.04
695.462	45119.56
695.808	44918.89
696.155	45120.69
696.501	44664.88
696.847	44630.08
697.193	44375.63
697.539	44650.42
697.885	44154.39
698.231	44094.96
698.577	44039.82
698.923	44032.13
699.269	43780.61
699.614	43590.34
699.96	43553.28
700.306	43490.45
700.651	43403.68
700.997	43308.54
701.342	43210.23
701.688	43012.05
702.033	42923.69
702.379	43002.1
702.724	42812.73
703.069	42861.77
703.415	42304.04
703.76	42380.65
704.105	42348.56
704.45	42220.2
704.795	41964.62
705.14	41953.54
705.485	41955.58
705.83	41670.61
706.175	41773.66
706.52	41631.52
706.865	41339.55
707.209	41519.88
707.554	41233.79
707.899	41444.63
708.243	41123.28
708.588	41076.05
708.932	40821.37
709.277	40814.82
709.621	40772.78
709.966	40361.04
710.31	40578.21
710.654	40195.4
710.998	40212.35
711.342	40250.54
711.687	40211.44
712.031	39888.74
712.375	39831.34
712.719	39802.19
713.063	39755.86
713.407	39890.55
713.75	39714.96
714.094	39519.26
714.438	39373.05
714.782	39276.78
715.125	39227.74
715.469	39325.59
715.812	38981.19
716.156	38870.24
716.499	38937.13
716.843	38876.34
717.186	38823.68
717.53	38771.48
717.873	38791.82
718.216	38577.59
718.559	38436.8
718.902	38373.52
719.246	38450.59
719.589	38165.17
719.932	38140.99
720.275	38201.1
720.617	38046.3
720.96	37973.08
721.303	37971.73
721.646	37905.51
721.989	37678.85
722.331	37830.04
722.674	37602.92
723.016	37493.55
723.359	37480.44
723.701	37549.59
724.044	37169.26
724.386	37215.14
724.729	37294.23
725.071	37219.43
725.413	36962.49
725.755	37101.92
726.097	36851.08
726.439	36683.85
726.782	36763.62
727.124	36879.78
727.465	36609.73
727.807	36510.98
728.149	36437.76
728.491	36351.66
728.833	36469.62
729.175	36291.09
729.516	36272.79
729.858	36147.82
730.199	36198.89
730.541	36239.34
730.882	36033.47
731.224	36211.32
731.565	35776.31
731.906	35859.24
732.248	35880.94
732.589	35769.3
732.93	35621.05
733.271	35552.58
733.612	35690.21
733.953	35516.88
734.294	35378.12
734.635	35301.29
734.976	35468.74
735.317	35184
735.658	35179.03
735.999	35178.58
736.339	35152.14
736.68	35155.76
737.021	34970.45
737.361	34726.16
737.702	34980.62
738.042	34696.79
738.383	34694.53
738.723	34829.89
739.063	34602.1
739.404	34721.87
739.744	34631.7
740.084	34433.52
740.424	34507.86
740.764	34236.01
741.104	34444.14
741.444	34140.64
741.784	33920.76
742.124	34111.26
742.464	33897.94
742.804	33807.54
743.143	33871.27
743.483	33909.91
743.823	33725.74
744.162	33597.83
744.502	33686.42
744.841	33517.83
745.181	33622.69
745.52	33540.43
745.86	33422.69
746.199	33306.31
746.538	33398.51
746.877	33430.6
747.216	33377.72
747.556	33179.99
747.895	33138.63
748.234	32932.99
748.573	32972.31
748.911	33011.63
749.25	32832.2
749.589	32641.47
749.928	32715.82
750.267	32711.53
750.605	32558.54
750.944	32520.35
751.283	32357.86
751.621	32468.14
751.96	32284.87
752.298	32244.87
752.636	32221.37
752.975	31973.69
753.313	31945.9
753.651	31919.01
753.989	31782.51
754.327	31737.99
754.666	31566.47
755.004	31728.05
755.342	31576.42
755.679	31515.85
756.017	31343.43
756.355	31406.48
756.693	31269.98
757.031	31346.37
757.368	31015.3
757.706	31047.16
758.044	30844.01
758.381	30909.99
758.719	30710.22
759.056	30781.41
759.394	30723.56
759.731	30415.32
760.068	30413.06
760.405	30213.97
760.743	30403.79
761.08	30315.88
761.417	30012.16
761.754	30005.84
762.091	29832.28
762.428	29786.41
762.765	29581.67
763.102	29796.12
763.438	29523.14
763.775	29469.8
764.112	29378.51
764.449	29314.55
764.785	29096.71
765.122	28973.09
765.458	28918.18
765.795	28810.84
766.131	28873.44
766.467	28808.8
766.804	28581.47
767.14	28349.61
767.476	28329.04
767.812	28168.82
768.148	28270.06
768.485	28035.27
768.821	27935.16
769.157	27866.46
769.492	27834.59
769.828	27659.91
770.164	27503.08
770.5	27461.27
770.836	27434.38
771.171	27275.29
771.507	27101.5
771.842	27014.95
772.178	27047.04
772.513	26858.35
772.849	26884.56
773.184	26548.07
773.519	26572.93
773.855	26598.47
774.19	26460.84
774.525	26463.33
774.86	26284.13
775.195	26137.91
775.53	26051.59
775.865	25963.91
776.2	25707.19
776.535	25646.63
776.87	25593.75
777.205	25471.72
777.539	25333.87
777.874	25445.96
778.209	25146.3
778.543	25107.89
778.878	24968.23
779.212	25006.64
779.547	24836.71
779.881	24805.07
780.215	24651.17
780.55	24677.16
780.884	24458.18
781.218	24414.57
781.552	24436.72
781.886	24204.63
782.22	24081.7
782.554	24055.48
782.888	23844.64
783.222	23749.5
783.556	23681.03
783.889	23606
784.223	23485.78
784.557	23306.35
784.89	23401.72
785.224	23203.3
785.557	23131.89
785.891	23080.37
786.224	23083.08
786.558	23089.41
786.891	22730.09
787.224	22698
787.557	22583.43
787.891	22653.71
788.224	22482.19
788.557	22520.61
788.89	22355.42
789.223	22455.75
789.556	22254.4
789.888	22129.21
790.221	22119.26
790.554	21903.45
790.887	21818.25
791.219	21830.23
791.552	21857.57
791.884	21668.43
792.217	21460.52
792.549	21491.71
792.882	21379.62
793.214	21227.31
793.546	21289.68
793.879	21145.5
794.211	21039.29
794.543	21060.99
794.875	21092.4
795.207	20987.77
795.539	20872.29
795.871	20844.95
796.203	20586.42
796.535	20468.68
796.867	20507.33
797.198	20361.57
797.53	20465.07
797.862	20261.23
798.193	20356.37
798.525	20193.44
798.856	20220.1
799.188	19961.13
799.519	20030.5
799.85	19899.66
800.182	19754.81
800.513	19868.25
800.844	19540.12
801.175	19615.15
801.506	19653.57
801.837	19534.7
802.168	19456.73
802.499	19386.91
802.83	19330.18
803.161	19228.49
803.491	19187.59
803.822	19139.68
804.153	19078.67
804.483	18864.66
804.814	18837.32
805.145	18849.74
805.475	18860.59
805.805	18788.05
806.136	18785.79
806.466	18661.73
806.796	18618.79
807.126	18467.16
807.457	18376.99
807.787	18430.09
808.117	18383.77
808.447	18300.83
808.777	18370.89
809.107	18310.78
809.436	18200.27
809.766	18171.12
810.096	18162.3
810.426	18035.98
810.755	18037.34
811.085	17990.56
811.414	17889.32
811.744	17779.49
812.073	17766.16
812.403	17713.96
812.732	17732.71
813.061	17648.65
813.39	17556.67
813.719	17553.73
814.049	17504.24
814.378	17400.97
814.707	17386.96
815.036	17322.55
815.365	17332.04
815.693	17155.33
816.022	17194.42
816.351	17072.16
816.68	16913.98
817.008	17104.93
817.337	16937.93
817.665	16930.7
817.994	16838.27
818.322	16934.54
818.651	16716.02
818.979	16694.77
819.307	16819.52
819.636	16690.48
819.964	16631.95
820.292	16642.57
820.62	16631.27
820.948	16536.81
821.276	16641.89
821.604	16550.6
821.932	16535.46
822.259	16512.4
822.587	16444.38
822.915	16391.96
823.243	16563.25
823.57	16398.51
823.898	16350.15
824.225	16396.7
824.553	16415.68
824.88	16339.3
825.207	16406.19
825.535	16428.11
825.862	16455.01
826.189	16382.01
826.516	16421.33
826.843	16469.69
827.17	16458.17
827.497	16559.18
827.824	16308.57
828.151	16459.75
828.478	16355.35
828.805	16381.11
829.131	16334.78
829.458	16336.36
829.785	16262.92
830.111	16346.76
830.438	16404.61
830.764	16385.63
831.09	16369.36
831.417	16219.76
831.743	16342.92
832.069	16285.97
832.395	16145.41
832.722	16224.28
833.048	16200.55
833.374	16242.36
833.7	16096.6
834.026	16132.53
834.351	16269.02
834.677	16151.28
835.003	16172.75
835.329	16071.06
835.654	16036.49
835.98	16048.91
836.306	16059.31
836.631	15892.31
836.956	15988.8
837.282	16007.33
837.607	15898.18
837.932	15824.74
838.258	15807.79
838.583	15810.5
838.908	15722.14
839.233	15688.25
839.558	15756.04
839.883	15656.16
840.208	15693.44
840.533	15670.17
840.858	15632.65
841.182	15616.38
841.507	15570.06
841.832	15416.84
842.156	15459.33
842.481	15448.93
842.805	15346.33
843.13	15420.91
843.454	15284.41
843.778	15279.44
844.103	15217.07
844.427	15158.32
844.751	15187.69
845.075	15130.29
845.399	15077.19
845.723	14968.94
846.047	15027.25
846.371	14928.04
846.695	14856.63
847.019	14813.92
847.343	14730.98
847.666	14535.51
847.99	14547.26
848.313	14483.76
848.637	14435.4
848.96	14423.65
849.284	14351.33
849.607	14191.11
849.931	14240.83
850.254	14208.74
850.577	14042.41
850.9	13966.94
851.223	13868.86
851.546	13946.14
851.869	13819.59
852.192	13850.78
852.515	13695.53
852.838	13716.09
853.161	13675.42
853.483	13601.75
853.806	13478.13
854.129	13464.8
854.451	13466.16
854.774	13388.19
855.096	13295.77
855.419	13303.45
855.741	13244.92
856.063	13166.73
856.385	13196.33
856.708	13158.59
857.03	13031.14
857.352	13062.78
857.674	13036.79
857.996	12952.72
858.318	12836.12
858.64	12887.19
858.961	12956.79
859.283	12837.47
859.605	12693.07
859.926	12770.13
860.248	12682.45
860.57	12666.4
860.891	12701.21
861.212	12627.31
861.534	12500.76
861.855	12540.53
862.176	12503.02
862.498	12450.59
862.819	12469.12
863.14	12377.15
863.461	12291.05
863.782	12316.36
864.103	12305.51
864.424	12284.49
864.745	12315.68
865.065	12241.56
865.386	12228
865.707	12181.22
866.027	12159.98
866.348	12143.71
866.668	12082.01
866.989	12066.87
867.309	12017.16
867.63	12024.84
867.95	11974.9
868.27	11902.36
868.59	11931.96
868.91	11852.41
869.23	11818.74
869.55	11830.95
869.87	11922.24
870.19	11848.8
870.51	11809.25
870.83	11854
871.15	11712.31
871.469	11764.28
871.789	11824.39
872.109	11639.99
872.428	11656.49
872.748	11686.09
873.067	11661.68
873.386	11606.55
873.706	11561.35
874.025	11520.9
874.344	11473.44
874.663	11477.28
874.982	11480.45
875.301	11505.98
875.62	11368.36
875.939	11348.25
876.258	11384.4
876.577	11328.13
876.896	11289.27
877.214	11229.15
877.533	11293.56
877.852	11205.43
878.17	11273.67
878.489	11243.62
878.807	11327.68
879.125	11253.79
879.444	11194.35
879.762	11194.58
880.08	11153.9
880.398	11073.68
880.716	11116.39
881.034	11113
881.352	11065.54
881.67	11027.8
881.988	11025.77
882.306	11013.34
882.624	11010.63
882.941	10932.66
883.259	10835.27
883.577	10873.68
883.894	10859.45
884.212	10844.08
884.529	10882.5
884.846	10764.99
885.164	10810.18
885.481	10680.02
885.798	10729.28
886.115	10638.21
886.432	10632.33
886.75	10628.04
887.067	10616.51
887.383	10562.73
887.7	10602.05
888.017	10500.13
888.334	10546.01
888.651	10456.52
888.967	10494.48
889.284	10450.42
889.6	10356.63
889.917	10363.41
890.233	10361.61
890.55	10242.74
890.866	10310.53
891.182	10251.1
891.498	10141.72
891.815	10154.61
892.131	10144.66
892.447	10159.58
892.763	10055.63
893.079	10016.98
893.395	10020.6
893.71	10010.88
894.026	9996.87
894.342	9893.37
894.657	9909.41
894.973	9824.45
895.289	9835.52
895.604	9832.35
895.92	9749.42
896.235	9667.61
896.55	9689.99
896.865	9652.02
897.181	9574.51
897.496	9584.68
897.811	9542.19
898.126	9579.48
898.441	9507.17
898.756	9446.38
899.071	9339.49
899.386	9397.79
899.7	9354.17
900.015	9376.1
900.33	9204.8
900.644	9246.16
900.959	9182.2
901.273	9154.18
901.588	9106.27
901.902	9090.91
902.216	9019.72
902.531	9047.06
902.845	9033.28
903.159	8969.78
903.473	8931.14
903.787	8834.64
904.101	8862.44
904.415	8810.91
904.729	8817.69
905.042	8778.82
905.356	8753.29
905.67	8753.06
905.984	8738.6
906.297	8639.17
906.611	8593.07
906.924	8579.05
907.237	8483.69
907.551	8485.05
907.864	8422.22
908.177	8401.43
908.491	8347.87
908.804	8363.01
909.117	8309
909.43	8330.93
909.743	8225.84
910.056	8180.65
910.368	8203.7
910.681	8133.19
910.994	8129.12
911.307	8058.84
911.619	7980.88
911.932	7969.35
912.244	7950.14
912.557	7979.3
912.869	7901.56
913.181	7857.49
913.494	7821.11
913.806	7804.39
914.118	7776.36
914.43	7684.16
914.742	7678.74
915.054	7658.4
915.366	7657.27
915.678	7632.64
915.99	7617.5
916.302	7520.32
916.613	7452.98
916.925	7505.64
917.236	7427.67
917.548	7417.95
917.859	7370.95
918.171	7297.51
918.482	7302.7
918.794	7279.43
919.105	7269.48
919.416	7207.11
919.727	7130.96
920.038	7172.54
920.349	7090.28
920.66	7058.64
920.971	7030.39
921.282	6989.04
921.593	6890.96
921.903	6918.98
922.214	6891.19
922.525	6848.48
922.835	6832.89
923.146	6843.96
923.456	6752.89
923.767	6736.16
924.077	6780.23
924.387	6686.9
924.697	6706.56
925.008	6649.16
925.318	6598.09
925.628	6620.46
925.938	6553.34
926.248	6524.64
926.558	6504.76
926.867	6487.13
927.177	6413.91
927.487	6377.08
927.796	6324.88
928.106	6331.43
928.416	6289.85
928.725	6301.83
929.034	6254.82
929.344	6272.67
929.653	6228.61
929.962	6158.1
930.271	6147.71
930.581	6081.49
930.89	6072
931.199	6053.02
931.508	6012.12
931.817	6016.41
932.125	5959.24
932.434	5958.78
932.743	5921.04
933.051	5851.67
933.36	5860.03
933.669	5842.18
933.977	5782.74
934.286	5800.6
934.594	5752.01
934.902	5708.85
935.21	5703.2
935.519	5699.13
935.827	5706.59
936.135	5655.29
936.443	5606.93
936.751	5605.57
937.059	5617.55
937.367	5510.89
937.674	5536.65
937.982	5560.6
938.29	5468.4
938.597	5494.84
938.905	5404.22
939.213	5405.35
939.52	5395.86
939.827	5365.58
940.135	5318.8
940.442	5337.78
940.749	5310.21
941.056	5340.04
941.363	5267.28
941.67	5261.4
941.977	5204.45
942.284	5180.27
942.591	5165.36
942.898	5133.27
943.205	5138.69
943.511	5081.07
943.818	5066.15
944.125	5059.37
944.431	5034.06
944.738	4986.38
945.044	4976.89
945.35	4959.49
945.657	4914.07
945.963	4903.9
946.269	4902.77
946.575	4871.81
946.881	4863.22
947.187	4806.72
947.493	4807.18
947.799	4832.26
948.105	4750.45
948.41	4710.68
948.716	4723.34
949.022	4669.33
949.327	4667.07
949.633	4615.54
949.938	4577.8
950.244	4658.48
950.549	4532.38
950.854	4526.05
951.16	4579.16
951.465	4489.9
951.77	4503
952.075	4503.68
952.38	4454.87
952.685	4514.75
952.99	4399.95
953.294	4380.07
953.599	4359.5
953.904	4363.8
954.209	4366.74
954.513	4333.52
954.818	4325.83
955.122	4312.27
955.426	4261.43
955.731	4259.85
956.035	4211.49
956.339	4197.47
956.643	4226.4
956.948	4152.96
957.252	4150.7
957.556	4148.66
957.86	4153.63
958.163	4148.44
958.467	4079.29
958.771	4111.37
959.075	3998.16
959.378	4022.79
959.682	4007.65
959.985	3987.76
960.289	4012.17
960.592	3964.94
960.896	3971.04
961.199	3920.42
961.502	3931.94
961.805	3896.92
962.108	3845.39
962.411	3837.48
962.714	3829.8
963.017	3814.21
963.32	3858.27
963.623	3776.24
963.926	3777.6
964.228	3737.6
964.531	3743.7
964.833	3724.94
965.136	3655.57
965.438	3713.42
965.741	3682.23
966.043	3632.74
966.345	3600.43
966.648	3593.87
966.95	3619.41
967.252	3598.17
967.554	3582.12
967.856	3584.38
968.158	3545.97
968.46	3523.37
968.761	3508
969.063	3489.92
969.365	3501
969.666	3475.01
969.968	3415.35
970.269	3415.12
970.571	3409.92
970.872	3395.01
971.174	3385.07
971.475	3362.24
971.776	3385.74
972.077	3351.62
972.378	3337.38
972.679	3332.86
972.98	3311.4
973.281	3294.45
973.582	3268.69
973.883	3232.75
974.183	3235.92
974.484	3195.01
974.785	3212.19
975.085	3234.56
975.386	3207.44
975.686	3194.79
975.986	3154.34
976.287	3159.99
976.587	3091.29
976.887	3128.8
977.187	3112.98
977.487	3112.08
977.787	3038.18
978.087	3044.96
978.387	2979.88
978.687	3045.64
978.987	3027.56
979.286	3028.01
979.586	2925.87
979.885	2996.83
980.185	2967.9
980.484	2954.8
980.784	2921.12
981.083	2925.87
981.382	2895.81
981.682	2886.1
981.981	2852.88
982.28	2856.49
982.579	2831.63
982.878	2853.55
983.177	2809.26
983.475	2828.47
983.774	2793.44
984.073	2777.62
984.372	2791.41
984.67	2775.59
984.969	2784.63
985.267	2744.86
985.566	2727.68
985.864	2738.53
986.162	2716.16
986.461	2711.64
986.759	2670.06
987.057	2647.91
987.355	2670.73
987.653	2626.67
987.951	2638.19
988.249	2623.73
988.547	2622.83
988.844	2598.19
989.142	2580.79
989.44	2597.97
989.737	2540.12
990.035	2507.35
990.332	2517.74
990.63	2494.24
990.927	2484.75
991.224	2484.53
991.521	2466.45
991.819	2420.12
992.116	2437.29
992.413	2430.97
992.71	2449.72
993.006	2403.17
993.303	2390.97
993.6	2379.9
993.897	2417.63
994.193	2367.69
994.49	2371.99
994.787	2339.67
995.083	2327.24
995.379	2317.75
995.676	2300.8
995.972	2284.98
996.268	2286.11
996.565	2278.43
996.861	2248.15
997.157	2251.76
997.453	2219.45
997.749	2212.89
998.044	2241.37
998.34	2205.89
998.636	2189.39
998.932	2191.2
999.227	2168.6
999.523	2161.82
999.818	2173.57
1000.114	2135.61
1000.409	2120.92
1000.704	2116.17
1001	2097.64
1001.295	2083.63
1001.59	2126.57
1001.885	2049.96
1002.18	2059.9
1002.475	2040.24
1002.77	2023.29
1003.065	1989.62
1003.359	2009.06
1003.654	2016.06
1003.949	1983.75
1004.243	1982.17
1004.538	1950.53
1004.832	1955.5
1005.127	1920.7
1005.421	1938.32
1005.715	1924.54
1006.009	1875.5
1006.304	1900.81
1006.598	1878.21
1006.892	1894.71
1007.186	1873.24
1007.48	1867.37
1007.773	1857.65
1008.067	1862.85
1008.361	1839.12
1008.655	1803.41
1008.948	1830.3
1009.242	1790.98
1009.535	1774.04
1009.829	1776.07
1010.122	1750.76
1010.415	1739.46
1010.708	1730.19
1011.001	1746.24
1011.295	1707.6
1011.588	1729.06
1011.881	1673.02
1012.173	1713.92
1012.466	1677.99
1012.759	1646.81
1013.052	1680.03
1013.344	1637.54
1013.637	1648.61
1013.93	1633.7
1014.222	1608.84
1014.514	1602.97
1014.807	1602.74
1015.099	1615.62
1015.391	1594.38
1015.683	1569.75
1015.976	1565
1016.268	1540.6
1016.56	1541.95
1016.851	1526.81
1017.143	1509.64
1017.435	1538.34
1017.727	1506.92
1018.018	1512.8
1018.31	1487.72
1018.602	1472.35
1018.893	1490.88
1019.185	1471.44
1019.476	1448.85
1019.767	1448.62
1020.058	1438.45
1020.35	1419.69
1020.641	1417.43
1020.932	1396.87
1021.223	1384.89
1021.514	1393.71
1021.804	1372.01
1022.095	1388.73
1022.386	1353.93
1022.677	1344.89
1022.967	1345.57
1023.258	1331.11
1023.548	1307.15
1023.839	1330.88
1024.129	1285.23
1024.419	1273.03
1024.709	1260.38
1025	1264.67
1025.29	1271
1025.58	1222.86
1025.87	1230.09
1026.16	1237.55
1026.449	1239.59
1026.739	1247.95
1027.029	1215.63
1027.319	1207.95
1027.608	1232.35
1027.898	1197.33
1028.187	1179.47
1028.477	1178.8
1028.766	1172.7
1029.055	1159.14
1029.344	1137.67
1029.634	1144
1029.923	1115.97
1030.212	1143.54
1030.501	1136.76
1030.79	1133.15
1031.078	1120.72
1031.367	1096.99
1031.656	1123.66
1031.945	1060.61
1032.233	1086.6
1032.522	1065.13
1032.81	1055.18
1033.099	1057.22
1033.387	1051.79
1033.675	1021.29
1033.963	1038.69
1034.251	1050.44
1034.54	1020.83
1034.828	1048.63
1035.116	1030.1
1035.403	1035.3
1035.691	1015.41
1035.979	998.01
1036.267	988.07
1036.554	984.68
1036.842	975.19
1037.129	969.76
1037.417	944.68
1037.704	960.27
1037.992	974.73
1038.279	922.76
1038.566	949.42
1038.853	949.42
1039.14	949.42
