Data from breadboard_black_back_FLMS001491_00020.txt Node
Date: Wed Feb 08 10:50:02 GMT 2017
User: dcchb
Spectrometer: FLMS00149
Trigger mode: 0
Integration Time (sec): 2.000000E-2
Scans to average: 10
Electric dark correction enabled: true
Nonlinearity correction enabled: false
Boxcar width: 0
XAxis mode: Wavelengths
Number of Pixels in Spectrum: 2048
>>>>>Begin Spectral Data<<<<<
341.393	-35.17
341.776	-35.17
342.16	-35.17
342.543	-33.36
342.927	-67.26
343.31	-53.47
343.693	-83.98
344.077	-82.62
344.46	-55.51
344.843	-59.35
345.226	-26.81
345.61	-40.37
345.993	-13.25
346.376	-15.73
346.759	21.33
347.142	15.68
347.525	51.38
347.908	56.35
348.291	83.25
348.674	104.04
349.057	99.07
349.44	129.35
349.823	139.52
350.206	163.02
350.588	199.63
350.971	216.12
351.354	237.59
351.737	254.09
352.119	246.86
352.502	272.62
352.884	283.69
353.267	279.17
353.65	301.77
354.032	298.16
354.414	297.93
354.797	311.71
355.179	343.35
355.562	339.06
355.944	339.74
356.326	348.32
356.709	340.19
357.091	350.13
357.473	358.72
357.855	355.33
358.238	353.3
358.62	347.42
359.002	345.16
359.384	342
359.766	352.62
360.148	344.26
360.53	349
360.912	353.3
361.294	356.01
361.676	358.27
362.057	345.61
362.439	342.67
362.821	337.48
363.203	341.32
363.584	364.37
363.966	342.22
364.348	347.65
364.729	339.51
365.111	339.28
365.493	343.58
365.874	345.39
366.256	335.22
366.637	356.69
367.019	329.12
367.4	347.87
367.781	355.33
368.163	334.77
368.544	358.49
368.925	374.09
369.306	370.02
369.688	344.93
370.069	338.38
370.45	350.81
370.831	349.23
371.212	336.35
371.593	336.57
371.974	349.91
372.355	336.57
372.736	339.96
373.117	351.71
373.498	344.71
373.879	367.08
374.26	355.78
374.641	360.75
375.021	373.41
375.402	383.8
375.783	366.18
376.163	380.19
376.544	368.66
376.925	382.22
377.305	356.91
377.686	353.97
378.066	410.47
378.447	399.17
378.827	393.97
379.208	377.25
379.588	393.52
379.968	387.65
380.349	407.53
380.729	402.11
381.109	387.65
381.489	401.88
381.87	397.36
382.25	403.69
382.63	409.11
383.01	393.97
383.39	400.53
383.77	419.06
384.15	434.42
384.53	409.11
384.91	423.35
385.29	441.43
385.67	450.92
386.049	449.56
386.429	449.56
386.809	441.43
387.189	447.76
387.568	430.13
387.948	460.86
388.328	459.73
388.707	450.69
389.087	443.46
389.466	443.91
389.846	474.42
390.225	490.24
390.605	477.13
390.984	482.78
391.363	502.44
391.743	486.85
392.122	487.76
392.501	503.8
392.881	511.71
393.26	490.69
393.639	495.21
394.018	511.48
394.397	532.05
394.776	546.96
395.155	530.24
395.534	550.58
395.913	540.18
396.292	554.65
396.671	539.96
397.05	554.42
397.429	555.78
397.808	543.35
398.186	549.45
398.565	561.2
398.944	578.83
399.323	564.36
399.701	570.92
400.08	573.85
400.458	562.33
400.837	600.29
401.215	600.75
401.594	589.22
401.972	617.47
402.351	616.79
402.729	600.07
403.107	629.45
403.486	610.92
403.864	617.92
404.242	651.82
404.62	627.86
404.999	659.28
405.377	649.79
405.755	652.95
406.133	651.59
406.511	666.28
406.889	664.02
407.267	674.64
407.645	684.81
408.023	706.73
408.401	718.71
408.779	713.96
409.156	721.87
409.534	737.47
409.912	740.63
410.29	756.68
410.667	768.2
411.045	779.73
411.422	778.14
411.8	800.06
412.178	804.36
412.555	817.46
412.933	840.97
413.31	812.49
413.687	832.38
414.065	837.35
414.442	849.33
414.819	864.92
415.197	846.39
415.574	880.97
415.951	865.6
416.328	865.37
416.705	913.73
417.082	910.12
417.46	923.22
417.837	911.47
418.214	925.71
418.591	932.49
418.967	979.04
419.344	932.26
419.721	968.42
420.098	963.9
420.475	1001.41
420.852	971.36
421.228	1019.04
421.605	1004.8
421.982	1015.65
422.358	1024.24
422.735	1042.54
423.111	1036.89
423.488	1068.53
423.864	1050.9
424.241	1085.03
424.617	1081.19
424.994	1084.58
425.37	1099.04
425.746	1125.48
426.123	1103.78
426.499	1129.32
426.875	1138.81
427.251	1181.75
427.627	1174.07
428.003	1158.25
428.379	1207.51
428.756	1238.92
429.132	1268.98
429.507	1253.39
429.883	1268.98
430.259	1297.68
430.635	1322.76
431.011	1326.38
431.387	1329.77
431.763	1357.34
432.138	1361.63
432.514	1365.7
432.89	1406.6
433.265	1403.21
433.641	1431.91
434.016	1455.87
434.392	1471.01
434.767	1495.64
435.143	1512.59
435.518	1509.42
435.894	1524.56
436.269	1533.15
436.644	1546.71
437.02	1598.91
437.395	1597.33
437.77	1583.55
438.145	1611.12
438.52	1630.1
438.895	1685.69
439.271	1672.36
439.646	1701.73
440.021	1711.9
440.395	1720.72
440.77	1706.03
441.145	1722.07
441.52	1760.04
441.895	1790.55
442.27	1811.56
442.645	1779.92
443.019	1815.63
443.394	1803.2
443.769	1839.58
444.143	1855.86
444.518	1847.95
444.892	1851.56
445.267	1903.09
445.641	1893.37
446.016	1891.79
446.39	1934.95
446.764	1939.24
447.139	1909.19
447.513	1978.11
447.887	1953.71
448.262	1965.68
448.636	2000.94
449.01	2028.73
449.384	2065.79
449.758	2040.71
450.132	2072.35
450.506	2093.14
450.88	2138.33
451.254	2101.95
451.628	2125.45
452.002	2180.37
452.376	2178.56
452.75	2228.73
453.123	2209.52
453.497	2274.15
453.871	2294.04
454.244	2311.89
454.618	2362.28
454.992	2359.57
455.365	2386.69
455.739	2417.87
456.112	2456.07
456.486	2474.6
456.859	2492
457.232	2555.05
457.606	2539.45
457.979	2576.29
458.352	2610.41
458.725	2692.67
459.099	2672.56
459.472	2739.22
459.845	2765.44
460.218	2757.07
460.591	2826.45
460.964	2813.8
461.337	2879.33
461.71	2900.57
462.083	2999.55
462.456	2946.67
462.829	3003.85
463.201	3074.35
463.574	3061.47
463.947	3185.54
464.32	3199.32
464.692	3236.38
465.065	3225.31
465.438	3268.25
465.81	3307.79
466.183	3382.82
466.555	3428.02
466.928	3402.93
467.3	3464.85
467.672	3496.94
468.045	3595.47
468.417	3625.3
468.789	3645.19
469.161	3651.51
469.534	3740.33
469.906	3825.97
470.278	3818.29
470.65	3935.8
471.022	3984.39
471.394	4068.9
471.766	4107.55
472.138	4098.06
472.51	4212.63
472.882	4252.18
473.253	4296.02
473.625	4368.56
473.997	4461.89
474.369	4473.41
474.74	4561.09
475.112	4640.19
475.484	4697.14
475.855	4744.14
476.227	4862.33
476.598	4965.38
476.97	5031.82
477.341	5142.55
477.713	5216.44
478.084	5241.08
478.455	5326.95
478.827	5414.41
479.198	5536.89
479.569	5580.28
479.94	5740.5
480.311	5753.83
480.682	5892.36
481.053	6012.13
481.424	6085.8
481.795	6183.88
482.166	6280.15
482.537	6381.16
482.908	6564.88
483.279	6555.17
483.65	6690.98
484.021	6837.87
484.391	6867.93
484.762	6974.59
485.133	7008.04
485.503	7142.5
485.874	7289.61
486.244	7366.22
486.615	7451.19
486.985	7591.3
487.356	7717.62
487.726	7784.06
488.097	7925.07
488.467	7992.64
488.837	8154.22
489.207	8309.92
489.578	8364.84
489.948	8432.41
490.318	8534.55
490.688	8652.74
491.058	8757.37
491.428	8850.7
491.798	8923.01
492.168	9184.48
492.538	9176.34
492.908	9230.35
493.278	9385.83
493.648	9371.36
494.017	9495.43
494.387	9613.17
494.757	9819.49
495.126	9823.33
495.496	9815.19
495.866	9906.94
496.235	10039.82
496.605	10127.95
496.974	10178.8
497.344	10296.09
497.713	10286.14
498.082	10412.69
498.452	10575.63
498.821	10567.94
499.19	10640.26
499.559	10767.49
499.928	10900.14
500.298	10856.3
500.667	11027.82
501.036	10972
501.405	11139.9
501.774	11188.72
502.143	11329.28
502.512	11376.96
502.88	11560.68
503.249	11508.26
503.618	11601.14
503.987	11635.26
504.356	11747.57
504.724	11795.03
505.093	11764.07
505.462	11909.38
505.83	12040.9
506.199	12142.82
506.567	12321.34
506.936	12263.04
507.304	12388.69
507.672	12453.32
508.041	12515.91
508.409	12673.2
508.777	12808.79
509.145	12897.37
509.514	12844.27
509.882	12965.62
510.25	13005.62
510.618	13142.11
510.986	13232.28
511.354	13366.51
511.722	13482.22
512.09	13566.73
512.458	13588.2
512.826	13687.86
513.193	13813.51
513.561	13852.83
513.929	14086.04
514.297	14162.42
514.664	14275.64
515.032	14352.48
515.4	14415.98
515.767	14546.59
516.135	14625.01
516.502	14530.55
516.869	14764.22
517.237	14831.33
517.604	14868.62
517.972	15091.21
518.339	15196.75
518.706	15189.74
519.073	15322.62
519.44	15457.08
519.808	15646.45
520.175	15672.89
520.542	15937.07
520.909	15958.08
521.276	16029.49
521.643	16151.75
522.009	16258.19
522.376	16402.82
522.743	16507.9
523.11	16681
523.477	16815.91
523.843	16931.39
524.21	17077.6
524.577	17264.04
524.943	17337.26
525.31	17470.59
525.676	17616.34
526.043	17678.04
526.409	17817.7
526.776	17912.61
527.142	18140.17
527.508	18191.24
527.874	18266.05
528.241	18484.57
528.607	18506.72
528.973	18700.84
529.339	18767.05
529.705	18971.34
530.071	19030.54
530.437	19163.87
530.803	19296.75
531.169	19366.58
531.535	19390.76
531.901	19476.18
532.267	19673.47
532.632	19726.8
532.998	19869.84
533.364	19938.32
533.73	19998.43
534.095	20095.83
534.461	20199.78
534.826	20313
535.192	20395.25
535.557	20598.64
535.923	20599.32
536.288	20748.92
536.653	20738.97
537.019	20740.33
537.384	20795.47
537.749	20926.99
538.114	21084.05
538.479	21102.81
538.845	21193.65
539.21	21306.87
539.575	21298.51
539.94	21481.55
540.305	21559.74
540.67	21493.08
541.034	21688.55
541.399	21759.51
541.764	21849
542.129	21878.83
542.494	21930.13
542.858	22031.14
543.223	22056.23
543.587	22201.31
543.952	22305.71
544.316	22345.49
544.681	22368.99
545.045	22511.13
545.41	22592.49
545.774	22644.91
546.138	22653.73
546.503	22775.98
546.867	22784.12
547.231	23006.94
547.595	23008.29
547.959	23087.84
548.324	23192.92
548.688	23205.12
549.052	23453.03
549.416	23400.15
549.779	23442.41
550.143	23518.11
550.507	23695.96
550.871	23757.2
551.235	23815.73
551.599	23992.67
551.962	23920.13
552.326	24120.13
552.689	24207.36
553.053	24165.1
553.417	24222.5
553.78	24630.62
554.143	24506.33
554.507	24647.12
554.87	24808.47
555.234	24942.03
555.597	24765.54
555.96	24916.94
556.323	25045.08
556.686	25202.36
557.05	25444.39
557.413	25368.68
557.776	25402.35
558.139	25669.01
558.502	25648
558.865	25699.97
559.228	25986.97
559.59	26043.92
559.953	26127.53
560.316	26386.06
560.679	26365.95
561.041	26501.08
561.404	26652.72
561.767	26757.57
562.129	26815.2
562.492	27017.91
562.854	27025.59
563.217	27060.16
563.579	27207.05
563.941	27452.92
564.304	27600.71
564.666	27698.11
565.028	27718.68
565.39	27788.73
565.753	28103.53
566.115	28021.95
566.477	28289.06
566.839	28268.04
567.201	28570.86
567.563	28576.51
567.925	28676.84
568.287	28755.03
568.648	28818.08
569.01	28878.2
569.372	29134.23
569.734	29118.64
570.095	29281.57
570.457	29385.53
570.819	29429.82
571.18	29601.57
571.542	29661.9
571.903	29627.55
572.265	29843.37
572.626	29916.81
572.987	29950.94
573.349	30050.82
573.71	30110.03
574.071	30250.59
574.432	30322
574.794	30453.07
575.155	30544.59
575.516	30483.8
575.877	30623.69
576.238	30696
576.599	30771.93
576.96	30899.84
577.32	30899.61
577.681	30964.69
578.042	31141.64
578.403	31085.37
578.763	31012.83
579.124	31189.77
579.485	31323.33
579.845	31336.44
580.206	31294.18
580.566	31248.98
580.927	31340.5
581.287	31526.04
581.648	31378.47
582.008	31517.9
582.368	31415.76
582.728	31493.04
583.089	31480.16
583.449	31479.48
583.809	31503.21
584.169	31467.73
584.529	31480.61
584.889	31677.44
585.249	31550.67
585.609	31535.3
585.969	31739.36
586.329	31568.52
586.688	31685.81
587.048	31615.75
587.408	31616.65
587.768	31624.56
588.127	31625.47
588.487	31591.8
588.846	31751.11
589.206	31559.03
589.565	31581.85
589.925	31826.37
590.284	31681.06
590.643	31663.66
591.003	31795.63
591.362	31917.89
591.721	31773.03
592.08	31730.55
592.44	31905.46
592.799	31902.3
593.158	31847.61
593.517	31896.65
593.876	32006.47
594.235	31812.81
594.593	32015.97
594.952	31892.81
595.311	31882.86
595.67	32032.46
596.029	32050.54
596.387	32159.69
596.746	32250.54
597.104	32069.75
597.463	32021.39
597.822	32229.52
598.18	32119.01
598.538	31984.33
598.897	32307.03
599.255	31979.81
599.613	32453.02
599.972	32198.11
600.33	32366.47
600.688	32166.92
601.046	32280.82
601.404	32433.36
601.762	32347.48
602.12	32541.6
602.478	32476.52
602.836	32500.7
603.194	32355.84
603.552	32436.52
603.91	32442.17
604.268	32554.48
604.625	32498.44
604.983	32605.1
605.341	32559.68
605.698	32807.13
606.056	32662.73
606.413	32719.22
606.771	32750.18
607.128	32933.46
607.485	32654.14
607.843	32799.22
608.2	32886.68
608.557	32953.79
608.914	32893.68
609.272	33092.1
609.629	33270.4
609.986	33152.21
610.343	33088.71
610.7	33396.27
611.057	33263.84
611.414	33253.22
611.771	33311.07
612.127	33322.82
612.484	33409.38
612.841	33414.12
613.198	33382.48
613.554	33360.11
613.911	33616.15
614.267	33598.3
614.624	33582.48
614.98	33591.52
615.337	33788.12
615.693	33637.84
616.05	33671.74
616.406	33820.66
616.762	33869.48
617.118	33631.97
617.475	33745.86
617.831	33700.89
618.187	33838.52
618.543	33824.96
618.899	34133.42
619.255	34035.8
619.611	33914.9
619.967	34255.68
620.323	34139.98
620.678	33932.3
621.034	34066.99
621.39	33951.73
621.746	33829.7
622.101	34373.64
622.457	33986.99
622.812	34156.7
623.168	34140.2
623.523	34102.46
623.879	34262.01
624.234	34029.47
624.589	34045.97
624.945	34204.84
625.3	34283.25
625.655	34130.26
626.01	34196.25
626.365	34018.63
626.72	34192.18
627.075	33978.63
627.43	34161.45
627.785	34191.5
628.14	34205.06
628.495	34029.7
628.85	34087.1
629.205	34027.44
629.559	34151.96
629.914	34145.85
630.269	34040.32
630.623	33816.82
630.978	33896.37
631.332	33987.21
631.687	33897.5
632.041	33837.84
632.396	33952.64
632.75	33870.61
633.104	33866.54
633.459	33607.56
633.813	33683.27
634.167	33688.01
634.521	33668.8
634.875	33629.26
635.229	33547.23
635.583	33328.25
635.937	33488.92
636.291	33495.48
636.645	33399.43
636.999	33311.75
637.352	33433.1
637.706	33168.93
638.06	33382.03
638.413	33376.61
638.767	33086.22
639.121	33280.34
639.474	32922.83
639.828	33081.02
640.181	33001.02
640.534	33002.38
640.888	32994.7
641.241	32845.55
641.594	32761.03
641.947	32870.63
642.301	32794.02
642.654	32911.54
643.007	32735.27
643.36	32661.15
643.713	32618.66
644.066	32857.75
644.419	32480.81
644.771	32503.64
645.124	32102.74
645.477	32146.13
645.83	31872.92
646.182	31742.53
646.535	31555.41
646.888	31570.78
647.24	31418.02
647.593	31596.32
647.945	31557.67
648.298	31262.99
648.65	31297.34
649.002	31195.65
649.355	31271.13
649.707	31313.84
650.059	31436.09
650.411	31803.54
650.763	31844.45
651.115	32248.73
651.467	31983.42
651.819	32017.32
652.171	31950.43
652.523	31872.92
652.875	31857.1
653.227	31729.19
653.578	31886.93
653.93	31738.91
654.282	31673.83
654.633	31516.32
654.985	31643.09
655.337	31787.95
655.688	31567.62
656.039	31697.33
656.391	31531.23
656.742	31451.46
657.094	31504.79
657.445	31673.6
657.796	31506.6
658.147	31394.97
658.498	31411.24
658.849	31484.91
659.2	31461.4
659.551	31404.23
659.902	31426.6
660.253	31457.11
660.604	31394.74
660.955	31304.8
661.306	31471.35
661.656	31278.13
662.007	31275.42
662.358	31279.71
662.708	31159.94
663.059	31245.59
663.409	31025.48
663.76	31310.9
664.11	31275.65
664.461	31183.45
664.811	31197.46
665.161	31277
665.511	31012.6
665.862	31142.77
666.212	31253.27
666.562	31159.04
666.912	31208.76
667.262	31070.68
667.612	31012.15
667.962	31053.05
668.312	30948.42
668.662	31098.7
669.011	31036.33
669.361	30924.02
669.711	30965.15
670.06	30892.38
670.41	30904.81
670.76	30887.41
671.109	30917.01
671.459	30876.11
671.808	30858.26
672.157	30966.28
672.507	30642.44
672.856	30658.71
673.205	30745.04
673.554	30743.68
673.904	30743.01
674.253	30769.45
674.602	30860.74
674.951	30279.97
675.3	30119.07
675.649	30649.45
675.998	30550.92
676.346	30509.34
676.695	30518.15
677.044	30461.2
677.393	30439.74
677.741	30588.88
678.09	30412.62
678.438	30305.73
678.787	30399.06
679.135	30450.58
679.484	30235.45
679.832	30345.5
680.181	30253.75
680.529	30204.71
680.877	30190.25
681.225	30140.76
681.573	30293.3
681.922	29978.96
682.27	29983.93
682.618	29905.51
682.966	29901.22
683.314	29967.43
683.661	29905.51
684.009	29749.59
684.357	29647.89
684.705	29607.22
685.053	29722.24
685.4	29516.82
685.748	29459.88
686.095	29384.4
686.443	29251.29
686.79	29278.41
687.138	29246.55
687.485	29354.57
687.832	29179.2
688.18	29188.02
688.527	29009.27
688.874	28959.32
689.221	28999.55
689.568	28952.77
689.915	28915.93
690.262	28869.83
690.609	28865.77
690.956	28611.08
691.303	28568.37
691.65	28486.34
691.997	28427.36
692.344	28378.1
692.69	28304.65
693.037	28330.19
693.383	28084.77
693.73	28165.9
694.077	28051.1
694.423	27988.28
694.769	27846.58
695.116	27777.21
695.462	27843.19
695.808	27688.17
696.155	27715.97
696.501	27457.22
696.847	27474.62
697.193	27322.3
697.539	27372.02
697.885	27123.89
698.231	27061.75
698.577	27151.24
698.923	27171.35
699.269	26970
699.614	26825.82
699.96	26626.73
700.306	26787.18
700.651	26628.99
700.997	26617.69
701.342	26580.63
701.688	26427.19
702.033	26350.8
702.379	26384.25
702.724	26321.2
703.069	26396.23
703.415	25932.28
703.76	26005.5
704.105	25910.82
704.45	25860.87
704.795	25843.47
705.14	25718.05
705.485	25830.37
705.83	25621.78
706.175	25682.35
706.52	25556.93
706.865	25473.77
707.209	25479.19
707.554	25446.65
707.899	25421.11
708.243	25347.44
708.588	25308.35
708.932	25223.83
709.277	25115.58
709.621	25139.08
709.966	24982.7
710.31	25032.42
710.654	24810.05
710.998	24766.44
711.342	24777.06
711.687	24723.95
712.031	24615.48
712.375	24510.4
712.719	24576.39
713.063	24564.18
713.407	24621.58
713.75	24409.39
714.094	24408.93
714.438	24288.49
714.782	24263.63
715.125	24181.6
715.469	24202.61
715.812	24026.35
716.156	23917.65
716.499	23977.99
716.843	24044.2
717.186	23855.5
717.53	23983.41
717.873	23899.12
718.216	23805.56
718.559	23770.99
718.902	23640.59
719.246	23584.32
719.589	23550.2
719.932	23409.64
720.275	23514.27
720.617	23507.49
720.96	23445.34
721.303	23380.03
721.646	23398.11
721.989	23270.43
722.331	23346.59
722.674	23246.93
723.016	23180.94
723.359	23150.21
723.701	23180.04
724.044	23094.62
724.386	22930.78
724.729	23046.48
725.071	22929.2
725.413	22995.64
725.755	22958.8
726.097	22957.22
726.439	22732.14
726.782	22773.95
727.124	22903.66
727.465	22653.05
727.807	22588.87
728.149	22638.81
728.491	22542.77
728.833	22566.27
729.175	22399.95
729.516	22475.88
729.858	22480.85
730.199	22519.04
730.541	22361.53
730.882	22294.87
731.224	22364.69
731.565	22254.87
731.906	22212.61
732.248	22283.57
732.589	22136.9
732.93	22092.84
733.271	22153.63
733.612	22083.57
733.953	22100.29
734.294	21950.69
734.635	21988.43
734.976	21980.52
735.317	21814.88
735.658	21882.9
735.999	21838.61
736.339	21769.91
736.68	21812.62
737.021	21593.19
737.361	21670.02
737.702	21696.92
738.042	21639.29
738.383	21616.01
738.723	21606.07
739.063	21612.17
739.404	21517.26
739.744	21528.33
740.084	21451.72
740.424	21380.77
740.764	21334.89
741.104	21456.7
741.444	21327.66
741.784	21217.61
742.124	21313.65
742.464	21226.19
742.804	21240.88
743.143	21121.56
743.483	21269.58
743.823	20909.59
744.162	20985.52
744.502	21025.97
744.841	20876.82
745.181	21002.02
745.52	20899.42
745.86	20896.94
746.199	20867.78
746.538	20808.13
746.877	20894.68
747.216	20748.01
747.556	20777.84
747.895	20726.32
748.234	20613.78
748.573	20638.19
748.911	20591.41
749.25	20610.39
749.589	20454.91
749.928	20498.75
750.267	20544.86
750.605	20378.31
750.944	20386.44
751.283	20188.48
751.621	20389.15
751.96	20173.57
752.298	20174.7
752.636	20141.7
752.975	19947.13
753.313	19875.04
753.651	20018.09
753.989	19897.41
754.327	19840.47
754.666	19730.19
755.004	19793.91
755.342	19743.07
755.679	19788.94
756.017	19651.09
756.355	19640.92
756.693	19569.97
757.031	19722.28
757.368	19477.09
757.706	19530.42
758.044	19376.52
758.381	19523.41
758.719	19331.33
759.056	19344.66
759.394	19241.16
759.731	19131.56
760.068	19189.41
760.405	19028.74
760.743	18910.77
761.08	19054.72
761.417	19016.99
761.754	18840.04
762.091	18845.69
762.428	18800.04
762.765	18647.05
763.102	18796.88
763.438	18643.66
763.775	18540.16
764.112	18568.86
764.449	18533.16
764.785	18449.09
765.122	18311.24
765.458	18233.73
765.795	18136.33
766.131	18245.25
766.467	18132.26
766.804	18036.45
767.14	17998.26
767.476	17866.96
767.812	17881.65
768.148	17830.35
768.485	17683.69
768.821	17632.16
769.157	17612.5
769.492	17643.24
769.828	17517.82
770.164	17409.8
770.5	17430.13
770.836	17336.13
771.171	17151.5
771.507	17197.6
771.842	17089.58
772.178	17083.25
772.513	17040.09
772.849	16939.98
773.184	16901.34
773.519	16927.1
773.855	16737.05
774.19	16682.58
774.525	16644.84
774.86	16675.35
775.195	16680.55
775.53	16631.29
775.865	16447.34
776.2	16358.98
776.535	16296.61
776.87	16169.83
777.205	16118.53
777.539	16068.14
777.874	16065.88
778.209	15940.46
778.543	16026.1
778.878	15809.61
779.212	15829.5
779.547	15743.85
779.881	15735.04
780.215	15620.01
780.55	15693.91
780.884	15554.03
781.218	15593.35
781.552	15536.85
781.886	15458.89
782.22	15330.08
782.554	15291.21
782.888	15151.78
783.222	15121.72
783.556	15179.12
783.889	14958.56
784.223	14893.25
784.557	14940.26
784.89	14913.36
785.224	14787.49
785.557	14760.83
785.891	14740.94
786.224	14576.88
786.558	14666.14
786.891	14604.22
787.224	14521.28
787.557	14489.42
787.891	14414.85
788.224	14320.39
788.557	14364.45
788.89	14310.44
789.223	14280.61
789.556	14171.69
789.888	14055.08
790.221	14156.77
790.554	13980.28
790.887	13997
791.219	13964.24
791.552	13935.31
791.884	13858.48
792.217	13801.76
792.549	13663.45
792.882	13716.79
793.214	13554.3
793.546	13695.54
793.879	13506.85
794.211	13486.06
794.543	13523.34
794.875	13439.73
795.207	13544.14
795.539	13383.91
795.871	13447.64
796.203	13300.07
796.535	13144.6
796.867	13209.91
797.198	13145.95
797.53	13097.14
797.862	13062.57
798.193	13063.02
798.525	12915
798.856	12999.74
799.188	12891.27
799.519	12843.81
799.85	12851.05
800.182	12704.16
800.513	12734.89
800.844	12634.33
801.175	12672.07
801.506	12750.94
801.837	12536.7
802.168	12505.29
802.499	12574.9
802.83	12500.77
803.161	12394.56
803.491	12487.89
803.822	12388.69
804.153	12381.23
804.483	12270.04
804.814	12240.67
805.145	12208.13
805.475	12240.44
805.805	12170.16
806.136	12154.34
806.466	12154.79
806.796	12150.5
807.126	11979.43
807.457	12016.94
807.787	11893.11
808.117	11938.98
808.447	11910.73
808.777	11856.27
809.107	11880
809.436	11770.62
809.766	11785.31
810.096	11721.58
810.426	11724.52
810.755	11684.52
811.085	11665.77
811.414	11668.7
811.744	11579.89
812.073	11498.77
812.403	11570.85
812.732	11542.15
813.061	11474.59
813.39	11451.99
813.719	11374.47
814.049	11355.94
814.378	11417.19
814.707	11335.38
815.036	11275.95
815.365	11244.76
815.693	11146.46
816.022	11126.35
816.351	11160.7
816.68	11122.5
817.008	11137.87
817.337	10957.31
817.665	11004.54
817.994	11015.84
818.322	11016.07
818.651	10920.7
818.979	10894.49
819.307	11038.21
819.636	10940.59
819.964	10852.91
820.292	10900.36
820.62	10851.78
820.948	10847.26
821.276	10899.46
821.604	10808.84
821.932	10861.49
822.259	10868.95
822.587	10853.81
822.915	10802.06
823.243	10860.82
823.57	10804.77
823.898	10832.34
824.225	10773.81
824.553	10763.64
824.88	10768.16
825.207	10831.44
825.535	10737.43
825.862	10826.69
826.189	10739.92
826.516	10764.1
826.843	10710.31
827.17	10748.73
827.497	10862.17
827.824	10781.5
828.151	10854.26
828.478	10813.81
828.805	10886.58
829.131	10835.73
829.458	10734.04
829.785	10720.48
830.111	10714.61
830.438	10750.54
830.764	10762.97
831.09	10740.59
831.417	10654.95
831.743	10721.61
832.069	10808.39
832.395	10713.7
832.722	10807.48
833.048	10729.97
833.374	10702.85
833.7	10675.51
834.026	10666.7
834.351	10663.99
834.677	10610.88
835.003	10674.38
835.329	10603.87
835.654	10530.88
835.98	10498.11
836.306	10594.16
836.631	10556.87
836.956	10635.96
837.282	10548.96
837.607	10467.38
837.932	10526.81
838.258	10513.48
838.583	10468.28
838.908	10394.16
839.233	10432.35
839.558	10357.33
839.883	10367.72
840.208	10367.95
840.533	10369.08
840.858	10313.94
841.182	10385.35
841.507	10341.96
841.832	10206.37
842.156	10221.74
842.481	10274.62
842.805	10194.17
843.13	10155.75
843.454	10158.24
843.778	10176.77
844.103	10091.12
844.427	10019.71
844.751	10163.89
845.075	9992.36
845.399	10030.78
845.723	9967.73
846.047	10005.02
846.371	9902.42
846.695	9917.34
847.019	9784.01
847.343	9783.1
847.666	9773.84
847.99	9781.07
848.313	9719.38
848.637	9648.19
848.96	9652.71
849.284	9583.11
849.607	9515.77
849.931	9563.68
850.254	9455.66
850.577	9397.13
850.9	9384.92
851.223	9358.48
851.546	9286.85
851.869	9232.61
852.192	9247.53
852.515	9194.65
852.838	9187.19
853.161	9212.95
853.483	9130.24
853.806	9107.87
854.129	9042.56
854.451	9023.12
854.774	9003.01
855.096	8956.46
855.419	8933.18
855.741	8981.54
856.063	8909.23
856.385	8817.71
856.708	8862.68
857.03	8812.96
857.352	8797.14
857.674	8767.09
857.996	8732.74
858.318	8614.1
858.64	8714.43
858.961	8619.97
859.283	8618.84
859.605	8606.41
859.926	8602.12
860.248	8570.03
860.57	8563.25
860.891	8600.31
861.212	8473.99
861.534	8478.05
861.855	8475.79
862.176	8436.25
862.498	8411.61
862.819	8432.63
863.14	8410.03
863.461	8368.45
863.782	8317.15
864.103	8400.77
864.424	8356.25
864.745	8410.03
865.065	8298.4
865.386	8317.61
865.707	8256.36
866.027	8289.36
866.348	8216.14
866.668	8295.01
866.989	8256.36
867.309	8178.4
867.63	8198.06
867.95	8193.32
868.27	8168.23
868.59	8089.14
868.91	8226.99
869.23	8129.36
869.55	8124.62
869.87	8150.6
870.19	8082.58
870.51	8140.66
870.83	8110.38
871.15	8054.34
871.469	8039.2
871.789	8038.52
872.109	8065.64
872.428	7971.63
872.748	7996.26
873.067	7988.12
873.386	7993.77
873.706	7913.32
874.025	7882.36
874.344	7932.76
874.663	7873.1
874.982	7947.22
875.301	7853.21
875.62	7887.33
875.939	7863.61
876.258	7819.09
876.577	7846.43
876.896	7885.53
877.214	7836.04
877.533	7777.73
877.852	7819.54
878.17	7779.09
878.489	7771.41
878.807	7708.81
879.125	7765.3
879.444	7756.04
879.762	7704.51
880.08	7697.74
880.398	7649.15
880.716	7716.72
881.034	7656.83
881.352	7679.43
881.67	7664.97
881.988	7647.12
882.306	7631.97
882.624	7596.95
882.941	7522.6
883.259	7503.84
883.577	7522.82
883.894	7479.44
884.212	7516.05
884.529	7469.72
884.846	7484.63
885.164	7460.68
885.481	7424.07
885.798	7455.71
886.115	7334.81
886.432	7365.77
886.75	7346.56
887.067	7366.9
887.383	7332.55
887.7	7406.44
888.017	7315.82
888.334	7264.98
888.651	7276.5
888.967	7240.8
889.284	7256.84
889.6	7189.27
889.917	7188.82
890.233	7144.53
890.55	7118.09
890.866	7120.58
891.182	7128.48
891.498	7026.57
891.815	7041.03
892.131	7005.32
892.447	7007.36
892.763	6933.69
893.079	6963.74
893.395	6982.05
893.71	6929.39
894.026	6887.14
894.342	6942.05
894.657	6805.56
894.973	6841.94
895.289	6832.67
895.604	6812.79
895.92	6734.82
896.235	6712.22
896.55	6777.76
896.865	6751.09
897.181	6704.77
897.496	6719.68
897.811	6665.67
898.126	6710.64
898.441	6665.45
898.756	6716.74
899.071	6599.91
899.386	6610.76
899.7	6552
900.015	6509.74
900.33	6491.67
900.644	6477.43
900.959	6474.72
901.273	6450.31
901.588	6413.48
901.902	6381.39
902.216	6341.16
902.531	6328.96
902.845	6321.73
903.159	6276.3
903.473	6272.24
903.787	6219.58
904.101	6213.03
904.415	6259.13
904.729	6183.42
905.042	6143.65
905.356	6136.87
905.67	6143.65
905.984	6133.71
906.297	6081.73
906.611	5970.78
906.924	6014.62
907.237	6014.62
907.551	5975.52
907.864	5965.8
908.177	5943.21
908.491	5933.71
908.804	5915.18
909.117	5870.89
909.43	5867.05
909.743	5780.72
910.056	5805.36
910.368	5808.52
910.681	5790.21
910.994	5722.87
911.307	5725.58
911.619	5672.7
911.932	5662.08
912.244	5617.79
912.557	5668.64
912.869	5595.42
913.181	5537.11
913.494	5641.29
913.806	5544.57
914.118	5501.18
914.43	5484.91
914.742	5490.56
915.054	5503.67
915.366	5419.83
915.678	5405.59
915.99	5420.96
916.302	5372.82
916.613	5304.13
916.925	5282.21
917.236	5312.71
917.548	5298.02
917.859	5281.98
918.171	5231.81
918.482	5196.78
918.794	5192.94
919.105	5211.47
919.416	5152.94
919.727	5155.43
920.038	5162.21
920.349	5115.2
920.66	5061.42
920.971	5044.25
921.282	5072.04
921.593	5050.57
921.903	4985.49
922.214	4996.11
922.525	4939.16
922.835	4982.1
923.146	4911.59
923.456	4899.62
923.767	4899.39
924.077	4888.09
924.387	4869.79
924.697	4784.82
925.008	4816.23
925.318	4754.76
925.628	4774.2
925.938	4770.58
926.248	4702.79
926.558	4693.29
926.867	4725.38
927.177	4665.95
927.487	4653.97
927.796	4640.41
928.106	4590.02
928.416	4572.62
928.725	4592.51
929.034	4540.53
929.344	4509.57
929.653	4508.21
929.962	4497.59
930.271	4477.48
930.581	4450.59
930.89	4432.96
931.199	4413.53
931.508	4430.48
931.817	4397.26
932.125	4399.74
932.434	4350.48
932.743	4289.69
933.051	4291.05
933.36	4250.37
933.669	4289.24
933.977	4284.94
934.286	4253.08
934.594	4238.62
934.902	4218.73
935.21	4216.02
935.519	4232.29
935.827	4179.64
936.135	4142.57
936.443	4097.38
936.751	4151.84
937.059	4083.59
937.367	4068
937.674	4075.46
937.982	4067.55
938.29	4049.02
938.597	4055.57
938.905	3951.85
939.213	3981.45
939.52	3975.57
939.827	3957.72
940.135	3897.61
940.442	3869.36
940.749	3890.38
941.056	3949.36
941.363	3871.62
941.67	3804.96
941.977	3837.72
942.284	3777.16
942.591	3785.52
942.898	3784.62
943.205	3743.49
943.511	3754.34
943.818	3739.42
944.125	3670.95
944.431	3661.46
944.738	3685.64
945.044	3709.37
945.35	3662.81
945.657	3624.85
945.963	3628.69
946.269	3647.9
946.575	3618.52
946.881	3610.61
947.187	3563.83
947.493	3558.41
947.799	3555.92
948.105	3523.16
948.41	3523.16
948.716	3522.7
949.022	3502.37
949.327	3474.34
949.633	3446.1
949.938	3438.41
950.244	3467.11
950.549	3364.52
950.854	3385.53
951.16	3369.71
951.465	3370.84
951.77	3381.24
952.075	3349.6
952.38	3332.65
952.685	3300.56
952.99	3325.65
953.294	3283.16
953.599	3241.58
953.904	3269.6
954.209	3239.77
954.513	3275.03
954.818	3193.67
955.122	3209.49
955.426	3237.29
955.731	3196.84
956.035	3145.76
956.339	3158.65
956.643	3166.78
956.948	3120.45
957.252	3113.45
957.556	3104.18
957.86	3049.27
958.163	3089.27
958.467	3093.56
958.771	3049.72
959.075	3024.86
959.378	2991.42
959.682	3005.2
959.985	3002.72
960.289	2982.38
960.592	2996.62
960.896	2986.67
961.199	2967.24
961.502	2949.61
961.805	2911.65
962.108	2928.6
962.411	2897.18
962.714	2910.29
963.017	2867.35
963.32	2885.66
963.623	2835.26
963.926	2822.61
964.228	2856.28
964.531	2860.35
964.833	2813.34
965.136	2780.8
965.438	2788.71
965.741	2751.42
966.043	2769.73
966.345	2752.33
966.648	2715.95
966.95	2735.38
967.252	2741.26
967.554	2693.57
967.856	2707.58
968.158	2690.18
968.46	2651.77
968.761	2696.29
969.063	2645.44
969.365	2613.8
969.666	2598.66
969.968	2625.33
970.269	2613.8
970.571	2616.51
970.872	2601.15
971.174	2550.75
971.475	2559.79
971.776	2582.16
972.077	2519.57
972.378	2523.41
972.679	2536.29
972.98	2526.35
973.281	2503.3
973.582	2493.13
973.883	2472.56
974.183	2506.46
974.484	2465.33
974.785	2423.98
975.085	2463.52
975.386	2480.02
975.686	2452.45
975.986	2399.57
976.287	2412.68
976.587	2369.06
976.887	2396.86
977.187	2402.96
977.487	2341.94
977.787	2370.42
978.087	2355.05
978.387	2314.15
978.687	2301.49
978.987	2320.7
979.286	2278.22
979.586	2306.01
979.885	2266.01
980.185	2282.74
980.484	2270.31
980.784	2266.69
981.083	2256.97
981.382	2245.68
981.682	2216.07
981.981	2210.87
982.28	2189.41
982.579	2196.41
982.878	2216.07
983.177	2150.76
983.475	2186.24
983.774	2138.11
984.073	2132.91
984.372	2115.06
984.67	2117.09
984.969	2139.01
985.267	2143.98
985.566	2117.09
985.864	2119.58
986.162	2090.43
986.461	2089.97
986.759	2079.13
987.057	2040.26
987.355	2053.14
987.653	2043.42
987.951	2044.1
988.249	2021.73
988.547	2035.74
988.844	2022.86
989.142	1991.22
989.44	1986.25
989.737	2003.42
990.035	1983.08
990.332	1966.36
990.63	1979.47
990.927	1954.61
991.224	1896.31
991.521	1908.51
991.819	1942.18
992.116	1894.72
992.413	1897.44
992.71	1887.27
993.006	1910.54
993.303	1896.31
993.6	1884.78
993.897	1880.04
994.193	1857.21
994.49	1865.57
994.787	1851.56
995.083	1845.91
995.379	1816.53
995.676	1833.93
995.972	1830.77
996.268	1807.04
996.565	1787.16
996.861	1793.48
997.157	1790.32
997.453	1791.22
997.749	1760.04
998.044	1757.33
998.34	1739.47
998.636	1756.65
998.932	1734.95
999.227	1723.2
999.523	1712.13
999.818	1688.4
1000.114	1677.55
1000.409	1648.18
1000.704	1682.07
1001	1654.96
1001.295	1629.42
1001.59	1624
1001.885	1651.34
1002.18	1641.62
1002.475	1619.7
1002.77	1601.85
1003.065	1649.08
1003.359	1628.29
1003.654	1596.88
1003.949	1594.17
1004.243	1580.61
1004.538	1565.69
1004.832	1573.15
1005.127	1566.82
1005.421	1530.21
1005.715	1540.38
1006.009	1508.52
1006.304	1513.72
1006.598	1514.62
1006.892	1536.09
1007.186	1501.51
1007.48	1480.72
1007.773	1473.72
1008.067	1462.87
1008.361	1494.28
1008.655	1430.56
1008.948	1454.74
1009.242	1415.41
1009.535	1422.65
1009.829	1451.35
1010.122	1432.82
1010.415	1408.64
1010.708	1407.28
1011.001	1397.56
1011.295	1377.45
1011.588	1383.78
1011.881	1367.05
1012.173	1362.08
1012.466	1363.21
1012.759	1357.56
1013.052	1349.2
1013.344	1340.16
1013.637	1345.59
1013.93	1331.12
1014.222	1357.79
1014.514	1319.6
1014.807	1316.21
1015.099	1314.63
1015.391	1296.32
1015.683	1314.17
1015.976	1265.81
1016.268	1282.54
1016.56	1244.12
1016.851	1261.97
1017.143	1253.16
1017.435	1280.5
1017.727	1233.05
1018.018	1217.68
1018.31	1212.93
1018.602	1207.74
1018.893	1223.33
1019.185	1184.23
1019.476	1173.16
1019.767	1176.55
1020.058	1174.52
1020.35	1177.91
1020.641	1179.26
1020.932	1140.17
1021.223	1135.87
1021.514	1151.47
1021.804	1156.89
1022.095	1115.76
1022.386	1119.6
1022.677	1093.62
1022.967	1100.17
1023.258	1102.2
1023.548	1090.68
1023.839	1085.93
1024.129	1083.45
1024.419	1073.28
1024.709	1081.41
1025	1089.77
1025.29	1037.57
1025.58	1043.45
1025.87	1033.5
1026.16	1028.08
1026.449	1041.19
1026.739	1021.75
1027.029	1043.67
1027.319	998.48
1027.608	1006.61
1027.898	997.35
1028.187	998.48
1028.477	995.54
1028.766	987.4
1029.055	990.34
1029.344	996.44
1029.634	949.89
1029.923	953.05
1030.212	966.61
1030.501	945.82
1030.79	957.12
1031.078	941.53
1031.367	941.98
1031.656	918.93
1031.945	922.09
1032.233	922.77
1032.522	927.07
1032.81	907.18
1033.099	894.98
1033.387	876.22
1033.675	883.9
1033.963	892.94
1034.251	864.02
1034.54	885.94
1034.828	893.85
1035.116	871.02
1035.403	867.41
1035.691	867.41
1035.979	877.8
1036.267	847.75
1036.554	829.89
1036.842	854.3
1037.129	823.57
1037.417	830.57
1037.704	804.81
1037.992	804.81
1038.279	824.92
1038.566	797.58
1038.853	797.58
1039.14	797.58
