Data from breadboard_white_FLMS001491_00032.txt Node
Date: Wed Feb 08 10:47:37 GMT 2017
User: dcchb
Spectrometer: FLMS00149
Trigger mode: 0
Integration Time (sec): 2.000000E-2
Scans to average: 10
Electric dark correction enabled: true
Nonlinearity correction enabled: false
Boxcar width: 0
XAxis mode: Wavelengths
Number of Pixels in Spectrum: 2048
>>>>>Begin Spectral Data<<<<<
341.393	-27.37
341.776	-27.37
342.16	-27.37
342.543	-79.35
342.927	-75.05
343.31	-62.85
343.693	-71.21
344.077	-47.71
344.46	-52.23
344.843	-54.72
345.226	-49.07
345.61	-27.6
345.993	-19.69
346.376	-10.2
346.759	15.11
347.142	25.28
347.525	32.97
347.908	67.54
348.291	67.31
348.674	94.88
349.057	92.17
349.44	111.61
349.823	115.22
350.206	170.14
350.588	204.94
350.971	225.05
351.354	213.53
351.737	226.18
352.119	253.07
352.502	255.56
352.884	278.16
353.267	281.77
353.65	302.79
354.032	307.99
354.414	314.77
354.797	305.05
355.179	312.05
355.562	315.22
355.944	313.86
356.326	324.48
356.709	338.95
357.091	357.02
357.473	357.25
357.855	331.71
358.238	351.15
358.62	350.92
359.002	346.86
359.384	344.82
359.766	347.99
360.148	353.41
360.53	342.56
360.912	347.53
361.294	351.15
361.676	353.18
362.057	329.68
362.439	333.97
362.821	339.85
363.203	355.67
363.584	330.81
363.966	333.07
364.348	342.34
364.729	326.06
365.111	338.72
365.493	354.99
365.874	348.66
366.256	321.32
366.637	311.83
367.019	333.97
367.4	318.38
367.781	324.93
368.163	320.19
368.544	345.5
368.925	314.99
369.306	333.07
369.688	305.5
370.069	334.2
370.45	342.34
370.831	343.92
371.212	327.87
371.593	322.45
371.974	324.48
372.355	318.61
372.736	339.17
373.117	347.76
373.498	347.31
373.879	339.85
374.26	320.87
374.641	318.38
375.021	349.57
375.402	322.45
375.783	354.54
376.163	376.91
376.544	353.63
376.925	337.59
377.305	349.34
377.686	362.67
378.066	341.88
378.447	348.21
378.827	368.1
379.208	359.28
379.588	382.33
379.968	353.86
380.349	364.71
380.729	343.24
381.109	373.75
381.489	369
381.87	373.07
382.25	375.33
382.63	386.18
383.01	390.92
383.39	364.03
383.77	369.91
384.15	381.43
384.53	375.33
384.91	392.28
385.29	397.93
385.67	409.9
386.049	408.1
386.429	382.56
386.809	403.8
387.189	403.58
387.568	416.46
387.948	426.85
388.328	413.29
388.707	428.44
389.087	406.51
389.466	433.41
389.846	420.07
390.225	427.53
390.605	460.75
390.984	451.94
391.363	462.56
391.743	433.86
392.122	459.62
392.501	463.69
392.881	477.25
393.26	489.22
393.639	457.59
394.018	467.08
394.397	473.18
394.776	496.23
395.155	513.63
395.534	499.85
395.913	515.66
396.292	505.72
396.671	541.65
397.05	524.03
397.429	527.42
397.808	526.74
398.186	549.34
398.565	564.25
398.944	568.32
399.323	561.09
399.701	574.65
400.08	566.51
400.458	587.53
400.837	599.05
401.215	577.58
401.594	585.49
401.972	616.23
402.351	625.72
402.729	631.59
403.107	636.57
403.486	645.83
403.864	650.35
404.242	672.5
404.62	690.8
404.999	680.86
405.377	705.72
405.755	722.66
406.133	712.27
406.511	719.5
406.889	743.68
407.267	743.46
407.645	766.05
408.023	782.32
408.401	807.63
408.779	815.54
409.156	825.26
409.534	839.95
409.912	843.11
410.29	870.91
410.667	881.98
411.045	907.97
411.422	906.16
411.8	917.69
412.178	965.6
412.555	980.51
412.933	968.76
413.31	1004.47
413.687	1035.65
414.065	1051.92
414.442	1049.21
414.819	1069.1
415.197	1056.44
415.574	1101.86
415.951	1094.63
416.328	1152.26
416.705	1152.03
417.082	1159.94
417.46	1187.29
417.837	1204.23
418.214	1211.69
418.591	1221.63
418.967	1230.67
419.344	1244.91
419.721	1270.45
420.098	1265.48
420.475	1333.95
420.852	1308.64
421.228	1345.02
421.605	1345.02
421.982	1346.38
422.358	1363.55
422.735	1423.21
423.111	1388.41
423.488	1449.43
423.864	1446.49
424.241	1451.91
424.617	1487.84
424.994	1464.34
425.37	1483.1
425.746	1491.23
426.123	1547.73
426.499	1549.54
426.875	1566.48
427.251	1608.29
427.627	1643.54
428.003	1653.71
428.379	1671.79
428.756	1696.2
429.132	1717.21
429.507	1735.97
429.883	1723.99
430.259	1787.27
430.635	1795.63
431.011	1848.51
431.387	1844.44
431.763	1905.01
432.138	1909.3
432.514	1943.65
432.89	1914.95
433.265	1983.42
433.641	2028.84
434.016	2025.91
434.392	2076.08
434.767	2119.69
435.143	2097.32
435.518	2145
435.894	2159.91
436.269	2161.72
436.644	2219.35
437.02	2240.59
437.395	2215.28
437.77	2265.67
438.145	2321.04
438.52	2338.44
438.895	2357.88
439.271	2392
439.646	2410.08
440.021	2434.26
440.395	2413.24
440.77	2441.26
441.145	2468.61
441.52	2529.17
441.895	2565.55
442.27	2524.43
442.645	2568.94
443.019	2565.78
443.394	2603.29
443.769	2652.33
444.143	2643.07
444.518	2668.15
444.892	2639.22
445.267	2689.84
445.641	2702.5
446.016	2747.24
446.39	2719.9
446.764	2772.55
447.139	2748.37
447.513	2798.54
447.887	2838.54
448.262	2843.74
448.636	2880.8
449.01	2938.2
449.384	2945.88
449.758	2944.3
450.132	3003.73
450.506	3014.36
450.88	3003.28
451.254	3036.95
451.628	3097.07
452.002	3095.71
452.376	3147.46
452.75	3188.81
453.123	3182.71
453.497	3269.26
453.871	3241.02
454.244	3348.13
454.618	3330.73
454.992	3398.3
455.365	3422.93
455.739	3490.95
456.112	3499.54
456.486	3554.68
456.859	3624.74
457.232	3666.99
457.606	3631.06
457.979	3680.55
458.352	3807.33
458.725	3861.34
459.099	3863.6
459.472	3920.09
459.845	3944.73
460.218	3982.92
460.591	4005.97
460.964	4041
461.337	4190.82
461.71	4217.04
462.083	4236.47
462.456	4270.59
462.829	4254.78
463.201	4407.54
463.574	4450.7
463.947	4506.29
464.32	4562.11
464.692	4588.55
465.065	4662
465.438	4658.61
465.81	4752.39
466.183	4819.05
466.555	4922.1
466.928	4948.32
467.3	4953.51
467.672	5009.33
468.045	5159.84
468.417	5198.03
468.789	5239.61
469.161	5266.27
469.534	5404.12
469.906	5508.53
470.278	5499.26
470.65	5582.88
471.022	5737
471.394	5770.89
471.766	5859.93
472.138	5933.6
472.51	6078
472.882	6108.74
473.253	6204.33
473.625	6282.07
473.997	6496.3
474.369	6473.25
474.74	6561.61
475.112	6676.18
475.484	6800.02
475.855	6953.46
476.227	6958.88
476.598	7288.82
476.97	7195.49
477.341	7414.24
477.713	7511.64
478.084	7543.73
478.455	7752.31
478.827	7786.21
479.198	8086.76
479.569	8115.01
479.94	8304.84
480.311	8415.57
480.682	8578.5
481.053	8690.59
481.424	8917.7
481.795	8955.89
482.166	9127.19
482.537	9210.13
482.908	9397.92
483.279	9530.12
483.65	9722.2
484.021	9822.54
484.391	10068.18
484.762	10078.58
485.133	10238.12
485.503	10355.18
485.874	10557.89
486.244	10700.48
486.615	10857.99
486.985	10975.73
487.356	11190.41
487.726	11244.2
488.097	11522.61
488.467	11601.25
488.837	11768.48
489.207	11937.96
489.578	12128.01
489.948	12199.88
490.318	12404.62
490.688	12457.95
491.058	12641.9
491.428	12709.47
491.798	12951.5
492.168	13223.8
492.538	13203.47
492.908	13407.3
493.278	13547.86
493.648	13605.04
494.017	13782.43
494.387	13962.54
494.757	14014.74
495.126	14193.72
495.496	14348.52
495.866	14337.45
496.235	14572.7
496.605	14650.89
496.974	14836.64
497.344	14805.01
497.713	15017.66
498.082	15135.17
498.452	15224.66
498.821	15435.05
499.19	15440.02
499.559	15648.6
499.928	15753.68
500.298	15768.37
500.667	15986.9
501.036	15960
501.405	16110.28
501.774	16183.73
502.143	16398.64
502.512	16476.6
502.88	16642.92
503.249	16522.02
503.618	16747.1
503.987	16932.86
504.356	17014.44
504.724	17073.42
505.093	17186.19
505.462	17279.07
505.83	17399.97
506.199	17472.73
506.567	17788.66
506.936	17809.45
507.304	17878.6
507.672	18021.64
508.041	18164.47
508.409	18285.82
508.777	18368.98
509.145	18579.6
509.514	18609.88
509.882	18698.46
510.25	18802.87
510.618	19088.96
510.986	19089.64
511.354	19277.66
511.722	19544.54
512.09	19599.23
512.458	19606.46
512.826	19780.24
513.193	19892.56
513.561	19901.6
513.929	20226.56
514.297	20297.29
514.664	20547.45
515.032	20642.14
515.4	20789.03
515.767	20849.82
516.135	21083.94
516.502	20939.99
516.869	21272.86
517.237	21391.27
517.604	21354.44
517.972	21647.76
518.339	21907.64
518.706	22001.65
519.073	22086.4
519.44	22214.75
519.808	22487.52
520.175	22535.2
520.542	22706.04
520.909	22926.15
521.276	22947.62
521.643	23240.04
522.009	23425.57
522.376	23601.39
522.743	23674.38
523.11	23993.24
523.477	24193.69
523.843	24330.18
524.21	24612.43
524.577	24748.25
524.943	24910.5
525.31	25096.26
525.676	25271.17
526.043	25402.02
526.409	25541.67
526.776	25875.45
527.142	25946.18
527.508	26082.22
527.874	26260.98
528.241	26425.49
528.607	26549.78
528.973	26730.79
529.339	26814.41
529.705	27108.64
530.071	27231.35
530.437	27436.76
530.803	27531.9
531.169	27628.17
531.535	27758.11
531.901	27827.94
532.267	27960.37
532.632	28277.19
532.998	28351.77
533.364	28384.99
533.73	28500.01
534.095	28753.79
534.461	28933.22
534.826	28995.37
535.192	29100.68
535.557	29369.14
535.923	29277.39
536.288	29539.31
536.653	29558.74
537.019	29582.24
537.384	29689.81
537.749	29865.18
538.114	29994.89
538.479	30095.45
538.845	30279.18
539.21	30207.99
539.575	30356.24
539.94	30595.78
540.305	30608.88
540.67	30650.24
541.034	30923
541.399	30925.49
541.764	30950.57
542.129	31263.1
542.494	31067.63
542.858	31277.34
543.223	31395.98
543.587	31520.27
543.952	31580.16
544.316	31654.05
544.681	31755.29
545.045	31843.43
545.41	32085.91
545.774	32063.31
546.138	32197.54
546.503	32274.15
546.867	32359.35
547.231	32611.77
547.595	32685.67
547.959	32825.1
548.324	32835.72
548.688	32917.3
549.052	33124.52
549.416	33155.48
549.779	33230.06
550.143	33282.49
550.507	33556.38
550.871	33639.31
551.235	33676.83
551.599	33892.19
551.962	34004.95
552.326	34065.06
552.689	34275.68
553.053	34161.56
553.417	34279.52
553.78	34795.22
554.143	34643.81
554.507	34915.89
554.87	34900.75
555.234	35155.43
555.597	34976.45
555.96	35231.36
556.323	35414.86
556.686	35438.81
557.05	35775.98
557.413	35887.16
557.776	35798.35
558.139	36237.89
558.502	36269.3
558.865	36396.53
559.228	36729.18
559.59	36756.52
559.953	36815.27
560.316	37132.55
560.679	37199.22
561.041	37438.31
561.404	37556.27
561.767	37682.37
562.129	37611.64
562.492	38157.61
562.854	38083.26
563.217	38121
563.579	38254.33
563.941	38623.36
564.304	38686.86
564.666	39024.03
565.028	38986.52
565.39	39102.22
565.753	39250.24
566.115	39407.75
566.477	39691.36
566.839	39801.64
567.201	39934.29
567.563	40083.44
567.925	40379.25
568.287	40308.29
568.648	40245.47
569.01	40680.71
569.372	40877.77
569.734	40862.17
570.095	41122.73
570.457	41351.43
570.819	41133.81
571.18	41273.01
571.542	41539.22
571.903	41572.66
572.265	41724.98
572.626	41859.66
572.987	41802.49
573.349	41970.85
573.71	42137.39
574.071	42152.54
574.432	42367.9
574.794	42596.37
575.155	42623.48
575.516	42436.6
575.877	42684.05
576.238	42662.13
576.599	42943.7
576.96	43005.39
577.32	42934.89
577.681	43180.53
578.042	43195.22
578.403	43215.56
578.763	43184.82
579.124	43295.33
579.485	43465.72
579.845	43595.66
580.206	43339.4
580.566	43425.27
580.927	43437.25
581.287	43635.89
581.648	43535.32
582.008	43671.37
582.368	43629.33
582.728	43834.98
583.089	43610.58
583.449	43682.44
583.809	43748.88
584.169	43838.14
584.529	43713.17
584.889	44021.87
585.249	43762.21
585.609	43673.4
585.969	43910.68
586.329	43774.19
586.688	43909.55
587.048	43859.84
587.408	43834.98
587.768	43787.29
588.127	43864.36
588.487	43740.97
588.846	44184.8
589.206	43748.43
589.565	43843.11
589.925	43995.65
590.284	43862.55
590.643	43985.71
591.003	44046.95
591.362	44090.34
591.721	43966.05
592.08	44036.55
592.44	44055.76
592.799	44112.26
593.158	44015.09
593.517	43918.82
593.876	44176.89
594.235	44091.69
594.593	44042.43
594.952	44162.2
595.311	43962.43
595.67	44091.69
596.029	44334.17
596.387	44398.35
596.746	44223.67
597.104	44121.98
597.463	44360.39
597.822	44351.57
598.18	44150
598.538	44119.26
598.897	44464.57
599.255	44106.38
599.613	44753.82
599.972	44457.56
600.33	44477.67
600.688	44318.13
601.046	44543.21
601.404	44683.09
601.762	44474.73
602.12	44713.15
602.478	44725.35
602.836	44655.29
603.194	44564.68
603.552	44719.25
603.91	44605.58
604.268	44801.28
604.625	44747.27
604.983	44842.41
605.341	44661.4
605.698	44742.75
606.056	44995.4
606.413	44891.67
606.771	45102.97
607.128	45160.14
607.485	44822.75
607.843	44862.29
608.2	45147.03
608.557	45267.93
608.914	45055.28
609.272	45411.89
609.629	45326.01
609.986	45519.23
610.343	45359.91
610.7	45678.09
611.057	45518.1
611.414	45580.47
611.771	45570.3
612.127	45698.88
612.484	45604.65
612.841	45751.54
613.198	45560.13
613.554	45679.67
613.911	45965.09
614.267	45761.25
614.624	45820.24
614.98	45992.66
615.337	46035.15
615.693	46053.68
616.05	45988.82
616.406	46279.43
616.762	46154.24
617.118	46026.33
617.475	46064.52
617.831	46242.6
618.187	46365.76
618.543	46320.11
618.899	46543.61
619.255	46343.61
619.611	46295.03
619.967	46390.16
620.323	46485.3
620.678	46358.07
621.034	46290.28
621.39	46349.49
621.746	46288.7
622.101	46634.23
622.457	46339.54
622.812	46426.32
623.168	46440.33
623.523	46409.82
623.879	46662.47
624.234	46365.53
624.589	46521.46
624.945	46498.64
625.3	46436.94
625.655	46508.81
626.01	46492.76
626.365	46400.33
626.72	46377.96
627.075	46420.45
627.43	46368.24
627.785	46365.08
628.14	46305.87
628.495	46449.15
628.85	46462.48
629.205	46253.9
629.559	46488.01
629.914	46323.27
630.269	46300.22
630.623	46082.6
630.978	46114.47
631.332	46132.77
631.687	46242.6
632.041	46056.84
632.396	46154.69
632.75	46001.7
633.104	46062.94
633.459	45757.86
633.813	45719
634.167	45767.36
634.521	45773.91
634.875	45836.51
635.229	45665.66
635.583	45567.36
635.937	45569.17
636.291	45575.72
636.645	45559.68
636.999	45370.98
637.352	45414.82
637.706	45221.83
638.06	45380.7
638.413	45323.07
638.767	45103.42
639.121	45257.76
639.474	45002.18
639.828	44987.94
640.181	45002.86
640.534	45013.03
640.888	44814.84
641.241	44769.42
641.594	44822.07
641.947	44941.16
642.301	44822.52
642.654	44736.87
643.007	44713.82
643.36	44621.17
643.713	44413.95
644.066	44781.62
644.419	44397
644.771	44134.63
645.124	43879.95
645.477	43644.7
645.83	43417.81
646.182	43246.74
646.535	43066.41
646.888	43157.71
647.24	42912.29
647.593	43095.11
647.945	43134.66
648.298	42804.72
648.65	42658.74
649.002	42780.54
649.355	42863.7
649.707	42769.24
650.059	42809.47
650.411	43317.48
650.763	43432.95
651.115	43822.77
651.467	43581.42
651.819	43563.57
652.171	43443.8
652.523	43427.08
652.875	43254.88
653.227	43262.79
653.578	43493.07
653.93	43308.21
654.282	43169.68
654.633	43154.32
654.985	43172.17
655.337	43133.98
655.688	43103.92
656.039	43227.31
656.391	42857.83
656.742	42989.8
657.094	42963.59
657.445	43179.18
657.796	43052.4
658.147	42964.72
658.498	42837.04
658.849	42905.51
659.2	42901.44
659.551	42693.99
659.902	42893.99
660.253	42732.63
660.604	42816.47
660.955	42459.19
661.306	42722.01
661.656	42659.64
662.007	42590.94
662.358	42675.23
662.708	42623.03
663.059	42665.52
663.409	42213.33
663.76	42631.62
664.11	42570.6
664.461	42549.59
664.811	42693.31
665.161	42505.07
665.511	42427.1
665.862	42408.12
666.212	42491.51
666.562	42630.26
666.912	42399.76
667.262	42228.24
667.612	42293.77
667.962	42261.23
668.312	42185.53
668.662	42562.47
669.011	42298.29
669.361	42272.31
669.711	42198.41
670.06	42102.14
670.41	42035.48
670.76	42029.15
671.109	42151.18
671.459	42123.16
671.808	42010.62
672.157	42096.94
672.507	41787.57
672.856	41938.76
673.205	41924.29
673.554	42015.59
673.904	41733.11
674.253	41975.59
674.602	41797.52
674.951	41300.35
675.3	40998.89
675.649	41608.6
675.998	41580.57
676.346	41689.05
676.695	41639.1
677.044	41336.74
677.393	41558.43
677.741	41527.02
678.09	41367.92
678.438	41368.15
678.787	41340.58
679.135	41436.62
679.484	41296.51
679.832	41261.26
680.181	41028.27
680.529	41183.52
680.877	40918.22
681.225	41033.24
681.573	41107.59
681.922	40842.97
682.27	40779.69
682.618	40718.22
682.966	40732.91
683.314	40783.53
683.661	40594.61
684.009	40450.89
684.357	40435.29
684.705	40247.73
685.053	40271.91
685.4	40400.72
685.748	40004.34
686.095	39918.47
686.443	39901.07
686.79	39951.46
687.138	39900.62
687.485	39877.57
687.832	39526.84
688.18	39629.66
688.527	39466.05
688.874	39544.69
689.221	39292.5
689.568	39172.5
689.915	39082.79
690.262	39238.49
690.609	39163.91
690.956	39055.89
691.303	38862
691.65	38706.75
691.997	38788.33
692.344	38601.22
692.69	38429.24
693.037	38353.54
693.383	38024.06
693.73	38367.78
694.077	38143.83
694.423	38143.6
694.769	37965.3
695.116	37863.83
695.462	37811.18
695.808	37760.56
696.155	37843.27
696.501	37365.09
696.847	37448.03
697.193	37137.3
697.539	37209.39
697.885	36843.52
698.231	36918.32
698.577	36938.44
698.923	36821.6
699.269	36562.85
699.614	36408.51
699.96	36456.87
700.306	36516.07
700.651	36321.73
700.997	36200.6
701.342	36227.27
701.688	36073.6
702.033	35858.24
702.379	35913.38
702.724	35795.41
703.069	35925.58
703.415	35293.96
703.76	35421.19
704.105	35453.95
704.45	35277.91
704.795	35106.85
705.14	35010.8
705.485	34980.52
705.83	34716.12
706.175	34892.84
706.52	34766.74
706.865	34757.7
707.209	34632.96
707.554	34527.43
707.899	34558.84
708.243	34300.54
708.588	34286.98
708.932	34047.44
709.277	34051.51
709.621	34067.55
709.966	33881.34
710.31	33903.04
710.654	33552.08
710.998	33643.61
711.342	33632.99
711.687	33546.43
712.031	33313.22
712.375	33262.15
712.719	33279.77
713.063	33152.55
713.407	33229.61
713.75	33025.09
714.094	33018.31
714.438	32959.11
714.782	32940.57
715.125	32747.81
715.469	32945.55
715.812	32604.54
716.156	32584.43
716.499	32455.84
716.843	32543.3
717.186	32253.36
717.53	32451.32
717.873	32393.47
718.216	32213.59
718.559	32233.7
718.902	31885.46
719.246	32013.82
719.589	31877.55
719.932	31851.11
720.275	31864.9
720.617	31784.67
720.96	31712.13
721.303	31701.51
721.646	31810.21
721.989	31624.68
722.331	31728.4
722.674	31471.01
723.016	31417
723.359	31339.94
723.701	31378.81
724.044	31142.88
724.386	30908.31
724.729	31211.58
725.071	31090.23
725.413	31007.29
725.755	31062.21
726.097	30815.66
726.439	30788.31
726.782	30683.01
727.124	30749.9
727.465	30589
727.807	30596
728.149	30514.2
728.491	30360.08
728.833	30555.33
729.175	30377.7
729.516	30319.85
729.858	30274.2
730.199	30253.41
730.541	30110.14
730.882	30079.41
731.224	30066.07
731.565	29931.16
731.906	29996.02
732.248	30056.58
732.589	29833.54
732.93	29775.01
733.271	29775.69
733.612	29751.28
733.953	29777.95
734.294	29658.4
734.635	29479.2
734.976	29632.64
735.317	29471.97
735.658	29625.18
735.999	29502.7
736.339	29285.08
736.68	29386.32
737.021	29323.95
737.361	29055.03
737.702	29300.44
738.042	29114.69
738.383	29134.57
738.723	29170.5
739.063	28927.57
739.404	28978.87
739.744	28924.41
740.084	28754.92
740.424	28797.86
740.764	28676.96
741.104	28820.91
741.444	28652.1
741.784	28524.19
742.124	28656.85
742.464	28479.45
742.804	28498.88
743.143	28340.02
743.483	28355.16
743.823	28093.92
744.162	28266.57
744.502	28140.47
744.841	28090.08
745.181	28180.47
745.52	27975.73
745.86	28095.05
746.199	27951.55
746.538	27947.71
746.877	27928.95
747.216	27906.81
747.556	27869.52
747.895	27588.62
748.234	27675.4
748.573	27561.28
748.911	27515.86
749.25	27550.43
749.589	27526.03
749.928	27395.86
750.267	27414.84
750.605	27209.2
750.944	27354.73
751.283	27215.98
751.621	27076.55
751.96	26967.4
752.298	26969.43
752.636	26959.04
752.975	26890.34
753.313	26867.06
753.651	26885.37
753.989	26716.11
754.327	26734.86
754.666	26553.85
755.004	26474.76
755.342	26523.57
755.679	26468.88
756.017	26239.28
756.355	26253.29
756.693	26202.45
757.031	26217.14
757.368	26106.18
757.706	25964.03
758.044	25937.37
758.381	25888.1
758.719	25788.67
759.056	25852.63
759.394	25664.38
759.731	25531.73
760.068	25516.14
760.405	25374.45
760.743	25246.54
761.08	25405.86
761.417	25209.93
761.754	25181.91
762.091	25186.43
762.428	24946.21
762.765	24793.22
763.102	24939.88
763.438	24761.35
763.775	24628.48
764.112	24679.77
764.449	24527.24
764.785	24623.28
765.122	24233.68
765.458	24142.16
765.795	24259.45
766.131	24243.4
766.467	24090.86
766.804	24013.8
767.14	23807.48
767.476	23879.8
767.812	23726.13
768.148	23690.65
768.485	23541.05
768.821	23463.31
769.157	23379.24
769.492	23331.56
769.828	23319.81
770.164	23078.69
770.5	23052.25
770.836	23145.13
771.171	22905.36
771.507	22831.24
771.842	22722.99
772.178	22720.5
772.513	22632.15
772.849	22499.72
773.184	22441.42
773.519	22346.28
773.855	22354.86
774.19	22123.91
774.525	22145.6
774.86	22077.58
775.195	22124.81
775.53	21877.14
775.865	21836.91
776.2	21596.47
776.535	21493.19
776.87	21542.23
777.205	21446.41
777.539	21280.32
777.874	21334.1
778.209	21122.35
778.543	21164.84
778.878	21037.61
779.212	21024.05
779.547	20869.93
779.881	20936.6
780.215	20697.73
780.55	20763.95
780.884	20594.01
781.218	20538.87
781.552	20652.76
781.886	20445.08
782.22	20370.74
782.554	20259.33
782.888	20127.35
783.222	19971.65
783.556	19909.05
783.889	19917.41
784.223	19839
784.557	19751.32
784.89	19739.11
785.224	19565.33
785.557	19564.66
785.891	19469.97
786.224	19507.71
786.558	19375.06
786.891	19184.78
787.224	19217.77
787.557	19088.74
787.891	19053.71
788.224	18896.65
788.557	19017.55
788.89	18978.91
789.223	19003.09
789.556	18731.23
789.888	18774.85
790.221	18616.43
790.554	18502.99
790.887	18489.88
791.219	18459.83
791.552	18397.91
791.884	18241.75
792.217	18259.6
792.549	18193.17
792.882	18051.93
793.214	17921.53
793.546	17962.21
793.879	17929.67
794.211	17806.06
794.543	17890.35
794.875	17756.12
795.207	17818.26
795.539	17632.28
795.871	17518.83
796.203	17465.05
796.535	17370.59
796.867	17397.71
797.198	17245.85
797.53	17206.07
797.862	17235.22
798.193	17203.81
798.525	17081.78
798.856	17064.16
799.188	16886.76
799.519	16782.36
799.85	16703.71
800.182	16740.32
800.513	16753.88
800.844	16484.51
801.175	16664.17
801.506	16618.07
801.837	16414.91
802.168	16513.89
802.499	16344.4
802.83	16364.74
803.161	16310.5
803.491	16320.67
803.822	16204.29
804.153	16162.71
804.483	16020.79
804.814	15959.33
805.145	15977.18
805.475	15855.37
805.805	15825.54
806.136	15837.52
806.466	15798.2
806.796	15808.14
807.126	15663.97
807.457	15604.53
807.787	15599.11
808.117	15487.93
808.447	15549.62
808.777	15529.28
809.107	15447.7
809.436	15349.85
809.766	15316.86
810.096	15356.4
810.426	15301.26
810.755	15279.34
811.085	15198.22
811.414	15204.54
811.744	14962.52
812.073	15118.67
812.403	15065.56
812.732	14962.29
813.061	14933.36
813.39	14825.8
813.719	14765.01
814.049	14887.94
814.378	14781.5
814.707	14708.06
815.036	14716.65
815.365	14555.3
815.693	14556.65
816.022	14596.88
816.351	14493.6
816.68	14326.83
817.008	14442.08
817.337	14308.3
817.665	14346.49
817.994	14350.78
818.322	14299.71
818.651	14257.22
818.979	14232.82
819.307	14277.11
819.636	14167.06
819.964	13998.47
820.292	14135.65
820.62	14093.84
820.948	14047.74
821.276	14082.09
821.604	13994.18
821.932	14057.46
822.259	14070.11
822.587	14015.2
822.915	13939.04
823.243	14014.07
823.57	13968.64
823.898	14031.02
824.225	13941.53
824.553	13915.09
824.88	14085.25
825.207	14032.6
825.535	13934.97
825.862	14037.34
826.189	13916.44
826.516	13993.73
826.843	14017.46
827.17	14022.88
827.497	14055.2
827.824	13964.8
828.151	14037.12
828.478	13934.75
828.805	13948.76
829.131	13869.66
829.458	13932.94
829.785	13832.6
830.111	13911.47
830.438	13912.37
830.764	13932.71
831.09	13941.07
831.417	13817.24
831.743	13888.19
832.069	13888.42
832.395	13851.13
832.722	13843.68
833.048	13755.99
833.374	13847.29
833.7	13787.18
834.026	13775.43
834.351	13731.81
834.677	13704.92
835.003	13793.28
835.329	13761.19
835.654	13751.7
835.98	13620.63
836.306	13686.17
836.631	13537.24
836.956	13642.55
837.282	13575.43
837.607	13532.5
837.932	13473.74
838.258	13545.15
838.583	13481.88
838.908	13424.48
839.233	13441.65
839.558	13436.91
839.883	13349
840.208	13290.02
840.533	13353.07
840.858	13326.18
841.182	13243.01
841.507	13250.02
841.832	13202.34
842.156	13191.26
842.481	13097.03
842.805	13161.43
843.13	13131.83
843.454	13089.35
843.778	13015.9
844.103	13020.87
844.427	12888.67
844.751	12897.94
845.075	12927.77
845.399	12874.21
845.723	12828.56
846.047	12811.84
846.371	12697.94
846.695	12664.27
847.019	12598.51
847.343	12542.24
847.666	12551.28
847.99	12461.34
848.313	12443.49
848.637	12386.54
848.96	12326.88
849.284	12315.81
849.607	12147.67
849.931	12170.27
850.254	12098.86
850.577	12105.87
850.9	11934.12
851.223	11870.62
851.546	11897.06
851.869	11809.83
852.192	11847.34
852.515	11730.28
852.838	11705.2
853.161	11675.82
853.483	11663.39
853.806	11572.77
854.129	11560.8
854.451	11520.8
854.774	11443.29
855.096	11449.39
855.419	11377.98
855.741	11351.31
856.063	11213.91
856.385	11230.18
856.708	11179.11
857.03	11249.17
857.352	11169.4
857.674	11162.84
857.996	11111.77
858.318	11023.41
858.64	11048.27
858.961	11023.41
859.283	10989.74
859.605	10933.02
859.926	10976.63
860.248	10904.32
860.57	10868.39
860.891	10832.23
861.212	10787.26
861.534	10768.73
861.855	10742.51
862.176	10788.16
862.498	10717.43
862.819	10714.49
863.14	10618
863.461	10601.73
863.782	10618.9
864.103	10551.11
864.424	10591.56
864.745	10571.9
865.065	10537.1
865.386	10473.82
865.707	10464.56
866.027	10469.08
866.348	10382.75
866.668	10443.54
866.989	10326.71
867.309	10269.53
867.63	10242.41
867.95	10312.24
868.27	10232.92
868.59	10292.36
868.91	10190.21
869.23	10212.13
869.55	10196.54
869.87	10246.48
870.19	10102.98
870.51	10173.26
870.83	10175.3
871.15	10097.79
871.469	10163.09
871.789	10090.1
872.109	10046.71
872.428	10022.99
872.748	10043.32
873.067	9973.72
873.386	9999.03
873.706	10004
874.025	9937.79
874.344	9890.11
874.663	9853.72
874.982	9886.27
875.301	9825.25
875.62	9844.91
875.939	9801.75
876.258	9807.62
876.577	9733.95
876.896	9822.31
877.214	9695.76
877.533	9791.13
877.852	9673.16
878.17	9745.93
878.489	9685.82
878.807	9775.31
879.125	9710
879.444	9776.44
879.762	9559.27
880.08	9651.92
880.398	9603.79
880.716	9660.73
881.034	9523.11
881.352	9568.99
881.67	9528.08
881.988	9541.87
882.306	9453.96
882.624	9483.79
882.941	9438.82
883.259	9411.7
883.577	9458.93
883.894	9367.18
884.212	9362.66
884.529	9352.72
884.846	9348.88
885.164	9344.81
885.481	9303.23
885.798	9343.91
886.115	9210.8
886.432	9241.54
886.75	9263.91
887.067	9185.49
887.383	9243.57
887.7	9228.88
888.017	9150.47
888.334	9113.4
888.651	9066.63
888.967	9041.77
889.284	9017.81
889.6	9050.58
889.917	8959.74
890.233	8939.17
890.55	8876.57
890.866	8880.87
891.182	8837.93
891.498	8843.13
891.815	8763.36
892.131	8788.67
892.447	8809.91
892.763	8741.44
893.079	8700.99
893.395	8741.21
893.71	8651.5
894.026	8586.41
894.342	8517.04
894.657	8532.4
894.973	8503.48
895.289	8500.09
895.604	8506.41
895.92	8470.94
896.235	8399.98
896.55	8362.01
896.865	8335.35
897.181	8386.19
897.496	8326.98
897.811	8272.97
898.126	8282.69
898.441	8213.99
898.756	8167.44
899.071	8192.75
899.386	8193.88
899.7	8043.83
900.015	8034.56
900.33	7968.12
900.644	7996.6
900.959	8007.67
901.273	7964.06
901.588	7954.79
901.902	7864.4
902.216	7867.56
902.531	7836.83
902.845	7819.43
903.159	7752.31
903.473	7765.42
903.787	7771.97
904.101	7655.14
904.415	7720.22
904.729	7632.31
905.042	7588.92
905.356	7602.03
905.67	7529.94
905.984	7595.7
906.297	7532.66
906.611	7493.33
906.924	7446.1
907.237	7411.08
907.551	7378.08
907.864	7328.37
908.177	7354.35
908.491	7382.15
908.804	7268.03
909.117	7231.19
909.43	7250.85
909.743	7172.89
910.056	7207.92
910.368	7164.98
910.681	7079.11
910.994	7015.83
911.307	7036.17
911.619	6953.01
911.932	6968.15
912.244	6900.81
912.557	6931.99
912.869	6841.83
913.181	6855.61
913.494	6799.34
913.806	6805.67
914.118	6798.44
914.43	6723.41
914.742	6684.77
915.054	6681.15
915.366	6691.32
915.678	6569.06
915.99	6604.32
916.302	6603.87
916.613	6549.63
916.925	6481.84
917.236	6546.24
917.548	6468.73
917.859	6484.77
918.171	6487.03
918.482	6385.34
918.794	6397.32
919.105	6350.77
919.416	6287.49
919.727	6270.32
920.038	6249.3
920.349	6179.92
920.66	6164.78
920.971	6198
921.282	6115.07
921.593	6127.95
921.903	6098.57
922.214	6055.41
922.525	6052.24
922.835	6003.88
923.146	5941.74
923.456	5947.39
923.767	5908.06
924.077	5881.17
924.387	5896.77
924.697	5836.43
925.008	5814.96
925.318	5825.13
925.628	5823.77
925.938	5791.68
926.248	5744.23
926.558	5714.17
926.867	5682.31
927.177	5682.99
927.487	5614.97
927.796	5573.84
928.106	5615.42
928.416	5528.64
928.725	5546.49
929.034	5507.62
929.344	5545.36
929.653	5512.37
929.962	5481.18
930.271	5433.95
930.581	5414.07
930.89	5366.61
931.199	5352.15
931.508	5334.29
931.817	5323.45
932.125	5287.29
932.434	5331.81
932.743	5249.78
933.051	5224.69
933.36	5184.24
933.669	5171.36
933.977	5171.14
934.286	5148.54
934.594	5126.62
934.902	5097.46
935.21	5048.88
935.519	5030.12
935.827	5046.39
936.135	4990.57
936.443	4949.22
936.751	4948.32
937.059	4949.22
937.367	4880.52
937.674	4902.22
937.982	4892.05
938.29	4870.13
938.597	4830.81
938.905	4819.51
939.213	4808.66
939.52	4768.66
939.827	4783.35
940.135	4707.87
940.442	4704.71
940.749	4699.74
941.056	4646.18
941.363	4606.86
941.67	4620.87
941.977	4646.4
942.284	4551.04
942.591	4572.51
942.898	4541.77
943.205	4532.73
943.511	4530.47
943.818	4539.29
944.125	4424.26
944.431	4432.4
944.738	4438.95
945.044	4448.67
945.35	4411.61
945.657	4393.3
945.963	4380.42
946.269	4347.2
946.575	4321.67
946.881	4320.76
947.187	4311.95
947.493	4243.93
947.799	4273.08
948.105	4234.66
948.41	4184.95
948.716	4195.34
949.022	4193.53
949.327	4184.27
949.633	4149.24
949.938	4085.06
950.244	4135.46
950.549	4086.87
950.854	4078.51
951.16	4074.44
951.465	4022.01
951.77	4029.24
952.075	3978.62
952.38	3981.79
952.685	3982.69
952.99	3927.78
953.294	3905.18
953.599	3895.91
953.904	3882.81
954.209	3849.81
954.513	3846.88
954.818	3853.88
955.122	3793.09
955.426	3805.07
955.731	3775.69
956.035	3754.22
956.339	3779.76
956.643	3708.35
956.948	3725.98
957.252	3668.12
957.556	3679.65
957.86	3661.8
958.163	3709.93
958.467	3662.25
958.771	3605.75
959.075	3641.46
959.378	3575.92
959.682	3577.05
959.985	3589.71
960.289	3542.48
960.592	3519.2
960.896	3503.38
961.199	3535.92
961.502	3455.7
961.805	3478.07
962.108	3450.05
962.411	3490.95
962.714	3452.08
963.017	3388.81
963.32	3418.19
963.623	3382.26
963.926	3382.03
964.228	3362.37
964.531	3342.71
964.833	3343.84
965.136	3289.15
965.438	3269.94
965.741	3285.08
966.043	3280.34
966.345	3257.06
966.648	3248.93
966.95	3251.41
967.252	3215.71
967.554	3160.57
967.856	3185.2
968.158	3178.42
968.46	3150.62
968.761	3146.56
969.063	3100.46
969.365	3121.02
969.666	3103.84
969.968	3077.4
970.269	3067.24
970.571	3064.75
970.872	3082.15
971.174	3027.91
971.475	3018.88
971.776	2996.96
972.077	3036.28
972.378	2987.46
972.679	3004.41
972.98	2942.04
973.281	2910.18
973.582	2925.09
973.883	2908.6
974.183	2924.41
974.484	2905.88
974.785	2888.71
975.085	2891.2
975.386	2916.28
975.686	2840.8
975.986	2803.29
976.287	2833.12
976.587	2787.7
976.887	2772.33
977.187	2807.36
977.487	2781.14
977.787	2744.76
978.087	2759
978.387	2736.85
978.687	2731.88
978.987	2705.66
979.286	2686.68
979.586	2701.14
979.885	2694.14
980.185	2660.01
980.484	2650.75
980.784	2613.91
981.083	2588.15
981.382	2579.79
981.682	2607.13
981.981	2620.47
982.28	2597.87
982.579	2537.53
982.878	2532.79
983.177	2560.13
983.475	2553.8
983.774	2550.87
984.073	2499.57
984.372	2507.93
984.67	2465.9
984.969	2500.7
985.267	2457.53
985.566	2472.68
985.864	2451.88
986.162	2423.86
986.461	2419.57
986.759	2405.33
987.057	2399.23
987.355	2365.79
987.653	2351.55
987.951	2353.81
988.249	2347.03
988.547	2377.99
988.844	2320.81
989.142	2318.1
989.44	2314.04
989.737	2262.29
990.035	2290.08
990.332	2279.23
990.63	2276.52
990.927	2259.57
991.224	2234.49
991.521	2258.67
991.819	2217.54
992.116	2235.39
992.413	2203.3
992.71	2204.43
993.006	2192.68
993.303	2202.4
993.6	2159.69
993.897	2160.37
994.193	2153.14
994.49	2136.19
994.787	2134.38
995.083	2116.3
995.379	2094.38
995.676	2080.82
995.972	2071.1
996.268	2075.17
996.565	2048.73
996.861	2055.96
997.157	2057.54
997.453	2004.66
997.749	2035.17
998.044	2018.22
998.34	1996.76
998.636	1998.56
998.932	1997.43
999.227	1960.15
999.523	1947.72
999.818	1957.43
1000.114	1941.16
1000.409	1894.84
1000.704	1938
1001	1926.25
1001.295	1871.33
1001.59	1933.25
1001.885	1884.89
1002.18	1872.24
1002.475	1848.06
1002.77	1844.22
1003.065	1850.32
1003.359	1844.22
1003.654	1815.52
1003.949	1804.9
1004.243	1800.6
1004.538	1802.41
1004.832	1781.85
1005.127	1805.12
1005.421	1763.54
1005.715	1771.22
1006.009	1760.15
1006.304	1733.94
1006.598	1710.21
1006.892	1710.21
1007.186	1682.64
1007.48	1695.29
1007.773	1702.98
1008.067	1675.63
1008.361	1658.91
1008.655	1639.7
1008.948	1644.45
1009.242	1617.56
1009.535	1637.22
1009.829	1646.71
1010.122	1617.33
1010.415	1613.26
1010.708	1578.46
1011.001	1589.53
1011.295	1567.39
1011.588	1571.91
1011.881	1554.73
1012.173	1528.75
1012.466	1542.76
1012.759	1511.12
1013.052	1538.46
1013.344	1498.92
1013.637	1499.37
1013.93	1525.36
1014.222	1492.36
1014.514	1466.83
1014.807	1474.96
1015.099	1465.24
1015.391	1452.14
1015.683	1455.98
1015.976	1451.91
1016.268	1427.28
1016.56	1454.62
1016.851	1393.38
1017.143	1407.84
1017.435	1388.18
1017.727	1371.01
1018.018	1371.91
1018.31	1382.53
1018.602	1397.22
1018.893	1343.44
1019.185	1347.51
1019.476	1329.88
1019.767	1346.83
1020.058	1335.08
1020.35	1319.71
1020.641	1301.86
1020.932	1278.13
1021.223	1283.78
1021.514	1289.43
1021.804	1263.44
1022.095	1253.27
1022.386	1236.78
1022.677	1241.97
1022.967	1235.65
1023.258	1226.83
1023.548	1226.15
1023.839	1185.48
1024.129	1230.9
1024.419	1205.59
1024.709	1193.39
1025	1182.31
1025.29	1201.75
1025.58	1171.24
1025.87	1152.48
1026.16	1131.02
1026.449	1170.34
1026.739	1128.3
1027.029	1141.86
1027.319	1132.6
1027.608	1129.21
1027.898	1116.55
1028.187	1088.08
1028.477	1110.23
1028.766	1087.63
1029.055	1081.75
1029.344	1077.46
1029.634	1056.67
1029.923	1059.38
1030.212	1055.76
1030.501	1074.29
1030.79	1063.67
1031.078	1046.95
1031.367	1032.04
1031.656	1007.18
1031.945	1014.18
1032.233	1011.02
1032.522	1001.3
1032.81	997.01
1033.099	1006.27
1033.387	973.05
1033.675	991.36
1033.963	993.84
1034.251	959.95
1034.54	950.68
1034.828	956.33
1035.116	946.39
1035.403	957.23
1035.691	956.56
1035.979	944.35
1036.267	936.67
1036.554	899.84
1036.842	918.82
1037.129	913.62
1037.417	900.97
1037.704	892.38
1037.992	893.06
1038.279	897.8
1038.566	886.95
1038.853	886.95
1039.14	886.95
