Data from breadboard_black_back_FLMS001491_00056.txt Node
Date: Wed Feb 08 10:50:35 GMT 2017
User: dcchb
Spectrometer: FLMS00149
Trigger mode: 0
Integration Time (sec): 2.000000E-2
Scans to average: 10
Electric dark correction enabled: true
Nonlinearity correction enabled: false
Boxcar width: 0
XAxis mode: Wavelengths
Number of Pixels in Spectrum: 2048
>>>>>Begin Spectral Data<<<<<
341.393	-8.3
341.776	-8.3
342.16	-8.3
342.543	-58.25
342.927	-62.31
343.31	-89.43
343.693	-62.09
344.077	-55.99
344.46	-52.82
344.843	-57.12
345.226	-49.21
345.61	-24.58
345.993	-35.2
346.376	18.36
346.759	14.52
347.142	24.46
347.525	44.8
347.908	61.75
348.291	75.08
348.674	79.15
349.057	108.3
349.44	113.5
349.823	150.34
350.206	153.72
350.588	188.07
350.971	203.67
351.354	227.4
351.737	210.22
352.119	239.82
352.502	257.68
352.884	275.76
353.267	288.86
353.65	282.08
354.032	307.62
354.414	295.87
354.797	319.82
355.179	317.56
355.562	339.93
355.944	340.16
356.326	329.31
356.709	341.29
357.091	345.36
357.473	323.66
357.855	346.71
358.238	348.3
358.62	341.97
359.002	350.78
359.384	370.67
359.766	368.86
360.148	368.41
360.53	352.59
360.912	371.57
361.294	352.59
361.676	342.42
362.057	329.99
362.439	338.35
362.821	354.17
363.203	335.19
363.584	358.47
363.966	356.88
364.348	336.77
364.729	339.93
365.111	320.95
365.493	329.77
365.874	326.15
366.256	339.48
366.637	331.12
367.019	336.09
367.4	330.44
367.781	335.19
368.163	348.3
368.544	330.9
368.925	340.84
369.306	340.39
369.688	343.55
370.069	338.35
370.45	344
370.831	330.22
371.212	354.85
371.593	345.58
371.974	355.08
372.355	339.93
372.736	342.42
373.117	356.66
373.498	344.23
373.879	345.58
374.26	345.58
374.641	339.93
375.021	343.1
375.402	348.97
375.783	371.57
376.163	377
376.544	362.08
376.925	366.15
377.305	379.03
377.686	357.34
378.066	381.52
378.447	368.63
378.827	382.42
379.208	377.67
379.588	384.91
379.968	402.53
380.349	379.26
380.729	386.49
381.109	402.76
381.489	400.27
381.87	393.94
382.25	400.5
382.63	410.22
383.01	402.53
383.39	399.82
383.77	397.11
384.15	408.18
384.53	416.32
384.91	412.7
385.29	409.09
385.67	424.68
386.049	441.85
386.429	415.41
386.809	440.72
387.189	407.05
387.568	421.97
387.948	440.27
388.328	450.44
388.707	445.02
389.087	448.18
389.466	451.8
389.846	466.26
390.225	477.56
390.605	448.86
390.984	465.58
391.363	458.35
391.743	478.01
392.122	459.71
392.501	507.39
392.881	494.28
393.26	504.68
393.639	484.11
394.018	493.38
394.397	502.87
394.776	495.41
395.155	530.44
395.534	494.05
395.913	480.72
396.292	535.64
396.671	527.05
397.05	532.92
397.429	536.31
397.808	521.62
398.186	540.16
398.565	561.4
398.944	537.67
399.323	530.89
399.701	560.72
400.08	564.79
400.458	559.14
400.837	545.8
401.215	578.12
401.594	569.76
401.972	563.88
402.351	560.49
402.729	586.26
403.107	602.53
403.486	614.73
403.864	586.03
404.242	594.17
404.62	603.66
404.999	626.93
405.377	603.2
405.755	645.69
406.133	626.48
406.511	631
406.889	648.4
407.267	617.67
407.645	653.82
408.023	642.53
408.401	660.83
408.779	670.1
409.156	658.57
409.534	690.89
409.912	694.5
410.29	710.55
410.667	702.41
411.045	723.88
411.422	755.97
411.8	730.43
412.178	751.9
412.555	741.05
412.933	764.56
413.31	775.86
413.687	791.45
414.065	785.57
414.442	781.96
414.819	785.35
415.197	788.28
415.574	833.71
415.951	810.66
416.328	835.74
416.705	844.55
417.082	834.38
417.46	861.73
417.837	859.92
418.214	876.42
418.591	888.62
418.967	891.56
419.344	898.11
419.721	915.51
420.098	895.4
420.475	911.22
420.852	922.52
421.228	935.85
421.605	916.19
421.982	950.77
422.358	934.04
422.735	976.53
423.111	964.32
423.488	1005.68
423.864	1020.37
424.241	1008.39
424.617	1025.11
424.994	1024.21
425.37	1041.61
425.746	1027.6
426.123	1029.18
426.499	1064.89
426.875	1062.4
427.251	1092.91
427.627	1101.5
428.003	1103.53
428.379	1140.59
428.756	1143.98
429.132	1141.04
429.507	1152.79
429.883	1179.23
430.259	1200.7
430.635	1228.95
431.011	1233.24
431.387	1248.39
431.763	1261.72
432.138	1257.42
432.514	1281.15
432.89	1293.13
433.265	1305.56
433.641	1343.52
434.016	1352.11
434.392	1366.35
434.767	1349.4
435.143	1369.51
435.518	1383.52
435.894	1419.68
436.269	1420.13
436.644	1436.63
437.02	1456.74
437.395	1456.74
437.77	1456.74
438.145	1537.64
438.52	1512.79
438.895	1552.78
439.271	1538.77
439.646	1585.33
440.021	1585.78
440.395	1574.03
440.77	1583.97
441.145	1603.86
441.52	1630.07
441.895	1649.28
442.27	1653.57
442.645	1659.9
443.019	1656.06
443.394	1654.48
443.769	1672.78
444.143	1685.21
444.518	1723.85
444.892	1710.07
445.267	1730.18
445.641	1752.78
446.016	1748.94
446.39	1781.7
446.764	1807.92
447.139	1795.04
447.513	1797.75
447.887	1798.2
448.262	1824.19
448.636	1839.56
449.01	1808.82
449.384	1856.28
449.758	1883.4
450.132	1913
450.506	1882.04
450.88	1936.73
451.254	1932.21
451.628	1961.59
452.002	2013.34
452.376	2015.14
452.75	1984.86
453.123	2034.58
453.497	2079.32
453.871	2104.86
454.244	2132.88
454.618	2144.18
454.992	2175.82
455.365	2168.14
455.739	2245.65
456.112	2266.89
456.486	2265.08
456.859	2277.28
457.232	2334.68
457.606	2335.81
457.979	2344.85
458.352	2403.84
458.725	2460.56
459.099	2456.04
459.472	2520.44
459.845	2529.71
460.218	2579.2
460.591	2597.28
460.964	2606.77
461.337	2638.18
461.71	2672.08
462.083	2739.65
462.456	2723.83
462.829	2730.61
463.201	2758.4
463.574	2813.09
463.947	2853.09
464.32	2879.75
464.692	2924.5
465.065	2958.62
465.438	3017.38
465.81	3044.72
466.183	3088.11
466.555	3153.42
466.928	3181.89
467.3	3170.59
467.672	3184.15
468.045	3275
468.417	3310.93
468.789	3322.46
469.161	3423.02
469.534	3419.4
469.906	3498.95
470.278	3487.87
470.65	3527.87
471.022	3586.63
471.394	3653.97
471.766	3657.14
472.138	3745.95
472.51	3859.16
472.882	3908.43
473.253	3912.04
473.625	3975.32
473.997	4083.11
474.369	4067.97
474.74	4184.81
475.112	4230.23
475.484	4316.1
475.855	4352.94
476.227	4434.74
476.598	4533.04
476.97	4595.19
477.341	4632.03
477.713	4696.88
478.084	4796.99
478.455	4878.8
478.827	4919.7
479.198	5043.09
479.569	5068.62
479.94	5214.83
480.311	5301.39
480.682	5342.29
481.053	5502.74
481.424	5596.97
481.795	5660.02
482.166	5752.45
482.537	5803.29
482.908	5922.39
483.279	5959
483.65	6090.74
484.021	6205.54
484.391	6265.88
484.762	6333.9
485.133	6434.69
485.503	6518.98
485.874	6629.71
486.244	6759.43
486.615	6819.31
486.985	6862.25
487.356	7052.75
487.726	7088.23
488.097	7230.6
488.467	7240.77
488.837	7391.27
489.207	7514.44
489.578	7600.76
489.948	7738.61
490.318	7767.76
490.688	7847.31
491.058	7997.81
491.428	8096.57
491.798	8181.08
492.168	8252.72
492.538	8322.1
492.908	8422.89
493.278	8540.4
493.648	8554.86
494.017	8702.88
494.387	8746.27
494.757	8769.77
495.126	8869.65
495.496	8987.39
495.866	8982.87
496.235	9108.97
496.605	9239.14
496.974	9316.65
497.344	9365.23
497.713	9443.65
498.082	9478
498.452	9659.24
498.821	9664.21
499.19	9647.49
499.559	9750.53
499.928	9848.61
500.298	9906.69
500.667	10012
501.036	10049.51
501.405	10169.05
501.774	10157.53
502.143	10320.92
502.512	10317.3
502.88	10441.14
503.249	10495.15
503.618	10543.28
503.987	10610.62
504.356	10649.49
504.724	10764.52
505.093	10774.69
505.462	10821.01
505.83	10917.06
506.199	10999.99
506.567	11257.84
506.936	11212.42
507.304	11345.75
507.672	11352.07
508.041	11435.69
508.409	11499.64
508.777	11599.98
509.145	11709.81
509.514	11694.89
509.882	11832.06
510.25	11899.18
510.618	12044.94
510.986	12102.56
511.354	12181.66
511.722	12262.78
512.09	12434.98
512.458	12376.45
512.826	12560.86
513.193	12583.23
513.561	12647.63
513.929	12752.49
514.297	12808.08
514.664	12955.42
515.032	13047.17
515.4	13172.14
515.767	13202.2
516.135	13323.55
516.502	13299.37
516.869	13473.37
517.237	13542.98
517.604	13609.64
517.972	13782.52
518.339	13884.44
518.706	13864.78
519.073	14032.91
519.44	14011.44
519.808	14253.69
520.175	14243.98
520.542	14523.97
520.909	14513.35
521.276	14562.39
521.643	14688.94
522.009	14855.26
522.376	15011.87
522.743	15065.42
523.11	15105.65
523.477	15295.7
523.843	15459.09
524.21	15594
524.577	15792.41
524.943	15853.2
525.31	15897.27
525.676	16097.49
526.043	16124.83
526.409	16205.51
526.776	16372.28
527.142	16522.11
527.508	16603.46
527.874	16763.23
528.241	16807.75
528.607	16909.44
528.973	17119.38
529.339	17144.24
529.705	17238.02
530.071	17385.14
530.437	17497.22
530.803	17574.28
531.169	17718.46
531.535	17730.66
531.901	17910.09
532.267	17969.98
532.632	18074.16
532.998	18108.05
533.364	18205.23
533.73	18326.81
534.095	18443.41
534.461	18517.08
534.826	18613.35
535.192	18674.37
535.557	18751.88
535.923	18851.99
536.288	18926.56
536.653	19041.36
537.019	19052.21
537.384	19086.33
537.749	19261.47
538.114	19343.28
538.479	19410.17
538.845	19446.78
539.21	19495.36
539.575	19523.84
539.94	19601.35
540.305	19738.52
540.67	19762.25
541.034	19811.51
541.399	19926.54
541.764	20054.67
542.129	20014.9
542.494	20134.22
542.858	20160.88
543.223	20218.28
543.587	20445.39
543.952	20417.15
544.316	20448.33
544.681	20476.58
545.045	20625.05
545.41	20729.23
545.774	20794.09
546.138	20782.33
546.503	20918.15
546.867	20954.99
547.231	21179.84
547.595	21195.66
547.959	21312.49
548.324	21284.92
548.688	21478.59
549.052	21443.11
549.416	21521.75
549.779	21550.22
550.143	21504.12
550.507	21863.66
550.871	21805.13
551.235	21862.08
551.599	22028.63
551.962	22067.27
552.326	22119.25
552.689	22309.53
553.053	22225.46
553.417	22304.78
553.78	22595.39
554.143	22489.41
554.507	22692.79
554.87	22805.33
555.234	22902.28
555.597	22720.82
555.96	23005.55
556.323	23106.12
556.686	23081.94
557.05	23220.24
557.413	23346.34
557.776	23478.08
558.139	23656.38
558.502	23569.83
558.865	23804.18
559.228	23791.97
559.59	23983.15
559.953	24104.73
560.316	24256.14
560.679	24252.3
561.041	24366.42
561.404	24365.74
561.767	24608.9
562.129	24727.54
562.492	24918.5
562.854	24952.85
563.217	24896.35
563.579	24830.59
563.941	25185.83
564.304	25257.7
564.666	25528.42
565.028	25499.05
565.39	25626.73
565.753	25740.17
566.115	25852.48
566.477	26077.34
566.839	25929.54
567.201	26154.4
567.563	26188.07
567.925	26462.19
568.287	26482.52
568.648	26482.75
569.01	26618.11
569.372	26744.89
569.734	26727.94
570.095	26957.09
570.457	27006.35
570.819	27152.34
571.18	27134.03
571.542	27296.74
571.903	27306.23
572.265	27419.67
572.626	27498.99
572.987	27697.41
573.349	27873.45
573.71	27709.84
574.071	27873.67
574.432	27902.6
574.794	28098.3
575.155	28000.68
575.516	27982.15
575.877	28195.25
576.238	28208.58
576.599	28335.58
576.96	28391.17
577.32	28339.42
577.681	28474.11
578.042	28617.61
578.403	28553.66
578.763	28588.68
579.124	28669.81
579.485	28714.1
579.845	28848.79
580.206	28776.25
580.566	28892.18
580.927	28791.84
581.287	28924.04
581.648	28866.42
582.008	29106.18
582.368	28981.22
582.728	29097.37
583.089	29092.17
583.449	28922.69
583.809	29033.19
584.169	28996.36
584.529	29110.25
584.889	29275.9
585.249	29183.24
585.609	29090.59
585.969	29257.59
586.329	29224.15
586.688	29222.56
587.048	29167.43
587.408	29046.98
587.768	29241.1
588.127	29259.17
588.487	29126.97
588.846	29303.24
589.206	29148.22
589.565	29216.92
589.925	29246.07
590.284	29152.96
590.643	29171.27
591.003	29321.32
591.362	29444.93
591.721	29367.42
592.08	29355.22
592.44	29419.4
592.799	29429.34
593.158	29276.35
593.517	29431.37
593.876	29340.98
594.235	29389.79
594.593	29341.66
594.952	29411.49
595.311	29302.34
595.67	29493.07
596.029	29597.02
596.387	29620.52
596.746	29769.9
597.104	29514.53
597.463	29482.22
597.822	29751.82
598.18	29559.73
598.538	29538.26
598.897	29811.48
599.255	29511.14
599.613	30000.17
599.972	29752.49
600.33	29827.75
600.688	29756.11
601.046	29764.02
601.404	29886.5
601.762	29867.97
602.12	30048.08
602.478	30016.67
602.836	30017.35
603.194	29926.73
603.552	30038.59
603.91	29910
604.268	30206.72
604.625	30031.58
604.983	30226.83
605.341	30083.79
605.698	30229.77
606.056	30275.87
606.413	30188.64
606.771	30257.34
607.128	30409.43
607.485	30235.19
607.843	30350.22
608.2	30413.04
608.557	30575.52
608.914	30395.42
609.272	30556.09
609.629	30704.11
609.986	30661.62
610.343	30531.68
610.7	30851.9
611.057	30751.11
611.414	30715.41
611.771	30669.31
612.127	30799.02
612.484	30854.61
612.841	31009.86
613.198	30938
613.554	30892.13
613.911	31025
614.267	31187.03
614.624	31082.18
614.98	31109.52
615.337	31296.41
615.693	31152.01
616.05	31170.76
616.406	31245.34
616.762	31211.44
617.118	31300.25
617.475	31255.05
617.831	31407.14
618.187	31404.88
618.543	31567.14
618.899	31587.93
619.255	31465.22
619.611	31434.26
619.967	31621.82
620.323	31654.82
620.678	31520.36
621.034	31350.87
621.39	31510.64
621.746	31587.7
622.101	31879.9
622.457	31501.38
622.812	31722.61
623.168	31693.69
623.523	31742.27
623.879	31864.3
624.234	31535.95
624.589	31596.29
624.945	31749.5
625.3	31761.26
625.655	31606.01
626.01	31699.79
626.365	31716.96
626.72	31668.83
627.075	31752.67
627.43	31714.02
627.785	31586.57
628.14	31707.02
628.495	31629.28
628.85	31606.68
629.205	31610.07
629.559	31678.32
629.914	31521.26
630.269	31576.4
630.623	31478.78
630.978	31469.96
631.332	31608.72
631.687	31672.22
632.041	31441.04
632.396	31472.68
632.75	31252.12
633.104	31376.18
633.459	31341.83
633.813	31284.21
634.167	31274.71
634.521	31229.07
634.875	31298.67
635.229	31100.48
635.583	31123.31
635.937	31036.08
636.291	31178.67
636.645	31048.05
636.999	30955.4
637.352	31078.79
637.706	30765.35
638.06	30964.44
638.413	30955.85
638.767	30775.07
639.121	30992.46
639.474	30731.45
639.828	30868.85
640.181	30855.74
640.534	30761.96
640.888	30570.33
641.241	30377.79
641.594	30437.67
641.947	30622.3
642.301	30542.3
642.654	30539.82
643.007	30560.83
643.36	30494.62
643.713	30352.7
644.066	30612.13
644.419	30243.1
644.771	30167.17
645.124	29986.61
645.477	29880.17
645.83	29670.24
646.182	29648.09
646.535	29298.04
646.888	29460.52
647.24	29212.17
647.593	29381.66
647.945	29308.89
648.298	29153.87
648.65	29156.58
649.002	29073.87
649.355	29199.51
649.707	29171.72
650.059	29251.72
650.411	29773.74
650.763	29629.11
651.115	29895.09
651.467	29745.26
651.819	29846.28
652.171	29766.73
652.523	29725.6
652.875	29575.78
653.227	29582.1
653.578	29775.77
653.93	29530.13
654.282	29499.85
654.633	29388.21
654.985	29327.42
655.337	29482.22
655.688	29474.76
656.039	29543.23
656.391	29366.52
656.742	29469.56
657.094	29495.78
657.445	29382.11
657.796	29437.7
658.147	29381.66
658.498	29177.14
658.849	29349.12
659.2	29262.56
659.551	29158.39
659.902	29261.21
660.253	29244.26
660.604	29229.34
660.955	29178.27
661.306	29203.81
661.656	29127.88
662.007	29200.19
662.358	29121.32
662.708	29166.97
663.059	29079.07
663.409	28870.48
663.76	29134.43
664.11	29130.14
664.461	29065.28
664.811	29029.35
665.161	29070.25
665.511	28907.54
665.862	28944.15
666.212	29106.86
666.562	29149.57
666.912	29007.43
667.262	29020.08
667.612	28872.29
667.962	28993.87
668.312	28971.95
668.662	29036.36
669.011	28926.53
669.361	28921.1
669.711	28846.98
670.06	28825.29
670.41	28697.83
670.76	28662.35
671.109	28882.01
671.459	28734.67
671.808	28799.75
672.157	28751.39
672.507	28543.71
672.856	28667.1
673.205	28708.45
673.554	28697.38
673.904	28664.16
674.253	28739.41
674.602	28610.83
674.951	28214
675.3	28116.61
675.649	28516.37
675.998	28371.97
676.346	28515.92
676.695	28461.68
677.044	28244.96
677.393	28326.09
677.741	28425.98
678.09	28349.59
678.438	28398.18
678.787	28398.18
679.135	28360.21
679.484	28117.74
679.832	28150.73
680.181	28152.76
680.529	28288.35
680.877	28136.27
681.225	28134.91
681.573	28145.53
681.922	27974.69
682.27	28003.61
682.618	27951.86
682.966	27837.06
683.314	27925.65
683.661	27866.67
684.009	27672.32
684.357	27674.81
684.705	27610.18
685.053	27653.57
685.4	27594.81
685.748	27424.65
686.095	27497.41
686.443	27381.71
686.79	27258.32
687.138	27387.58
687.485	27390.75
687.832	27221.94
688.18	27211.32
688.527	27028.5
688.874	27201.38
689.221	26985.56
689.568	26979.01
689.915	26926.58
690.262	26882.74
690.609	26885.45
690.956	26618.79
691.303	26757.09
691.65	26574.95
691.997	26549.41
692.344	26382.41
692.69	26406.37
693.037	26372.7
693.383	26120.73
693.73	26291.57
694.077	26074.63
694.423	26056.77
694.769	25923.44
695.116	26040.05
695.462	25935.87
695.808	25799.15
696.155	25840.51
696.501	25644.35
696.847	25665.6
697.193	25466.73
697.539	25521.65
697.885	25300.86
698.231	25259.51
698.577	25349.9
698.923	25369.78
699.269	25256.79
699.614	25046.4
699.96	24960.76
700.306	24997.37
700.651	24905.62
700.997	24855.9
701.342	24738.39
701.688	24764.38
702.033	24645.96
702.379	24645.06
702.724	24624.72
703.069	24627.88
703.415	24389.92
703.76	24400.09
704.105	24325.74
704.45	24234.67
704.795	24162.13
705.14	24067.9
705.485	24036.94
705.83	23903.38
706.175	23928.01
706.52	23800.79
706.865	23721.01
707.209	23733.44
707.554	23627.46
707.899	23728.25
708.243	23554.01
708.588	23452.1
708.932	23454.36
709.277	23478.08
709.621	23458.2
709.966	23318.99
710.31	23363.06
710.654	23109.96
710.998	23187.92
711.342	23098.66
711.687	23132.78
712.031	22997.64
712.375	22944.76
712.719	23050.52
713.063	22893.24
713.407	22934.37
713.75	22787.03
714.094	22791.55
714.438	22667.26
714.782	22676.75
715.125	22662.29
715.469	22624.55
715.812	22445.12
716.156	22450.99
716.499	22392.69
716.843	22406.7
717.186	22298.91
717.53	22275.4
717.873	22470.65
718.216	22319.7
718.559	22108.4
718.902	22060.49
719.246	22081.51
719.589	22057.78
719.932	21938.24
720.275	21985.92
720.617	22000.38
720.96	22018.91
721.303	21860.72
721.646	21960.61
721.989	21717.9
722.331	21816.88
722.674	21840.84
723.016	21759.71
723.359	21741.63
723.701	21733.5
724.044	21542.54
724.386	21247.41
724.729	21546.83
725.071	21529.21
725.413	21488.98
725.755	21446.27
726.097	21203.34
726.439	21348.42
726.782	21195.88
727.124	21351.81
727.465	21221.42
727.807	21213.74
728.149	21193.62
728.491	21138.26
728.833	21177.8
729.175	21019.62
729.516	21015.55
729.858	20967.19
730.199	20977.13
730.541	20971.03
730.882	20890.13
731.224	20983.23
731.565	20725.16
731.906	20760.41
732.248	20889.45
732.589	20664.6
732.93	20656.01
733.271	20688.55
733.612	20655.33
733.953	20726.29
734.294	20590.25
734.635	20468.9
734.976	20511.16
735.317	20415.11
735.658	20521.55
735.999	20453.3
736.339	20393.87
736.68	20407.66
737.021	20285.4
737.361	20218.28
737.702	20221.45
738.042	20223.03
738.383	20157.49
738.723	20298.96
739.063	20197.49
739.404	20237.26
739.744	20115.91
740.084	20025.74
740.424	20069.59
740.764	19970.83
741.104	20086.53
741.444	19907.1
741.784	19938.74
742.124	19938.74
742.464	19934
742.804	19851.96
743.143	19832.08
743.483	19776.26
743.823	19651.07
744.162	19722.02
744.502	19692.42
744.841	19637.28
745.181	19683.61
745.52	19481.13
745.86	19625.98
746.199	19602.93
746.538	19537.4
746.877	19503.05
747.216	19503.72
747.556	19369.04
747.895	19437.29
748.234	19178.76
748.573	19334.46
748.911	19263.96
749.25	19308.48
749.589	19170.63
749.928	19181.7
750.267	19155.71
750.605	19125.88
750.944	18997.07
751.283	18966.56
751.621	18947.58
751.96	18775.83
752.298	18834.59
752.636	18860.58
752.975	18782.16
753.313	18618.32
753.651	18799.34
753.989	18693.12
754.327	18628.27
754.666	18530.87
755.004	18663.75
755.342	18528.61
755.679	18654.93
756.017	18449.06
756.355	18438.22
756.693	18304.66
757.031	18443.19
757.368	18211.56
757.706	18278.9
758.044	18166.36
758.381	18276.86
758.719	18117.32
759.056	18165.23
759.394	18089.3
759.731	17907.38
760.068	17955.97
760.405	17843.66
760.743	17851.56
761.08	17873.26
761.417	17788.52
761.754	17791.68
762.091	17628.97
762.428	17614.51
762.765	17500.39
763.102	17541.06
763.438	17446.38
763.775	17383.55
764.112	17333.84
764.449	17385.36
764.785	17271.69
765.122	17159.83
765.458	17069.21
765.795	17114.86
766.131	16989.21
766.467	16885.26
766.804	16952.83
767.14	16839.61
767.476	16901.76
767.812	16731.59
768.148	16778.6
768.485	16538.38
768.821	16580.86
769.157	16483.46
769.492	16572.95
769.828	16447.99
770.164	16306.29
770.5	16287.31
770.836	16232.4
771.171	16083.02
771.507	16096.58
771.842	16037.6
772.178	16047.77
772.513	15965.74
772.849	15927.55
773.184	15827.44
773.519	15766.65
773.855	15739.3
774.19	15717.84
774.525	15575.24
774.86	15613.88
775.195	15597.16
775.53	15487.11
775.865	15440.55
776.2	15434
776.535	15266.1
776.87	15272.65
777.205	15119.21
777.539	15091.64
777.874	15097.06
778.209	14893.68
778.543	14895.94
778.878	14829.05
779.212	14944.75
779.547	14769.84
779.881	14883.96
780.215	14723.51
780.55	14724.42
780.884	14631.31
781.218	14570.29
781.552	14624.53
781.886	14482.16
782.22	14408.49
782.554	14316.97
782.888	14263.64
783.222	14210.53
783.556	14138.89
783.889	14183.19
784.223	14018.9
784.557	13981.38
784.89	14028.61
785.224	13948.84
785.557	13822.52
785.891	13830.65
786.224	13771.9
786.558	13753.37
786.891	13624.56
787.224	13611.22
787.557	13577.78
787.891	13495.52
788.224	13517.44
788.557	13498.91
788.89	13434.28
789.223	13433.38
789.556	13387.28
789.888	13364.9
790.221	13232.02
790.554	13095.31
790.887	13275.64
791.219	13082.2
791.552	13162.2
791.884	13035.87
792.217	13032.03
792.549	12914.97
792.882	12825.26
793.214	12801.08
793.546	12835.2
793.879	12745.48
794.211	12684.92
794.543	12727.63
794.875	12659.38
795.207	12617.35
795.539	12532.38
795.871	12546.85
796.203	12502.55
796.535	12385.27
796.867	12340.52
797.198	12359.28
797.53	12385.49
797.862	12284.48
798.193	12178.49
798.525	12211.03
798.856	12150.25
799.188	12024.83
799.519	12006.07
799.85	11986.18
800.182	12008.33
800.513	11913.87
800.844	11811.5
801.175	11943.47
801.506	11950.48
801.837	11827.09
802.168	11862.12
802.499	11825.51
802.83	11719.52
803.161	11659.41
803.491	11713.19
803.822	11658.73
804.153	11602.69
804.483	11479.53
804.814	11446.76
805.145	11459.64
805.475	11460.55
805.805	11368.8
806.136	11387.78
806.466	11416.25
806.796	11417.38
807.126	11307.78
807.457	11290.38
807.787	11310.04
808.117	11187.33
808.447	11128.58
808.777	11232.3
809.107	11059.88
809.436	11090.39
809.766	11131.74
810.096	11044.29
810.426	10974.01
810.755	11046.77
811.085	10936.49
811.414	10848.81
811.744	10830.96
812.073	10830.51
812.403	10903.5
812.732	10704.41
813.061	10787.8
813.39	10785.76
813.719	10692.2
814.049	10755.71
814.378	10703.05
814.707	10596.61
815.036	10639.1
815.365	10538.31
815.693	10484.75
816.022	10482.04
816.351	10468.93
816.68	10381.03
817.008	10424.87
817.337	10369.73
817.665	10324.98
817.994	10367.24
818.322	10364.76
818.651	10330.18
818.979	10281.14
819.307	10311.42
819.636	10367.24
819.964	10165.66
820.292	10231.43
820.62	10182.16
820.948	10221.71
821.276	10258.77
821.604	10232.56
821.932	10178.09
822.259	10265.1
822.587	10162.73
822.915	10136.97
823.243	10169.05
823.57	10153.24
823.898	10196.17
824.225	10159.11
824.553	10092.22
824.88	10159.34
825.207	10212.44
825.535	10120.92
825.862	10228.26
826.189	10107.59
826.516	10139.9
826.843	10136.74
827.17	10171.31
827.497	10226.23
827.824	10181.71
828.151	10250.63
828.478	10174.03
828.805	10245.89
829.131	10212.44
829.458	10233.01
829.785	10116.17
830.111	10157.98
830.438	10168.6
830.764	10108.72
831.09	10141.71
831.417	10065.33
831.743	10116.4
832.069	10102.16
832.395	10123.18
832.722	10178.55
833.048	10098.55
833.374	10122.28
833.7	10044.99
834.026	9982.39
834.351	10069.85
834.677	10035.95
835.003	10096.29
835.329	10053.35
835.654	10037.08
835.98	9952.34
836.306	9971.55
836.631	9918.21
836.956	9980.81
837.282	9961.15
837.607	9915.05
837.932	9871.66
838.258	9933.81
838.583	9856.75
838.908	9832.11
839.233	9863.98
839.558	9753.92
839.883	9780.36
840.208	9757.09
840.533	9720.93
840.858	9772.23
841.182	9823.53
841.507	9649.52
841.832	9711.89
842.156	9665.34
842.481	9680.93
842.805	9555.29
843.13	9652.91
843.454	9574.49
843.778	9534.72
844.103	9522.52
844.427	9568.62
844.751	9539.24
845.075	9512.35
845.399	9459.47
845.723	9379.24
846.047	9450.43
846.371	9320.72
846.695	9285.01
847.019	9242.98
847.343	9253.37
847.666	9150.55
847.99	9195.75
848.313	9169.08
848.637	9126.6
848.96	9080.27
849.284	9020.38
849.607	8989.88
849.931	8974.06
850.254	8930.67
850.577	8870.11
850.9	8772.48
851.223	8810.45
851.546	8737
851.869	8735.19
852.192	8786.49
852.515	8677.12
852.838	8702.2
853.161	8640.73
853.483	8572.94
853.806	8539.72
854.129	8614.07
854.451	8494.75
854.774	8419.04
855.096	8393.73
855.419	8412.72
855.741	8400.29
856.063	8337.69
856.385	8304.92
856.708	8357.12
857.03	8256.11
857.352	8273.51
857.674	8258.82
857.996	8216.34
858.318	8147.64
858.64	8187.64
858.961	8156
859.283	8087.08
859.605	8130.69
859.926	8141.76
860.248	8114.42
860.57	8072.84
860.891	8060.18
861.212	8031.94
861.534	8000.3
861.855	8001.65
862.176	7967.53
862.498	7943.58
862.819	7954.42
863.14	7893.18
863.461	8001.43
863.782	7928.66
864.103	7910.58
864.424	7921.88
864.745	7869.45
865.065	7841.66
865.386	7875.78
865.707	7823.35
866.027	7811.15
866.348	7848.44
866.668	7792.85
866.989	7737.03
867.309	7758.72
867.63	7761.66
867.95	7706.75
868.27	7678.27
868.59	7765.95
868.91	7596.92
869.23	7681.89
869.55	7680.08
869.87	7686.41
870.19	7642.12
870.51	7633.3
870.83	7689.8
871.15	7583.81
871.469	7513.08
871.789	7648.67
872.109	7555.79
872.428	7537.94
872.748	7544.72
873.067	7520.99
873.386	7464.94
873.706	7471.27
874.025	7407.77
874.344	7502.46
874.663	7490.03
874.982	7400.99
875.301	7465.62
875.62	7399.86
875.939	7469.69
876.258	7428.11
876.577	7372.97
876.896	7366.64
877.214	7354.89
877.533	7412.06
877.852	7374.1
878.17	7361.22
878.489	7342.69
878.807	7324.61
879.125	7353.54
879.444	7289.36
879.762	7291.16
880.08	7249.58
880.398	7270.15
880.716	7265.63
881.034	7212.75
881.352	7195.8
881.67	7200.55
881.988	7190.83
882.306	7149.92
882.624	7125.52
882.941	7124.84
883.259	7118.51
883.577	7057.27
883.894	7087.78
884.212	7090.04
884.529	7070.83
884.846	7071.28
885.164	7060.21
885.481	7079.87
885.798	7046.88
886.115	6964.85
886.432	7024.05
886.75	7013.66
887.067	7008.69
887.383	6887.33
887.7	6935.69
888.017	6905.86
888.334	6867.9
888.651	6879.88
888.967	6817.28
889.284	6794.68
889.6	6808.92
889.917	6724.4
890.233	6788.8
890.55	6768.69
890.866	6767.79
891.182	6767.79
891.498	6724.85
891.815	6651.41
892.131	6681.46
892.447	6684.63
892.763	6609.15
893.079	6618.19
893.395	6595.82
893.71	6542.94
894.026	6540.45
894.342	6522.6
894.657	6558.3
894.973	6502.71
895.289	6517.85
895.604	6503.61
895.92	6451.86
896.235	6369.61
896.55	6444.63
896.865	6381.13
897.181	6396.72
897.496	6388.59
897.811	6307.69
898.126	6269.95
898.441	6303.17
898.756	6271.3
899.071	6206.45
899.386	6233.56
899.7	6198.54
900.015	6187.46
900.33	6103.17
900.644	6080.12
900.959	6182.04
901.273	6085.32
901.588	6109.27
901.902	6035.38
902.216	6047.58
902.531	5990.41
902.845	5966.68
903.159	5909.96
903.473	5904.76
903.787	5892.56
904.101	5895.95
904.415	5876.51
904.729	5859.56
905.042	5836.97
905.356	5815.5
905.67	5769.17
905.984	5790.86
906.297	5773.01
906.611	5702.05
906.924	5716.97
907.237	5695.05
907.551	5663.64
907.864	5663.64
908.177	5627.71
908.491	5577.54
908.804	5611.89
909.117	5590.19
909.43	5562.85
909.743	5561.04
910.056	5504.77
910.368	5471.33
910.681	5452.57
910.994	5453.47
911.307	5364.66
911.619	5353.59
911.932	5342.51
912.244	5386.13
912.557	5373.93
912.869	5311.56
913.181	5325.11
913.494	5280.14
913.806	5235.85
914.118	5226.36
914.43	5223.42
914.742	5208.96
915.054	5197.21
915.366	5190.2
915.678	5180.26
915.99	5132.12
916.302	5130.09
916.613	5035.18
916.925	5025.46
917.236	4994.5
917.548	5004.67
917.859	5006.7
918.171	5007.38
918.482	4972.58
918.794	4957.44
919.105	4934.39
919.416	4827.95
919.727	4898.23
920.038	4879.02
920.349	4876.54
920.66	4817.33
920.971	4810.1
921.282	4810.55
921.593	4807.84
921.903	4763.55
922.214	4693.04
922.525	4709.31
922.835	4677.45
923.146	4684.23
923.456	4661.18
923.767	4625.92
924.077	4591.57
924.387	4576.43
924.697	4567.39
925.008	4569.2
925.318	4573.5
925.628	4528.3
925.938	4500.96
926.248	4470.9
926.558	4470.9
926.867	4436.78
927.177	4430.45
927.487	4419.83
927.796	4368.08
928.106	4381.86
928.416	4362.88
928.725	4389.55
929.034	4333.95
929.344	4322.2
929.653	4259.15
929.962	4256.44
930.271	4236.1
930.581	4244.46
930.89	4230
931.199	4211.7
931.508	4162.88
931.817	4194.52
932.125	4120.85
932.434	4152.94
932.743	4102.55
933.051	4065.49
933.36	4075.43
933.669	4089.89
933.977	4030.46
934.286	4064.13
934.594	4050.57
934.902	4033.17
935.21	3954.3
935.519	3965.83
935.827	3962.89
936.135	3936.22
936.443	3927.86
936.751	3900.74
937.059	3930.57
937.367	3868.66
937.674	3886.73
937.982	3860.75
938.29	3829.33
938.597	3801.31
938.905	3791.14
939.213	3799.28
939.52	3770.13
939.827	3751.14
940.135	3754.76
940.442	3736
940.749	3736.23
941.056	3722.44
941.363	3659.62
941.67	3634.76
941.977	3649.23
942.284	3596.57
942.591	3615.1
942.898	3589.11
943.205	3592.73
943.511	3573.07
943.818	3569.91
944.125	3542.11
944.431	3518.61
944.738	3541.43
945.044	3530.81
945.35	3495.56
945.657	3500.53
945.963	3437.48
946.269	3448.1
946.575	3476.35
946.881	3387.76
947.187	3412.62
947.493	3406.07
947.799	3398.61
948.105	3392.51
948.41	3311.38
948.716	3319.29
949.022	3309.57
949.327	3331.27
949.633	3283.59
949.938	3290.59
950.244	3302.57
950.549	3251.27
950.854	3204.04
951.16	3232.74
951.465	3227.99
951.77	3200.88
952.075	3201.33
952.38	3157.71
952.685	3188
952.99	3139.86
953.294	3130.6
953.599	3118.17
953.904	3132.4
954.209	3071.39
954.513	3116.81
954.818	3059.64
955.122	3059.64
955.426	3053.76
955.731	3028.45
956.035	2971.73
956.339	3012.86
956.643	2991.62
956.948	2996.36
957.252	2939.87
957.556	2952.97
957.86	2958.85
958.163	2957.94
958.467	2928.79
958.771	2929.92
959.075	2903.26
959.378	2866.2
959.682	2880.43
959.985	2867.33
960.289	2864.84
960.592	2863.94
960.896	2810.83
961.199	2847.89
961.502	2799.98
961.805	2770.61
962.108	2778.97
962.411	2760.21
962.714	2765.41
963.017	2755.46
963.32	2722.47
963.623	2712.08
963.926	2761.79
964.228	2672.75
964.531	2716.82
964.833	2689.25
965.136	2658.74
965.438	2634.56
965.741	2653.09
966.043	2630.72
966.345	2610.38
966.648	2609.03
966.95	2642.7
967.252	2611.74
967.554	2584.85
967.856	2562.93
968.158	2561.12
968.46	2552.76
968.761	2562.02
969.063	2535.13
969.365	2515.02
969.666	2507.11
969.968	2497.84
970.269	2480.9
970.571	2494.45
970.872	2475.47
971.174	2448.58
971.475	2443.16
971.776	2472.76
972.077	2441.12
972.378	2467.34
972.679	2405.87
972.98	2409.71
973.281	2384.4
973.582	2384.85
973.883	2376.04
974.183	2359.09
974.484	2363.61
974.785	2367.9
975.085	2338.98
975.386	2362.48
975.686	2322.93
975.986	2331.52
976.287	2295.82
976.587	2265.99
976.887	2300.33
977.187	2251.3
977.487	2275.93
977.787	2250.17
978.087	2256.04
978.387	2222.37
978.687	2218.08
978.987	2225.31
979.286	2174.46
979.586	2210.39
979.885	2168.81
980.185	2184.18
980.484	2172.43
980.784	2131.53
981.083	2161.81
981.382	2148.25
981.682	2150.73
981.981	2117.74
982.28	2104.18
982.579	2103.73
982.878	2118.64
983.177	2103.96
983.475	2091.75
983.774	2074.8
984.073	2067.35
984.372	2068.7
984.67	2027.35
984.969	2049.04
985.267	2081.81
985.566	2036.16
985.864	2014.92
986.162	2006.78
986.461	1968.37
986.759	2000.23
987.057	1986.9
987.355	1988.93
987.653	1945.54
987.951	1968.14
988.249	1927.46
988.547	1943.73
988.844	1927.01
989.142	1935.82
989.44	1933.11
989.737	1913
990.035	1900.35
990.332	1863.06
990.63	1880.23
990.927	1865.77
991.224	1860.35
991.521	1843.85
991.819	1849.05
992.116	1875.04
992.413	1866.45
992.71	1838.2
993.006	1796.62
993.303	1805.88
993.6	1822.83
993.897	1773.34
994.193	1798.88
994.49	1751.2
994.787	1764.08
995.083	1741.48
995.379	1746.45
995.676	1731.31
995.972	1731.31
996.268	1705.32
996.565	1722.72
996.861	1717.53
997.157	1673.91
997.453	1693.8
997.749	1706.68
998.044	1658.09
998.34	1688.15
998.636	1669.39
998.932	1637.08
999.227	1651.54
999.523	1633.23
999.818	1639.79
1000.114	1636.17
1000.409	1614.25
1000.704	1594.82
1001	1600.69
1001.295	1618.32
1001.59	1609.51
1001.885	1575.83
1002.18	1558.21
1002.475	1549.62
1002.77	1543.52
1003.065	1555.72
1003.359	1543.29
1003.654	1552.33
1003.949	1538.1
1004.243	1526.8
1004.538	1503.29
1004.832	1509.4
1005.127	1489.51
1005.421	1459.23
1005.715	1457.65
1006.009	1497.42
1006.304	1479.34
1006.598	1467.14
1006.892	1462.16
1007.186	1453.35
1007.48	1430.75
1007.773	1454.93
1008.067	1417.65
1008.361	1414.26
1008.655	1415.16
1008.948	1388.27
1009.242	1412.22
1009.535	1389.17
1009.829	1384.43
1010.122	1357.53
1010.415	1396.63
1010.708	1360.7
1011.001	1356.63
1011.295	1355.28
1011.588	1376.97
1011.881	1311.89
1012.173	1337.65
1012.466	1291.55
1012.759	1335.39
1013.052	1324.32
1013.344	1295.84
1013.637	1279.8
1013.93	1267.59
1014.222	1270.08
1014.514	1259.68
1014.807	1251.32
1015.099	1276.86
1015.391	1246.13
1015.683	1237.31
1015.976	1261.72
1016.268	1256.75
1016.56	1226.24
1016.851	1200.7
1017.143	1229.63
1017.435	1188.73
1017.727	1209.74
1018.018	1189.18
1018.31	1167.94
1018.602	1167.48
1018.893	1181.95
1019.185	1132.68
1019.476	1161.38
1019.767	1152.34
1020.058	1118.67
1020.35	1152.34
1020.641	1124.09
1020.932	1135.17
1021.223	1121.83
1021.514	1112.8
1021.804	1133.59
1022.095	1092.01
1022.386	1063.76
1022.677	1076.41
1022.967	1053.36
1023.258	1070.76
1023.548	1054.94
1023.839	1045
1024.129	1041.84
1024.419	1054.72
1024.709	1046.81
1025	1056.98
1025.29	1035.06
1025.58	1046.81
1025.87	998.67
1026.16	1000.03
1026.449	1005.68
1026.739	1009.75
1027.029	996.87
1027.319	981.05
1027.608	1003.65
1027.898	977.21
1028.187	951.22
1028.477	946.47
1028.766	949.41
1029.055	936.3
1029.344	946.7
1029.634	939.92
1029.923	937.21
1030.212	921.39
1030.501	924.78
1030.79	914.16
1031.078	904.44
1031.367	893.37
1031.656	903.76
1031.945	879.13
1032.233	904.44
1032.522	884.78
1032.81	902.63
1033.099	896.53
1033.387	894.95
1033.675	870.32
1033.963	868.51
1034.251	876.64
1034.54	846.59
1034.828	862.63
1035.116	844.55
1035.403	832.13
1035.691	828.74
1035.979	838.45
1036.267	837.55
1036.554	841.16
1036.842	820.15
1037.129	817.66
1037.417	789.87
1037.704	798.45
1037.992	784.22
1038.279	814.95
1038.566	795.29
1038.853	795.29
1039.14	795.29
