Data from breadboard_white_FLMS001491_00034.txt Node
Date: Wed Feb 08 10:47:38 GMT 2017
User: dcchb
Spectrometer: FLMS00149
Trigger mode: 0
Integration Time (sec): 2.000000E-2
Scans to average: 10
Electric dark correction enabled: true
Nonlinearity correction enabled: false
Boxcar width: 0
XAxis mode: Wavelengths
Number of Pixels in Spectrum: 2048
>>>>>Begin Spectral Data<<<<<
341.393	-10.01
341.776	-10.01
342.16	-10.01
342.543	-60.86
342.927	-66.51
343.31	-73.74
343.693	-61.09
344.077	-57.02
344.46	-54.31
344.843	-49.79
345.226	-42.56
345.61	-20.18
345.993	-26.51
346.376	8.29
346.759	14.17
347.142	22.75
347.525	50.32
347.908	55.97
348.291	42.19
348.674	86.03
349.057	105.46
349.44	128.51
349.823	131.9
350.206	170.09
350.588	210.32
350.971	224.1
351.354	225.23
351.737	251
352.119	248.51
352.502	266.36
352.884	266.36
353.267	302.97
353.65	284.44
354.032	298.23
354.414	322.18
354.797	319.02
355.179	334.16
355.562	319.69
355.944	324.67
356.326	352.91
356.709	340.03
357.091	337.77
357.473	335.74
357.855	331.9
358.238	358.79
358.62	340.03
359.002	344.1
359.384	330.99
359.766	332.35
360.148	316.98
360.53	356.76
360.912	345.91
361.294	337.77
361.676	342.97
362.057	350.43
362.439	344.33
362.821	320.82
363.203	323.08
363.584	335.74
363.966	342.07
364.348	336.19
364.729	333.03
365.111	343.65
365.493	327.38
365.874	320.15
366.256	339.13
366.637	315.85
367.019	319.92
367.4	320.15
367.781	328.06
368.163	313.82
368.544	316.53
368.925	323.76
369.306	308.4
369.688	328.28
370.069	326.7
370.45	321.5
370.831	319.02
371.212	326.93
371.593	351.11
371.974	341.39
372.355	315.18
372.736	345.01
373.117	348.62
373.498	328.06
373.879	329.86
374.26	330.32
374.641	326.93
375.021	341.16
375.402	356.98
375.783	322.41
376.163	340.94
376.544	358.34
376.925	345.46
377.305	334.38
377.686	343.65
378.066	361.28
378.447	348.39
378.827	365.34
379.208	353.82
379.588	356.08
379.968	354.72
380.349	372.8
380.729	366.25
381.109	351.56
381.489	393.82
381.87	357.43
382.25	383.65
382.63	365.57
383.01	379.58
383.39	389.75
383.77	367.15
384.15	388.39
384.53	394.04
384.91	384.33
385.29	393.82
385.67	387.72
386.049	404.89
386.429	397.89
386.809	403.31
387.189	371.22
387.568	412.57
387.948	404.21
388.328	421.16
388.707	420.48
389.087	416.64
389.466	429.97
389.846	434.27
390.225	426.58
390.605	431.33
390.984	436.08
391.363	429.52
391.743	442.86
392.122	444.21
392.501	469.52
392.881	475.4
393.26	460.71
393.639	466.13
394.018	473.36
394.397	497.54
394.776	504.1
395.155	497.54
395.534	508.84
395.913	520.14
396.292	499.13
396.671	524.66
397.05	514.27
397.429	509.75
397.808	522.85
398.186	510.65
398.565	540.25
398.944	536.19
399.323	561.5
399.701	558.56
400.08	583.42
400.458	556.07
400.837	591.55
401.215	591.78
401.594	596.52
401.972	606.02
402.351	633.59
402.729	618.22
403.107	659.57
403.486	650.31
403.864	660.48
404.242	672.91
404.62	681.49
404.999	690.31
405.377	687.14
405.755	709.97
406.133	730.98
406.511	730.98
406.889	727.14
407.267	753.81
407.645	768.27
408.023	777.76
408.401	786.8
408.779	809.63
409.156	827.7
409.534	825.67
409.912	840.59
410.29	861.15
410.667	890.75
411.045	876.97
411.422	925.55
411.8	949.28
412.178	972.56
412.555	960.36
412.933	989.96
413.31	1020.24
413.687	1044.87
414.065	1036.06
414.442	1039.68
414.819	1076.74
415.197	1061.37
415.574	1090.52
415.951	1100.92
416.328	1130.52
416.705	1161.71
417.082	1143.4
417.46	1180.92
417.837	1188.37
418.214	1244.64
418.591	1227.69
418.967	1238.54
419.344	1212.55
419.721	1265.88
420.098	1287.13
420.475	1316.5
420.852	1313.57
421.228	1350.18
421.605	1362.15
421.982	1366
422.358	1395.37
422.735	1372.32
423.111	1382.94
423.488	1432.43
423.864	1422.72
424.241	1469.27
424.617	1483.05
424.994	1500
425.37	1484.41
425.746	1486.9
426.123	1524.18
426.499	1545.43
426.875	1570.51
427.251	1588.81
427.627	1616.84
428.003	1650.06
428.379	1674.46
428.756	1670.62
429.132	1720.11
429.507	1736.83
429.883	1770.5
430.259	1755.59
430.635	1781.8
431.011	1828.58
431.387	1842.14
431.763	1891.63
432.138	1894.12
432.514	1907.9
432.89	1929.14
433.265	2010.05
433.641	2053.66
434.016	2041.01
434.392	2050.95
434.767	2082.81
435.143	2109.93
435.518	2110.83
435.894	2154.22
436.269	2170.04
436.644	2233.54
437.02	2209.36
437.395	2261.34
437.77	2292.98
438.145	2306.54
438.52	2345.18
438.895	2347.44
439.271	2374.56
439.646	2421.11
440.021	2453.42
440.395	2403.26
440.77	2457.72
441.145	2481.9
441.52	2502.01
441.895	2504.27
442.27	2558.51
442.645	2540.88
443.019	2615.45
443.394	2604.15
443.769	2626.3
444.143	2598.51
444.518	2650.03
444.892	2647.09
445.267	2708.78
445.641	2759.86
446.016	2727.99
446.39	2757.6
446.764	2804.38
447.139	2750.59
447.513	2817.03
447.887	2834.88
448.262	2840.08
448.636	2841.44
449.01	2885.5
449.384	2968.66
449.758	2918.72
450.132	2971.83
450.506	2973.41
450.88	3021.09
451.254	3049.11
451.628	3097.93
452.002	3119.62
452.376	3122.11
452.75	3163.69
453.123	3173.86
453.497	3263.35
453.871	3286.85
454.244	3320.75
454.618	3352.38
454.992	3402.78
455.365	3397.13
455.739	3499.5
456.112	3521.64
456.486	3555.32
456.859	3577.01
457.232	3675.09
457.606	3600.29
457.979	3695.88
458.352	3770.9
458.725	3811.81
459.099	3833.95
459.472	3911.46
459.845	3966.83
460.218	3995.08
460.591	4037.79
460.964	4114.17
461.337	4179.03
461.71	4225.81
462.083	4282.75
462.456	4237.33
462.829	4284.79
463.201	4383.99
463.574	4408.63
463.947	4462.64
464.32	4646.36
464.692	4610.2
465.065	4614.05
465.438	4718.45
465.81	4769.52
466.183	4819.92
466.555	4938.78
466.928	4929.29
467.3	4921.38
467.672	5016.52
468.045	5140.81
468.417	5168.61
468.789	5185.33
469.161	5308.04
469.534	5422.84
469.906	5531.31
470.278	5541.7
470.65	5583.74
471.022	5693.34
471.394	5830.51
471.766	5846.78
472.138	5936.04
472.51	6029.15
472.882	6172.65
473.253	6223.27
473.625	6276.83
473.997	6457.61
474.369	6533.54
474.74	6534.45
475.112	6651.51
475.484	6777.6
475.855	6924.27
476.227	6949.13
476.598	7144.37
476.97	7315.44
477.341	7430.92
477.713	7556.34
478.084	7538.26
478.455	7748.65
478.827	7829.1
479.198	8087.4
479.569	8083.11
479.94	8310.45
480.311	8355.64
480.682	8585.92
481.053	8695.97
481.424	8899.13
481.795	8994.27
482.166	9179.8
482.537	9209.18
482.908	9437.65
483.279	9523.52
483.65	9688.04
484.021	9877.18
484.391	10016.84
484.762	10100
485.133	10188.59
485.503	10382.71
485.874	10578.63
486.244	10630.84
486.615	10875.35
486.985	11020.66
487.356	11188.56
487.726	11294.77
488.097	11523.02
488.467	11545.39
488.837	11852.27
489.207	11938.37
489.578	12144.69
489.948	12265.37
490.318	12439.83
490.688	12510.56
491.058	12645.7
491.428	12866.03
491.798	13048.63
492.168	13181.5
492.538	13288.62
492.908	13543.08
493.278	13622.4
493.648	13560.25
494.017	13854.71
494.387	13913.69
494.757	14018.32
495.126	14248.37
495.496	14257.41
495.866	14341.93
496.235	14526.1
496.605	14664.4
496.974	14789.6
497.344	14931.29
497.713	14986.88
498.082	15150.94
498.452	15373.08
498.821	15392.52
499.19	15463.48
499.559	15609.69
499.928	15787.54
500.298	15844.03
500.667	15971.26
501.036	15910.25
501.405	16224.14
501.774	16156.57
502.143	16328.99
502.512	16406.28
502.88	16647.18
503.249	16615.31
503.618	16819.37
503.987	16834.06
504.356	16997.9
504.724	17100.04
505.093	17136.2
505.462	17227.5
505.83	17375.29
506.199	17579.13
506.567	17782.06
506.936	17726.47
507.304	18033.35
507.672	18107.02
508.041	18181.37
508.409	18253.69
508.777	18487.35
509.145	18582.04
509.514	18599.89
509.882	18774.8
510.25	18830.17
510.618	19044.17
510.986	19090.95
511.354	19280.78
511.722	19489.36
512.09	19588.11
512.458	19595.8
512.826	19774.1
513.193	20062.23
513.561	19997.37
513.929	20255.89
514.297	20392.39
514.664	20573.17
515.032	20569.11
515.4	20810
515.767	20925.71
516.135	20995.08
516.502	20907.85
516.869	21438.01
517.237	21482.3
517.604	21374.51
517.972	21746.93
518.339	21812.46
518.706	22000.03
519.073	21994.83
519.44	22256.29
519.808	22517.53
520.175	22447.93
520.542	22864.19
520.909	22905.77
521.276	23143.05
521.643	23181.24
522.009	23416.04
522.376	23642.7
522.743	23729.7
523.11	24065.06
523.477	24149.58
523.843	24305.5
524.21	24582.33
524.577	24822.33
524.943	24954.75
525.31	25041.3
525.676	25221.41
526.043	25431.13
526.409	25602.42
526.776	25910.89
527.142	25870.89
527.508	26076.76
527.874	26138.23
528.241	26398.33
528.607	26603.75
528.973	26863.63
529.339	26774.14
529.705	27062.72
530.071	27193.11
530.437	27432.88
530.803	27574.35
531.169	27837.62
531.535	27681.46
531.901	27924.39
532.267	27983.83
532.632	28239.19
532.998	28338.62
533.364	28434.44
533.73	28521.44
534.095	28716.24
534.461	28846.63
534.826	29076.68
535.192	29160.52
535.557	29412.94
535.923	29435.31
536.288	29419.95
536.653	29659.94
537.019	29589.89
537.384	29817.9
537.749	29967.05
538.114	30035.52
538.479	30103.54
538.845	30271
539.21	30186.03
539.575	30469.41
539.94	30514.38
540.305	30687.48
540.67	30658.33
541.034	30787.37
541.399	30960.7
541.764	30987.14
542.129	31292.67
542.494	31135.16
542.858	31322.95
543.223	31456.05
543.587	31709.15
543.952	31582.38
544.316	31793.22
544.681	31826.89
545.045	31833.89
545.41	32128.35
545.774	32150.04
546.138	32307.55
546.503	32228.91
546.867	32291.51
547.231	32629.81
547.595	32653.99
547.959	32876.81
548.324	32854.66
548.688	32941.21
549.052	32953.41
549.416	33170.58
549.779	33278.15
550.143	33316.34
550.507	33654.41
550.871	33588.88
551.235	33740.51
551.599	33879.49
551.962	34008.3
552.326	34058.92
552.689	34262.98
553.053	34112.48
553.417	34390.89
553.78	34773.03
554.143	34619.81
554.507	34793.59
554.87	34976.86
555.234	35196.97
555.597	35089.18
555.96	35196.97
556.323	35391.99
556.686	35369.85
557.05	35810.06
557.413	35822.49
557.776	35968.7
558.139	36211.18
558.502	36196.04
558.865	36438.75
559.228	36744.73
559.59	36880.54
559.953	36826.31
560.316	37134.77
560.679	37255.45
561.041	37303.36
561.404	37522.56
561.767	37795.09
562.129	37622.44
562.492	38127.97
562.854	38095.42
563.217	38181.75
563.579	38299.26
563.941	38563.21
564.304	38642.53
564.666	38976.31
565.028	39048.85
565.39	39182.63
565.753	39333.36
566.115	39413.13
566.477	39745.33
566.839	39630.3
567.201	40035.49
567.563	40027.8
567.925	40344.18
568.287	40362.48
568.648	40374.91
569.01	40577.85
569.372	40864.17
569.734	40778.29
570.095	41102.8
570.457	41135.57
570.819	41260.31
571.18	41073.65
571.542	41441.33
571.903	41614.88
572.265	41726.29
572.626	41899.17
572.987	41917.47
573.349	41978.26
573.71	42194.75
574.071	42174.41
574.432	42500.73
574.794	42433.84
575.155	42594.74
575.516	42480.85
575.877	42687.17
576.238	42773.49
576.599	42969.42
576.96	42947.73
577.32	43032.24
577.681	43115.18
578.042	43281.96
578.403	43134.61
578.763	43152.24
579.124	43320.82
579.485	43453.25
579.845	43549.52
580.206	43401.95
580.566	43448.5
580.927	43521.04
581.287	43711.32
581.648	43572.79
582.008	43735.73
582.368	43693.47
582.728	43815.5
583.089	43672.23
583.449	43779.34
583.809	43754.26
584.169	43812.11
584.529	43718.33
584.889	44075.61
585.249	43790.42
585.609	43665.22
585.969	43973.46
586.329	43808.95
586.688	44010.3
587.048	43807.37
587.408	43814.14
587.768	43926.23
588.127	43823.41
588.487	43727.59
588.846	44141.37
589.206	43806.69
589.565	43775.28
589.925	44022.95
590.284	43907.48
590.643	44007.59
591.003	44082.84
591.362	44191.08
591.721	44009.17
592.08	44031.31
592.44	44213.68
592.799	44099.33
593.158	44102.5
593.517	44072.44
593.876	44129.62
594.235	44124.19
594.593	44191.76
594.952	44191.31
595.311	44099.56
595.67	44211.42
596.029	44257.3
596.387	44467.46
596.746	44355.6
597.104	44179.78
597.463	44268.14
597.822	44203.29
598.18	44231.76
598.538	44266.56
598.897	44533.45
599.255	44134.36
599.613	44608.93
599.972	44418.87
600.33	44617.74
600.688	44486.9
601.046	44543.84
601.404	44761.24
601.762	44492.09
602.12	44790.39
602.478	44794.91
602.836	44782.48
603.194	44592.2
603.552	44798.75
603.91	44533.22
604.268	44695.48
604.625	44672.43
604.983	44772.99
605.341	44747.45
605.698	44816.6
606.056	45013.21
606.413	44918.07
606.771	45076.71
607.128	45190.61
607.485	44900.9
607.843	45087.11
608.2	45236.25
608.557	45316.93
608.914	45096.14
609.272	45397.15
609.629	45463.59
609.986	45579.75
610.343	45414.78
610.7	45569.35
611.057	45562.57
611.414	45545.85
611.771	45638.5
612.127	45572.97
612.484	45618.16
612.841	45741.55
613.198	45660.42
613.554	45741.33
613.911	45923.24
614.267	45881.21
614.624	45766.41
614.98	45833.75
615.337	46161.2
615.693	45979.06
616.05	46039.17
616.406	46239.62
616.762	46113.75
617.118	46153.07
617.475	46121.2
617.831	46257.02
618.187	46355.09
618.543	46186.51
618.899	46462.21
619.255	46375.89
619.611	46473.51
619.967	46414.3
620.323	46506.5
620.678	46407.52
621.034	46346.28
621.39	46279.84
621.746	46265.61
622.101	46777.91
622.457	46431.25
622.812	46525.03
623.168	46470.12
623.523	46548.31
623.879	46641.87
624.234	46284.81
624.589	46541.3
624.945	46618.59
625.3	46592.38
625.655	46560.74
626.01	46499.72
626.365	46643.67
626.72	46390.8
627.075	46521.42
627.43	46415.66
627.785	46260.63
628.14	46513.73
628.495	46442.32
628.85	46362.55
629.205	46228.77
629.559	46454.98
629.914	46244.82
630.269	46322.55
630.623	46226.74
630.978	46064.03
631.332	46284.14
631.687	46203.46
632.041	46101.09
632.396	46175.89
632.75	45940.42
633.104	45988.32
633.459	45921.21
633.813	45935.22
634.167	45850.02
634.521	45755.34
634.875	45859.74
635.229	45688.22
635.583	45593.08
635.937	45509.47
636.291	45554.21
636.645	45520.99
636.999	45481.67
637.352	45605.28
637.706	45230.83
638.06	45345.63
638.413	45315.57
638.767	45358.96
639.121	45238.74
639.474	44953.78
639.828	44996.49
640.181	45096.14
640.534	45142.92
640.888	44896.38
641.241	44808.24
641.594	44761.69
641.947	44875.81
642.301	44747.45
642.654	44695.48
643.007	44667
643.36	44697.74
643.713	44521.02
644.066	44731.86
644.419	44445.77
644.771	44258.65
645.124	43905.44
645.477	43743.64
645.83	43545.68
646.182	43283.09
646.535	43172.58
646.888	43262.07
647.24	42972.81
647.593	43204.44
647.945	43160.83
648.298	42888.75
648.65	42728.3
649.002	42715.42
649.355	42922.19
649.707	42818.24
650.059	42920.83
650.411	43343.87
650.763	43424.55
651.115	43828.16
651.467	43599.91
651.819	43608.73
652.171	43508.39
652.523	43349.75
652.875	43372.35
653.227	43240.37
653.578	43548.61
653.93	43279.47
654.282	43190.66
654.633	43136.87
654.985	43103.43
655.337	43292.35
655.688	43136.65
656.039	43243.76
656.391	42993.6
656.742	43095.29
657.094	43060.72
657.445	43108.17
657.796	42947.95
658.147	42998.35
658.498	42853.94
658.849	42934.39
659.2	42876.09
659.551	42808.3
659.902	43000.38
660.253	42749.54
660.604	42898.01
660.955	42615.53
661.306	42821.18
661.656	42721.52
662.007	42611.01
662.358	42740.73
662.708	42707.51
663.059	42696.43
663.409	42371.24
663.76	42604.91
664.11	42611.01
664.461	42742.76
664.811	42626.83
665.161	42503.22
665.511	42420.73
665.862	42385.48
666.212	42472.94
666.562	42580.28
666.912	42509.55
667.262	42399.94
667.612	42404.92
667.962	42266.16
668.312	42259.61
668.662	42474.29
669.011	42363.11
669.361	42217.58
669.711	42333.51
670.06	42286.5
670.41	42192.94
670.76	42165.37
671.109	42294.41
671.459	42053.29
671.808	42074.08
672.157	42153.62
672.507	41872.27
672.856	41832.05
673.205	41825.72
673.554	41886.06
673.904	41799.73
674.253	41983.23
674.602	41841.54
674.951	41252.18
675.3	41128.57
675.649	41656.69
675.998	41510.25
676.346	41736.23
676.695	41757.02
677.044	41444.49
677.393	41628.21
677.741	41608.33
678.09	41482.23
678.438	41366.3
678.787	41533.75
679.135	41413.76
679.484	41139.41
679.832	41198.39
680.181	41061
680.529	41128.34
680.877	41055.12
681.225	41129.7
681.573	41259.41
681.922	40946.2
682.27	40788.01
682.618	40716.6
682.966	40695.13
683.314	40724.51
683.661	40569.94
684.009	40482.93
684.357	40304.63
684.705	40292.66
685.053	40329.49
685.4	40154.58
685.748	40114.13
686.095	40021.48
686.443	40032.55
686.79	39885.89
687.138	39930.4
687.485	39929.05
687.832	39835.72
688.18	39775.61
688.527	39611.32
688.874	39579.23
689.221	39519.12
689.568	39330.19
689.915	39315.28
690.262	39314.83
690.609	39183.53
690.956	39033.48
691.303	38882.52
691.65	38906.93
691.997	38731.34
692.344	38492.02
692.69	38517.79
693.037	38524.34
693.383	38237.34
693.73	38335.64
694.077	38090
694.423	38157.34
694.769	37955.09
695.116	37888.42
695.462	37648.43
695.808	37782.89
696.155	37774.98
696.501	37569.56
696.847	37401.88
697.193	37172.51
697.539	37390.36
697.885	36992.18
698.231	36912.86
698.577	36966.19
698.923	36911.5
699.269	36766.65
699.614	36507.9
699.96	36425.86
700.306	36446.2
700.651	36181.8
700.997	36225.42
701.342	36144.74
701.688	36017.74
702.033	35887.57
702.379	35918.76
702.724	35728.03
703.069	35939.1
703.415	35442.39
703.76	35494.36
704.105	35373.91
704.45	35389.96
704.795	35104.32
705.14	35022.74
705.485	34957.65
705.83	34830.2
706.175	34813.48
706.52	34807.15
706.865	34626.82
707.209	34668.17
707.554	34550.43
707.899	34618.45
708.243	34429.76
708.588	34341.63
708.932	34109.09
709.277	34143.89
709.621	33996.32
709.966	33934.18
710.31	33844.69
710.654	33591.14
710.998	33727.63
711.342	33639.95
711.687	33472.04
712.031	33496.68
712.375	33349.79
712.719	33304.59
713.063	33213.52
713.407	33378.49
713.75	33140.98
714.094	33111.15
714.438	32899.18
714.782	33006.07
715.125	32845.85
715.469	32811.72
715.812	32720.88
716.156	32445.86
716.499	32552.07
716.843	32569.47
717.186	32328.8
717.53	32620.31
717.873	32491.96
718.216	32332.19
718.559	32198.18
718.902	31994.34
719.246	32187.56
719.589	31904.4
719.932	31876.38
720.275	31840.9
720.617	31819.21
720.96	31757.29
721.303	31744.41
721.646	31743.28
721.989	31483.85
722.331	31628.48
722.674	31461.93
723.016	31627.57
723.359	31488.59
723.701	31342.61
724.044	31152.56
724.386	31046.57
724.729	31207.92
725.071	31121.6
725.413	31036.85
725.755	30956.4
726.097	30835.95
726.439	30687.71
726.782	30732.91
727.124	30855.39
727.465	30768.61
727.807	30562.97
728.149	30587.6
728.491	30489.52
728.833	30501.73
729.175	30249.3
729.516	30273.71
729.858	30372.46
730.199	30299.25
730.541	30159.36
730.882	30151.9
731.224	30238.91
731.565	29936.54
731.906	30021.96
732.248	29920.27
732.589	29859.03
732.93	29848.64
733.271	29828.75
733.612	29808.64
733.953	29830.56
734.294	29645.7
734.635	29486.39
734.976	29724.12
735.317	29377.01
735.658	29343.79
735.999	29501.98
736.339	29351.47
736.68	29418.36
737.021	29280.06
737.361	29108.09
737.702	29318.93
738.042	29152.84
738.383	28992.39
738.723	29097.47
739.063	28989.22
739.404	29010.69
739.744	28875.33
740.084	28907.19
740.424	28875.1
740.764	28732.28
741.104	28865.61
741.444	28640.31
741.784	28503.81
742.124	28657.93
742.464	28404.15
742.804	28546.98
743.143	28336.36
743.483	28382.46
743.823	28184.5
744.162	28105.63
744.502	28323.93
744.841	28113.09
745.181	28301.33
745.52	27989.25
745.86	28015.24
746.199	27922.13
746.538	27983.15
746.877	28039.42
747.216	27994.67
747.556	27834.23
747.895	27829.03
748.234	27695.47
748.573	27565.53
748.911	27530.96
749.25	27629.03
749.589	27408.47
749.928	27423.39
750.267	27418.87
750.605	27341.58
750.944	27234.24
751.283	27191.3
751.621	27224.07
751.96	27106.11
752.298	26997.86
752.636	26918.32
752.975	26933.46
753.313	26861.14
753.651	26917.87
753.989	26702.05
754.327	26683.97
754.666	26467.03
755.004	26546.58
755.342	26433.13
755.679	26490.76
756.017	26260.03
756.355	26340.03
756.693	26277.88
757.031	26189.07
757.368	26141.39
757.706	26054.16
758.044	25964.22
758.381	25885.8
758.719	25869.98
759.056	25811.91
759.394	25786.82
759.731	25527.17
760.068	25606.49
760.405	25438.13
760.743	25372.37
761.08	25439.94
761.417	25227.06
761.754	25121.3
762.091	25177.57
762.428	24984.81
762.765	24902.1
763.102	24844.02
763.438	24818.94
763.775	24691.94
764.112	24676.57
764.449	24603.35
764.785	24510.92
765.122	24275.22
765.458	24303.47
765.795	24230.25
766.131	24231.16
766.467	24131.5
766.804	24066.42
767.14	23884.95
767.476	23788.68
767.812	23751.62
768.148	23762.47
768.485	23557.73
768.821	23443.15
769.157	23402.7
769.492	23326.32
769.828	23323.84
770.164	23052.66
770.5	23052.66
770.836	23076.16
771.171	22984.86
771.507	22940.8
771.842	22676.17
772.178	22757.75
772.513	22632.78
772.849	22524.53
773.184	22382.84
773.519	22416.52
773.855	22255.62
774.19	22203.64
774.525	22094.49
774.86	22109.18
775.195	22101.95
775.53	21901.05
775.865	21785.8
776.2	21660.83
776.535	21517.33
776.87	21652.92
777.205	21486.6
777.539	21339.93
777.874	21438.91
778.209	21205.93
778.543	21099.26
778.878	21063.78
779.212	20909.44
779.547	20906.95
779.881	20907.4
780.215	20696.33
780.55	20777.69
780.884	20646.17
781.218	20667.63
781.552	20620.86
781.886	20508.32
782.22	20362.11
782.554	20208.89
782.888	20057.93
783.222	20033.3
783.556	19959.86
783.889	19930.93
784.223	19754.66
784.557	19664.5
784.89	19745.4
785.224	19612.97
785.557	19621.79
785.891	19537.95
786.224	19427.89
786.558	19358.74
786.891	19173.21
787.224	19147.22
787.557	19082.37
787.891	19095.7
788.224	19040.56
788.557	18956.72
788.89	18956.95
789.223	18932.09
789.556	18847.12
789.888	18781.36
790.221	18678.76
790.554	18449.61
790.887	18566.45
791.219	18333.68
791.552	18396.28
791.884	18199.22
792.217	18278.77
792.549	18135.95
792.882	18097.98
793.214	17979.34
793.546	17992.68
793.879	17912
794.211	17789.07
794.543	17792.68
794.875	17771.21
795.207	17810.53
795.539	17583.42
795.871	17690.09
796.203	17441.5
796.535	17347.04
796.867	17359.92
797.198	17272.7
797.53	17284.9
797.862	17172.81
798.193	17186.82
798.525	17168.74
798.856	17059.14
799.188	16844.68
799.519	16809.43
799.85	16740.96
800.182	16720.62
800.513	16782.31
800.844	16546.61
801.175	16672.03
801.506	16619.38
801.837	16511.13
802.168	16442.43
802.499	16375.09
802.83	16345.94
803.161	16222.78
803.491	16295.55
803.822	16259.16
804.153	16174.42
804.483	16015.33
804.814	15953.86
805.145	16017.81
805.475	15889.91
805.805	15895.78
806.136	15964.26
806.466	15809.01
806.796	15851.04
807.126	15610.14
807.457	15601.33
807.787	15573.98
808.117	15618.28
808.447	15516.36
808.777	15580.99
809.107	15392.97
809.436	15366.08
809.766	15385.74
810.096	15341.9
810.426	15271.17
810.755	15276.59
811.085	15155.01
811.414	15184.39
811.744	15086.76
812.073	14963.15
812.403	15079.31
812.732	14976.71
813.061	15012.42
813.39	14883.15
813.719	14846.32
814.049	14877.96
814.378	14819.43
814.707	14766.09
815.036	14679.54
815.365	14639.77
815.693	14540.34
816.022	14514.35
816.351	14458.31
816.68	14467.8
817.008	14483.39
817.337	14316.16
817.665	14320.68
817.994	14356.61
818.322	14311.87
818.651	14280.01
818.979	14201.36
819.307	14186.22
819.636	14216.05
819.964	14026.23
820.292	14128.6
820.62	14087.92
820.948	14056.96
821.276	14019
821.604	14031.42
821.932	14081.37
822.259	14133.12
822.587	14056.06
822.915	13996.4
823.243	14017.19
823.57	14023.06
823.898	13940.81
824.225	13926.79
824.553	13910.07
824.88	13985.55
825.207	13994.14
825.535	13969.28
825.862	14103.29
826.189	13960.24
826.516	14054.93
826.843	14011.31
827.17	13990.07
827.497	13997.3
827.824	13989.17
828.151	13976.29
828.478	14009.5
828.805	14120.91
829.131	13962.27
829.458	13945.33
829.785	13887.02
830.111	13980.8
830.438	13949.85
830.764	13973.57
831.09	13924.76
831.417	13850.19
831.743	13921.6
832.069	13923.86
832.395	13825.78
832.722	13867.36
833.048	13814.71
833.374	13718.66
833.7	13747.82
834.026	13823.75
834.351	13744.88
834.677	13821.49
835.003	13758.44
835.329	13686.8
835.654	13699.68
835.98	13587.82
836.306	13678.89
836.631	13593.92
836.956	13617.65
837.282	13617.88
837.607	13500.82
837.932	13458.56
838.258	13532.91
838.583	13496.98
838.908	13483.19
839.233	13425.34
839.558	13452.91
839.883	13297.88
840.208	13286.81
840.533	13320.48
840.858	13354.61
841.182	13339.01
841.507	13305.12
841.832	13188.96
842.156	13200.49
842.481	13250.65
842.805	13150.77
843.13	13054.95
843.454	13090.21
843.778	13078.68
844.103	12997.33
844.427	12966.14
844.751	12936.31
845.075	12905.58
845.399	12890.21
845.723	12803.66
846.047	12833.49
846.371	12742.42
846.695	12698.35
847.019	12630.78
847.343	12612.03
847.666	12545.81
847.99	12433.5
848.313	12507.62
848.637	12323
848.96	12395.08
849.284	12336.78
849.607	12247.74
849.931	12218.82
850.254	12018.37
850.577	12065.37
850.9	11944.47
851.223	11952.61
851.546	11878.94
851.869	11785.61
852.192	11701.09
852.515	11726.4
852.838	11667.42
853.161	11700.86
853.483	11661.77
853.806	11597.59
854.129	11598.27
854.451	11497.48
854.774	11477.14
855.096	11375
855.419	11447.54
855.741	11372.96
856.063	11288.9
856.385	11277.15
856.708	11212.74
857.03	11184.04
857.352	11191.05
857.674	11130.48
857.996	11125.29
858.318	11012.07
858.64	11033.31
858.961	10993.09
859.283	11065.4
859.605	10917.61
859.926	10943.82
860.248	10878.74
860.57	10780.89
860.891	10868.8
861.212	10820.66
861.534	10791.51
861.855	10697.05
862.176	10746.99
862.498	10788.35
862.819	10692.53
863.14	10723.72
863.461	10648.46
863.782	10603.04
864.103	10556.71
864.424	10491.86
864.745	10584.74
865.065	10519.65
865.386	10439.2
865.707	10483.5
866.027	10472.87
866.348	10482.59
866.668	10374.57
866.989	10398.07
867.309	10304.52
867.63	10361.24
867.95	10374.12
868.27	10257.74
868.59	10293.44
868.91	10242.6
869.23	10223.62
869.55	10172.54
869.87	10294.57
870.19	10208.02
870.51	10227.91
870.83	10166.67
871.15	10143.84
871.469	10112.66
871.789	10083.28
872.109	10051.87
872.428	10032.21
872.748	10024.3
873.067	10046.67
873.386	10013
873.706	10011.64
874.025	9945.43
874.344	9833.57
874.663	9988.82
874.982	9881.93
875.301	9881.7
875.62	9823.17
875.939	9816.85
876.258	9802.16
876.577	9792.21
876.896	9818.65
877.214	9728.49
877.533	9810.29
877.852	9728.26
878.17	9793.8
878.489	9816.85
878.807	9723.52
879.125	9704.98
879.444	9665.44
879.762	9642.61
880.08	9658.43
880.398	9565.78
880.716	9623.86
881.034	9604.42
881.352	9541.15
881.67	9555.84
881.988	9480.36
882.306	9506.57
882.624	9485.33
882.941	9504.54
883.259	9386.12
883.577	9410.3
883.894	9298.44
884.212	9328.72
884.529	9356.29
884.846	9295.28
885.164	9309.52
885.481	9276.52
885.798	9289.18
886.115	9310.42
886.432	9228.84
886.75	9288.5
887.067	9199.01
887.383	9156.75
887.7	9194.26
888.017	9159.01
888.334	9185.22
888.651	9069.07
888.967	9068.62
889.284	9065.45
889.6	9001.5
889.917	8892.8
890.233	8911.79
890.55	8924.67
890.866	8902.52
891.182	8894.84
891.498	8845.8
891.815	8780.94
892.131	8777.55
892.447	8770.77
892.763	8688.06
893.079	8638.12
893.395	8674.5
893.71	8680.38
894.026	8657.78
894.342	8572.81
894.657	8558.35
894.973	8483.32
895.289	8538.24
895.604	8518.8
895.92	8429.76
896.235	8413.04
896.55	8460.72
896.865	8408.97
897.181	8367.84
897.496	8348.41
897.811	8337.34
898.126	8241.52
898.441	8232.48
898.756	8218.7
899.071	8146.16
899.386	8195.65
899.7	8140.28
900.015	8074.75
900.33	8098.47
900.644	7987.74
900.959	7983.45
901.273	7990.45
901.588	7912.26
901.902	7919.95
902.216	7874.07
902.531	7799.05
902.845	7862.32
903.159	7806.96
903.473	7772.83
903.787	7753.17
904.101	7740.06
904.415	7724.92
904.729	7707.75
905.042	7606.96
905.356	7628.66
905.67	7639.05
905.984	7604.02
906.297	7519.28
906.611	7493.97
906.924	7514.99
907.237	7375.33
907.551	7384.59
907.864	7411.03
908.177	7300.75
908.491	7270.02
908.804	7282
909.117	7272.96
909.43	7164.94
909.743	7192.96
910.056	7165.39
910.368	7106.86
910.681	7030.7
910.994	6999.75
911.307	7030.48
911.619	7033.87
911.932	6982.8
912.244	6940.99
912.557	6940.54
912.869	6830.94
913.181	6879.97
913.494	6850.6
913.806	6813.54
914.118	6771.28
914.43	6764.72
914.742	6744.38
915.054	6673.43
915.366	6652.86
915.678	6584.16
915.99	6568.8
916.302	6547.1
916.613	6537.38
916.925	6475.01
917.236	6466.65
917.548	6451.96
917.859	6485.18
918.171	6381.46
918.482	6433.43
918.794	6374.9
919.105	6318.63
919.416	6265.53
919.727	6305.98
920.038	6274.79
920.349	6216.49
920.66	6217.62
920.971	6206.77
921.282	6144.17
921.593	6094.01
921.903	6098.3
922.214	6047.23
922.525	5991.64
922.835	5995.7
923.146	6013.56
923.456	5985.76
923.767	5988.92
924.077	5995.48
924.387	5899.21
924.697	5849.72
925.008	5845.65
925.318	5841.36
925.628	5824.63
925.938	5810.62
926.248	5703.28
926.558	5711.87
926.867	5716.62
927.177	5706.9
927.487	5655.37
927.796	5625.09
928.106	5600.91
928.416	5536.96
928.725	5557.98
929.034	5489.5
929.344	5533.34
929.653	5519.56
929.962	5447.92
930.271	5447.7
930.581	5359.56
930.89	5350.98
931.199	5310.07
931.508	5346.91
931.817	5316.85
932.125	5298.55
932.434	5363.4
932.743	5246.8
933.051	5212.45
933.36	5176.29
933.669	5163.86
933.977	5197.76
934.286	5138.55
934.594	5142.39
934.902	5061.04
935.21	5088.84
935.519	5055.16
935.827	5037.54
936.135	4987.14
936.443	4983.53
936.751	4925.22
937.059	4925.9
937.367	4894.49
937.674	4888.84
937.982	4907.82
938.29	4866.02
938.597	4877.54
938.905	4763.65
939.213	4767.26
939.52	4779.69
939.827	4739.24
940.135	4716.87
940.442	4735.17
940.749	4648.39
941.056	4717.55
941.363	4680.03
941.67	4614.95
941.977	4617.44
942.284	4551.9
942.591	4551
942.898	4524.33
943.205	4560.71
943.511	4503.77
943.818	4470.77
944.125	4446.59
944.431	4434.16
944.738	4447.95
945.044	4425.8
945.35	4413.15
945.657	4398.23
945.963	4393.94
946.269	4371.34
946.575	4344.9
946.881	4320.27
947.187	4311.23
947.493	4261.74
947.799	4301.74
948.105	4240.04
948.41	4183.1
948.716	4222.19
949.022	4162.08
949.327	4147.16
949.633	4107.17
949.938	4177.45
950.244	4061.29
950.549	4068.97
950.854	4079.82
951.16	4080.5
951.465	3993.5
951.77	4005.93
952.075	4007.06
952.38	3988.3
952.685	3993.5
952.99	3913.05
953.294	3964.34
953.599	3891.13
953.904	3911.01
954.209	3865.82
954.513	3859.04
954.818	3829.89
955.122	3816.1
955.426	3802.54
955.731	3764.35
956.035	3743.11
956.339	3746.27
956.643	3761.86
956.948	3714.86
957.252	3706.5
957.556	3667.86
957.86	3649.1
958.163	3666.05
958.467	3645.48
958.771	3602.55
959.075	3628.76
959.378	3613.85
959.682	3646.16
959.985	3539.5
960.289	3564.13
960.592	3538.37
960.896	3544.92
961.199	3497.92
961.502	3477.8
961.805	3484.36
962.108	3440.97
962.411	3452.27
962.714	3424.47
963.017	3421.76
963.32	3409.11
963.623	3347.64
963.926	3358.26
964.228	3333.85
964.531	3300.63
964.833	3358.03
965.136	3276.68
965.438	3286.4
965.741	3293.85
966.043	3286.85
966.345	3256.34
966.648	3263.57
966.95	3222.22
967.252	3209.79
967.554	3206.4
967.856	3153.74
968.158	3155.33
968.46	3156.23
968.761	3170.24
969.063	3102.22
969.365	3092.73
969.666	3131.6
969.968	3086.85
970.269	3040.98
970.571	3066.06
970.872	3013.64
971.174	3021.54
971.475	3059.28
971.776	3026.74
972.077	2992.39
972.378	3014.31
972.679	2963.92
972.98	2983.81
973.281	2941.55
973.582	2959.17
973.883	2908.1
974.183	2916.91
974.484	2883.02
974.785	2883.47
975.085	2870.59
975.386	2878.05
975.686	2836.92
975.986	2845.05
976.287	2798.5
976.587	2777.94
976.887	2749.69
977.187	2776.58
977.487	2776.13
977.787	2768.44
978.087	2749.46
978.387	2727.77
978.687	2737.94
978.987	2709.91
979.286	2719.63
979.586	2673.53
979.885	2669.46
980.185	2632.18
980.484	2623.14
980.784	2629.92
981.083	2613.19
981.382	2609.58
981.682	2604.15
981.981	2566.42
982.28	2577.71
982.579	2552.18
982.878	2561.44
983.177	2582.46
983.475	2543.37
983.774	2511.95
984.073	2523.03
984.372	2471.28
984.67	2465.18
984.969	2476.47
985.267	2503.82
985.566	2453.65
985.864	2442.13
986.162	2463.59
986.461	2408.45
986.759	2418.4
987.057	2391.28
987.355	2389.92
987.653	2410.49
987.951	2361.22
988.249	2350.38
988.547	2370.94
988.844	2358.74
989.142	2337.72
989.44	2302.02
989.737	2281
990.035	2342.01
990.332	2295.01
990.63	2271.96
990.927	2297.72
991.224	2264.73
991.521	2243.26
991.819	2223.83
992.116	2234.9
992.413	2221.57
992.71	2209.81
993.006	2200.78
993.303	2192.41
993.6	2173.21
993.897	2137.5
994.193	2160.32
994.49	2121.91
994.787	2097.95
995.083	2116.03
995.379	2105.18
995.676	2097.73
995.972	2089.82
996.268	2066.09
996.565	2106.54
996.861	2094.34
997.157	2027.67
997.453	2047.56
997.749	2004.17
998.044	2011.18
998.34	2014.34
998.636	1995.58
998.932	1981.57
999.227	1948.58
999.523	1984.51
999.818	1945.64
1000.114	1945.41
1000.409	1934.57
1000.704	1936.38
1001	1945.19
1001.295	1918.52
1001.59	1895.25
1001.885	1907
1002.18	1893.21
1002.475	1862.71
1002.77	1878.75
1003.065	1873.33
1003.359	1866.32
1003.654	1825.19
1003.949	1792.88
1004.243	1796.04
1004.538	1758.53
1004.832	1785.65
1005.127	1783.61
1005.421	1786.1
1005.715	1744.52
1006.009	1777.06
1006.304	1730.51
1006.598	1726.21
1006.892	1745.87
1007.186	1698.42
1007.48	1677.17
1007.773	1677.63
1008.067	1671.98
1008.361	1673.56
1008.655	1649.38
1008.948	1630.85
1009.242	1647.34
1009.535	1640.79
1009.829	1601.47
1010.122	1625.65
1010.415	1614.58
1010.708	1573.22
1011.001	1585.42
1011.295	1589.27
1011.588	1572.77
1011.881	1543.17
1012.173	1547.23
1012.466	1528.93
1012.759	1528.7
1013.052	1524.41
1013.344	1525.09
1013.637	1480.79
1013.93	1482.38
1014.222	1478.08
1014.514	1476.5
1014.807	1474.92
1015.099	1436.73
1015.391	1455.03
1015.683	1442.38
1015.976	1445.99
1016.268	1417.07
1016.56	1442.38
1016.851	1426.11
1017.143	1417.29
1017.435	1370.06
1017.727	1394.02
1018.018	1389.05
1018.31	1387.92
1018.602	1354.7
1018.893	1345.66
1019.185	1346.56
1019.476	1351.76
1019.767	1288.48
1020.058	1308.14
1020.35	1336.17
1020.641	1287.81
1020.932	1277.18
1021.223	1292.55
1021.514	1260.91
1021.804	1265.43
1022.095	1277.41
1022.386	1237.41
1022.677	1229.95
1022.967	1263.4
1023.258	1230.86
1023.548	1214.36
1023.839	1227.69
1024.129	1196.96
1024.419	1192.21
1024.709	1180.46
1025	1205.1
1025.29	1179.79
1025.58	1194.93
1025.87	1137.98
1026.16	1152.89
1026.449	1161.71
1026.739	1145.21
1027.029	1137.53
1027.319	1106.79
1027.608	1137.07
1027.898	1109.5
1028.187	1116.06
1028.477	1121.71
1028.766	1100.69
1029.055	1073.8
1029.344	1094.82
1029.634	1077.87
1029.923	1042.61
1030.212	1075.38
1030.501	1057.3
1030.79	1030.18
1031.078	1033.57
1031.367	1021.15
1031.656	1003.29
1031.945	1022.05
1032.233	1010.98
1032.522	1003.74
1032.81	1010.52
1033.099	984.99
1033.387	990.41
1033.675	964.88
1033.963	969.17
1034.251	977.76
1034.54	988.83
1034.828	928.49
1035.116	944.99
1035.403	945.44
1035.691	953.12
1035.979	940.02
1036.267	931.2
1036.554	920.81
1036.842	897.53
1037.129	927.81
1037.417	896.18
1037.704	911.77
1037.992	880.81
1038.279	879
1038.566	874.93
1038.853	874.93
1039.14	874.93
