Data from breadboard_white_FLMS001491_00049.txt Node
Date: Wed Feb 08 10:47:47 GMT 2017
User: dcchb
Spectrometer: FLMS00149
Trigger mode: 0
Integration Time (sec): 2.000000E-2
Scans to average: 10
Electric dark correction enabled: true
Nonlinearity correction enabled: false
Boxcar width: 0
XAxis mode: Wavelengths
Number of Pixels in Spectrum: 2048
>>>>>Begin Spectral Data<<<<<
341.393	-5.89
341.776	-5.89
342.16	-5.89
342.543	-63.52
342.927	-58.77
343.31	-79.11
343.693	-70.07
344.077	-56.28
344.46	-64.87
344.843	-61.26
345.226	-44.08
345.61	-28.94
345.993	-22.61
346.376	14.45
346.759	9.03
347.142	21
347.525	44.96
347.908	58.29
348.291	61.91
348.674	104.84
349.057	112.75
349.44	95.8
349.823	137.61
350.206	163.82
350.588	220.09
350.971	215.12
351.354	230.26
351.737	245.4
352.119	257.15
352.502	289.7
352.884	304.61
353.267	290.15
353.65	303.03
354.032	315.91
354.414	318.17
354.797	345.29
355.179	328.79
355.562	343.03
355.944	371.05
356.326	355.46
356.709	335.8
357.091	368.34
357.473	370.15
357.855	346.87
358.238	349.81
358.62	356.81
359.002	359.98
359.384	368.34
359.766	345.06
360.148	360.88
360.53	356.36
360.912	339.86
361.294	365.4
361.676	351.39
362.057	375.57
362.439	359.98
362.821	348.68
363.203	351.62
363.584	351.16
363.966	368.56
364.348	347.77
364.729	350.03
365.111	352.74
365.493	354.55
365.874	361.11
366.256	328.11
366.637	348.23
367.019	340.77
367.4	321.56
367.781	355
368.163	348.23
368.544	346.87
368.925	345.29
369.306	357.04
369.688	357.26
370.069	375.34
370.45	347.32
370.831	336.93
371.212	361.78
371.593	368.11
371.974	334.89
372.355	355
372.736	342.58
373.117	383.7
373.498	354.55
373.879	347.32
374.26	349.36
374.641	355.68
375.021	340.99
375.402	349.13
375.783	340.77
376.163	380.77
376.544	380.54
376.925	375.34
377.305	379.64
377.686	380.99
378.066	367.66
378.447	382.8
378.827	382.8
379.208	388
379.588	363.14
379.968	383.93
380.349	407.66
380.729	392.97
381.109	404.5
381.489	387.09
381.87	394.78
382.25	400.43
382.63	404.27
383.01	423.93
383.39	410.6
383.77	395
384.15	416.92
384.53	411.05
384.91	423.03
385.29	417.15
385.67	432.52
386.049	432.74
386.429	424.61
386.809	428.68
387.189	435.45
387.568	431.84
387.948	442.91
388.328	465.51
388.707	464.61
389.087	471.16
389.466	458.28
389.846	452.86
390.225	465.74
390.605	463.02
390.984	495.57
391.363	488.56
391.743	493.08
392.122	505.74
392.501	490.82
392.881	518.16
393.26	514.55
393.639	531.5
394.018	520.65
394.397	512.06
394.776	529.69
395.155	531.05
395.534	565.62
395.913	517.26
396.292	578.5
396.671	581.67
397.05	562.68
397.429	586.19
397.808	584.6
398.186	599.97
398.565	592.74
398.944	597.94
399.323	615.56
399.701	638.61
400.08	643.13
400.458	623.25
400.837	635.68
401.215	650.36
401.594	671.15
401.972	688.1
402.351	696.46
402.729	716.8
403.107	700.76
403.486	717.93
403.864	741.66
404.242	735.33
404.62	775.33
404.999	797.25
405.377	776.46
405.755	787.54
406.133	801.32
406.511	831.15
406.889	818.04
407.267	857.36
407.645	869.12
408.023	882.67
408.401	884.71
408.779	879.28
409.156	946.4
409.534	955.21
409.912	971.49
410.29	989.11
410.667	1003.12
411.045	1036.12
411.422	1012.61
411.8	1052.16
412.178	1081.77
412.555	1124.48
412.933	1113.85
413.31	1140.52
413.687	1168.54
414.065	1171.71
414.442	1202.44
414.819	1224.13
415.197	1256
415.574	1258.03
415.951	1271.59
416.328	1313.62
416.705	1291.7
417.082	1326.05
417.46	1334.41
417.837	1348.88
418.214	1376.9
418.591	1393.85
418.967	1402.66
419.344	1451.47
419.721	1447.86
420.098	1472.49
420.475	1491.25
420.852	1527.18
421.228	1517.23
421.605	1553.17
421.982	1583.22
422.358	1564.92
422.735	1604.69
423.111	1611.02
423.488	1646.95
423.864	1625.48
424.241	1681.98
424.617	1675.42
424.994	1717.91
425.37	1758.13
425.746	1729.43
426.123	1766.27
426.499	1771.24
426.875	1807.85
427.251	1866.38
427.627	1884.91
428.003	1919.94
428.379	1926.26
428.756	1949.99
429.132	1982.31
429.507	2053.49
429.883	2047.62
430.259	2072.47
430.635	2093.49
431.011	2155.64
431.387	2168.52
431.763	2160.83
432.138	2213.94
432.514	2264.56
432.89	2272.69
433.265	2349.75
433.641	2331.22
434.016	2365.12
434.392	2376.65
434.767	2460.71
435.143	2466.81
435.518	2472.69
435.894	2532.8
436.269	2577.32
436.644	2607.83
437.02	2632.46
437.395	2631.56
437.77	2648.96
438.145	2716.07
438.52	2766.47
438.895	2756.52
439.271	2782.06
439.646	2842.85
440.021	2856.18
440.395	2864.32
440.77	2853.7
441.145	2923.75
441.52	2971.21
441.895	2985.22
442.27	3003.75
442.645	3019.57
443.019	3075.16
443.394	3091.66
443.769	3111.32
444.143	3048.04
444.518	3142.95
444.892	3121.94
445.267	3180.47
445.641	3190.64
446.016	3206
446.39	3278.77
446.764	3255.49
447.139	3275.61
447.513	3303.18
447.887	3308.15
448.262	3369.39
448.636	3370.52
449.01	3446.9
449.384	3476.5
449.758	3496.39
450.132	3494.81
450.506	3552.21
450.88	3577.52
451.254	3590.17
451.628	3629.27
452.002	3690.51
452.376	3720.34
452.75	3788.81
453.123	3754.46
453.497	3863.16
453.871	3854.8
454.244	3965.31
454.618	4012.54
454.992	4030.16
455.365	3983.84
455.739	4147.45
456.112	4207.78
456.486	4215.47
456.859	4236.94
457.232	4375.24
457.606	4361.23
457.979	4379.98
458.352	4469.25
458.725	4513.77
459.099	4585.63
459.472	4735.45
459.845	4759.18
460.218	4760.76
460.591	4842.12
460.964	4833.98
461.337	4962.57
461.71	4995.79
462.083	5089.34
462.456	5105.39
462.829	5180.41
463.201	5243.46
463.574	5233.07
463.947	5294.76
464.32	5454.98
464.692	5504.02
465.065	5521.87
465.438	5629.67
465.81	5731.36
466.183	5776.11
466.555	5928.64
466.928	5941.07
467.3	5991.92
467.672	6067.4
468.045	6239.6
468.417	6201.86
468.789	6264.45
469.161	6321.63
469.534	6422.42
469.906	6649.53
470.278	6660.83
470.65	6720.04
471.022	6854.49
471.394	7012.91
471.766	7091.32
472.138	7130.42
472.51	7322.05
472.882	7429.85
473.253	7583.06
473.625	7598.88
473.997	7762.27
474.369	7895.82
474.74	7937.86
475.112	8044.75
475.484	8217.17
475.855	8403.15
476.227	8458.07
476.598	8695.8
476.97	8785.52
477.341	8935.8
477.713	9098.73
478.084	9120.88
478.455	9403.58
478.827	9483.58
479.198	9737.58
479.569	9773.97
479.94	10083.79
480.311	10205.82
480.682	10335.76
481.053	10617.79
481.424	10809.65
481.795	10852.58
482.166	10982.75
482.537	11226.13
482.908	11479.68
483.279	11563.3
483.65	11828.15
484.021	11989.28
484.391	12219.33
484.762	12332.54
485.133	12397.63
485.503	12652.53
485.874	12875.58
486.244	13026.76
486.615	13240.99
486.985	13418.84
487.356	13704.94
487.726	13763.69
488.097	14046.4
488.467	14089.78
488.837	14426.05
489.207	14586.27
489.578	14810.67
489.948	14906.26
490.318	15179.25
490.688	15153.03
491.058	15422.41
491.428	15713.92
491.798	15852.45
492.168	16158.21
492.538	16215.6
492.908	16449.5
493.278	16691.98
493.648	16577.63
494.017	16840.67
494.387	16939.43
494.757	17207.44
495.126	17458.74
495.496	17494.67
495.866	17623.48
496.235	17813.3
496.605	17965.16
496.974	18013.07
497.344	18268.43
497.713	18467.07
498.082	18469.1
498.452	18712.49
498.821	18804.46
499.19	18917.68
499.559	19153.15
499.928	19292.13
500.298	19411.23
500.667	19568.96
501.036	19609.64
501.405	19865
501.774	19779.58
502.143	20046.46
502.512	20088.95
502.88	20424.76
503.249	20363.29
503.618	20477.64
503.987	20742.49
504.356	20800.79
504.724	20988.13
505.093	21098.41
505.462	21056.83
505.83	21366.66
506.199	21528.69
506.567	21766.19
506.936	21725.97
507.304	22048.22
507.672	22133.87
508.041	22170.93
508.409	22416.35
508.777	22684.81
509.145	22726.62
509.514	22897.24
509.882	23115.54
510.25	23130.23
510.618	23343.1
510.986	23435.75
511.354	23611.79
511.722	23890.21
512.09	24190.31
512.458	24123.87
512.826	24397.08
513.193	24411.1
513.561	24588.72
513.929	24834.59
514.297	24991.19
514.664	25197.97
515.032	25400.67
515.4	25530.61
515.767	25651.74
516.135	25889.47
516.502	25799.53
516.869	26228.67
517.237	26281.33
517.604	26384.15
517.972	26715.89
518.339	26880.86
518.706	26969.67
519.073	27045.6
519.44	27437.46
519.808	27515.65
520.175	27742.08
520.542	28021.17
520.909	28172.8
521.276	28274.04
521.643	28675.84
522.009	28823.86
522.376	28942.05
522.743	29106.79
523.11	29399.89
523.477	29707.23
523.843	29864.74
524.21	30258.17
524.577	30550.37
524.943	30528.9
525.31	30691.83
525.676	30999.4
526.043	31357.58
526.409	31427.41
526.776	31687.74
527.142	31746.95
527.508	32080.5
527.874	32288.18
528.241	32429.64
528.607	32551.45
528.973	32954.37
529.339	33099.45
529.705	33390.29
530.071	33700.79
530.437	33696.95
530.803	33887
531.169	34141.46
531.535	34181.01
531.901	34307.11
532.267	34534.9
532.632	34690.15
532.998	34865.51
533.364	35093.3
533.73	35156.58
534.095	35438.15
534.461	35601.31
534.826	35739.39
535.192	35902.77
535.557	36237.45
535.923	36125.59
536.288	36315.87
536.653	36432.7
537.019	36347.73
537.384	36680.38
537.749	36790.2
538.114	36995.62
538.479	37003.53
538.845	37064.55
539.21	37306.8
539.575	37417.99
539.94	37500.02
540.305	37843.96
540.67	37704.76
541.034	37975.03
541.399	38188.36
541.764	38203.05
542.129	38378.41
542.494	38376.6
542.858	38711.28
543.223	38781.11
543.587	39018.62
543.952	38921
544.316	39111.05
544.681	39078.51
545.045	39410.48
545.41	39587.19
545.774	39596.01
546.138	39605.27
546.503	39846.85
546.867	39905.15
547.231	40213.17
547.595	40207.97
547.959	40355.53
548.324	40378.59
548.688	40510.11
549.052	40728.18
549.416	40786.94
549.779	40838.23
550.143	41069.64
550.507	41455.17
550.871	41450.2
551.235	41357.32
551.599	41654.94
551.962	41802.5
552.326	41891.54
552.689	42076.62
553.053	42042.04
553.417	42157.07
553.78	42697.85
554.143	42560.45
554.507	42780.33
554.87	42929.25
555.234	43346.87
555.597	43040.44
555.96	43378.28
556.323	43552.96
556.686	43668.89
557.05	43938.72
557.413	43886.29
557.776	44092.16
558.139	44486.5
558.502	44466.61
558.865	44487.18
559.228	44758.58
559.59	44986.6
559.953	45049.2
560.316	45401.5
560.679	45472.01
561.041	45668.16
561.404	45832.91
561.767	46192.67
562.129	45928.95
562.492	46404.87
562.854	46501.14
563.217	46493.9
563.579	46758.08
563.941	47047.34
564.304	47148.35
564.666	47349.25
565.028	47383.37
565.39	47615.01
565.753	47802.57
566.115	47873.76
566.477	48047.76
566.839	48274.2
567.201	48497.92
567.563	48351.71
567.925	48782.43
568.287	48814.52
568.648	48885.71
569.01	49090.67
569.372	49337.45
569.734	49206.83
570.095	49508.06
570.457	49586.48
570.819	49713.03
571.18	49698.34
571.542	49835.51
571.903	49931.33
572.265	50187.82
572.626	50237.08
572.987	50253.58
573.349	50384.2
573.71	50513.69
574.071	50573.8
574.432	50738.99
574.794	50885.88
575.155	50919.1
575.516	50857.41
575.877	51016.05
576.238	51065.31
576.599	51204.52
576.96	51209.71
577.32	51127
577.681	51429.59
578.042	51443.15
578.403	51408.13
578.763	51453.77
579.124	51545.07
579.485	51634.56
579.845	51746.2
580.206	51775.57
580.566	51797.04
580.927	51733.09
581.287	51855.8
581.648	51808.12
582.008	51967.88
582.368	51870.49
582.728	51968.79
583.089	51851.96
583.449	51746.2
583.809	51924.27
584.169	51944.83
584.529	51959.52
584.889	52083.59
585.249	51910.94
585.609	51886.31
585.969	52080.42
586.329	51957.72
586.688	52040.65
587.048	52042.01
587.408	52028.22
587.768	52043.59
588.127	51962.69
588.487	51974.66
588.846	52165.62
589.206	52060.99
589.565	52039.75
589.925	52141.89
590.284	52023.48
590.643	52186.64
591.003	52186.64
591.362	52248.78
591.721	52102.57
592.08	52131.95
592.44	52252.4
592.799	52215.56
593.158	52198.61
593.517	52210.82
593.876	52311.6
594.235	52230.48
594.593	52237.26
594.952	52354.99
595.311	52231.15
595.67	52290.59
596.029	52500.75
596.387	52396.35
596.746	52495.55
597.104	52388.21
597.463	52358.16
597.822	52508.44
598.18	52310.25
598.538	52463.47
598.897	52447.19
599.255	52351.15
599.613	52827.75
599.972	52472.05
600.33	52657.81
600.688	52436.8
601.046	52681.54
601.404	52734.64
601.762	52699.17
602.12	52774.19
602.478	52756.56
602.836	52844.47
603.194	52751.59
603.552	52701.2
603.91	52755.66
604.268	52880.4
604.625	52731.71
604.983	52908.2
605.341	52792.72
605.698	52914.3
606.056	53091.47
606.413	52939.38
606.771	53015.09
607.128	53061.19
607.485	52960.63
607.843	53016.22
608.2	53199.94
608.557	53309.54
608.914	53083.79
609.272	53260.73
609.629	53323.78
609.986	53469.54
610.343	53297.57
610.7	53470.67
611.057	53418.92
611.414	53423.67
611.771	53499.6
612.127	53508.86
612.484	53499.14
612.841	53599.48
613.198	53469.54
613.554	53472.7
613.911	53737.33
614.267	53729.65
614.624	53686.03
614.98	53771.91
615.337	53879.93
615.693	53756.76
616.05	53802.19
616.406	53963.99
616.762	53858
617.118	53884.22
617.475	53835.41
617.831	53932.58
618.187	53966.02
618.543	54062.52
618.899	54048.06
619.255	54073.82
619.611	54013.25
619.967	54109.52
620.323	54072.46
620.678	54098.68
621.034	54009.19
621.39	54066.36
621.746	54043.99
622.101	54370.53
622.457	54055.74
622.812	54214.15
623.168	54212.8
623.523	54254.38
623.879	54306.13
624.234	54096.42
624.589	54279.91
624.945	54282.85
625.3	54208.28
625.655	54213.93
626.01	54167.38
626.365	54298.22
626.72	54123.31
627.075	54145.91
627.43	54200.37
627.785	54047.6
628.14	54151.56
628.495	54130.31
628.85	54192.23
629.205	54045.12
629.559	54216.64
629.914	53979.13
630.269	54034.27
630.623	53989.53
630.978	53927.38
631.332	54016.64
631.687	54093.93
632.041	53975.06
632.396	54013.93
632.75	53763.54
633.104	53839.02
633.459	53767.84
633.813	53761.74
634.167	53723.09
634.521	53738.69
634.875	53713.83
635.229	53731.91
635.583	53464.34
635.937	53600.38
636.291	53484.46
636.645	53511.57
636.999	53416.43
637.352	53517.9
637.706	53225.71
638.06	53498.92
638.413	53332.37
638.767	53237.91
639.121	53263.44
639.474	53129.21
639.828	53128.98
640.181	53089.44
640.534	53007.63
640.888	53048.76
641.241	52882.21
641.594	53055.99
641.947	53047.18
642.301	52953.17
642.654	52969.67
643.007	52922.89
643.36	52890.57
643.713	52855.77
644.066	52901.65
644.419	52793.17
644.771	52614.87
645.124	52232.06
645.477	52272.51
645.83	51943.03
646.182	51823.71
646.535	51726.76
646.888	51724.05
647.24	51519.54
647.593	51709.59
647.945	51606.09
648.298	51345.75
648.65	51385.75
649.002	51293.55
649.355	51498.07
649.707	51332.87
650.059	51526.09
650.411	51833.43
650.763	51871.84
651.115	52243.13
651.467	52172.4
651.819	52082.01
652.171	52007.66
652.523	52069.8
652.875	52061.44
653.227	51833.88
653.578	52004.04
653.93	51904.61
654.282	51785.74
654.633	51795.69
654.985	51684.28
655.337	51715.46
655.688	51642.24
656.039	51881.11
656.391	51615.8
656.742	51626.65
657.094	51677.05
657.445	51687.44
657.796	51632.53
658.147	51547.78
658.498	51454
658.849	51649.7
659.2	51660.77
659.551	51378.3
659.902	51616.03
660.253	51530.16
660.604	51501.91
660.955	51409.26
661.306	51503.26
661.656	51441.57
662.007	51560.21
662.358	51330.84
662.708	51323.38
663.059	51282.71
663.409	51129.04
663.76	51378.07
664.11	51286.32
664.461	51293.1
664.811	51296.72
665.161	51257.85
665.511	51169.49
665.862	51262.59
666.212	51270.05
666.562	51326.32
666.912	51230.96
667.262	51197.28
667.612	51162.93
667.962	51119.32
668.312	51074.8
668.662	51165.19
669.011	51072.99
669.361	51081.13
669.711	51027.12
670.06	51012.43
670.41	51040.45
670.76	50993.22
671.109	50861.93
671.459	50882.94
671.808	50891.53
672.157	50886.11
672.507	50730.63
672.856	50757.75
673.205	50757.97
673.554	50833.45
673.904	50710.74
674.253	50785.77
674.602	50785.32
674.951	50242.51
675.3	50129.29
675.649	50633.46
675.998	50529.05
676.346	50621.71
676.695	50630.07
677.044	50303.52
677.393	50576.74
677.741	50553.01
678.09	50444.54
678.438	50374.48
678.787	50350.07
679.135	50343.07
679.484	50137.2
679.832	50217.87
680.181	50052.23
680.529	50228.95
680.877	49990.54
681.225	50055.17
681.573	50278.21
681.922	50017.65
682.27	49841.84
682.618	49833.93
682.966	49708.96
683.314	49758
683.661	49845.23
684.009	49609.53
684.357	49462.64
684.705	49412.7
685.053	49510.1
685.4	49341.51
685.748	49214.74
686.095	49153.04
686.443	49037.57
686.79	48892.26
687.138	49028.98
687.485	49017
687.832	48828.98
688.18	48871.24
688.527	48678.71
688.874	48580.86
689.221	48498.37
689.568	48389.9
689.915	48298.15
690.262	48441.42
690.609	48264.25
690.956	48041.21
691.303	48054.99
691.65	47907.2
691.997	47817.94
692.344	47626.98
692.69	47633.76
693.037	47550.6
693.383	47239.65
693.73	47532.52
694.077	47131.85
694.423	47097.5
694.769	46969.15
695.116	46962.37
695.462	46851.41
695.808	46787.23
696.155	46931.63
696.501	46458.2
696.847	46478.09
697.193	46253.91
697.539	46249.62
697.885	46099.34
698.231	45854.37
698.577	45852.79
698.923	45954.26
699.269	45532.57
699.614	45523.99
699.96	45446.7
700.306	45396.53
700.651	45223.2
700.997	45006.49
701.342	44945.92
701.688	44991.35
702.033	44733.72
702.379	44852.59
702.724	44711.8
703.069	44705.7
703.415	44158.82
703.76	44288.76
704.105	44184.36
704.45	44225.49
704.795	43981.65
705.14	43833.41
705.485	43778.5
705.83	43563.36
706.175	43722.9
706.52	43508.22
706.865	43354.1
707.209	43404.04
707.554	43148.91
707.899	43267.32
708.243	43020.78
708.588	42989.82
708.932	42734
709.277	42686.55
709.621	42781.69
709.966	42414.69
710.31	42594.12
710.654	42116.62
710.998	42231.87
711.342	42145.54
711.687	42214.92
712.031	41897.64
712.375	41707.82
712.719	41734.48
713.063	41602.73
713.407	41816.74
713.75	41473.7
714.094	41587.37
714.438	41275.96
714.782	41440.7
715.125	41149.86
715.469	41303.53
715.812	41020.6
716.156	40878.23
716.499	40930.66
716.843	40962.07
717.186	40730.21
717.53	40866.71
717.873	40929.08
718.216	40764.11
718.559	40455.87
718.902	40285.03
719.246	40454.06
719.589	40230.34
719.932	40095.65
720.275	40175.88
720.617	40088.42
720.96	39992.38
721.303	39953.06
721.646	39812.05
721.989	39618.83
722.331	39823.8
722.674	39468.55
723.016	39655.67
723.359	39510.36
723.701	39537.25
724.044	39319.86
724.386	39058.85
724.729	39319.18
725.071	39204.38
725.413	39152.63
725.755	39153.98
726.097	39006.64
726.439	38831.28
726.782	38790.6
727.124	38881.45
727.465	38641.46
727.807	38649.82
728.149	38504.06
728.491	38375.02
728.833	38482.82
729.175	38229.94
729.516	38150.4
729.858	38161.02
730.199	38176.84
730.541	38164.86
730.882	38103.84
731.224	38098.65
731.565	37821.59
731.906	37892.55
732.248	37899.55
732.589	37671.31
732.93	37561.03
733.271	37621.14
733.612	37648.26
733.953	37576.62
734.294	37424.76
734.635	37350.64
734.976	37357.42
735.317	37069.75
735.658	37139.57
735.999	37166.92
736.339	37169.18
736.68	37115.85
737.021	37028.39
737.361	36805.57
737.702	36953.14
738.042	36787.49
738.383	36688.29
738.723	36845.8
739.063	36570.32
739.404	36706.82
739.744	36471.34
740.084	36374.62
740.424	36526.94
740.764	36312.03
741.104	36448.07
741.444	36172.59
741.784	36165.36
742.124	36265.7
742.464	36090.56
742.804	36065.48
743.143	35993.39
743.483	35966.5
743.823	35762.89
744.162	35766.28
744.502	35721.98
744.841	35613.06
745.181	35697.8
745.52	35576.23
745.86	35484.7
746.199	35443.57
746.538	35429.11
746.877	35495.78
747.216	35370.81
747.556	35268.44
747.895	35160.42
748.234	35099.18
748.573	34952.74
748.911	34965.62
749.25	34839.3
749.589	34821.67
749.928	34882.68
750.267	34825.96
750.605	34613.31
750.944	34623.26
751.283	34362.92
751.621	34400.89
751.96	34311.17
752.298	34348.01
752.636	34188.01
752.975	34056.49
753.313	33950.51
753.651	34019.88
753.989	33786.67
754.327	33701.25
754.666	33705.54
755.004	33556.62
755.342	33638.65
755.679	33639.1
756.017	33275.95
756.355	33344.42
756.693	33264.87
757.031	33317.75
757.368	33061.72
757.706	33079.79
758.044	32862.62
758.381	32884.32
758.719	32706.02
759.056	32781.72
759.394	32560.03
759.731	32319.36
760.068	32324.79
760.405	32326.82
760.743	32190.78
761.08	32321.62
761.417	32050.89
761.754	31937.68
762.091	31938.58
762.428	31869.66
762.765	31591.92
763.102	31842.09
763.438	31556.44
763.775	31387.86
764.112	31346.28
764.449	31407.97
764.785	31041.43
765.122	30995.78
765.458	30914.65
765.795	30811.83
766.131	30885.73
766.467	30760.98
766.804	30528.45
767.14	30360.77
767.476	30322.58
767.812	30283.26
768.148	30191.28
768.485	30069.03
768.821	29924.17
769.157	29823.61
769.492	29700.45
769.828	29743.61
770.164	29399.66
770.5	29365.54
770.836	29294.36
771.171	29221.82
771.507	29197.64
771.842	28886.01
772.178	28942.5
772.513	28878.32
772.849	28644.66
773.184	28624.09
773.519	28616.63
773.855	28454.15
774.19	28382.29
774.525	28231.56
774.86	28219.13
775.195	28024.56
775.53	27980.95
775.865	27769.43
776.2	27647.17
776.535	27510.67
776.87	27407.17
777.205	27394.52
777.539	27232.49
777.874	27217.12
778.209	27027.75
778.543	26969.67
778.878	26851.26
779.212	26841.31
779.547	26691.04
779.881	26635.22
780.215	26416.24
780.55	26643.35
780.884	26332.17
781.218	26272.74
781.552	26265.28
781.886	26027.55
782.22	25948.46
782.554	25802.7
782.888	25742.59
783.222	25602.25
783.556	25546.66
783.889	25437.06
784.223	25253.56
784.557	25126.78
784.89	25280.68
785.224	25150.06
785.557	24959.33
785.891	24888.37
786.224	24785.32
786.558	24807.02
786.891	24501.04
787.224	24442.51
787.557	24354.6
787.891	24288.16
788.224	24282.74
788.557	24284.55
788.89	24168.39
789.223	24068.73
789.556	23903.99
789.888	23843.43
790.221	23804.11
790.554	23549.88
790.887	23657.67
791.219	23530.89
791.552	23443.44
791.884	23285.02
792.217	23275.98
792.549	23253.84
792.882	23076.89
793.214	22924.35
793.546	23082.54
793.879	22898.14
794.211	22756.68
794.543	22772.72
794.875	22762.55
795.207	22734.53
795.539	22565.72
795.871	22583.12
796.203	22264.94
796.535	22158.95
796.867	22210.7
797.198	22171.83
797.53	22098.84
797.862	21922.57
798.193	21962.57
798.525	21771.62
798.856	21906.75
799.188	21572.75
799.519	21606.88
799.85	21364.4
800.182	21492.75
800.513	21366.88
800.844	21307.67
801.175	21389.25
801.506	21292.76
801.837	21280.78
802.168	21123.27
802.499	21030.62
802.83	20920.34
803.161	20869.72
803.491	20821.81
803.822	20754.92
804.153	20711.98
804.483	20571.42
804.814	20556.06
805.145	20490.75
805.475	20536.17
805.805	20351.77
806.136	20335.5
806.466	20373.69
806.796	20256.63
807.126	20156.52
807.457	20044.43
807.787	20029.97
808.117	20038.33
808.447	19983.87
808.777	19915.62
809.107	19904.55
809.436	19823.65
809.766	19705
810.096	19663.2
810.426	19578
810.755	19569.41
811.085	19454.62
811.414	19431.11
811.744	19332.13
812.073	19234.51
812.403	19297.56
812.732	19212.36
813.061	19094.85
813.39	19039.94
813.719	18968.53
814.049	19109.09
814.378	19057.34
814.707	18833.39
815.036	18850.11
815.365	18699.61
815.693	18670
816.022	18732.83
816.351	18635.65
816.68	18488.54
817.008	18527.63
817.337	18362.21
817.665	18418.94
817.994	18426.39
818.322	18333.06
818.651	18167.87
818.979	18138.04
819.307	18204.93
819.636	18076.8
819.964	18003.35
820.292	18079.74
820.62	18082.9
820.948	18104.37
821.276	18006.29
821.604	18075.44
821.932	18093.3
822.259	18204.03
822.587	17966.97
822.915	18023.01
823.243	18026.18
823.57	17950.25
823.898	17975.11
824.225	17847.88
824.553	17940.08
824.88	17966.75
825.207	18003.35
825.535	17870.25
825.862	17966.52
826.189	17851.04
826.516	17962
826.843	17928.1
827.17	17964.03
827.497	17901.66
827.824	17998.16
828.151	17886.52
828.478	17985.5
828.805	18050.58
829.131	17856.69
829.458	17896.01
829.785	17879.52
830.111	17891.04
830.438	17990.47
830.764	17886.75
831.09	17936.92
831.417	17743.7
831.743	17954.77
832.069	17804.26
832.395	17761.1
832.722	17793.87
833.048	17816.01
833.374	17831.16
833.7	17583.48
834.026	17739.41
834.351	17655.79
834.677	17746.41
835.003	17776.92
835.329	17652.86
835.654	17620.31
835.98	17522.91
836.306	17584.83
836.631	17467.32
836.956	17579.64
837.282	17508.45
837.607	17336.25
837.932	17305.97
838.258	17373.09
838.583	17324.5
838.908	17174.22
839.233	17291.28
839.558	17150.72
839.883	17080.44
840.208	17104.85
840.533	17131.06
840.858	17166.09
841.182	17118.63
841.507	17103.04
841.832	16944.17
842.156	16905.98
842.481	16941.91
842.805	16962.03
843.13	16824.18
843.454	16828.92
843.778	16724.97
844.103	16689.26
844.427	16649.72
844.751	16638.42
845.075	16614.69
845.399	16602.49
845.723	16509.16
846.047	16625.54
846.371	16224.87
846.695	16299.67
847.019	16206.11
847.343	16157.75
847.666	15985.1
847.99	15921.83
848.313	15979.68
848.637	15832.11
848.96	15839.8
849.284	15797.99
849.607	15559.8
849.931	15657.88
850.254	15465.12
850.577	15445.68
850.9	15338.34
851.223	15318.91
851.546	15317.55
851.869	15090.21
852.192	15245.46
852.515	15022.87
852.838	15049.76
853.161	15015.86
853.483	14997.11
853.806	14845.25
854.129	14915.98
854.451	14819.03
854.774	14765.93
855.096	14711.24
855.419	14614.97
855.741	14621.52
856.063	14554.63
856.385	14438.7
856.708	14461.07
857.03	14407.74
857.352	14412.71
857.674	14363
857.996	14274.64
858.318	14260.85
858.64	14269.89
858.961	14162.1
859.283	14102.21
859.605	14051.82
859.926	14069.67
860.248	14007.53
860.57	13979.96
860.891	13957.58
861.212	13896.34
861.534	13843.92
861.855	13844.59
862.176	13861.09
862.498	13913.29
862.819	13734.77
863.14	13709
863.461	13679.85
863.782	13571.83
864.103	13686.18
864.424	13600.08
864.745	13620.19
865.065	13605.96
865.386	13490.48
865.707	13505.39
866.027	13505.39
866.348	13456.13
866.668	13398.96
866.989	13323.03
867.309	13252.07
867.63	13268.11
867.95	13349.01
868.27	13175.46
868.59	13189.92
868.91	13253.65
869.23	13186.31
869.55	13111.96
869.87	13157.83
870.19	13165.74
870.51	13115.57
870.83	13064.95
871.15	13049.13
871.469	12981.79
871.789	13076.93
872.109	12989.47
872.428	12942.02
872.748	12965.75
873.067	12992.19
873.386	12861.34
873.706	12911.74
874.025	12857.05
874.344	12772.53
874.663	12807.78
874.982	12777.95
875.301	12757.62
875.62	12679.2
875.939	12658.41
876.258	12675.58
876.577	12648.69
876.896	12690.95
877.214	12590.84
877.533	12679.65
877.852	12578.19
878.17	12609.6
878.489	12541.8
878.807	12610.73
879.125	12486.66
879.444	12493.44
879.762	12471.3
880.08	12358.76
880.398	12428.13
880.716	12403.28
881.034	12341.13
881.352	12284.41
881.67	12300
881.988	12304.97
882.306	12306.78
882.624	12262.26
882.941	12182.26
883.259	12239.66
883.577	12147.92
883.894	12137.29
884.212	12136.16
884.529	12154.24
884.846	12044.87
885.164	12057.97
885.481	11929.39
885.798	11929.84
886.115	11994.92
886.432	11980.01
886.75	11917.86
887.067	11926.23
887.383	11842.39
887.7	11827.02
888.017	11815.04
888.334	11813.69
888.651	11700.92
888.967	11688.49
889.284	11657.98
889.6	11583.86
889.917	11524.2
890.233	11518.78
890.55	11518.1
890.866	11484.88
891.182	11403.75
891.498	11436.75
891.815	11432.91
892.131	11304.32
892.447	11272.91
892.763	11246.24
893.079	11266.58
893.395	11214.83
893.71	11176.64
894.026	11108.17
894.342	11136.42
894.657	11011
894.973	11062.52
895.289	11056.42
895.604	11027.27
895.92	10925.57
896.235	10920.38
896.55	10888.51
896.865	10884.22
897.181	10788.63
897.496	10838.12
897.811	10697.78
898.126	10653.72
898.441	10618.69
898.756	10598.35
899.071	10510.67
899.386	10549.76
899.7	10489.43
900.015	10391.58
900.33	10441.29
900.644	10408.53
900.959	10329.21
901.273	10305.7
901.588	10258.7
901.902	10242.2
902.216	10188.42
902.531	10164.92
902.845	10051.92
903.159	10038.82
903.473	10016.22
903.787	9954.07
904.101	9906.62
904.415	9893.96
904.729	9808.99
905.042	9792.72
905.356	9797.24
905.67	9779.84
905.984	9764.25
906.297	9636.79
906.611	9618.49
906.924	9626.85
907.237	9557.93
907.551	9496.46
907.864	9483.8
908.177	9466.18
908.491	9415.78
908.804	9408.55
909.117	9343.02
909.43	9295.56
909.743	9256.01
910.056	9215.34
910.368	9182.8
910.681	9163.13
910.994	9051.05
911.307	9073.65
911.619	9031.39
911.932	9044.49
912.244	8930.6
912.557	8943.48
912.869	8873.65
913.181	8873.2
913.494	8816.7
913.806	8735.35
914.118	8755.46
914.43	8729.47
914.742	8692.19
915.054	8613.77
915.366	8608.12
915.678	8599.99
915.99	8522.25
916.302	8503.04
916.613	8429.14
916.925	8442.25
917.236	8380.78
917.548	8361.35
917.859	8364.96
918.171	8251.97
918.482	8245.64
918.794	8210.39
919.105	8270.95
919.416	8136.72
919.727	8099.89
920.038	8053.79
920.349	8045.88
920.66	7959.78
920.971	7972.66
921.282	7972.88
921.593	7876.39
921.903	7798.2
922.214	7784.64
922.525	7788.03
922.835	7752.55
923.146	7720.46
923.456	7745.54
923.767	7676.85
924.077	7716.39
924.387	7642.5
924.697	7555.72
925.008	7512.78
925.318	7500.58
925.628	7455.38
925.938	7416.97
926.248	7395.72
926.558	7347.59
926.867	7310.08
927.177	7297.2
927.487	7285.9
927.796	7209.74
928.106	7186.69
928.416	7120.25
928.725	7154.83
929.034	7122.96
929.344	7129.29
929.653	7062.17
929.962	7030.54
930.271	6985.34
930.581	6942.18
930.89	6884.1
931.199	6885.45
931.508	6899.01
931.817	6837.77
932.125	6912.57
932.434	6823.54
932.743	6737.21
933.051	6705.57
933.36	6664.67
933.669	6637.55
933.977	6595.29
934.286	6596.87
934.594	6622.41
934.902	6568.85
935.21	6480.72
935.519	6428.74
935.827	6432.13
936.135	6419.48
936.443	6382.87
936.751	6373.15
937.059	6309.42
937.367	6289.99
937.674	6301.52
937.982	6295.64
938.29	6267.39
938.597	6241.18
938.905	6169.99
939.213	6159.6
939.52	6127.28
939.827	6169.54
940.135	6077.11
940.442	6047.28
940.749	6039.38
941.056	6012.26
941.363	5965.93
941.67	5948.3
941.977	5906.95
942.284	5920.28
942.591	5824.01
942.898	5842.09
943.205	5845.26
943.511	5748.99
943.818	5756.22
944.125	5730
944.431	5717.8
944.738	5741.76
945.044	5670.12
945.35	5627.41
945.657	5633.51
945.963	5596.22
946.269	5561.2
946.575	5545.83
946.881	5564.13
947.187	5525.04
947.493	5488.43
947.799	5449.79
948.105	5453.18
948.41	5354.42
948.716	5429.22
949.022	5408.88
949.327	5364.14
949.633	5328.21
949.938	5278.72
950.244	5303.58
950.549	5248.44
950.854	5259.73
951.16	5160.3
951.465	5210.02
951.77	5139.29
952.075	5168.44
952.38	5120.76
952.685	5108.1
952.99	5089.12
953.294	5036.46
953.599	5003.92
953.904	4971.83
954.209	4936.58
954.513	5012.96
954.818	4906.75
955.122	4907.88
955.426	4869.01
955.731	4841.21
956.035	4827.88
956.339	4811.16
956.643	4788.79
956.948	4764.38
957.252	4770.93
957.556	4697.94
957.86	4723.25
958.163	4645.51
958.467	4681.44
958.771	4634.67
959.075	4597.83
959.378	4595.8
959.682	4635.34
959.985	4560.32
960.289	4571.17
960.592	4510.6
960.896	4508.12
961.199	4490.04
961.502	4471.05
961.805	4454.11
962.108	4447.78
962.411	4427.67
962.714	4380.21
963.017	4344.5
963.32	4376.59
963.623	4336.14
963.926	4303.83
964.228	4240.1
964.531	4283.94
964.833	4304.51
965.136	4253.89
965.438	4233.32
965.741	4225.86
966.043	4168.01
966.345	4155.81
966.648	4164.62
966.95	4131.85
967.252	4122.14
967.554	4111.52
967.856	4094.79
968.158	4012.99
968.46	4041.91
968.761	4037.39
969.063	3978.86
969.365	3988.13
969.666	3990.84
969.968	3915.59
970.269	3934.35
970.571	3909.71
970.872	3903.84
971.174	3840.79
971.475	3862.94
971.776	3861.13
972.077	3807.57
972.378	3789.49
972.679	3822.03
972.98	3764.86
973.281	3778.87
973.582	3762.82
973.883	3720.11
974.183	3699.78
974.484	3697.29
974.785	3633.34
975.085	3689.15
975.386	3642.15
975.686	3579.55
975.986	3596.05
976.287	3598.76
976.587	3581.13
976.887	3569.84
977.187	3546.56
977.487	3513.79
977.787	3525.09
978.087	3492.78
978.387	3491.87
978.687	3451.65
978.987	3488.26
979.286	3458.88
979.586	3434.92
979.885	3396.51
980.185	3364.19
980.484	3387.69
980.784	3363.74
981.083	3387.69
981.382	3334.81
981.682	3341.82
981.981	3268.37
982.28	3293.68
982.579	3291.88
982.878	3234.93
983.177	3248.26
983.475	3254.82
983.774	3247.81
984.073	3235.83
984.372	3196.96
984.67	3186.57
984.969	3203.52
985.267	3148.38
985.566	3128.72
985.864	3134.14
986.162	3091.2
986.461	3088.49
986.759	3085.1
987.057	3021.38
987.355	3014.6
987.653	3008.49
987.951	3013.47
988.249	3048.95
988.547	2988.16
988.844	2983.18
989.142	2961.26
989.44	2992.22
989.737	2911.1
990.035	2897.31
990.332	2948.16
990.63	2860.48
990.927	2886.46
991.224	2843.75
991.521	2835.17
991.819	2859.12
992.116	2849.4
992.413	2811.66
992.71	2806.69
993.006	2756.75
993.303	2776.41
993.6	2766.47
993.897	2757.43
994.193	2751.1
994.49	2721.72
994.787	2695.73
995.083	2659.12
995.379	2693.47
995.676	2645.57
995.972	2617.54
996.268	2660.71
996.565	2599.69
996.861	2634.94
997.157	2593.59
997.453	2557.88
997.749	2545.23
998.044	2526.25
998.34	2552.24
998.636	2522.41
998.932	2521.73
999.227	2508.62
999.523	2492.35
999.818	2483.76
1000.114	2426.81
1000.409	2432.92
1000.704	2418.68
1001	2378.91
1001.295	2403.54
1001.59	2356.53
1001.885	2403.54
1002.18	2367.61
1002.475	2369.42
1002.77	2322.18
1003.065	2330.32
1003.359	2301.85
1003.654	2282.86
1003.949	2284.22
1004.243	2255.75
1004.538	2279.02
1004.832	2239.48
1005.127	2223.66
1005.421	2213.49
1005.715	2209.19
1006.009	2186.14
1006.304	2165.13
1006.598	2140.72
1006.892	2162.64
1007.186	2142.08
1007.48	2149.31
1007.773	2126.26
1008.067	2093.04
1008.361	2131.46
1008.655	2079.48
1008.948	2049.2
1009.242	2058.46
1009.535	2069.08
1009.829	2023.89
1010.122	2017.79
1010.415	2029.99
1010.708	2004.23
1011.001	1987.73
1011.295	1981.63
1011.588	1982.98
1011.881	1962.19
1012.173	1946.38
1012.466	1935.53
1012.759	1918.35
1013.052	1905.92
1013.344	1881.29
1013.637	1902.53
1013.93	1871.35
1014.222	1848.98
1014.514	1869.32
1014.807	1816.89
1015.099	1826.83
1015.391	1801.75
1015.683	1811.92
1015.976	1799.94
1016.268	1790
1016.56	1776.44
1016.851	1750
1017.143	1772.14
1017.435	1744.57
1017.727	1731.69
1018.018	1712.71
1018.31	1712.03
1018.602	1694.63
1018.893	1701.86
1019.185	1691.92
1019.476	1669.55
1019.767	1664.35
1020.058	1628.19
1020.35	1653.28
1020.641	1615.31
1020.932	1610.34
1021.223	1598.14
1021.514	1579.83
1021.804	1589.55
1022.095	1535.99
1022.386	1556.56
1022.677	1549.55
1022.967	1547.52
1023.258	1494.64
1023.548	1503.68
1023.839	1481.08
1024.129	1482.88
1024.419	1507.74
1024.709	1479.95
1025	1466.84
1025.29	1447.41
1025.58	1453.51
1025.87	1425.94
1026.16	1418.93
1026.449	1399.95
1026.739	1395.43
1027.029	1392.04
1027.319	1384.36
1027.608	1393.17
1027.898	1370.35
1028.187	1344.81
1028.477	1358.14
1028.766	1375.77
1029.055	1332.83
1029.344	1310.23
1029.634	1311.82
1029.923	1314.75
1030.212	1303.23
1030.501	1310.91
1030.79	1291.03
1031.078	1265.49
1031.367	1268.2
1031.656	1248.31
1031.945	1234.76
1032.233	1210.8
1032.522	1248.54
1032.81	1210.8
1033.099	1211.25
1033.387	1227.07
1033.675	1195.89
1033.963	1180.29
1034.251	1183.91
1034.54	1161.09
1034.828	1182.78
1035.116	1155.89
1035.403	1157.47
1035.691	1134.65
1035.979	1135.32
1036.267	1121.54
1036.554	1113.63
1036.842	1112.95
1037.129	1085.61
1037.417	1112.27
1037.704	1077.02
1037.992	1091.93
1038.279	1067.75
1038.566	1060.97
1038.853	1060.97
1039.14	1060.97
