Data from breadboard_white_FLMS001491_00062.txt Node
Date: Wed Feb 08 10:48:05 GMT 2017
User: dcchb
Spectrometer: FLMS00149
Trigger mode: 0
Integration Time (sec): 2.000000E-2
Scans to average: 10
Electric dark correction enabled: true
Nonlinearity correction enabled: false
Boxcar width: 0
XAxis mode: Wavelengths
Number of Pixels in Spectrum: 2048
>>>>>Begin Spectral Data<<<<<
341.393	-7.26
341.776	-7.26
342.16	-7.26
342.543	-70.99
342.927	-64.89
343.31	-64.66
343.693	-87.71
344.077	-69.18
344.46	-63.53
344.843	-59.24
345.226	-33.25
345.61	-13.14
345.993	-19.24
346.376	-9.07
346.759	16.24
347.142	35.23
347.525	34.77
347.908	52.4
348.291	71.61
348.674	84.04
349.057	124.71
349.44	131.49
349.823	147.31
350.206	172.17
350.588	218.27
350.971	225.05
351.354	223.24
351.737	261.66
352.119	258.95
352.502	265.05
352.884	283.58
353.267	305.05
353.65	295.33
354.032	310.7
354.414	331.04
354.797	323.35
355.179	333.52
355.562	333.3
355.944	330.81
356.326	350.7
356.709	363.58
357.091	361.54
357.473	364.71
357.855	354.54
358.238	363.35
358.62	390.47
359.002	352.96
359.384	355.67
359.766	354.76
360.148	337.14
360.53	363.8
360.912	358.61
361.294	368.55
361.676	340.3
362.057	359.28
362.439	333.52
362.821	339.62
363.203	375.1
363.584	353.63
363.966	358.38
364.348	353.18
364.729	354.76
365.111	346.18
365.493	337.59
365.874	344.82
366.256	352.05
366.637	333.52
367.019	352.5
367.4	344.14
367.781	357.48
368.163	345.27
368.544	343.01
368.925	343.01
369.306	331.04
369.688	360.87
370.069	329
370.45	343.24
370.831	332.39
371.212	348.66
371.593	347.08
371.974	361.32
372.355	341.88
372.736	362.22
373.117	348.21
373.498	342.56
373.879	348.66
374.26	350.25
374.641	351.15
375.021	342.56
375.402	371.04
375.783	368.55
376.163	358.38
376.544	379.17
376.925	377.14
377.305	378.27
377.686	377.14
378.066	385.27
378.447	376.46
378.827	348.44
379.208	373.3
379.588	389.34
379.968	382.11
380.349	396.8
380.729	390.92
381.109	385.27
381.489	391.83
381.87	389.79
382.25	394.54
382.63	412.84
383.01	399.06
383.39	410.58
383.77	425.72
384.15	413.29
384.53	413.07
384.91	426.63
385.29	424.37
385.67	427.08
386.049	438.6
386.429	417.59
386.809	441.54
387.189	454.88
387.568	458.49
387.948	459.39
388.328	450.36
388.707	456.46
389.087	453.07
389.466	463.69
389.846	451.49
390.225	472.5
390.605	475.67
390.984	464.37
391.363	483.8
391.743	481.09
392.122	484.7
392.501	497.81
392.881	519.05
393.26	523.35
393.639	524.48
394.018	508.43
394.397	505.5
394.776	523.35
395.155	538.26
395.534	543.69
395.913	525.83
396.292	541.2
396.671	545.95
397.05	576.45
397.429	583.46
397.808	591.37
398.186	590.69
398.565	578.94
398.944	603.12
399.323	607.64
399.701	601.09
400.08	591.59
400.458	614.19
400.837	622.33
401.215	640.86
401.594	642.89
401.972	648.54
402.351	643.8
402.729	688.09
403.107	712.95
403.486	704.59
403.864	718.82
404.242	718.37
404.62	724.25
404.999	735.32
405.377	744.36
405.755	754.53
406.133	762.21
406.511	767.18
406.889	791.82
407.267	847.41
407.645	828.65
408.023	838.82
408.401	861.19
408.779	850.34
409.156	890.34
409.534	875.88
409.912	892.83
410.29	936.9
410.667	944.81
411.045	983.45
411.422	984.13
411.8	982.32
412.178	1012.83
412.555	1057.12
412.933	1057.8
413.31	1054.18
413.687	1089.89
414.065	1081.98
414.442	1105.25
414.819	1140.51
415.197	1159.04
415.574	1182.54
415.951	1194.06
416.328	1194.06
416.705	1217.79
417.082	1266.38
417.46	1265.02
417.837	1275.64
418.214	1295.3
418.591	1301.63
418.967	1323.55
419.344	1305.47
419.721	1356.09
420.098	1317
420.475	1384.34
420.852	1390.44
421.228	1390.22
421.605	1442.87
421.982	1449.65
422.358	1461.85
422.735	1487.84
423.111	1503.21
423.488	1542.3
423.864	1522.19
424.241	1541.85
424.617	1581.17
424.994	1549.31
425.37	1617.1
425.746	1618.46
426.123	1641.96
426.499	1627.95
426.875	1678.12
427.251	1680.83
427.627	1716.31
428.003	1750.66
428.379	1789.08
428.756	1775.52
429.132	1828.17
429.507	1868.85
429.883	1893.48
430.259	1884.22
430.635	1906.59
431.011	1913.37
431.387	1989.3
431.763	2012.57
432.138	2042.86
432.514	2071.56
432.89	2060.93
433.265	2129.63
433.641	2144.32
434.016	2151.1
434.392	2196.07
434.767	2238.1
435.143	2253.92
435.518	2260.7
435.894	2306.13
436.269	2345.9
436.644	2371.66
437.02	2426.57
437.395	2403.75
437.77	2435.84
438.145	2482.17
438.52	2502.5
438.895	2488.72
439.271	2533.24
439.646	2582.28
440.021	2578.66
440.395	2615.27
440.77	2583.86
441.145	2650.3
441.52	2700.92
441.895	2682.39
442.27	2730.97
442.645	2731.2
443.019	2763.51
443.394	2735.95
443.769	2793.12
444.143	2806.9
444.518	2868.37
444.892	2832.21
445.267	2852.55
445.641	2877.64
446.016	2888.94
446.39	2935.04
446.764	2968.26
447.139	2951.31
447.513	3000.12
447.887	3022.49
448.262	3025.88
448.636	3052.77
449.01	3103.84
449.384	3098.42
449.758	3154.47
450.132	3187.68
450.506	3212.77
450.88	3218.42
451.254	3205.54
451.628	3295.25
452.002	3321.92
452.376	3387.45
452.75	3358.53
453.123	3407.57
453.497	3461.12
453.871	3501.57
454.244	3550.39
454.618	3554.45
454.992	3652.98
455.365	3629.25
455.739	3730.04
456.112	3739.99
456.486	3784.73
456.859	3825.63
457.232	3920.32
457.606	3875.35
457.979	3940.21
458.352	4045.74
458.725	4062.69
459.099	4103.14
459.472	4184.04
459.845	4226.53
460.218	4279.63
460.591	4293.87
460.964	4375.9
461.337	4476.92
461.71	4506.52
462.083	4622
462.456	4561.21
462.829	4598.95
463.201	4678.72
463.574	4688.89
463.947	4739.06
464.32	4904.48
464.692	4893.4
465.065	4964.14
465.438	5018.6
465.81	5118.71
466.183	5200.96
466.555	5297.69
466.928	5247.52
467.3	5299.49
467.672	5410.9
468.045	5532.26
468.417	5501.97
468.789	5555.98
469.161	5647.05
469.534	5781.74
469.906	5868.97
470.278	5936.31
470.65	5980.61
471.022	6100.38
471.394	6190.77
471.766	6242.29
472.138	6343.31
472.51	6489.97
472.882	6555.05
473.253	6685.45
473.625	6792.79
473.997	6871.88
474.369	6948.49
474.74	7005.21
475.112	7186.22
475.484	7305.54
475.855	7415.6
476.227	7461.47
476.598	7657.62
476.97	7784.17
477.341	7978.52
477.713	8021.91
478.084	8057.39
478.455	8298.06
478.827	8367.66
479.198	8632.97
479.569	8625.28
479.94	8923.58
480.311	8967.65
480.682	9146.85
481.053	9422.55
481.424	9547.29
481.795	9598.36
482.166	9790.9
482.537	9860.05
482.908	10086.94
483.279	10212.36
483.65	10363.99
484.021	10582.74
484.391	10675.4
484.762	10841.72
485.133	10922.85
485.503	11083.07
485.874	11295.49
486.244	11356.28
486.615	11661.59
486.985	11777.29
487.356	12022.93
487.726	12117.62
488.097	12309.25
488.467	12399.87
488.837	12676.25
489.207	12871.05
489.578	12953.98
489.948	13018.39
490.318	13348.77
490.688	13339.28
491.058	13551.71
491.428	13788.76
491.798	13814.3
492.168	14122.54
492.538	14193.72
492.908	14360.27
493.278	14568.85
493.648	14567.72
494.017	14786.93
494.387	14970.43
494.757	15100.14
495.126	15228.5
495.496	15307.59
495.866	15395.27
496.235	15633.01
496.605	15795.26
496.974	15829.16
497.344	15970.17
497.713	16046.1
498.082	16160.45
498.452	16418.52
498.821	16494.23
499.19	16505.75
499.559	16712.07
499.928	16865.97
500.298	16896.7
500.667	17150.26
501.036	17105.51
501.405	17338.5
501.774	17307.77
502.143	17502.79
502.512	17549.11
502.88	17730.58
503.249	17797.92
503.618	18003.57
503.987	18161.3
504.356	18281.52
504.724	18351.13
505.093	18384.57
505.462	18569.43
505.83	18728.52
506.199	18834.73
506.567	19070.66
506.936	19040.6
507.304	19169.19
507.672	19342.06
508.041	19554.49
508.409	19682.62
508.777	19836.51
509.145	20007.58
509.514	19963.51
509.882	20149.27
510.25	20256.16
510.618	20425.2
510.986	20451.64
511.354	20710.84
511.722	20929.36
512.09	21052.07
512.458	21043.94
512.826	21302.46
513.193	21436.7
513.561	21563.25
513.929	21703.81
514.297	21871.04
514.664	22074.87
515.032	22154.64
515.4	22336.56
515.767	22386.95
516.135	22620.39
516.502	22502.88
516.869	22883.44
517.237	23110.1
517.604	23154.39
517.972	23232.81
518.339	23571.78
518.706	23613.59
519.073	23786.46
519.44	23939.68
519.808	24155.04
520.175	24321.37
520.542	24522.26
520.909	24692.88
521.276	24643.39
521.643	24995.92
522.009	25228.23
522.376	25298.29
522.743	25390.49
523.11	25788.9
523.477	26015.56
523.843	26229.56
524.21	26402.22
524.577	26664.13
524.943	26783.67
525.31	26990.67
525.676	27169.2
526.043	27314.06
526.409	27617.55
526.776	27761.95
527.142	27935.06
527.508	28059.8
527.874	28318.32
528.241	28370.98
528.607	28519.9
528.973	28864.3
529.339	28822.94
529.705	29235.81
530.071	29387.9
530.437	29503.38
530.803	29672.41
531.169	29943.37
531.535	29884.84
531.901	30003.48
532.267	30250.02
532.632	30393.75
532.998	30559.17
533.364	30813.17
533.73	30772.72
534.095	31136.55
534.461	31053.62
534.826	31426.26
535.192	31537.67
535.557	31650.44
535.923	31698.12
536.288	31841.62
536.653	31934.95
537.019	31921.84
537.384	32239.12
537.749	32250.88
538.114	32376.75
538.479	32476.18
538.845	32541.04
539.21	32578.55
539.575	32793.69
539.94	32985.55
540.305	33155.94
540.67	32993
541.034	33313.22
541.399	33464.85
541.764	33397.74
542.129	33543.27
542.494	33590.05
542.858	33954.79
543.223	33848.8
543.587	34154.33
543.952	34132.18
544.316	34300.31
544.681	34217.6
545.045	34543.24
545.41	34727.42
545.774	34890.81
546.138	34908.21
546.503	35017.13
546.867	34978.04
547.231	35293.28
547.595	35305.48
547.959	35410.34
548.324	35492.15
548.688	35679.03
549.052	35780.27
549.416	35863.66
549.779	35900.72
550.143	35901.85
550.507	36305.91
550.871	36180.04
551.235	36385
551.599	36514.04
551.962	36798.33
552.326	36758.78
552.689	37097.75
553.053	36861.15
553.417	37002.39
553.78	37521.92
554.143	37311.76
554.507	37545.65
554.87	37731.86
555.234	38199.19
555.597	37980.89
555.96	38036.71
556.323	38331.62
556.686	38454.78
557.05	38631.95
557.413	38774.09
557.776	38830.36
558.139	39099.06
558.502	39229
558.865	39297.02
559.228	39558.25
559.59	39659.72
559.953	39783.78
560.316	40035.98
560.679	40029.88
561.041	40404.33
561.404	40593.71
561.767	40719.58
562.129	40827.82
562.492	41236.85
562.854	41136.74
563.217	41102.85
563.579	41464.19
563.941	41596.84
564.304	41818.99
564.666	41924.52
565.028	42237.96
565.39	42229.82
565.753	42449.03
566.115	42635.01
566.477	42766.98
566.839	42851.95
567.201	43093.08
567.563	43239.06
567.925	43482.22
568.287	43432.95
568.648	43557.24
569.01	43817.58
569.372	44033.62
569.734	43984.35
570.095	44309.32
570.457	44468.86
570.819	44540.27
571.18	44531.46
571.542	44770.32
571.903	44858.91
572.265	45050.31
572.626	45180.48
572.987	45133.93
573.349	45256.63
573.71	45405.56
574.071	45541.6
574.432	45696.17
574.794	45893.23
575.155	45862.49
575.516	45811.42
575.877	46054.13
576.238	46085.54
576.599	46283.95
576.96	46277.62
577.32	46317.4
577.681	46448.92
578.042	46556.04
578.403	46569.59
578.763	46695.24
579.124	46566.2
579.485	46739.53
579.845	46859.76
580.206	46921.22
580.566	46818.4
580.927	46944.5
581.287	47018.17
581.648	46890.49
582.008	47156.7
582.368	47013.2
582.728	47186.53
583.089	46969.13
583.449	47150.82
583.809	47085.29
584.169	47056.59
584.529	47040.77
584.889	47502.68
585.249	47087.55
585.609	47097.49
585.969	47308.11
586.329	47281.89
586.688	47256.58
587.048	47144.72
587.408	47069.47
587.768	47076.25
588.127	47126.64
588.487	47081.9
588.846	47358.05
589.206	47278.05
589.565	47242.35
589.925	47310.14
590.284	47304.49
590.643	47260.65
591.003	47236.24
591.362	47566.86
591.721	47340.65
592.08	47341.33
592.44	47443.47
592.799	47481.44
593.158	47390.59
593.517	47399.63
593.876	47409.57
594.235	47395.79
594.593	47401.66
594.952	47453.41
595.311	47320.76
595.67	47522.34
596.029	47638.95
596.387	47684.37
596.746	47594.43
597.104	47561.66
597.463	47524.15
597.822	47775.44
598.18	47613.86
598.538	47600.75
598.897	47819.51
599.255	47574.99
599.613	48081.42
599.972	47754.42
600.33	47985.15
600.688	47783.35
601.046	47939.05
601.404	48019.95
601.762	47934.53
602.12	48190.12
602.478	48049.1
602.836	48163.68
603.194	48040.29
603.552	48128.42
603.91	48026.51
604.268	48119.16
604.625	48143.11
604.983	48211.13
605.341	48025.6
605.698	48350.11
606.056	48331.13
606.413	48202.32
606.771	48429.66
607.128	48410.45
607.485	48278.7
607.843	48368.87
608.2	48648.86
608.557	48680.95
608.914	48549.43
609.272	48678.01
609.629	48833.26
609.986	48871.68
610.343	48627.17
610.7	48893.15
611.057	48911.45
611.414	48823.32
611.771	48849.08
612.127	49042.98
612.484	48984.67
612.841	49023.54
613.198	49037.78
613.554	49089.3
613.911	49168.62
614.267	49331.1
614.624	49331.1
614.98	49349.86
615.337	49431.89
615.693	49330.43
616.05	49355.28
616.406	49592.34
616.762	49475.06
617.118	49469.18
617.475	49412.91
617.831	49525.9
618.187	49508.5
618.543	49626.92
618.899	49700.81
619.255	49671.89
619.611	49616.07
619.967	49831.43
620.323	49826.46
620.678	49683.19
621.034	49684.77
621.39	49698.78
621.746	49526.35
622.101	49947.58
622.457	49722.51
622.812	49689.06
623.168	49777.65
623.523	49776.52
623.879	49967.92
624.234	49691.32
624.589	49900.13
624.945	49910.98
625.3	49869.39
625.655	49862.39
626.01	49840.02
626.365	49753.92
626.72	49806.57
627.075	49776.06
627.43	49691.77
627.785	49621.72
628.14	49755.5
628.495	49748.49
628.85	49652.68
629.205	49583.98
629.559	49782.17
629.914	49602.96
630.269	49586.24
630.623	49394.38
630.978	49387.6
631.332	49554.6
631.687	49613.13
632.041	49411.55
632.396	49412.23
632.75	49442.29
633.104	49388.96
633.459	49261.28
633.813	49368.17
634.167	49309.64
634.521	49220.6
634.875	49269.41
635.229	49129.75
635.583	48935.63
635.937	49013.6
636.291	48921.85
636.645	48994.16
636.999	48911.45
637.352	48975.18
637.706	48645.47
638.06	48898.12
638.413	48631.01
638.767	48760.05
639.121	48585.81
639.474	48342.2
639.828	48487.28
640.181	48496.32
640.534	48626.04
640.888	48362.09
641.241	48190.8
641.594	48348.98
641.947	48446.83
642.301	48101.76
642.654	48178.37
643.007	48241.87
643.36	48213.62
643.713	48092.27
644.066	48241.42
644.419	48065.37
644.771	47903.34
645.124	47361.89
645.477	47406.41
645.83	47190.37
646.182	46791.28
646.535	46784.5
646.888	46819.08
647.24	46539.76
647.593	46778.18
647.945	46621.57
648.298	46469.71
648.65	46393.78
649.002	46255.48
649.355	46476.04
649.707	46257.06
650.059	46546.09
650.411	47016.36
650.763	47180.88
651.115	47502.68
651.467	47249.58
651.819	47163.93
652.171	47092.07
652.523	47078.96
652.875	47051.84
653.227	46725.07
653.578	47058.85
653.93	47020.43
654.282	46783.37
654.633	46667.9
654.985	46745.18
655.337	46820.44
655.688	46682.13
656.039	46815.01
656.391	46448.69
656.742	46683.94
657.094	46572.76
657.445	46777.72
657.796	46693.89
658.147	46545.41
658.498	46491.86
658.849	46559.43
659.2	46458.86
659.551	46375.48
659.902	46549.48
660.253	46471.29
660.604	46558.3
660.955	46250.96
661.306	46440.11
661.656	46198.76
662.007	46457.96
662.358	46260
662.708	46381.13
663.059	46214.35
663.409	45976.84
663.76	46413.44
664.11	46220.9
664.461	46393.33
664.811	46072.88
665.161	46210.73
665.511	45988.82
665.862	46060.46
666.212	46031.08
666.562	46121.92
666.912	46080.79
667.262	45994.47
667.612	46067.46
667.962	46028.82
668.312	45860.23
668.662	45963.28
669.011	45916.96
669.361	45836.73
669.711	45935.49
670.06	45923.06
670.41	45736.85
670.76	45638.09
671.109	45837.64
671.459	45685.78
671.808	45795.6
672.157	45739.11
672.507	45538.44
672.856	45513.13
673.205	45574.37
673.554	45742.27
673.904	45498.66
674.253	45592.22
674.602	45548.15
674.951	44918.56
675.3	44709.53
675.649	45392.68
675.998	45300.48
676.346	45307.93
676.695	45425.9
677.044	45100.25
677.393	45263.64
677.741	45279.46
678.09	45154.04
678.438	45094.38
678.787	45144.1
679.135	44940.26
679.484	44637.22
679.832	44935.29
680.181	44689.42
680.529	44754.5
680.877	44776.87
681.225	44679.47
681.573	44987.72
681.922	44641.74
682.27	44375.08
682.618	44430.22
682.966	44218.92
683.314	44453.04
683.661	44340.95
684.009	44001.98
684.357	44070.9
684.705	43980.28
685.053	43865.49
685.4	43938.7
685.748	43700.52
686.095	43763.11
686.443	43591.82
686.79	43483.12
687.138	43678.15
687.485	43672.5
687.832	43352.5
688.18	43435.44
688.527	43131.72
688.874	43199.29
689.221	43004.94
689.568	42991.84
689.915	42932.4
690.262	42765.63
690.609	42766.98
690.956	42612.41
691.303	42437.5
691.65	42295.81
691.997	42294.23
692.344	42125.87
692.69	42092.42
693.037	42212.42
693.383	41784.64
693.73	42030.73
694.077	41679.55
694.423	41611.08
694.769	41545.09
695.116	41297.19
695.462	41400.01
695.808	41296.51
696.155	41305.78
696.501	40948.95
696.847	41123.64
697.193	40793.7
697.539	41051.32
697.885	40596.64
698.231	40451.56
698.577	40571.56
698.923	40313.04
699.269	40156.43
699.614	39971.35
699.96	40094.06
700.306	39986.26
700.651	39746.72
700.997	39638.25
701.342	39601.42
701.688	39575.43
702.033	39399.16
702.379	39380.41
702.724	39236
703.069	39335.89
703.415	38845.5
703.76	38856.8
704.105	38859.06
704.45	38742.23
704.795	38564.38
705.14	38455.23
705.485	38546.3
705.83	38290.94
706.175	38363.03
706.52	38041.68
706.865	38030.61
707.209	37998.97
707.554	37827
707.899	37976.15
708.243	37716.04
708.588	37678.3
708.932	37300.46
709.277	37477.4
709.621	37506.33
709.966	37164.64
710.31	37240.12
710.654	36844.2
710.998	36865.22
711.342	36896.63
711.687	36733.92
712.031	36626.13
712.375	36576.64
712.719	36745.9
713.063	36660.48
713.407	36700.93
713.75	36338
714.094	36309.75
714.438	36213.71
714.782	36251.9
715.125	36016.65
715.469	36116.31
715.812	35890.55
716.156	35678.58
716.499	35771.23
716.843	35911.8
717.186	35585.7
717.53	35747.96
717.873	35642.88
718.216	35571.92
718.559	35411.7
718.902	35213.51
719.246	35224.36
719.589	35327.4
719.932	35086.96
720.275	35033.4
720.617	35083.8
720.96	34995.21
721.303	34925.38
721.646	34861.43
721.989	34658.95
722.331	34846.74
722.674	34667.31
723.016	34726.06
723.359	34562.45
723.701	34628.67
724.044	34316.58
724.386	34059.64
724.729	34315.23
725.071	34231.61
725.413	34156.81
725.755	34083.82
726.097	33886.09
726.439	33623.49
726.782	33869.36
727.124	33790.04
727.465	33595.47
727.807	33584.85
728.149	33519.54
728.491	33457.17
728.833	33469.37
729.175	33534.46
729.516	33281.36
729.858	33367.23
730.199	33464.63
730.541	33317.74
730.882	33189.16
731.224	33281.58
731.565	33151.64
731.906	33065.09
732.248	33061.02
732.589	32880.01
732.93	32763.86
733.271	32915.72
733.612	32798.88
733.953	32720.47
734.294	32623.52
734.635	32516.86
734.976	32730.41
735.317	32393.02
735.658	32427.37
735.999	32427.59
736.339	32316.64
736.68	32334.94
737.021	32297.43
737.361	32040.71
737.702	32315.28
738.042	32045.91
738.383	31959.36
738.723	32157.32
739.063	31831.23
739.404	31842.52
739.744	31907.83
740.084	31662.87
740.424	31644.56
740.764	31712.81
741.104	31837.55
741.444	31675.52
741.784	31489.54
742.124	31602.3
742.464	31524.57
742.804	31555.3
743.143	31420.16
743.483	31384.01
743.823	31152.6
744.162	31141.53
744.502	31129.1
744.841	31020.85
745.181	31158.7
745.52	30920.51
745.86	30956.9
746.199	30925.03
746.538	30881.42
746.877	30916
747.216	30783.34
747.556	30779.05
747.895	30666.74
748.234	30628.54
748.573	30492.05
748.911	30504.25
749.25	30348.55
749.589	30225.39
749.928	30384.71
750.267	30336.12
750.605	30100.42
750.944	30099.52
751.283	29887.1
751.621	29997.6
751.96	29781.34
752.298	29876.47
752.636	29869.92
752.975	29666.76
753.313	29696.14
753.651	29698.17
753.989	29526.65
754.327	29498.63
754.666	29311.52
755.004	29461.57
755.342	29335.92
755.679	29202.59
756.017	29017.06
756.355	29106.78
756.693	28931.41
757.031	29096.61
757.368	28801.7
757.706	28838.76
758.044	28715.37
758.381	28683.06
758.719	28581.59
759.056	28568.03
759.394	28574.59
759.731	28236.29
760.068	28157.2
760.405	28026.58
760.743	28139.34
761.08	28155.62
761.417	27932.34
761.754	27898.9
762.091	27820.03
762.428	27585.69
762.765	27494.84
763.102	27592.01
763.438	27461.17
763.775	27347.95
764.112	27323.55
764.449	27188.41
764.785	27215.08
765.122	26917.23
765.458	26893.05
765.795	26885.37
766.131	26889.21
766.467	26729.21
766.804	26468.43
767.14	26349.56
767.476	26302.11
767.812	26134.65
768.148	26252.16
768.485	26111.15
768.821	25920.42
769.157	25954.09
769.492	25907.31
769.828	25850.14
770.164	25639.98
770.5	25559.3
770.836	25590.49
771.171	25281.57
771.507	25235.92
771.842	25116.83
772.178	25130.16
772.513	25114.79
772.849	24931.07
773.184	24905.31
773.519	24995.47
773.855	24784.18
774.19	24577.18
774.525	24502.83
774.86	24568.82
775.195	24432.55
775.53	24347.13
775.865	24188.94
776.2	24089.73
776.535	23829.18
776.87	23845.22
777.205	23920.92
777.539	23705.11
777.874	23845.22
778.209	23650.2
778.543	23488.62
778.878	23333.37
779.212	23335.4
779.547	23256.31
779.881	23200.72
780.215	22935.87
780.55	23086.14
780.884	22859.03
781.218	22786.72
781.552	22746.04
781.886	22682.31
782.22	22507.63
782.554	22427.86
782.888	22256.79
783.222	22209.78
783.556	22100.41
783.889	22067.19
784.223	21890.24
784.557	21813.86
784.89	21858.61
785.224	21660.87
785.557	21724.6
785.891	21575
786.224	21569.8
786.558	21472.18
786.891	21320.09
787.224	21176.59
787.557	21139.3
787.891	21191.05
788.224	21054.33
788.557	21088.23
788.89	20976.82
789.223	20922.81
789.556	20714.23
789.888	20756.94
790.221	20598.07
790.554	20600.11
790.887	20550.62
791.219	20487.34
791.552	20463.16
791.884	20297.74
792.217	20234.24
792.549	20174.58
792.882	20045.32
793.214	19918.32
793.546	19968.94
793.879	19821.15
794.211	19896.4
794.543	19832.67
794.875	19685.56
795.207	19754.71
795.539	19522.4
795.871	19532.57
796.203	19351.33
796.535	19374.83
796.867	19222.74
797.198	19192.91
797.53	19207.38
797.862	19088.96
798.193	19128.28
798.525	18961.73
798.856	18967.61
799.188	18725.58
799.519	18838.35
799.85	18737.33
800.182	18630.22
800.513	18557.22
800.844	18488.98
801.175	18569.43
801.506	18551.12
801.837	18366.72
802.168	18236.33
802.499	18260.06
802.83	18215.31
803.161	18067.52
803.491	18086.05
803.822	18209.89
804.153	18019.61
804.483	17862.78
804.814	17784.14
805.145	17850.8
805.475	17807.87
805.805	17738.04
806.136	17725.83
806.466	17731.93
806.796	17542.56
807.126	17460.98
807.457	17482.9
807.787	17473.86
808.117	17362.45
808.447	17264.38
808.777	17312.74
809.107	17242.23
809.436	17140.76
809.766	17052.63
810.096	17043.59
810.426	16974.67
810.755	16928.79
811.085	16936.02
811.414	16953.2
811.744	16725.86
812.073	16785.07
812.403	16744.16
812.732	16704.84
813.061	16600.21
813.39	16460.78
813.719	16519.31
814.049	16621.23
814.378	16461.91
814.707	16395.02
815.036	16372.87
815.365	16298.3
815.693	16100.11
816.022	16210.84
816.351	16168.13
816.68	16100.11
817.008	16187.34
817.337	15960
817.665	15950.96
817.994	16005.88
818.322	15906.9
818.651	15822.61
818.979	15765.88
819.307	15858.54
819.636	15761.14
819.964	15686.11
820.292	15741.48
820.62	15676.4
820.948	15638.2
821.276	15681.59
821.604	15634.14
821.932	15703.51
822.259	15635.94
822.587	15613.12
822.915	15592.56
823.243	15637.75
823.57	15580.58
823.898	15617.64
824.225	15582.39
824.553	15554.59
824.88	15562.5
825.207	15588.94
825.535	15579
825.862	15624.87
826.189	15487.47
826.516	15584.65
826.843	15628.94
827.17	15560.01
827.497	15591.88
827.824	15616.96
828.151	15579.68
828.478	15535.61
828.805	15560.01
829.131	15497.64
829.458	15425.1
829.785	15407.7
830.111	15338.1
830.438	15580.13
830.764	15497.42
831.09	15410.41
831.417	15418.55
831.743	15465.1
832.069	15430.07
832.395	15342.62
832.722	15453.58
833.048	15308.04
833.374	15332.68
833.7	15312.79
834.026	15299.91
834.351	15353.92
834.677	15320.25
835.003	15363.86
835.329	15295.61
835.654	15214.26
835.98	15178.78
836.306	15237.31
836.631	15153.7
836.956	15197.31
837.282	15177.43
837.607	15042.29
837.932	15043.42
838.258	15031.89
838.583	14984.66
838.908	14961.61
839.233	15004.1
839.558	14916.64
839.883	14865.34
840.208	14848.39
840.533	14850.2
840.858	14713.48
841.182	14903.08
841.507	14907.15
841.832	14730.66
842.156	14724.33
842.481	14646.82
842.805	14692.24
843.13	14588.29
843.454	14600.27
843.778	14442.08
844.103	14439.82
844.427	14468.52
844.751	14457.67
845.075	14413.38
845.399	14382.87
845.723	14243.89
846.047	14254.96
846.371	14156.66
846.695	14108.3
847.019	14054.74
847.343	14070.79
847.666	13923.22
847.99	13913.28
848.313	13832.38
848.637	13838.7
848.96	13801.19
849.284	13759.84
849.607	13664.25
849.931	13632.16
850.254	13547.19
850.577	13421.54
850.9	13373.41
851.223	13309.23
851.546	13268.55
851.869	13155.11
852.192	13248.66
852.515	13121.21
852.838	12979.97
853.161	13004.6
853.483	13000.53
853.806	12938.39
854.129	12878.73
854.451	12869.24
854.774	12826.98
855.096	12843.93
855.419	12760.99
855.741	12678.51
856.063	12557.38
856.385	12581.56
856.708	12509.47
857.03	12477.84
857.352	12457.27
857.674	12456.59
857.996	12424.73
858.318	12306.31
858.64	12357.84
858.961	12252.3
859.283	12249.14
859.605	12223.83
859.926	12163.95
860.248	12184.96
860.57	12134.79
860.891	12090.95
861.212	12105.64
861.534	11962.82
861.855	12037.85
862.176	12077.39
862.498	12040.11
862.819	11995.81
863.14	11881.69
863.461	11899.32
863.782	11865.42
864.103	11763.73
864.424	11820.23
864.745	11805.76
865.065	11751.75
865.386	11751.08
865.707	11676.73
866.027	11714.69
866.348	11659.1
866.668	11637.86
866.989	11661.81
867.309	11535.04
867.63	11539.56
867.95	11483.74
868.27	11489.16
868.59	11461.59
868.91	11416.85
869.23	11443.96
869.55	11381.37
869.87	11455.94
870.19	11410.29
870.51	11413.23
870.83	11385.21
871.15	11233.57
871.469	11304.08
871.789	11280.13
872.109	11235.16
872.428	11187.93
872.748	11210.3
873.067	11231.31
873.386	11197.64
873.706	11210.07
874.025	11141.37
874.344	11033.58
874.663	11150.64
874.982	11097.08
875.301	11062.96
875.62	10988.38
875.939	10980.02
876.258	10965.56
876.577	10924.66
876.896	10965.79
877.214	10951.77
877.533	10963.98
877.852	10912.45
878.17	10839.91
878.489	10952.68
878.807	10889.85
879.125	10821.61
879.444	10772.57
879.762	10800.82
880.08	10839.69
880.398	10728.96
880.716	10787.71
881.034	10714.27
881.352	10741.84
881.67	10657.09
881.988	10672.69
882.306	10719.24
882.624	10620.71
882.941	10515.4
883.259	10568.96
883.577	10496.42
883.894	10509.3
884.212	10479.92
884.529	10495.51
884.846	10435.4
885.164	10431.56
885.481	10378
885.798	10433.6
886.115	10310.89
886.432	10404.44
886.75	10307.95
887.067	10302.98
887.383	10273.83
887.7	10265.01
888.017	10180.72
888.334	10217.33
888.651	10202.19
888.967	10118.58
889.284	10060.27
889.6	10071.35
889.917	10007.39
890.233	10019.82
890.55	9969.43
890.866	9999.93
891.182	10015.08
891.498	9906.6
891.815	9845.36
892.131	9888.53
892.447	9828.87
892.763	9825.7
893.079	9786.38
893.395	9745.48
893.71	9700.96
894.026	9704.8
894.342	9691.02
894.657	9575.31
894.973	9562.43
895.289	9626.84
895.604	9536.44
895.92	9453.51
896.235	9392.49
896.55	9390.69
896.865	9392.27
897.181	9326.51
897.496	9324.7
897.811	9267.75
898.126	9254.19
898.441	9292.83
898.756	9173.52
899.071	9180.75
899.386	9180.3
899.7	9116.34
900.015	9037.93
900.33	9004.25
900.644	8929.91
900.959	8997.93
901.273	8945.5
901.588	8954.31
901.902	8857.14
902.216	8819.17
902.531	8804.26
902.845	8749.57
903.159	8740.76
903.473	8682.46
903.787	8631.84
904.101	8673.19
904.415	8640.2
904.729	8594.77
905.042	8550.26
905.356	8571.72
905.67	8527.88
905.984	8513.42
906.297	8422.35
906.611	8362.46
906.924	8347.32
907.237	8337.15
907.551	8270.71
907.864	8252.18
908.177	8153.43
908.491	8187.33
908.804	8148.23
909.117	8152.3
909.43	8124.96
909.743	8078.86
910.056	8062.81
910.368	7966.54
910.681	7966.99
910.994	7933.1
911.307	7841.8
911.619	7782.82
911.932	7815.81
912.244	7751.41
912.557	7734.46
912.869	7758.19
913.181	7696.72
913.494	7697.85
913.806	7610.39
914.118	7610.39
914.43	7569.04
914.742	7576.95
915.054	7472.54
915.366	7504.63
915.678	7490.4
915.99	7385.31
916.302	7359.33
916.613	7393.9
916.925	7289.27
917.236	7324.3
917.548	7277.75
917.859	7277.52
918.171	7178.09
918.482	7157.98
918.794	7184.19
919.105	7098.54
919.416	7099.45
919.727	7080.24
920.038	7035.72
920.349	7004.53
920.66	6958.43
920.971	6968.83
921.282	6906.46
921.593	6895.61
921.903	6863.97
922.214	6824.88
922.525	6793.69
922.835	6803.41
923.146	6716.41
923.456	6672.56
923.767	6639.57
924.077	6609.74
924.387	6612.68
924.697	6570.65
925.008	6575.84
925.318	6533.13
925.628	6469.63
925.938	6479.8
926.248	6417.66
926.558	6371.33
926.867	6427.37
927.177	6337.88
927.487	6320.03
927.796	6264.21
928.106	6271.9
928.416	6327.04
928.725	6267.38
929.034	6238.23
929.344	6239.13
929.653	6163.88
929.962	6081.62
930.271	6051.79
930.581	6103.54
930.89	6067.61
931.199	5993.71
931.508	5934.05
931.817	5875.52
932.125	5957.78
932.434	5929.53
932.743	5913.26
933.051	5881.17
933.36	5825.13
933.669	5807.73
933.977	5815.19
934.286	5763.21
934.594	5676.66
934.902	5696.09
935.21	5621.29
935.519	5656.32
935.827	5662.87
936.135	5550.33
936.443	5536.55
936.751	5567.96
937.059	5530.45
937.367	5512.82
937.674	5442.54
937.982	5420.62
938.29	5438.02
938.597	5471.47
938.905	5421.52
939.213	5354.86
939.52	5374.52
939.827	5330.68
940.135	5316.89
940.442	5264.69
940.749	5233.73
941.056	5263.11
941.363	5182.66
941.67	5155.77
941.977	5115.77
942.284	5106.73
942.591	5114.19
942.898	5105.37
943.205	5127.52
943.511	5059.73
943.818	5123.45
944.125	4949.22
944.431	4998.48
944.738	4976.56
945.044	4926.62
945.35	4893.85
945.657	4925.04
945.963	4925.49
946.269	4893.18
946.575	4793.07
946.881	4843.69
947.187	4798.04
947.493	4771.15
947.799	4759.62
948.105	4774.31
948.41	4755.33
948.716	4705.38
949.022	4653.41
949.327	4703.58
949.633	4615.9
949.938	4643.47
950.244	4626.06
950.549	4578.38
950.854	4561.43
951.16	4556.91
951.465	4499.74
951.77	4484.37
952.075	4528.89
952.38	4468.55
952.685	4456.13
952.99	4364.38
953.294	4407.99
953.599	4396.24
953.904	4367.99
954.209	4325.51
954.513	4367.77
954.818	4283.02
955.122	4333.42
955.426	4291.84
955.731	4217.49
956.035	4231.5
956.339	4229.92
956.643	4199.18
956.948	4149.69
957.252	4130.03
957.556	4109.47
957.86	4082.12
958.163	4063.59
958.467	4103.59
958.771	4114.21
959.075	4031.96
959.378	4019.08
959.682	4027.44
959.985	3992.18
960.289	3960.32
960.592	3965.07
960.896	3929.13
961.199	3921.68
961.502	3907.21
961.805	3882.58
962.108	3902.24
962.411	3850.27
962.714	3848.68
963.017	3850.27
963.32	3800.32
963.623	3748.12
963.926	3760.78
964.228	3759.65
964.531	3742.47
964.833	3756.71
965.136	3716.94
965.438	3712.87
965.741	3663.15
966.043	3655.47
966.345	3642.36
966.648	3658.18
966.95	3608.01
967.252	3578.63
967.554	3568.01
967.856	3534.57
968.158	3558.3
968.46	3572.76
968.761	3499.99
969.063	3473.78
969.365	3479.65
969.666	3466.1
969.968	3433.33
970.269	3421.12
970.571	3402.82
970.872	3361.69
971.174	3370.96
971.475	3384.29
971.776	3366.89
972.077	3365.08
972.378	3353.56
972.679	3356.27
972.98	3321.47
973.281	3316.49
973.582	3310.17
973.883	3285.31
974.183	3285.08
974.484	3237.17
974.785	3225.65
975.085	3215.93
975.386	3215.03
975.686	3180.91
975.986	3186.33
976.287	3149.27
976.587	3147.23
976.887	3122.38
977.187	3143.39
977.487	3118.76
977.787	3059.33
978.087	3036.73
978.387	3083.51
978.687	3036.28
978.987	3026.33
979.286	3011.64
979.586	3007.12
979.885	2985.2
980.185	2978.42
980.484	2972.1
980.784	2904.98
981.083	2950.63
981.382	2895.26
981.682	2916.96
981.981	2893.91
982.28	2912.89
982.579	2833.57
982.878	2857.07
983.177	2862.95
983.475	2851.2
983.774	2798.99
984.073	2843.29
984.372	2824.08
984.67	2748.37
984.969	2735.72
985.267	2772.78
985.566	2754.25
985.864	2782.72
986.162	2721.48
986.461	2712.67
986.759	2730.52
987.057	2676.74
987.355	2668.15
987.653	2680.35
987.951	2640.81
988.249	2640.13
988.547	2630.64
988.844	2617.3
989.142	2654.14
989.44	2583.63
989.737	2578.66
990.035	2573.46
990.332	2572.79
990.63	2531.66
990.927	2538.21
991.224	2521.04
991.521	2495.27
991.819	2502.73
992.116	2500.24
992.413	2466.8
992.71	2475.61
993.006	2461.38
993.303	2419.57
993.6	2437.42
993.897	2420.47
994.193	2403.52
994.49	2400.59
994.787	2421.15
995.083	2375.5
995.379	2377.31
995.676	2373.69
995.972	2325.33
996.268	2326.46
996.565	2296.63
996.861	2296.86
997.157	2259.8
997.453	2268.39
997.749	2290.31
998.044	2264.54
998.34	2238.78
998.636	2238.56
998.932	2215.05
999.227	2197.88
999.523	2190.65
999.818	2202.17
1000.114	2172.8
1000.409	2176.41
1000.704	2128.05
1001	2118.56
1001.295	2115.4
1001.59	2093.48
1001.885	2112.23
1002.18	2080.37
1002.475	2082.18
1002.77	2075.17
1003.065	2066.13
1003.359	2036.98
1003.654	2053.03
1003.949	2033.14
1004.243	2012.8
1004.538	2011.44
1004.832	2024.1
1005.127	1977.55
1005.421	1992.46
1005.715	1982.07
1006.009	1956.53
1006.304	1939.58
1006.598	1905.68
1006.892	1935.51
1007.186	1933.48
1007.48	1876.98
1007.773	1869.3
1008.067	1899.36
1008.361	1877.44
1008.655	1884.44
1008.948	1829.53
1009.242	1808.29
1009.535	1833.82
1009.829	1813.26
1010.122	1799.7
1010.415	1792.02
1010.708	1761.06
1011.001	1747.27
1011.295	1741.85
1011.588	1763.99
1011.881	1761.28
1012.173	1720.15
1012.466	1701.4
1012.759	1710.66
1013.052	1711.57
1013.344	1697.33
1013.637	1694.16
1013.93	1653.94
1014.222	1645.35
1014.514	1629.08
1014.807	1656.43
1015.099	1652.58
1015.391	1616.43
1015.683	1600.38
1015.976	1579.14
1016.268	1584.56
1016.56	1578.24
1016.851	1558.57
1017.143	1567.16
1017.435	1541.63
1017.727	1566.94
1018.018	1514.73
1018.31	1532.59
1018.602	1520.84
1018.893	1503.89
1019.185	1480.16
1019.476	1502.76
1019.767	1475.19
1020.058	1482.64
1020.35	1455.98
1020.641	1434.51
1020.932	1429.54
1021.223	1441.52
1021.514	1430.44
1021.804	1402.87
1022.095	1401.06
1022.386	1377.34
1022.677	1375.08
1022.967	1380.73
1023.258	1361.97
1023.548	1368.3
1023.839	1346.83
1024.129	1319.49
1024.419	1317.9
1024.709	1305.25
1025	1290.79
1025.29	1312.03
1025.58	1308.86
1025.87	1293.5
1026.16	1267.51
1026.449	1267.51
1026.739	1250.79
1027.029	1239.71
1027.319	1215.53
1027.608	1252.37
1027.898	1205.36
1028.187	1215.76
1028.477	1222.76
1028.766	1170.34
1029.055	1189.32
1029.344	1202.65
1029.634	1174.63
1029.923	1158.36
1030.212	1156.1
1030.501	1165.14
1030.79	1158.13
1031.078	1134.41
1031.367	1135.99
1031.656	1124.46
1031.945	1099.6
1032.233	1098.25
1032.522	1076.78
1032.81	1096.21
1033.099	1088.98
1033.387	1089.43
1033.675	1070.68
1033.963	1084.91
1034.251	1072.03
1034.54	1059.15
1034.828	1067.29
1035.116	1041.98
1035.403	1044.24
1035.691	1033.84
1035.979	1006.72
1036.267	1028.87
1036.554	1004.69
1036.842	1010.11
1037.129	1004.47
1037.417	984.35
1037.704	963.79
1037.992	994.52
1038.279	969.89
1038.566	965.6
1038.853	965.6
1039.14	965.6
