Data from breadboard_white_FLMS001491_00011.txt Node
Date: Wed Feb 08 10:47:20 GMT 2017
User: dcchb
Spectrometer: FLMS00149
Trigger mode: 0
Integration Time (sec): 2.000000E-2
Scans to average: 10
Electric dark correction enabled: true
Nonlinearity correction enabled: false
Boxcar width: 0
XAxis mode: Wavelengths
Number of Pixels in Spectrum: 2048
>>>>>Begin Spectral Data<<<<<
341.393	-9.25
341.776	-9.25
342.16	-9.25
342.543	-73.43
342.927	-68.01
343.31	-57.39
343.693	-70.94
344.077	-67.33
344.46	-78.4
344.843	-50.38
345.226	-36.37
345.61	-30.04
345.993	-20.55
346.376	3.63
346.759	27.36
347.142	20.58
347.525	27.58
347.908	56.51
348.291	84.08
348.674	85.89
349.057	105.77
349.44	115.04
349.823	132.67
350.206	178.99
350.588	204.08
350.971	221.03
351.354	241.59
351.737	262.38
352.119	304.41
352.502	289.95
352.884	307.12
353.267	285.88
353.65	314.36
354.032	313.68
354.414	335.37
354.797	329.72
355.179	329.5
355.562	356.61
355.944	354.81
356.326	386.22
356.709	352.77
357.091	361.59
357.473	364.3
357.855	378.54
358.238	380.8
358.62	388.25
359.002	394.58
359.384	394.81
359.766	368.14
360.148	368.82
360.53	367.24
360.912	373.79
361.294	353.45
361.676	373.79
362.057	367.91
362.439	347.8
362.821	343.73
363.203	362.04
363.584	371.08
363.966	354.36
364.348	380.8
364.729	360
365.111	355.94
365.493	377.86
365.874	354.13
366.256	359.78
366.637	340.12
367.019	365.65
367.4	366.78
367.781	339.89
368.163	355.03
368.544	365.65
368.925	346.67
369.306	370.4
369.688	369.27
370.069	370.85
370.45	382.38
370.831	382.15
371.212	377.18
371.593	367.46
371.974	391.64
372.355	377.18
372.736	367.24
373.117	369.5
373.498	372.66
373.879	379.44
374.26	375.15
374.641	385.77
375.021	365.43
375.402	374.47
375.783	388.48
376.163	400.68
376.544	419.66
376.925	403.39
377.305	395.03
377.686	404.52
378.066	372.89
378.447	403.85
378.827	408.36
379.208	413.34
379.588	414.92
379.968	415.82
380.349	410.85
380.729	406.33
381.109	411.08
381.489	423.51
381.87	415.37
382.25	420.34
382.63	427.35
383.01	419.44
383.39	434.35
383.77	436.84
384.15	437.97
384.53	453.79
384.91	440.23
385.29	466.44
385.67	450.85
386.049	455.37
386.429	467.57
386.809	486.1
387.189	475.26
387.568	476.16
387.948	472.54
388.328	483.84
388.707	500.57
389.087	494.46
389.466	491.07
389.846	513.45
390.225	508.02
390.605	512.32
390.984	511.87
391.363	525.2
391.743	542.37
392.122	540.11
392.501	550.51
392.881	562.26
393.26	585.54
393.639	567.23
394.018	590.06
394.397	588.25
394.776	606.78
395.155	591.64
395.534	609.26
395.913	597.51
396.292	609.26
396.671	618.3
397.05	659.88
397.429	630.28
397.808	647.68
398.186	676.83
398.565	651.75
398.944	683.39
399.323	695.36
399.701	705.08
400.08	718.41
400.458	751.41
400.837	740.79
401.215	736.72
401.594	756.38
401.972	777.85
402.351	781.24
402.729	805.42
403.107	808.35
403.486	813.78
403.864	830.5
404.242	818.3
404.62	842.03
404.999	866.43
405.377	875.92
405.755	879.77
406.133	891.74
406.511	913.21
406.889	956.15
407.267	972.19
407.645	1003.83
408.023	1017.84
408.401	1022.59
408.779	1019.65
409.156	1041.34
409.534	1079.99
409.912	1087.9
410.29	1132.64
410.667	1141.91
411.045	1166.76
411.422	1150.49
411.8	1204.95
412.178	1201.56
412.555	1264.61
412.933	1260.77
413.31	1287.89
413.687	1327.66
414.065	1324.5
414.442	1342.8
414.819	1400.43
415.197	1389.36
415.574	1407.89
415.951	1460.54
416.328	1466.42
416.705	1475.91
417.082	1505.06
417.46	1504.16
417.837	1552.52
418.214	1570.14
418.591	1589.58
418.967	1620.76
419.344	1644.49
419.721	1639.07
420.098	1678.84
420.475	1676.81
420.852	1729.01
421.228	1745.28
421.605	1762.68
421.982	1750.7
422.358	1794.77
422.735	1818.95
423.111	1836.8
423.488	1859.17
423.864	1880.64
424.241	1905.5
424.617	1931.04
424.994	1950.02
425.37	1954.54
425.746	1993.41
426.123	2011.49
426.499	2048.77
426.875	2037.47
427.251	2100.75
427.627	2131.71
428.003	2186.85
428.379	2227.53
428.756	2216.68
429.132	2239.96
429.507	2286.96
429.883	2324.47
430.259	2350.23
430.635	2364.47
431.011	2395.21
431.387	2472.04
431.763	2530.34
432.138	2523.11
432.514	2541.42
432.89	2579.83
433.265	2659.61
433.641	2678.14
434.016	2736.67
434.392	2712.71
434.767	2811.47
435.143	2783.9
435.518	2853.05
435.894	2899.6
436.269	2923.1
436.644	2946.6
437.02	2982.99
437.395	3023.44
437.77	3061.4
438.145	3090.33
438.52	3151.12
438.895	3200.61
439.271	3186.15
439.646	3268.4
440.021	3261.4
440.395	3312.47
440.77	3239.93
441.145	3321.73
441.52	3400.6
441.895	3372.81
442.27	3433.6
442.645	3423.88
443.019	3471.11
443.394	3445.12
443.769	3525.57
444.143	3569.19
444.518	3612.57
444.892	3603.54
445.267	3591.11
445.641	3655.06
446.016	3681.27
446.39	3708.62
446.764	3753.36
447.139	3723.31
447.513	3782.97
447.887	3801.72
448.262	3823.42
448.636	3863.19
449.01	3956.07
449.384	3952.68
449.758	4002.62
450.132	4062.28
450.506	4035.84
450.88	4040.81
451.254	4081.49
451.628	4185.89
452.002	4215.95
452.376	4252.11
452.75	4290.75
453.123	4286.23
453.497	4439.9
453.871	4459.56
454.244	4541.36
454.618	4525.09
454.992	4606.67
455.365	4608.71
455.739	4773
456.112	4795.82
456.486	4822.26
456.859	4883.73
457.232	4965.53
457.606	4979.32
457.979	5010.73
458.352	5101.8
458.725	5196.26
459.099	5247.56
459.472	5396.26
459.845	5391.51
460.218	5483.03
460.591	5516.93
460.964	5537.95
461.337	5669.24
461.71	5739.3
462.083	5867.2
462.456	5863.14
462.829	5847.77
463.201	5949.01
463.574	6041.89
463.947	6150.59
464.32	6215.67
464.692	6296.12
465.065	6327.53
465.438	6452.5
465.81	6541.54
466.183	6584.25
466.555	6766.62
466.928	6768.65
467.3	6848.2
467.672	6905.82
468.045	7149.66
468.417	7086.83
468.789	7255.87
469.161	7282.99
469.534	7422.64
469.906	7607.05
470.278	7620.38
470.65	7764.33
471.022	7922.97
471.394	8032.35
471.766	8116.64
472.138	8270.53
472.51	8410.19
472.882	8487.25
473.253	8645.89
473.625	8784.87
473.997	8931.3
474.369	8964.75
474.74	9090.4
475.112	9248.81
475.484	9414.91
475.855	9616.48
476.227	9644.05
476.598	9984.38
476.97	10060.54
477.341	10203.59
477.713	10365.39
478.084	10481.55
478.455	10807.19
478.827	10896.45
479.198	11207.4
479.569	11230.23
479.94	11510.45
480.311	11683.77
480.682	11989.3
481.053	12190.43
481.424	12389.97
481.795	12405.11
482.166	12675.61
482.537	12860.47
482.908	13121.48
483.279	13359.89
483.65	13638.07
484.021	13805.75
484.391	13968.23
484.762	14089.14
485.133	14156.7
485.503	14484.15
485.874	14676.24
486.244	14908.77
486.615	15168.2
486.985	15365.94
487.356	15650.68
487.726	15717.57
488.097	16141.74
488.467	16088.63
488.837	16544.44
489.207	16748.73
489.578	16939
489.948	17000.7
490.318	17364.76
490.688	17402.49
491.058	17720.23
491.428	18014
491.798	18129.03
492.168	18507.55
492.538	18624.61
492.908	18662.12
493.278	19034.32
493.648	19076.35
494.017	19323.8
494.387	19501.87
494.757	19747.97
495.126	19881.53
495.496	20016.44
495.866	20241.97
496.235	20340.5
496.605	20618.68
496.974	20713.37
497.344	20872.69
497.713	20988.16
498.082	21189.74
498.452	21480.58
498.821	21477.19
499.19	21664.98
499.559	21891.19
499.928	21983.39
500.298	22121.01
500.667	22320.33
501.036	22411.85
501.405	22425.87
501.774	22678.06
502.143	22931.84
502.512	23052.74
502.88	23219.74
503.249	23333.64
503.618	23377.25
503.987	23485.05
504.356	23629
504.724	23826.96
505.093	24053.62
505.462	24023.56
505.83	24353.5
506.199	24521.4
506.567	24785.35
506.936	24769.53
507.304	25160.26
507.672	25194.15
508.041	25405
508.409	25502.62
508.777	25804.76
509.145	25993
509.514	25963.4
509.882	26168.14
510.25	26353.9
510.618	26566.1
510.986	26604.74
511.354	26953.88
511.722	27083.14
512.09	27376.47
512.458	27339.63
512.826	27716.8
513.193	27888.55
513.561	27995.66
513.929	28240.18
514.297	28371.25
514.664	28660.28
515.032	28730.33
515.4	29026.37
515.767	29185.46
516.135	29370.99
516.502	29215.74
516.869	29770.53
517.237	29877.19
517.604	29905.89
517.972	30333.23
518.339	30512.43
518.706	30623.16
519.073	30759.88
519.44	30961.69
519.808	31355.57
520.175	31420.43
520.542	31829.91
520.909	31970.25
521.276	31969.79
521.643	32323.91
522.009	32527.52
522.376	32895.42
522.743	33121.18
523.11	33329.08
523.477	33579.02
523.843	33896.98
524.21	34038.67
524.577	34471.42
524.943	34512.78
525.31	34870.51
525.676	35198.18
526.043	35282.25
526.409	35440.66
526.776	35892.4
527.142	35954.77
527.508	36090.36
527.874	36457.13
528.241	36572.39
528.607	36902.55
528.973	37160.17
529.339	37109.32
529.705	37519.03
530.071	37856.19
530.437	38003.53
530.803	38284.66
531.169	38500.02
531.535	38506.8
531.901	38589.51
532.267	38871.76
532.632	39046.45
532.998	39167.57
533.364	39342.93
533.73	39565.53
534.095	39949.02
534.461	39953.54
534.826	40158.96
535.192	40351.04
535.557	40643.69
535.923	40563.24
536.288	40732.28
536.653	41023.12
537.019	41013.85
537.384	41227.86
537.749	41471.01
538.114	41527.96
538.479	41587.85
538.845	41766.15
539.21	41723.44
539.575	42056.99
539.94	41985.58
540.305	42381.5
540.67	42389.86
541.034	42454.49
541.399	42646.8
541.764	42832.11
542.129	42878.43
542.494	43095.83
542.858	43248.14
543.223	43234.36
543.587	43469.61
543.952	43409.27
544.316	43741.91
544.681	43756.38
545.045	43928.35
545.41	44269.36
545.774	44298.06
546.138	44216.48
546.503	44425.29
546.867	44464.83
547.231	44809.91
547.595	44832.73
547.959	44944.6
548.324	45035.67
548.688	45209.9
549.052	45341.87
549.416	45446.05
549.779	45460.74
550.143	45638.14
550.507	45926.72
550.871	45973.72
551.235	45984.57
551.599	46290.77
551.962	46372.35
552.326	46538.9
552.689	46761.04
553.053	46609.64
553.417	46692.12
553.78	47213.01
554.143	47128.49
554.507	47243.97
554.87	47538.65
555.234	47822.03
555.597	47712.88
555.96	47904.97
556.323	48054.57
556.686	48109.26
557.05	48369.82
557.413	48373.88
557.776	48497.27
558.139	48805.28
558.502	48940.42
558.865	48987.2
559.228	49299.73
559.59	49427.19
559.953	49366.85
560.316	49843
560.679	49913.05
561.041	50059.71
561.404	50252.7
561.767	50405.02
562.129	50270.78
562.492	50668.96
562.854	50730.21
563.217	50668.74
563.579	50972.91
563.941	51130.2
564.304	51256.29
564.666	51477.98
565.028	51462.84
565.39	51603.86
565.753	51814.02
566.115	51884.07
566.477	52035.03
566.839	52116.61
567.201	52323.61
567.563	52420.78
567.925	52487.67
568.287	52569.93
568.648	52640.89
569.01	52837.95
569.372	52943.48
569.734	52962.92
570.095	53150.71
570.457	53263.25
570.819	53291.49
571.18	53352.06
571.542	53481.32
571.903	53565.61
572.265	53663.24
572.626	53753.4
572.987	53769.45
573.349	53877.92
573.71	53987.97
574.071	54097.57
574.432	54197.91
574.794	54374.4
575.155	54326.5
575.516	54256.89
575.877	54334.86
576.238	54401.3
576.599	54645.81
576.96	54598.8
577.32	54616.21
577.681	54745.47
578.042	54766.94
578.403	54781.62
578.763	54807.16
579.124	54853.94
579.485	54920.38
579.845	54893.71
580.206	54902.3
580.566	54945.91
580.927	54983.88
581.287	55045.35
581.648	55058.45
582.008	55129.41
582.368	55068.85
582.728	55137.1
583.089	55046.02
583.449	55074.95
583.809	55116.98
584.169	55139.13
584.529	55033.82
584.889	55292.57
585.249	55144.1
585.609	55087.61
585.969	55247.38
586.329	55122.63
586.688	55224.1
587.048	55181.61
587.408	55091.45
587.768	55143.2
588.127	55144.78
588.487	55155.4
588.846	55246.7
589.206	55180.71
589.565	55132.12
589.925	55251.89
590.284	55156.53
590.643	55199.47
591.003	55258.9
591.362	55312.68
591.721	55301.84
592.08	55273.59
592.44	55322.85
592.799	55308.16
593.158	55227.49
593.517	55303.87
593.876	55293.02
594.235	55235.4
594.593	55351.78
594.952	55364.21
595.311	55307.49
595.67	55402.4
596.029	55488.95
596.387	55488.05
596.746	55483.3
597.104	55395.85
597.463	55315.4
597.822	55528.27
598.18	55392.68
598.538	55426.81
598.897	55577.99
599.255	55365.56
599.613	55672
599.972	55557.65
600.33	55646.23
600.688	55523.98
601.046	55594.94
601.404	55681.26
601.762	55587.93
602.12	55678.78
602.478	55688.04
602.836	55762.84
603.194	55652.56
603.552	55734.14
603.91	55636.52
604.268	55800.35
604.625	55713.35
604.983	55815.5
605.341	55681.26
605.698	55822.05
606.056	55826.34
606.413	55789.96
606.771	55991.76
607.128	56000.8
607.485	55920.58
607.843	55914.02
608.2	56057.75
608.557	56142.04
608.914	56054.36
609.272	56130.29
609.629	56184.53
609.986	56244.64
610.343	56165.77
610.7	56324.86
611.057	56242.6
611.414	56258.87
611.771	56253.68
612.127	56384.97
612.484	56350.62
612.841	56424.29
613.198	56374.8
613.554	56330.96
613.911	56527.34
614.267	56451.64
614.624	56404.63
614.98	56525.08
615.337	56621.8
615.693	56527.79
616.05	56506.1
616.406	56693.66
616.762	56598.07
617.118	56596.72
617.475	56631.75
617.831	56775.47
618.187	56693.89
618.543	56730.05
618.899	56857.95
619.255	56845.07
619.611	56786.54
619.967	56858.18
620.323	56916.48
620.678	56790.16
621.034	56738.64
621.39	56748.58
621.746	56706.77
622.101	57016.82
622.457	56753.78
622.812	56907.44
623.168	56904.05
623.523	56913.55
623.879	56975.69
624.234	56756.94
624.589	56912.19
624.945	56932.53
625.3	56928.69
625.655	56964.17
626.01	56863.6
626.365	56877.39
626.72	56870.16
627.075	56854.34
627.43	56895.24
627.785	56780.22
628.14	56841.91
628.495	56835.58
628.85	56793.32
629.205	56653.67
629.559	56833.55
629.914	56665.87
630.269	56673.1
630.623	56589.71
630.978	56518.98
631.332	56645.98
631.687	56665.64
632.041	56512.65
632.396	56618.64
632.75	56451.19
633.104	56482.14
633.459	56413.45
633.813	56334.58
634.167	56403.28
634.521	56313.11
634.875	56319.21
635.229	56288.03
635.583	56188.37
635.937	56142.49
636.291	56124.64
636.645	56189.72
636.999	56086.45
637.352	56151.53
637.706	55951.99
638.06	56097.97
638.413	56034.47
638.767	55928.04
639.121	55889.17
639.474	55836.29
639.828	55781.6
640.181	55832.44
640.534	55863.63
640.888	55736.63
641.241	55640.59
641.594	55726.01
641.947	55793.58
642.301	55643.3
642.654	55659.57
643.007	55610.76
643.36	55539.8
643.713	55473.36
644.066	55576.18
644.419	55453.92
644.771	55233.36
645.124	55002.18
645.477	55048.51
645.83	54735.98
646.182	54590.22
646.535	54483.55
646.888	54561.29
647.24	54271.36
647.593	54465.02
647.945	54441.75
648.298	54259.6
648.65	54176.89
649.002	54130.79
649.355	54234.29
649.707	54259.83
650.059	54360.17
650.411	54646.71
650.763	54646.03
651.115	54935.97
651.467	54841.06
651.819	54878.35
652.171	54760.16
652.523	54780.04
652.875	54672.47
653.227	54616.88
653.578	54785.69
653.93	54662.31
654.282	54618.24
654.633	54496.43
654.985	54478.81
655.337	54564.46
655.688	54509.09
656.039	54506.6
656.391	54324.24
656.742	54410.79
657.094	54389.54
657.445	54397
657.796	54352.71
658.147	54356.33
658.498	54318.36
658.849	54353.39
659.2	54305.93
659.551	54238.59
659.902	54316.78
660.253	54178.93
660.604	54322.88
660.955	54104.81
661.306	54077.01
661.656	54100.96
662.007	54185.26
662.358	54158.59
662.708	54143.68
663.059	54016.22
663.409	53925.83
663.76	54033.17
664.11	53995.2
664.461	54032.27
664.811	54079.5
665.161	53945.71
665.511	53959.95
665.862	53875.43
666.212	53958.37
666.562	53947.3
666.912	53885.38
667.262	53790.92
667.612	53834.53
667.962	53896.9
668.312	53818.94
668.662	53900.07
669.011	53870.91
669.361	53788.88
669.711	53757.24
670.06	53685.16
670.41	53721.31
670.76	53583.24
671.109	53658.72
671.459	53617.81
671.808	53625.04
672.157	53583.46
672.507	53336.69
672.856	53466.4
673.205	53501.43
673.554	53408.55
673.904	53411.04
674.253	53531.71
674.602	53366.29
674.951	53095.79
675.3	52797.5
675.649	53336.24
675.998	53241.55
676.346	53284.04
676.695	53393.19
677.044	53124.27
677.393	53228.9
677.741	53231.16
678.09	53219.18
678.438	53108.67
678.787	53191.61
679.135	53148.9
679.484	52965.63
679.832	52995.46
680.181	52811.28
680.529	52981.22
680.877	52839.53
681.225	52713.2
681.573	52962.46
681.922	52639.08
682.27	52596.37
682.618	52650.16
682.966	52560.67
683.314	52754.11
683.661	52489.71
684.009	52396.6
684.357	52352.99
684.705	52225.76
685.053	52317.28
685.4	52207.68
685.748	52086.33
686.095	52008.14
686.443	51969.04
686.79	51729.5
687.138	51797.3
687.485	51840.46
687.832	51824.64
688.18	51840.68
688.527	51641.59
688.874	51582.39
689.221	51456.97
689.568	51320.47
689.915	51346.23
690.262	51367.25
690.609	51085.45
690.956	50961.84
691.303	50918.45
691.65	50797.32
691.997	50915.06
692.344	50577.22
692.69	50676.87
693.037	50646.59
693.383	50374.51
693.73	50422.64
694.077	50122.09
694.423	50195.98
694.769	49971.81
695.116	49967.29
695.462	49923.9
695.808	49809.78
696.155	49864.01
696.501	49606.85
696.847	49587.41
697.193	49330.47
697.539	49328.21
697.885	49192.62
698.231	49034.66
698.577	49124.82
698.923	48932.06
699.269	48738.39
699.614	48545.4
699.96	48626.08
700.306	48533.65
700.651	48380.66
700.997	48248.01
701.342	48200.55
701.688	48019.77
702.033	47920.11
702.379	47893.67
702.724	47787.91
703.069	47714.92
703.415	47478.31
703.76	47476.96
704.105	47462.04
704.45	47219.11
704.795	46953.13
705.14	46941.38
705.485	46819.8
705.83	46701.39
706.175	46796.98
706.52	46625
706.865	46476.31
707.209	46441.28
707.554	46280.83
707.899	46391.11
708.243	46099.82
708.588	46098.01
708.932	45889.88
709.277	45872.03
709.621	45756.33
709.966	45498.03
710.31	45579.83
710.654	45310.91
710.998	45243.12
711.342	45368.76
711.687	45282.21
712.031	45021.88
712.375	44834.54
712.719	45022.11
713.063	44894.88
713.407	44916.8
713.75	44620.08
714.094	44678.61
714.438	44475.23
714.782	44361.79
715.125	44210.6
715.469	44304.61
715.812	44114.79
716.156	43807.45
716.499	43879.54
716.843	43978.97
717.186	43671.18
717.53	43841.57
717.873	43877.5
718.216	43724.29
718.559	43693.33
718.902	43220.12
719.246	43343.73
719.589	43283.62
719.932	42977.87
720.275	43149.84
720.617	43075.94
720.96	42999.56
721.303	42775.61
721.646	42828.94
721.989	42634.83
722.331	42739.91
722.674	42632.34
723.016	42596.18
723.359	42521.61
723.701	42452.23
724.044	42309.18
724.386	42088.17
724.729	42339.01
725.071	42221.28
725.413	42070.09
725.755	41869.42
726.097	41853.38
726.439	41569.77
726.782	41635.98
727.124	41748.29
727.465	41560.96
727.807	41457
728.149	41312.15
728.491	41278.48
728.833	41273.96
729.175	41140.85
729.516	40976.56
729.858	41126.16
730.199	41133.85
730.541	40982.67
730.882	40789
731.224	40964.59
731.565	40669.23
731.906	40642.56
732.248	40702.9
732.589	40415.9
732.93	40386.75
733.271	40377.71
733.612	40440.08
733.953	40365.05
734.294	40164.61
734.635	40043.03
734.976	40066.53
735.317	39858.85
735.658	39809.14
735.999	39874.22
736.339	39578.18
736.68	39603.49
737.021	39601.23
737.361	39311.52
737.702	39614.57
738.042	39430.62
738.383	39361.69
738.723	39400.79
739.063	39275.14
739.404	39305.2
739.744	39279.89
740.084	39022.49
740.424	39095.48
740.764	38933
741.104	39111.98
741.444	38779.56
741.784	38661.37
742.124	38856.17
742.464	38724.65
742.804	38628.83
743.143	38461.6
743.483	38584.99
743.823	38290.53
744.162	38355.16
744.502	38456.86
744.841	38137.77
745.181	38281.27
745.52	38071.1
745.86	38007.6
746.199	37897.32
746.538	37935.74
746.877	37910.43
747.216	37839.25
747.556	37760.38
747.895	37767.16
748.234	37580.27
748.573	37376.21
748.911	37413.72
749.25	37446.71
749.589	37126.72
749.928	37315.87
750.267	37236.1
750.605	37137.57
750.944	37000.62
751.283	36933.96
751.621	36695.77
751.96	36680.86
752.298	36704.59
752.636	36693.06
752.975	36403.35
753.313	36328.1
753.651	36454.42
753.989	36260.53
754.327	36183.47
754.666	36030.48
755.004	36035.68
755.342	35917.71
755.679	35925.85
756.017	35623.48
756.355	35708.91
756.693	35521.57
757.031	35619.87
757.368	35500.32
757.706	35340.55
758.044	35134.46
758.381	35233.66
758.719	35030.73
759.056	35054.69
759.394	34812.43
759.731	34752.77
760.068	34674.81
760.405	34539.67
760.743	34475.94
761.08	34427.58
761.417	34141.94
761.754	34117.54
762.091	34097.2
762.428	33954.6
762.765	33779.92
763.102	33814.04
763.438	33602.75
763.775	33582.86
764.112	33568.17
764.449	33597.32
764.785	33143.78
765.122	33000.05
765.458	32867.85
765.795	32983.55
766.131	32864.46
766.467	32787.17
766.804	32609.78
767.14	32418.6
767.476	32335.66
767.812	32275.1
768.148	32248.88
768.485	31992.39
768.821	31888.44
769.157	31900.19
769.492	31796.24
769.828	31683.47
770.164	31441.45
770.5	31380.21
770.836	31350.83
771.171	31140.89
771.507	31033.77
771.842	30871.52
772.178	30745.65
772.513	30800.11
772.849	30669.49
773.184	30550.4
773.519	30368.48
773.855	30357.41
774.19	30300.69
774.525	30206.9
774.86	30015.95
775.195	30054.14
775.53	29873.35
775.865	29730.53
776.2	29445.79
776.535	29329.19
776.87	29260.26
777.205	29186.37
777.539	28934.85
777.874	29038.57
778.209	28867.05
778.543	28762.65
778.878	28599.71
779.212	28546.38
779.547	28504.35
779.881	28513.61
780.215	28304.81
780.55	28261.87
780.884	28084.7
781.218	28011.26
781.552	28067.75
781.886	27888.77
782.22	27759.06
782.554	27598.61
782.888	27233.2
783.222	27213.08
783.556	27156.81
783.889	27070.04
784.223	26963.6
784.557	26847.67
784.89	26861
785.224	26766.09
785.557	26584.4
785.891	26543.5
786.224	26464.4
786.558	26499.43
786.891	26149.61
787.224	26024.41
787.557	26126.11
787.891	25860.8
788.224	25949.16
788.557	25811.54
788.89	25604.54
789.223	25728.83
789.556	25506.69
789.888	25347.6
790.221	25370.42
790.554	25119.35
790.887	25149.86
791.219	25039.36
791.552	24857.67
791.884	24853.6
792.217	24730.44
792.549	24686.37
792.882	24513.04
793.214	24500.84
793.546	24440.28
793.879	24304.01
794.211	24202.99
794.543	24235.54
794.875	24058.59
795.207	23954.19
795.539	23883
795.871	23958.71
796.203	23679.39
796.535	23549
796.867	23530.92
797.198	23461.77
797.53	23546.06
797.862	23308.33
798.193	23376.35
798.525	23152.63
798.856	23247.76
799.188	22994.44
799.519	22883.25
799.85	22737.5
800.182	22778.85
800.513	22813.43
800.844	22594.45
801.175	22624.28
801.506	22604.17
801.837	22468.12
802.168	22516.94
802.499	22371.63
802.83	22195.14
803.161	22110.62
803.491	22034.24
803.822	22066.78
804.153	21989.27
804.483	21845.99
804.814	21792.66
805.145	21716.73
805.475	21700.23
805.805	21697.3
806.136	21655.94
806.466	21658.2
806.796	21491.88
807.126	21322.39
807.457	21231.55
807.787	21391.77
808.117	21183.41
808.447	21043.53
808.777	21114.04
809.107	21024.32
809.436	20999.01
809.766	20975.06
810.096	20775.06
810.426	20784.1
810.755	20782.07
811.085	20746.14
811.414	20636.99
811.744	20533.03
812.073	20470.66
812.403	20470.44
812.732	20316.09
813.061	20371
813.39	20201.29
813.719	20120.16
814.049	20291.68
814.378	20117.45
814.707	20105.25
815.036	19999.71
815.365	19932.82
815.693	19883.33
816.022	19825.26
816.351	19745.48
816.68	19598.82
817.008	19737.12
817.337	19463.23
817.665	19454.64
817.994	19627.97
818.322	19503.68
818.651	19338.94
818.979	19224.37
819.307	19364.25
819.636	19257.13
819.964	19056.69
820.292	19249.9
820.62	19220.07
820.948	19103.01
821.276	19262.56
821.604	19122.9
821.932	19086.97
822.259	19107.76
822.587	19098.04
822.915	19049.91
823.243	18963.58
823.57	18949.8
823.898	19003.58
824.225	18877.71
824.553	18970.59
824.88	18987.54
825.207	19025.73
825.535	19020.3
825.862	19001.1
826.189	19000.19
826.516	18976.46
826.843	19053.98
827.17	19038.61
827.497	19084.71
827.824	19050.81
828.151	19098.5
828.478	18961.32
828.805	19049.46
829.131	18935.79
829.458	18924.04
829.785	18794.1
830.111	18823.02
830.438	18893.08
830.764	18912.06
831.09	18999.97
831.417	18761.55
831.743	18850.14
832.069	18891.95
832.395	18726.53
832.722	18851.95
833.048	18727.21
833.374	18674.55
833.7	18722.23
834.026	18696.47
834.351	18779.18
834.677	18752.74
835.003	18725.4
835.329	18727.88
835.654	18647.66
835.98	18463.71
836.306	18595.68
836.631	18542.58
836.956	18526.53
837.282	18530.37
837.607	18391.17
837.932	18271.17
838.258	18325.63
838.583	18397.72
838.908	18302.81
839.233	18292.87
839.558	18250.61
839.883	18198.86
840.208	18128.13
840.533	18074.57
840.858	18073.21
841.182	17967.45
841.507	17998.86
841.832	17866.44
842.156	17862.6
842.481	17878.19
842.805	17934.23
843.13	17824.18
843.454	17814.01
843.778	17772.43
844.103	17675.93
844.427	17696.05
844.751	17620.79
845.075	17594.13
845.399	17466.67
845.723	17457.41
846.047	17430.06
846.371	17332.67
846.695	17228.26
847.019	17092.9
847.343	17005.89
847.666	17004.09
847.99	16844.77
848.313	16805.22
848.637	16722.06
848.96	16714.38
849.284	16623.31
849.607	16522.52
849.931	16528.39
850.254	16340.38
850.577	16305.12
850.9	16181.28
851.223	16152.36
851.546	16074.17
851.869	15979.48
852.192	16124.79
852.515	15913.95
852.838	15846.6
853.161	15862.2
853.483	15793.27
853.806	15713.05
854.129	15584.69
854.451	15572.49
854.774	15511.47
855.096	15514.63
855.419	15403.9
855.741	15368.65
856.063	15282.55
856.385	15244.13
856.708	15198.48
857.03	15226.05
857.352	15266.96
857.674	15115.55
857.996	15070.8
858.318	15037.81
858.64	14956.91
858.961	14965.27
859.283	14803.24
859.605	14820.64
859.926	14873.3
860.248	14767.08
860.57	14785.61
860.891	14754.65
861.212	14633.75
861.534	14626.75
861.855	14662.68
862.176	14546.98
862.498	14526.64
862.819	14473.31
863.14	14455.91
863.461	14403.48
863.782	14368.22
864.103	14367.09
864.424	14297.27
864.745	14313.54
865.065	14225.4
865.386	14150.6
865.707	14266.76
866.027	14216.36
866.348	14123.48
866.668	14189.25
866.989	14093.88
867.309	13980.21
867.63	14008.91
867.95	14005.3
868.27	13915.58
868.59	13992.64
868.91	13852.08
869.23	13836.94
869.55	13821.8
869.87	13840.1
870.19	13812.31
870.51	13829.03
870.83	13761.69
871.15	13592.2
871.469	13696.38
871.789	13728.47
872.109	13638.75
872.428	13586.32
872.748	13610.28
873.067	13605.08
873.386	13595.14
873.706	13502.26
874.025	13435.14
874.344	13412.54
874.663	13487.12
874.982	13371.41
875.301	13367.8
875.62	13349.72
875.939	13258.87
876.258	13288.7
876.577	13218.65
876.896	13253.68
877.214	13259.55
877.533	13257.97
877.852	13210.29
878.17	13203.28
878.489	13250.51
878.807	13231.98
879.125	13189.27
879.444	13063.85
879.762	13133.45
880.08	13055.26
880.398	12964.87
880.716	13011.65
881.034	12864.76
881.352	13022.5
881.67	12884.42
881.988	12890.97
882.306	12942.95
882.624	12867.47
882.941	12771.2
883.259	12699.34
883.577	12776.18
883.894	12813.01
884.212	12696.4
884.529	12656.4
884.846	12661.38
885.164	12583.86
885.481	12548.61
885.798	12589.97
886.115	12481.04
886.432	12492.34
886.75	12451.66
887.067	12458.22
887.383	12341.84
887.7	12378.22
888.017	12191.11
888.334	12393.59
888.651	12350.2
888.967	12274.49
889.284	12137.1
889.6	12184.33
889.917	12108.62
890.233	12105.46
890.55	12044.9
890.866	12065.46
891.182	11997.21
891.498	11998.79
891.815	11928.97
892.131	11891.23
892.447	11836.77
892.763	11804.9
893.079	11725.58
893.395	11669.54
893.71	11702.31
894.026	11623.44
894.342	11655.3
894.657	11552.48
894.973	11563.55
895.289	11572.37
895.604	11546.83
895.92	11448.98
896.235	11371.69
896.55	11357
896.865	11370.56
897.181	11327.63
897.496	11285.82
897.811	11206.27
898.126	11195.43
898.441	11202.43
898.756	11090.34
899.071	11015.09
899.386	11101.42
899.7	10995.66
900.015	10905.72
900.33	10732.39
900.644	10773.06
900.959	10765.83
901.273	10789.56
901.588	10717.25
901.902	10652.62
902.216	10636.8
902.531	10585.27
902.845	10563.13
903.159	10458.95
903.473	10501.88
903.787	10372.4
904.101	10350.7
904.415	10308.22
904.729	10385.05
905.042	10277.48
905.356	10291.95
905.67	10272.96
905.984	10282.23
906.297	10175.79
906.611	10054.67
906.924	10125.4
907.237	9987.77
907.551	9937.61
907.864	9923.6
908.177	9891.05
908.491	9901.9
908.804	9812.86
909.117	9740.32
909.43	9721.79
909.743	9645.41
910.056	9632.53
910.368	9655.58
910.681	9573.55
910.994	9542.59
911.307	9479.31
911.619	9411.29
911.932	9385.98
912.244	9358.86
912.557	9319.54
912.869	9256.49
913.181	9188.47
913.494	9204.74
913.806	9144.18
914.118	9110.74
914.43	9116.16
914.742	9137.63
915.054	9032.09
915.366	8934.92
915.678	8983.28
915.99	8869.16
916.302	8846.56
916.613	8801.82
916.925	8795.94
917.236	8790.97
917.548	8666.45
917.859	8700.35
918.171	8651.54
918.482	8594.59
918.794	8501.26
919.105	8588.94
919.416	8428.72
919.727	8435.72
920.038	8427.36
920.349	8349.63
920.66	8323.64
920.971	8313.92
921.282	8208.61
921.593	8214.26
921.903	8162.51
922.214	8110.54
922.525	8078.67
922.835	8050.2
923.146	8075.51
923.456	8024.89
923.767	7984.44
924.077	7954.16
924.387	7947.6
924.697	7875.29
925.008	7834.16
925.318	7782.86
925.628	7796.65
925.938	7760.94
926.248	7671.22
926.558	7697.44
926.867	7573.83
927.177	7580.38
927.487	7537.44
927.796	7461.96
928.106	7504
928.416	7503.09
928.725	7407.28
929.034	7411.34
929.344	7377.9
929.653	7372.7
929.962	7282.31
930.271	7233.72
930.581	7194.18
930.89	7147.17
931.199	7141.52
931.508	7127.28
931.817	7109.66
932.125	7141.75
932.434	7104.91
932.743	7038.47
933.051	6976.1
933.36	6991.69
933.669	6907.86
933.977	6901.08
934.286	6910.11
934.594	6873.28
934.902	6810.23
935.21	6723
935.519	6769.55
935.827	6675.54
936.135	6706.28
936.443	6623.34
936.751	6552.84
937.059	6567.53
937.367	6557.58
937.674	6558.94
937.982	6545.38
938.29	6494.76
938.597	6491.59
938.905	6426.29
939.213	6363.91
939.52	6344.03
939.827	6356.68
940.135	6308.77
940.442	6267.87
940.749	6288.21
941.056	6240.53
941.363	6154.2
941.67	6176.57
941.977	6144.94
942.284	6096.35
942.591	6097.93
942.898	6021.55
943.205	6044.37
943.511	6002.34
943.818	5995.79
944.125	5927.77
944.431	5929.12
944.738	5909.46
945.044	5835.34
945.35	5826.3
945.657	5789.92
945.963	5822.46
946.269	5778.17
946.575	5762.57
946.881	5708.34
947.187	5708.11
947.493	5637.15
947.799	5629.24
948.105	5595.12
948.41	5570.04
948.716	5608.23
949.022	5563.26
949.327	5556.03
949.633	5486.42
949.938	5511.28
950.244	5465.86
950.549	5428.57
950.854	5332.3
951.16	5354
951.465	5346.31
951.77	5319.87
952.075	5256.6
952.38	5304.51
952.685	5270.61
952.99	5198.75
953.294	5138.18
953.599	5181.57
953.904	5176.83
954.209	5181.12
954.513	5137.05
954.818	5124.4
955.122	5058.19
955.426	5032.42
955.731	5003.05
956.035	4993.78
956.339	4978.19
956.643	4995.59
956.948	4965.53
957.252	4944.97
957.556	4883.5
957.86	4899.55
958.163	4811.64
958.467	4829.04
958.771	4810.06
959.075	4769.38
959.378	4711.75
959.682	4765.09
959.985	4711.75
960.289	4704.98
960.592	4668.14
960.896	4620.01
961.199	4660
961.502	4629.5
961.805	4581.14
962.108	4551.98
962.411	4592.21
962.714	4447.13
963.017	4463.63
963.32	4500.01
963.623	4478.77
963.926	4438.99
964.228	4396.73
964.531	4443.74
964.833	4395.83
965.136	4410.52
965.438	4370.52
965.741	4312.9
966.043	4305.66
966.345	4314.7
966.648	4266.34
966.95	4276.96
967.252	4219.34
967.554	4196.97
967.856	4160.58
968.158	4159.68
968.46	4133.69
968.761	4161.71
969.063	4137.08
969.365	4138.44
969.666	4070.19
969.968	4032.45
970.269	4017.54
970.571	4022.28
970.872	3992.45
971.174	3959.46
971.475	3947.71
971.776	3976.18
972.077	3941.61
972.378	3926.92
972.679	3877.88
972.98	3839.24
973.281	3835.85
973.582	3871.78
973.883	3835.85
974.183	3816.64
974.484	3817.54
974.785	3773.47
975.085	3781.61
975.386	3794.94
975.686	3775.28
975.986	3688.73
976.287	3676.08
976.587	3626.36
976.887	3702.29
977.187	3623.87
977.487	3651.22
977.787	3614.16
978.087	3576.42
978.387	3583.65
978.687	3551.79
978.987	3535.74
979.286	3569.86
979.586	3516.53
979.885	3471.79
980.185	3473.6
980.484	3444.22
980.784	3464.1
981.083	3416.42
981.382	3425.46
981.682	3385.01
981.981	3366.25
982.28	3376.65
982.579	3337.55
982.878	3383.43
983.177	3334.39
983.475	3345.46
983.774	3284.22
984.073	3275.86
984.372	3276.76
984.67	3247.84
984.969	3260.27
985.267	3241.06
985.566	3231.12
985.864	3215.97
986.162	3206.26
986.461	3173.49
986.759	3138.91
987.057	3124.9
987.355	3111.8
987.653	3114.73
987.951	3099.82
988.249	3088.75
988.547	3083.77
988.844	3071.12
989.142	3029.09
989.44	3056.2
989.737	3008.52
990.035	2970.11
990.332	2965.59
990.63	2959.26
990.927	2938.24
991.224	2914.51
991.521	2927.62
991.819	2933.27
992.116	2903.89
992.413	2884.91
992.71	2860.5
993.006	2881.97
993.303	2800.62
993.6	2816.66
993.897	2804.23
994.193	2793.39
994.49	2795.65
994.787	2810.34
995.083	2763.11
995.379	2721.52
995.676	2714.52
995.972	2715.42
996.268	2685.82
996.565	2699.83
996.861	2677.68
997.157	2642.66
997.453	2623
997.749	2618.25
998.044	2595.2
998.34	2588.87
998.636	2584.58
998.932	2599.04
999.227	2535.99
999.523	2557.01
999.818	2515.43
1000.114	2517.91
1000.409	2489.89
1000.704	2482.66
1001	2468.42
1001.295	2468.88
1001.59	2482.66
1001.885	2433.85
1002.18	2416.67
1002.475	2399.73
1002.77	2373.74
1003.065	2349.56
1003.359	2340.52
1003.654	2392.49
1003.949	2331.25
1004.243	2311.14
1004.538	2335.32
1004.832	2301.2
1005.127	2343.68
1005.421	2281.76
1005.715	2273.4
1006.009	2285.15
1006.304	2228.66
1006.598	2242.67
1006.892	2186.4
1007.186	2225.27
1007.48	2167.41
1007.773	2181.43
1008.067	2189.34
1008.361	2135.78
1008.655	2102.33
1008.948	2123.12
1009.242	2127.42
1009.535	2078.38
1009.829	2103.91
1010.122	2054.88
1010.415	2027.31
1010.708	2023.01
1011.001	2004.26
1011.295	2025.05
1011.588	2000.41
1011.881	2015.55
1012.173	1950.47
1012.466	1984.37
1012.759	1976.69
1013.052	1965.16
1013.344	1926.97
1013.637	1959.06
1013.93	1948.21
1014.222	1886.97
1014.514	1874.09
1014.807	1876.12
1015.099	1852.62
1015.391	1838.84
1015.683	1839.29
1015.976	1815.56
1016.268	1816.69
1016.56	1789.12
1016.851	1811.49
1017.143	1790.7
1017.435	1772.17
1017.727	1760.87
1018.018	1762.23
1018.31	1732.4
1018.602	1731.04
1018.893	1722.68
1019.185	1705.28
1019.476	1670.25
1019.767	1702.12
1020.058	1667.77
1020.35	1656.24
1020.641	1658.5
1020.932	1644.72
1021.223	1621.89
1021.514	1632.51
1021.804	1595.45
1022.095	1616.92
1022.386	1590.93
1022.677	1552.97
1022.967	1526.3
1023.258	1560.65
1023.548	1548.22
1023.839	1526.53
1024.129	1536.7
1024.419	1521.78
1024.709	1505.96
1025	1498.73
1025.29	1503.93
1025.58	1499.64
1025.87	1472.74
1026.16	1477.26
1026.449	1432.29
1026.739	1436.36
1027.029	1428
1027.319	1437.26
1027.608	1386.64
1027.898	1408.11
1028.187	1382.12
1028.477	1364.05
1028.766	1376.25
1029.055	1323.37
1029.344	1335.8
1029.634	1358.62
1029.923	1335.35
1030.212	1333.99
1030.501	1306.65
1030.79	1315.46
1031.078	1309.58
1031.367	1286.31
1031.656	1278.4
1031.945	1282.69
1032.233	1272.98
1032.522	1263.71
1032.81	1246.99
1033.099	1242.24
1033.387	1230.26
1033.675	1232.52
1033.963	1234.33
1034.251	1195.01
1034.54	1198.17
1034.828	1177.38
1035.116	1168.57
1035.403	1150.27
1035.691	1164.5
1035.979	1134.45
1036.267	1152.3
1036.554	1152.53
1036.842	1121.34
1037.129	1134.45
1037.417	1099.65
1037.704	1124.5
1037.992	1087.9
1038.279	1084.51
1038.566	1078.63
1038.853	1078.63
1039.14	1078.63
