Data from breadboard_black_back_FLMS001491_00075.txt Node
Date: Wed Feb 08 10:50:53 GMT 2017
User: dcchb
Spectrometer: FLMS00149
Trigger mode: 0
Integration Time (sec): 2.000000E-2
Scans to average: 10
Electric dark correction enabled: true
Nonlinearity correction enabled: false
Boxcar width: 0
XAxis mode: Wavelengths
Number of Pixels in Spectrum: 2048
>>>>>Begin Spectral Data<<<<<
341.393	-7.57
341.776	-7.57
342.16	-7.57
342.543	-43.05
342.927	-70.85
343.31	-88.7
343.693	-57.29
344.077	-68.13
344.46	-50.73
344.843	-54.8
345.226	-31.3
345.61	-36.95
345.993	-28.36
346.376	-4.18
346.759	28.59
347.142	31.07
347.525	40.56
347.908	50.06
348.291	67
348.674	90.28
349.057	112.88
349.44	128.7
349.823	131.86
350.206	130.96
350.588	203.27
350.971	220.9
351.354	224.74
351.737	229.26
352.119	251.18
352.502	273.1
352.884	260.45
353.267	296.38
353.65	309.48
354.032	295.47
354.414	290.05
354.797	328.24
355.179	318.3
355.562	308.58
355.944	333.21
356.326	338.41
356.709	332.53
357.091	333.66
357.473	350.39
357.855	350.16
358.238	370.72
358.62	344.06
359.002	330.5
359.384	358.07
359.766	350.16
360.148	352.87
360.53	341.8
360.912	359.88
361.294	353.55
361.676	321.01
362.057	361.01
362.439	343.38
362.821	337.73
363.203	321.69
363.584	339.77
363.966	327.34
364.348	345.87
364.729	315.81
365.111	334.12
365.493	353.55
365.874	336.15
366.256	338.64
366.637	329.6
367.019	340.44
367.4	354.68
367.781	326.88
368.163	353.32
368.544	347.45
368.925	335.02
369.306	328.92
369.688	358.75
370.069	358.52
370.45	356.94
370.831	356.49
371.212	342.7
371.593	327.34
371.974	345.87
372.355	345.41
372.736	349.26
373.117	345.41
373.498	345.87
373.879	357.17
374.26	329.6
374.641	353.1
375.021	359.88
375.402	329.82
375.783	375.92
376.163	373.44
376.544	371.4
376.925	381.57
377.305	372.98
377.686	372.53
378.066	354.91
378.447	368.46
378.827	386.54
379.208	380.22
379.588	363.95
379.968	394.45
380.349	381.35
380.729	408.24
381.109	413.44
381.489	380.67
381.87	384.28
382.25	375.92
382.63	396.94
383.01	398.75
383.39	416.37
383.77	400.78
384.15	397.16
384.53	420.44
384.91	417.73
385.29	432.42
385.67	434.9
386.049	434.23
386.429	428.58
386.809	433.1
387.189	407.79
387.568	437.62
387.948	434.9
388.328	444.62
388.707	425.19
389.087	445.75
389.466	462.47
389.846	443.72
390.225	447.56
390.605	469.25
390.984	481.46
391.363	487.33
391.743	455.92
392.122	465.86
392.501	502.47
392.881	489.59
393.26	478.07
393.639	481.91
394.018	496.82
394.397	504.28
394.776	516.48
395.155	520.78
395.534	512.42
395.913	542.92
396.292	513.09
396.671	528.69
397.05	535.47
397.429	536.14
397.808	560.32
398.186	531.17
398.565	543.38
398.944	543.83
399.323	575.24
399.701	556.48
400.08	543.6
400.458	564.39
400.837	571.17
401.215	574.34
401.594	572.3
401.972	562.13
402.351	578.63
402.729	599.87
403.107	620.44
403.486	608.91
403.864	617.95
404.242	617.72
404.62	623.83
404.999	642.81
405.377	612.3
405.755	637.38
406.133	659.08
406.511	633.09
406.889	657.72
407.267	676.93
407.645	664.73
408.023	679.42
408.401	654.79
408.779	677.61
409.156	725.29
409.534	707.89
409.912	703.6
410.29	729.13
410.667	739.75
411.045	760.77
411.422	747.21
411.8	770.26
412.178	748.57
412.555	796.48
412.933	799.64
413.31	799.64
413.687	822.69
414.065	801
414.442	818.62
414.819	814.55
415.197	823.14
415.574	838.28
415.951	852.97
416.328	842.58
416.705	847.55
417.082	855.46
417.46	871.28
417.837	896.59
418.214	891.16
418.591	928.68
418.967	919.64
419.344	902.01
419.721	937.94
420.098	907.43
420.475	926.64
420.852	952.4
421.228	968.22
421.605	978.62
421.982	974.55
422.358	986.3
422.735	1003.93
423.111	994.89
423.488	1026.53
423.864	998.28
424.241	1031.95
424.617	1053.64
424.994	1018.62
425.37	1062.91
425.746	1070.14
426.123	1083.25
426.499	1092.51
426.875	1110.14
427.251	1143.13
427.627	1165.73
428.003	1160.08
428.379	1142.23
428.756	1184.94
429.132	1228.1
429.507	1209.8
429.883	1187.43
430.259	1240.76
430.635	1243.92
431.011	1243.47
431.387	1291.83
431.763	1278.27
432.138	1297.48
432.514	1308.1
432.89	1352.85
433.265	1369.12
433.641	1396.46
434.016	1369.79
434.392	1412.96
434.767	1432.17
435.143	1451.6
435.518	1479.62
435.894	1473.07
436.269	1482.79
436.644	1496.12
437.02	1484.59
437.395	1491.83
437.77	1556.46
438.145	1570.47
438.52	1585.16
438.895	1591.26
439.271	1619.51
439.646	1619.51
440.021	1632.61
440.395	1648.66
440.77	1620.86
441.145	1675.55
441.52	1660.86
441.895	1673.97
442.27	1709.22
442.645	1704.47
443.019	1738.82
443.394	1768.2
443.769	1772.5
444.143	1734.53
444.518	1823.34
444.892	1752.61
445.267	1813.17
445.641	1847.3
446.016	1807.3
446.39	1822.89
446.764	1859.27
447.139	1842.32
447.513	1864.7
447.887	1859.5
448.262	1882.78
448.636	1900.85
449.01	1906.05
449.384	1954.41
449.758	1987.41
450.132	2005.26
450.506	2006.16
450.88	2034.18
451.254	2038.25
451.628	2065.37
452.002	2059.95
452.376	2107.85
452.75	2114.41
453.123	2112.6
453.497	2151.92
453.871	2198.47
454.244	2249.55
454.618	2246.61
454.992	2253.39
455.365	2275.99
455.739	2335.64
456.112	2362.76
456.486	2341.52
456.859	2366.15
457.232	2438.01
457.606	2429.2
457.979	2468.97
458.352	2548.07
458.725	2546.26
459.099	2565.24
459.472	2632.36
459.845	2637.33
460.218	2668.97
460.591	2708.74
460.964	2721.62
461.337	2769.08
461.71	2814.73
462.083	2841.17
462.456	2864.67
462.829	2861.28
463.201	2931.34
463.574	2936.31
463.947	2984.44
464.32	3065.8
464.692	3102.86
465.065	3093.14
465.438	3140.14
465.81	3173.36
466.183	3201.61
466.555	3249.52
466.928	3293.13
467.3	3304.43
467.672	3372.91
468.045	3490.42
468.417	3469.17
468.789	3499.23
469.161	3535.61
469.534	3592.11
469.906	3662.62
470.278	3692.9
470.65	3756.62
471.022	3794.36
471.394	3898.54
471.766	3874.59
472.138	3941.48
472.51	4035.94
472.882	4089.27
473.253	4191.87
473.625	4215.82
473.997	4285.2
474.369	4332.65
474.74	4336.27
475.112	4440.22
475.484	4494.68
475.855	4598.86
476.227	4645.64
476.598	4779.42
476.97	4813.77
477.341	4964.5
477.713	4970.38
478.084	5061.45
478.455	5148.45
478.827	5195
479.198	5326.3
479.569	5318.39
479.94	5516.35
480.311	5572.17
480.682	5641.55
481.053	5803.8
481.424	5904.59
481.795	5994.08
482.166	6070.24
482.537	6117.24
482.908	6302.09
483.279	6294.18
483.65	6378.02
484.021	6538.25
484.391	6626.15
484.762	6680.16
485.133	6718.81
485.503	6835.87
485.874	6968.74
486.244	7038.57
486.615	7220.71
486.985	7252.35
487.356	7382.97
487.726	7464.32
488.097	7590.87
488.467	7615.73
488.837	7772.11
489.207	7938.44
489.578	8013.24
489.948	8069.51
490.318	8172.78
490.688	8264.98
491.058	8402.83
491.428	8497.29
491.798	8613.22
492.168	8741.8
492.538	8827.23
492.908	8891.4
493.278	9054.11
493.648	8994.68
494.017	9171.62
494.387	9214.56
494.757	9339.3
495.126	9439.19
495.496	9391.05
495.866	9499.07
496.235	9635.57
496.605	9723.7
496.974	9794.21
497.344	9894.09
497.713	9982.9
498.082	9972.28
498.452	10145.16
498.821	10205.49
499.19	10297.92
499.559	10370.01
499.928	10366.17
500.298	10495.66
500.667	10633.05
501.036	10589.89
501.405	10741.53
501.774	10718.25
502.143	10863.56
502.512	10932.71
502.88	11039.6
503.249	10999.15
503.618	11120.95
503.987	11221.74
504.356	11221.29
504.724	11315.07
505.093	11384.67
505.462	11475.52
505.83	11497.44
506.199	11616.98
506.567	11784.44
506.936	11775.4
507.304	11948.5
507.672	11955.28
508.041	12053.81
508.409	12131.55
508.777	12310.3
509.145	12366.79
509.514	12398.43
509.882	12442.95
510.25	12558.2
510.618	12681.81
510.986	12730.17
511.354	12854.01
511.722	12906.21
512.09	13071.41
512.458	13128.58
512.826	13286.32
513.193	13341.01
513.561	13325.64
513.929	13460.78
514.297	13522.92
514.664	13694.44
515.032	13651.28
515.4	13842.69
515.767	13925.17
516.135	14003.81
516.502	13954.1
516.869	14230.47
517.237	14241.32
517.604	14237.7
517.972	14497.58
518.339	14547.75
518.706	14654.19
519.073	14676.11
519.44	14797.69
519.808	15017.8
520.175	15012.6
520.542	15229.32
520.909	15329.88
521.276	15398.8
521.643	15480.84
522.009	15671.57
522.376	15754.5
522.743	15893.48
523.11	15990.88
523.477	16158.11
523.843	16260.25
524.21	16519
524.577	16549.96
524.943	16659.79
525.31	16829.73
525.676	16907.01
526.043	16993.56
526.409	17048.7
526.776	17323.27
527.142	17324.86
527.508	17468.58
527.874	17631.06
528.241	17760.78
528.607	17802.58
528.973	18014.33
529.339	17981.79
529.705	18256.13
530.071	18382
530.437	18388.78
530.803	18513.98
531.169	18692.28
531.535	18710.58
531.901	18802.56
532.267	18959.84
532.632	18945.15
532.998	19019.73
533.364	19129.78
533.73	19222.66
534.095	19428.98
534.461	19397.8
534.826	19554.4
535.192	19588.3
535.557	19749.2
535.923	19840.95
536.288	19890.89
536.653	20013.6
537.019	19991.45
537.384	20002.75
537.749	20236.64
538.114	20254.27
538.479	20263.31
538.845	20457.65
539.21	20425.56
539.575	20535.62
539.94	20645.22
540.305	20674.82
540.67	20788.72
541.034	20823.75
541.399	20967.7
541.764	21005.66
542.129	21081.37
542.494	21129.95
542.858	21215.83
543.223	21235.94
543.587	21376.95
543.952	21406.56
544.316	21541.02
544.681	21488.36
545.045	21639.77
545.41	21820.78
545.774	21682.48
546.138	21783.72
546.503	21902.59
546.867	21896.03
547.231	22113.43
547.595	22263.71
547.959	22281.11
548.324	22269.13
548.688	22344.38
549.052	22415.79
549.416	22513.87
549.779	22676.58
550.143	22643.59
550.507	22854.2
550.871	22805.84
551.235	22812.17
551.599	23089
551.962	23107.3
552.326	23227.07
552.689	23288.77
553.053	23220.29
553.417	23453.51
553.78	23535.54
554.143	23550.45
554.507	23702.99
554.87	23762.43
555.234	24009.2
555.597	23936.21
555.96	23941.63
556.323	24090.55
556.686	24121.74
557.05	24366.93
557.413	24507.72
557.776	24504.78
558.139	24722.17
558.502	24692.35
558.865	24796.75
559.228	24916.52
559.59	25042.84
559.953	25216.17
560.316	25335.49
560.679	25383.4
561.041	25538.88
561.404	25691.64
561.767	25793.79
562.129	25698.65
562.492	26056.83
562.854	26036.04
563.217	26110.16
563.579	26242.13
563.941	26395.13
564.304	26508.79
564.666	26670.37
565.028	26686.87
565.39	26679.64
565.753	27016.58
566.115	27072.4
566.477	27182
566.839	27214.31
567.201	27476.9
567.563	27470.8
567.925	27716.45
568.287	27522.1
568.648	27717.12
569.01	27863.34
569.372	27982.65
569.734	28018.36
570.095	28178.58
570.457	28191.91
570.819	28320.27
571.18	28280.73
571.542	28465.81
571.903	28565.01
572.265	28633.48
572.626	28742.18
572.987	28854.72
573.349	28893.36
573.71	29051.55
574.071	29020.82
574.432	29199.12
574.794	29342.84
575.155	29350.3
575.516	29308.27
575.877	29372.9
576.238	29433.46
576.599	29563.63
576.96	29706.9
577.32	29647.7
577.681	29766.34
578.042	29787.13
578.403	29788.26
578.763	29806.33
579.124	29856.05
579.485	30040
579.845	30171.3
580.206	30060.57
580.566	30025.31
580.927	30150.73
581.287	30270.5
581.648	30131.98
582.008	30323.61
582.368	30263.05
582.728	30323.16
583.089	30233.89
583.449	30352.99
583.809	30272.09
584.169	30427.79
584.529	30280.45
584.889	30581
585.249	30413.32
585.609	30380.11
585.969	30514.34
586.329	30473.44
586.688	30423.49
587.048	30466.43
587.408	30543.49
587.768	30383.27
588.127	30421.23
588.487	30390.5
588.846	30487.67
589.206	30385.08
589.565	30424.17
589.925	30486.32
590.284	30531.97
590.643	30621.23
591.003	30588.01
591.362	30651.06
591.721	30599.99
592.08	30533.1
592.44	30763.82
592.799	30685.63
593.158	30689.02
593.517	30653.09
593.876	30725.41
594.235	30594.11
594.593	30755.91
594.952	30867.1
595.311	30706.65
595.67	30817.83
596.029	30938.06
596.387	30930.15
596.746	31030.71
597.104	30901.9
597.463	30892.18
597.822	30951.16
598.18	30841.79
598.538	30971.95
598.897	31023.03
599.255	30822.13
599.613	31159.97
599.972	31068
600.33	31045.4
600.688	31142.57
601.046	31168.56
601.404	31211.5
601.762	31191.16
602.12	31294.21
602.478	31361.32
602.836	31433.64
603.194	31152.74
603.552	31327.65
603.91	31309.57
604.268	31376.24
604.625	31415.78
604.983	31459.62
605.341	31395.45
605.698	31540.53
606.056	31487.65
606.413	31411.04
606.771	31559.96
607.128	31695.78
607.485	31540.53
607.843	31721.99
608.2	31841.08
608.557	31945.26
608.914	31757.24
609.272	31872.04
609.629	31757.7
609.986	31991.14
610.343	31915.88
610.7	32073.62
611.057	31978.48
611.414	32050.12
611.771	31969.22
612.127	32061.87
612.484	32165.14
612.841	32205.37
613.198	32197.91
613.554	32130.34
613.911	32357.23
614.267	32359.71
614.624	32365.82
614.98	32420.73
615.337	32568.52
615.693	32405.81
616.05	32555.42
616.406	32555.42
616.762	32478.36
617.118	32499.82
617.475	32474.29
617.831	32641.29
618.187	32675.86
618.543	32777.1
618.899	32946.59
619.255	32786.6
619.611	32810.1
619.967	32855.97
620.323	32956.76
620.678	32898.91
621.034	32628.41
621.39	32669.99
621.746	32617.56
622.101	33064.55
622.457	32826.82
622.812	32851.45
623.168	33073.14
623.523	32912.02
623.879	33061.39
624.234	32842.64
624.589	32973.48
624.945	32934.84
625.3	33015.06
625.655	33049.87
626.01	32959.47
626.365	32938
626.72	32932.81
627.075	33058.68
627.43	32872.92
627.785	32871.79
628.14	32869.53
628.495	32837.44
628.85	32915.63
629.205	32752.02
629.559	33040.37
629.914	32760.83
630.269	32871.57
630.623	32792.25
630.978	32622.08
631.332	32786.82
631.687	32795.86
632.041	32683.1
632.396	32765.35
632.75	32553.38
633.104	32717.67
633.459	32541.63
633.813	32521.97
634.167	32540.5
634.521	32463.89
634.875	32629.54
635.229	32323.33
635.583	32397
635.937	32233.62
636.291	32225.03
636.645	32132.15
636.999	32185.03
637.352	32167.4
637.706	32071.81
638.06	32368.3
638.413	32220.73
638.767	32153.84
639.121	32131.92
639.474	31938.26
639.828	31921.99
640.181	31976.45
640.534	31845.83
640.888	31758.6
641.241	31620.98
641.594	31807.86
641.947	31932.38
642.301	31745.72
642.654	31694.65
643.007	31792.5
643.36	31672.05
643.713	31502.56
644.066	31693.06
644.419	31506.18
644.771	31326.07
645.124	31085.62
645.477	31055.79
645.83	30880.43
646.182	30669.14
646.535	30469.59
646.888	30602.7
647.24	30386.66
647.593	30488.35
647.945	30383.49
648.298	30221.47
648.65	30096.72
649.002	30093.11
649.355	30272.31
649.707	30254.46
650.059	30455.36
650.411	30858.74
650.763	30811.73
651.115	31078.17
651.467	30968.79
651.819	30888.79
652.171	30771.28
652.523	30689.7
652.875	30786.2
653.227	30634.11
653.578	30804.27
653.93	30667.56
654.282	30538.97
654.633	30589.82
654.985	30526.77
655.337	30603.38
655.688	30654.67
656.039	30680.21
656.391	30371.52
656.742	30490.38
657.094	30490.38
657.445	30571.96
657.796	30441.57
658.147	30417.17
658.498	30380.78
658.849	30438.63
659.2	30408.13
659.551	30316.38
659.902	30331.52
660.253	30405.42
660.604	30418.3
660.955	30257.17
661.306	30404.96
661.656	30272.99
662.007	30222.37
662.358	30254.01
662.708	30336.26
663.059	30255.36
663.409	29934.47
663.76	30142.37
664.11	30303.95
664.461	30200.67
664.811	30144.86
665.161	30074.58
665.511	30062.6
665.862	30116.84
666.212	29990.28
666.562	30187.57
666.912	30049.49
667.262	30017.63
667.612	29978.99
667.962	30034.58
668.312	29940.34
668.662	30114.35
669.011	30053.11
669.361	29968.82
669.711	29915.71
670.06	29933.79
670.41	29903.06
670.76	29893.11
671.109	29959.1
671.459	30003.39
671.808	29671.88
672.157	29907.58
672.507	29715.26
672.856	29657.86
673.205	29817.41
673.554	29878.65
673.904	29647.92
674.253	29800.23
674.602	29617.41
674.951	29433.24
675.3	29077.99
675.649	29560.01
675.998	29567.7
676.346	29576.51
676.695	29726.34
677.044	29350.75
677.393	29489.73
677.741	29514.37
678.09	29339.23
678.438	29361.6
678.787	29494.03
679.135	29442.5
679.484	29202.73
679.832	29315.05
680.181	29110.53
680.529	29329.96
680.877	29129.97
681.225	29044.1
681.573	29138.33
681.922	29052
682.27	28952.57
682.618	28939.01
682.966	28914.15
683.314	28991.89
683.661	28920.26
684.009	28750.54
684.357	28834.16
684.705	28664.67
685.053	28718.91
685.4	28494.28
685.748	28494.51
686.095	28408.18
686.443	28284.57
686.79	28319.59
687.138	28297.45
687.485	28355.53
687.832	28095.87
688.18	28307.39
688.527	28039.83
688.874	28084.35
689.221	28024.23
689.568	27941.75
689.915	27871.24
690.262	27885.48
690.609	27783.79
690.956	27709.21
691.303	27688.65
691.65	27490.92
691.997	27562.33
692.344	27348.77
692.69	27090.02
693.037	27273.07
693.383	27118.72
693.73	27131.38
694.077	26963.92
694.423	27032.17
694.769	26979.29
695.116	26884.38
695.462	26822.01
695.808	26756.47
696.155	26746.75
696.501	26579.53
696.847	26582.24
697.193	26382.7
697.539	26542.92
697.885	26304.51
698.231	26184.96
698.577	26188.58
698.923	26265.41
699.269	26127.34
699.614	25916.27
699.96	25822.71
700.306	25906.32
700.651	25828.13
700.997	25650.06
701.342	25747.46
701.688	25593.11
702.033	25477.64
702.379	25460.46
702.724	25450.74
703.069	25530.29
703.415	25113.12
703.76	25111.54
704.105	25191.54
704.45	25062.28
704.795	24983.18
705.14	24895.73
705.485	24926.24
705.83	24782.96
706.175	24820.7
706.52	24741.38
706.865	24543.87
707.209	24646.92
707.554	24512.24
707.899	24536.42
708.243	24452.35
708.588	24346.14
708.932	24247.84
709.277	24278.8
709.621	24251.9
709.966	24113.83
710.31	24094.85
710.654	23926.04
710.998	23942.76
711.342	24063.44
711.687	23926.49
712.031	23811.24
712.375	23584.13
712.719	23729.88
713.063	23644.69
713.407	23803.78
713.75	23612.15
714.094	23626.61
714.438	23487.41
714.782	23489.89
715.125	23453.06
715.469	23355.21
715.812	23270.24
716.156	23206.96
716.499	23243.12
716.843	23284.02
717.186	23068.66
717.53	23207.86
717.873	23214.42
718.216	23129
718.559	23050.13
718.902	22793.86
719.246	22884.03
719.589	22879.06
719.932	22668.22
720.275	22713.19
720.617	22748.22
720.96	22704.15
721.303	22704.37
721.646	22569.92
721.989	22432.07
722.331	22529.46
722.674	22424.38
723.016	22441.78
723.359	22303.71
723.701	22409.69
724.044	22262.58
724.386	22194.56
724.729	22322.24
725.071	22238.62
725.413	22292.86
725.755	22197.27
726.097	22091.28
726.439	22037.73
726.782	22009.93
727.124	22081.57
727.465	21944.39
727.807	21826.88
728.149	21756.6
728.491	21828.01
728.833	21914.34
729.175	21807.22
729.516	21747.79
729.858	21702.14
730.199	21840.89
730.541	21758.41
730.882	21608.81
731.224	21662.14
731.565	21488.59
731.906	21527.91
732.248	21553.22
732.589	21411.08
732.93	21391.41
733.271	21529.26
733.612	21363.62
733.953	21491.75
734.294	21327.24
734.635	21268.48
734.976	21297.41
735.317	21136.28
735.658	21124.98
735.999	21143.74
736.339	21050.18
736.68	21098.32
737.021	20999.11
737.361	20915.5
737.702	20962.95
738.042	20913.69
738.383	20880.69
738.723	20861.71
739.063	20798.21
739.404	20910.75
739.744	20791.43
740.084	20703.07
740.424	20717.31
740.764	20698.78
741.104	20709.17
741.444	20592.11
741.784	20541.04
742.124	20571.1
742.464	20564.09
742.804	20436.86
743.143	20463.08
743.483	20379.24
743.823	20396.19
744.162	20383.76
744.502	20358
744.841	20333.14
745.181	20347.37
745.52	20322.29
745.86	20346.7
746.199	20235.51
746.538	20144.89
746.877	20213.59
747.216	20106.03
747.556	20115.52
747.895	20077.78
748.234	19964.79
748.573	19959.14
748.911	19904.22
749.25	19932.7
749.589	19767.05
749.928	19863.09
750.267	19798.69
750.605	19769.54
750.944	19676.43
751.283	19652.03
751.621	19646.83
751.96	19537.23
752.298	19472.82
752.636	19589.43
752.975	19450
753.313	19301.75
753.651	19422.65
753.989	19240.51
754.327	19287.97
754.666	19186.73
755.004	19188.76
755.342	19240.51
755.679	19154.19
756.017	18984.02
756.355	19128.65
756.693	18897.24
757.031	19050.01
757.368	18856.11
757.706	18866.74
758.044	18788.55
758.381	18810.01
758.719	18759.17
759.056	18706.74
759.394	18679.4
759.731	18531.83
760.068	18584.48
760.405	18477.37
760.743	18404.83
761.08	18429.46
761.417	18283.25
761.754	18287.77
762.091	18184.49
762.428	18098.39
762.765	18069.24
763.102	18137.04
763.438	17959.87
763.775	17876.93
764.112	17937.95
764.449	17874.9
764.785	17765.07
765.122	17617.05
765.458	17610.27
765.795	17678.74
766.131	17560.33
766.467	17596.49
766.804	17467.22
767.14	17451.41
767.476	17344.06
767.812	17217.29
768.148	17230.85
768.485	17188.81
768.821	17124.41
769.157	17090.29
769.492	16957.86
769.828	17038.76
770.164	16844.19
770.5	16737.3
770.836	16803.06
771.171	16719.45
771.507	16728.94
771.842	16504.99
772.178	16582.95
772.513	16519.45
772.849	16466.8
773.184	16287.59
773.519	16367.37
773.855	16242.17
774.19	16236.07
774.525	16198.11
774.86	16196.07
775.195	16073.36
775.53	16045.79
775.865	15962.41
776.2	15817.78
776.535	15755.18
776.87	15716.31
777.205	15652.81
777.539	15545.69
777.874	15622.3
778.209	15448.52
778.543	15385.02
778.878	15413.27
779.212	15346.38
779.547	15265.7
779.881	15332.37
780.215	15195.87
780.55	15234.29
780.884	15134.4
781.218	15090.79
781.552	15062.32
781.886	14909.78
782.22	14903.68
782.554	14888.31
782.888	14675.89
783.222	14745.04
783.556	14638.15
783.889	14547.08
784.223	14471.82
784.557	14478.83
784.89	14423.91
785.224	14444.03
785.557	14293.97
785.891	14288.32
786.224	14204.71
786.558	14215.78
786.891	14180.08
787.224	14057.14
787.557	14088.33
787.891	14018.05
788.224	13922.91
788.557	13908.67
788.89	13908.67
789.223	13851.5
789.556	13752.97
789.888	13767.43
790.221	13714.33
790.554	13594.78
790.887	13695.8
791.219	13585.74
791.552	13551.17
791.884	13482.02
792.217	13395.69
792.549	13338.29
792.882	13271.63
793.214	13248.58
793.546	13303.04
793.879	13149.6
794.211	13090.16
794.543	13181.46
794.875	13140.56
795.207	13034.57
795.539	12948.02
795.871	12908.47
796.203	12851.75
796.535	12777.18
796.867	12715.03
797.198	12783.73
797.53	12812.21
797.862	12649.27
798.193	12738.99
798.525	12559.1
798.856	12565.88
799.188	12450.41
799.519	12419.9
799.85	12375.83
800.182	12421.71
800.513	12430.29
800.844	12360.47
801.175	12454.02
801.506	12262.62
801.837	12255.61
802.168	12261.49
802.499	12171.54
802.83	12021.72
803.161	12037.08
803.491	12068.27
803.822	12065.33
804.153	11941.49
804.483	11841.84
804.814	11877.09
805.145	11924.09
805.475	11806.81
805.805	11797.32
806.136	11754.15
806.466	11791.22
806.796	11773.81
807.126	11635.29
807.457	11699.01
807.787	11621.05
808.117	11568.62
808.447	11508.28
808.777	11590.77
809.107	11541.05
809.436	11420.38
809.766	11457.21
810.096	11390.32
810.426	11350.55
810.755	11363.2
811.085	11308.06
811.414	11363.2
811.744	11184
812.073	11178.35
812.403	11166.15
812.732	11070.78
813.061	11159.82
813.39	11095.87
813.719	11085.7
814.049	11138.8
814.378	11070.56
814.707	10993.72
815.036	10961.18
815.365	10908.07
815.693	10826.49
816.022	10857.68
816.351	10873.5
816.68	10717.8
817.008	10785.59
817.337	10747.18
817.665	10673.96
817.994	10719.38
818.322	10644.35
818.651	10644.8
818.979	10590.79
819.307	10706.27
819.636	10594.64
819.964	10582.21
820.292	10617.23
820.62	10528.42
820.948	10531.81
821.276	10527.97
821.604	10497.46
821.932	10549.67
822.259	10506.05
822.587	10517.12
822.915	10434.19
823.243	10493.85
823.57	10480.06
823.898	10495.88
824.225	10375.66
824.553	10501.76
824.88	10502.44
825.207	10509.89
825.535	10439.84
825.862	10522.1
826.189	10465.15
826.516	10476.67
826.843	10528.65
827.17	10477.13
827.497	10563
827.824	10551.93
828.151	10463.79
828.478	10523.9
828.805	10528.88
829.131	10423.57
829.458	10467.86
829.785	10392.38
830.111	10472.83
830.438	10477.58
830.764	10444.58
831.09	10481.87
831.417	10399.16
831.743	10438.71
832.069	10425.38
832.395	10451.36
832.722	10503.79
833.048	10361.2
833.374	10384.02
833.7	10311.93
834.026	10371.14
834.351	10383.34
834.677	10324.81
835.003	10345.38
835.329	10275.78
835.654	10320.07
835.98	10298.6
836.306	10296.34
836.631	10258.83
836.956	10292.72
837.282	10273.29
837.607	10213.4
837.932	10199.84
838.258	10232.61
838.583	10204.82
838.908	10130.47
839.233	10149
839.558	10073.29
839.883	10093.86
840.208	10110.13
840.533	10121.43
840.858	10011.38
841.182	10087.98
841.507	10067.42
841.832	9982.45
842.156	9961.88
842.481	9998.95
842.805	9878.95
843.13	9894.77
843.454	9866.29
843.778	9825.17
844.103	9852.96
844.427	9683.02
844.751	9862.68
845.075	9796.24
845.399	9722.34
845.723	9672.18
846.047	9689.12
846.371	9589.92
846.695	9641.44
847.019	9546.98
847.343	9522.57
847.666	9531.84
847.99	9476.7
848.313	9439.41
848.637	9365.06
848.96	9382.47
849.284	9345.4
849.607	9222.24
849.931	9292.52
850.254	9166.65
850.577	9173.43
850.9	9030.84
851.223	9055.47
851.546	9007.56
851.869	9003.27
852.192	9026.99
852.515	8937.28
852.838	8939.76
853.161	8884.4
853.483	8829.71
853.806	8817.51
854.129	8769.83
854.451	8704.06
854.774	8732.76
855.096	8651.41
855.419	8701.81
855.741	8697.74
856.063	8604.86
856.385	8548.59
856.708	8488.03
857.03	8528.25
857.352	8529.38
857.674	8449.61
857.996	8505.65
858.318	8402.6
858.64	8443.73
858.961	8393.56
859.283	8384.53
859.605	8350.4
859.926	8392.89
860.248	8310.63
860.57	8290.06
860.891	8281.7
861.212	8253.23
861.534	8211.42
861.855	8215.72
862.176	8233.12
862.498	8220.91
862.819	8133.01
863.14	8142.72
863.461	8187.02
863.782	8114.25
864.103	8151.54
864.424	8177.75
864.745	8153.12
865.065	8104.76
865.386	8032.22
865.707	8037.42
866.027	8128.71
866.348	8062.73
866.668	8048.94
866.989	8050.75
867.309	7935.5
867.63	7976.17
867.95	7912.22
868.27	7912.67
868.59	7882.84
868.91	7885.1
869.23	7936.4
869.55	7851.66
869.87	7894.14
870.19	7820.92
870.51	7839
870.83	7830.64
871.15	7802.62
871.469	7789.96
871.789	7856.18
872.109	7820.25
872.428	7808.27
872.748	7809.17
873.067	7760.36
873.386	7789.06
873.706	7719.46
874.025	7700.48
874.344	7669.74
874.663	7786.12
874.982	7652.12
875.301	7663.87
875.62	7604.66
875.939	7614.83
876.258	7649.4
876.577	7556.07
876.896	7608.95
877.214	7601.5
877.533	7636.52
877.852	7567.6
878.17	7554.04
878.489	7569.41
878.807	7569.86
879.125	7526.24
879.444	7549.97
879.762	7603.08
880.08	7531.89
880.398	7475.4
880.716	7538.67
881.034	7492.12
881.352	7457.54
881.67	7380.48
881.988	7476.53
882.306	7364.89
882.624	7429.75
882.941	7356.53
883.259	7312.92
883.577	7321.73
883.894	7266.36
884.212	7282.63
884.529	7291.22
884.846	7253.93
885.164	7215.29
885.481	7219.58
885.798	7201.73
886.115	7163.99
886.432	7207.16
886.75	7187.04
887.067	7147.72
887.383	7067.95
887.7	7154.95
888.017	7067.5
888.334	7085.35
888.651	7036.76
888.967	7027.05
889.284	6993.83
889.6	6995.64
889.917	6925.81
890.233	6968.52
890.55	6954.05
890.866	6921.29
891.182	6976.2
891.498	6884.23
891.815	6902.3
892.131	6848.75
892.447	6866.15
892.763	6841.29
893.079	6757.22
893.395	6789.76
893.71	6801.52
894.026	6742.53
894.342	6688.3
894.657	6742.99
894.973	6721.07
895.289	6669.99
895.604	6629.32
895.92	6631.58
896.235	6569.66
896.55	6649.43
896.865	6576.66
897.181	6550.45
897.496	6582.09
897.811	6449.66
898.126	6446.5
898.441	6451.24
898.756	6420.74
899.071	6404.92
899.386	6412.6
899.7	6327.18
900.015	6379.38
900.33	6275.2
900.644	6262.1
900.959	6315.2
901.273	6276.33
901.588	6259.16
901.902	6226.62
902.216	6174.64
902.531	6184.13
902.845	6170.35
903.159	6140.06
903.473	6138.48
903.787	6064.36
904.101	6055.32
904.415	6068.65
904.729	6015.32
905.042	5997.24
905.356	5966.74
905.67	5990.92
905.984	6004.02
906.297	5938.26
906.611	5900.97
906.924	5886.74
907.237	5806.51
907.551	5844.48
907.864	5819.17
908.177	5817.14
908.491	5784.14
908.804	5783.92
909.117	5749.11
909.43	5719.28
909.743	5664.82
910.056	5677.93
910.368	5640.64
910.681	5609.68
910.994	5561.77
911.307	5555.45
911.619	5534.66
911.932	5555.9
912.244	5492.62
912.557	5519.06
912.869	5498.27
913.181	5479.29
913.494	5433.19
913.806	5444.26
914.118	5403.13
914.43	5398.39
914.742	5374.21
915.054	5340.31
915.366	5338.5
915.678	5298.96
915.99	5280.65
916.302	5225.51
916.613	5223.25
916.925	5182.58
917.236	5176.47
917.548	5176.47
917.859	5144.38
918.171	5107.1
918.482	5053.54
918.794	5052.64
919.105	5105.97
919.416	5032.07
919.727	4987.33
920.038	4987.78
920.349	4986.65
920.66	4934.45
920.971	4947.55
921.282	4931.96
921.593	4895.8
921.903	4905.29
922.214	4830.49
922.525	4835.01
922.835	4840.21
923.146	4779.65
923.456	4774
923.767	4804.05
924.077	4753.66
924.387	4741.46
924.697	4702.14
925.008	4659.2
925.318	4639.09
925.628	4664.4
925.938	4640.22
926.248	4613.55
926.558	4611.29
926.867	4584.63
927.177	4544.85
927.487	4559.99
927.796	4545.53
928.106	4528.36
928.416	4477.06
928.725	4494.68
929.034	4409.26
929.344	4479.77
929.653	4418.53
929.962	4344.63
930.271	4412.2
930.581	4329.04
930.89	4345.99
931.199	4300.56
931.508	4270.96
931.817	4294.24
932.125	4238.42
932.434	4249.72
932.743	4185.31
933.051	4164.75
933.36	4196.84
933.669	4190.74
933.977	4177.18
934.286	4131.3
934.594	4149.38
934.902	4134.92
935.21	4132.21
935.519	4107.35
935.827	4092.89
936.135	4033.45
936.443	4025.54
936.751	4000.91
937.059	3996.17
937.367	3952.1
937.674	3983.74
937.982	3964.75
938.29	3910.29
938.597	3977.18
938.905	3906.68
939.213	3853.12
939.52	3821.93
939.827	3858.09
940.135	3788.49
940.442	3832.78
940.749	3778.77
941.056	3852.67
941.363	3763.86
941.67	3780.13
941.977	3713.46
942.284	3690.41
942.591	3727.47
942.898	3719.11
943.205	3665.1
943.511	3652.67
943.818	3666.68
944.125	3654.48
944.431	3657.42
944.738	3604.31
945.044	3570.87
945.35	3556.86
945.657	3532.45
945.963	3556.4
946.269	3526.12
946.575	3529.74
946.881	3496.52
947.187	3499.68
947.493	3475.05
947.799	3492.9
948.105	3453.81
948.41	3416.97
948.716	3419.23
949.022	3406.8
949.327	3374.26
949.633	3361.61
949.938	3361.38
950.244	3336.3
950.549	3317.09
950.854	3333.58
951.16	3302.85
951.465	3287.26
951.77	3258.78
952.075	3268.95
952.38	3262.4
952.685	3249.75
952.99	3215.4
953.294	3175.62
953.599	3209.75
953.904	3186.24
954.209	3147.15
954.513	3185.11
954.818	3123.42
955.122	3114.83
955.426	3122.74
955.731	3066.25
956.035	3114.83
956.339	3119.35
956.643	3018.56
956.948	3061.28
957.252	3044.33
957.556	3056.08
957.86	3033.71
958.163	2987.15
958.467	3000.94
958.771	2998.45
959.075	2958.68
959.378	2919.81
959.682	2993.71
959.985	2950.54
960.289	2938.11
960.592	2913.26
960.896	2871.9
961.199	2874.84
961.502	2871
961.805	2848.63
962.108	2829.42
962.411	2864.44
962.714	2808.63
963.017	2803.88
963.32	2825.12
963.623	2779.47
963.926	2795.07
964.228	2764.79
964.531	2737.67
964.833	2751.91
965.136	2739.48
965.438	2729.53
965.741	2712.36
966.043	2710.78
966.345	2721.17
966.648	2683.43
966.95	2667.39
967.252	2649.08
967.554	2643.66
967.856	2601.17
968.158	2597.33
968.46	2575.64
968.761	2588.29
969.063	2601.85
969.365	2570.21
969.666	2589.2
969.968	2543.32
970.269	2529.09
970.571	2506.04
970.872	2508.3
971.174	2505.58
971.475	2527.73
971.776	2504.45
972.077	2471.46
972.378	2471.69
972.679	2450.44
972.98	2447.73
973.281	2467.39
973.582	2431.24
973.883	2400.28
974.183	2419.48
974.484	2360.05
974.785	2405.7
975.085	2416.55
975.386	2395.76
975.686	2363.44
975.986	2373.38
976.287	2388.3
976.587	2313.95
976.887	2357.57
977.187	2331.35
977.487	2321.63
977.787	2310.11
978.087	2298.36
978.387	2250.22
978.687	2271.47
978.987	2248.19
979.286	2260.17
979.586	2220.85
979.885	2249.32
980.185	2202.77
980.484	2209.32
980.784	2182.2
981.083	2213.61
981.382	2173.62
981.682	2184.69
981.981	2193.05
982.28	2180.17
982.579	2161.64
982.878	2140.85
983.177	2153.05
983.475	2119.83
983.774	2121.19
984.073	2105.37
984.372	2075.99
984.67	2075.54
984.969	2098.14
985.267	2059.95
985.566	2051.13
985.864	2038.48
986.162	2028.53
986.461	2046.39
986.759	2010.46
987.057	2004.81
987.355	1994.86
987.653	2013.17
987.951	1992.83
988.249	1994.86
988.547	1950.57
988.844	2004.81
989.142	1959.84
989.44	1957.35
989.737	1915.09
990.035	1938.82
990.332	1906.28
990.63	1937.46
990.927	1929.1
991.224	1917.8
991.521	1884.81
991.819	1905.83
992.116	1841.87
992.413	1896.56
992.71	1880.06
993.006	1855.66
993.303	1852.72
993.6	1841.65
993.897	1866.73
994.193	1829.22
994.49	1791.48
994.787	1814.3
995.083	1800.07
995.379	1809.1
995.676	1777.47
995.972	1772.72
996.268	1765.26
996.565	1746.73
996.861	1731.59
997.157	1727.3
997.453	1739.05
997.749	1692.05
998.044	1705.15
998.34	1719.62
998.636	1690.01
998.932	1697.24
999.227	1702.22
999.523	1664.93
999.818	1668.32
1000.114	1676
1000.409	1632.84
1000.704	1659.28
1001	1638.49
1001.295	1634.87
1001.59	1616.12
1001.885	1619.05
1002.18	1610.24
1002.475	1575.89
1002.77	1594.2
1003.065	1558.49
1003.359	1569.34
1003.654	1565.72
1003.949	1537.7
1004.243	1541.54
1004.538	1553.07
1004.832	1538.6
1005.127	1508.1
1005.421	1514.88
1005.715	1483.24
1006.009	1484.14
1006.304	1497.47
1006.598	1463.13
1006.892	1459.96
1007.186	1483.01
1007.48	1459.06
1007.773	1451.15
1008.067	1457.48
1008.361	1410.7
1008.655	1423.13
1008.948	1419.28
1009.242	1421.09
1009.535	1400.98
1009.829	1390.58
1010.122	1387.65
1010.415	1360.53
1010.708	1409.12
1011.001	1357.82
1011.295	1372.73
1011.588	1378.61
1011.881	1342.22
1012.173	1349
1012.466	1352.39
1012.759	1353.98
1013.052	1342.22
1013.344	1300.64
1013.637	1300.87
1013.93	1297.71
1014.222	1345.39
1014.514	1291.15
1014.807	1267.42
1015.099	1276.92
1015.391	1252.28
1015.683	1272.4
1015.976	1248.89
1016.268	1252.74
1016.56	1233.98
1016.851	1237.82
1017.143	1248.44
1017.435	1241.21
1017.727	1215
1018.018	1192.17
1018.31	1210.7
1018.602	1195.79
1018.893	1166.18
1019.185	1150.82
1019.476	1165.28
1019.767	1153.75
1020.058	1161.89
1020.35	1170.48
1020.641	1129.57
1020.932	1144.26
1021.223	1139.07
1021.514	1132.51
1021.804	1102.46
1022.095	1108.33
1022.386	1109.69
1022.677	1078.5
1022.967	1098.39
1023.258	1115.34
1023.548	1072.4
1023.839	1078.05
1024.129	1099.97
1024.419	1048.45
1024.709	1056.58
1025	1047.54
1025.29	1031.72
1025.58	1006.41
1025.87	1021.78
1026.16	993.31
1026.449	1021.78
1026.739	1020.88
1027.029	1010.93
1027.319	1023.36
1027.608	1008.67
1027.898	997.83
1028.187	1006.87
1028.477	971.84
1028.766	985.17
1029.055	960.54
1029.344	956.47
1029.634	951.27
1029.923	965.29
1030.212	935.23
1030.501	925.74
1030.79	919.41
1031.078	911.95
1031.367	910.37
1031.656	893.65
1031.945	922.57
1032.233	907.21
1032.522	904.95
1032.81	877.38
1033.099	878.73
1033.387	845.29
1033.675	891.16
1033.963	895
1034.251	867.89
1034.54	848.68
1034.828	873.99
1035.116	849.36
1035.403	845.06
1035.691	857.49
1035.979	832.18
1036.267	861.33
1036.554	805.97
1036.842	826.53
1037.129	824.72
1037.417	814.78
1037.704	799.19
1037.992	796.48
1038.279	801.67
1038.566	779.75
1038.853	779.75
1039.14	779.75
