Data from breadboard_white_FLMS001491_00021.txt Node
Date: Wed Feb 08 10:47:28 GMT 2017
User: dcchb
Spectrometer: FLMS00149
Trigger mode: 0
Integration Time (sec): 2.000000E-2
Scans to average: 10
Electric dark correction enabled: true
Nonlinearity correction enabled: false
Boxcar width: 0
XAxis mode: Wavelengths
Number of Pixels in Spectrum: 2048
>>>>>Begin Spectral Data<<<<<
341.393	-7.26
341.776	-7.26
342.16	-7.26
342.543	-57.43
342.927	-56.3
343.31	-85
343.693	-61.72
344.077	-43.64
344.46	-73.02
344.843	-60.59
345.226	-30.76
345.61	-27.15
345.993	-21.72
346.376	-24.43
346.759	9.01
347.142	14.66
347.525	53.3
347.908	58.28
348.291	92.17
348.674	111.38
349.057	89.23
349.44	122.91
349.823	158.84
350.206	158.39
350.588	194.32
350.971	226.18
351.354	247.42
351.737	238.16
352.119	280.64
352.502	300.3
352.884	292.39
353.267	299.17
353.65	306.4
354.032	321.32
354.414	310.25
354.797	341.43
355.179	340.98
355.562	338.49
355.944	358.61
356.326	368.55
356.709	353.41
357.091	367.42
357.473	372.39
357.855	361.32
358.238	354.99
358.62	378.04
359.002	373.52
359.384	385.72
359.766	366.74
360.148	373.97
360.53	392.28
360.912	368.1
361.294	360.41
361.676	374.88
362.057	372.39
362.439	366.74
362.821	370.13
363.203	365.16
363.584	350.7
363.966	342.11
364.348	352.73
364.729	364.03
365.111	363.58
365.493	367.87
365.874	362
366.256	350.7
366.637	380.98
367.019	371.94
367.4	386.18
367.781	363.58
368.163	358.15
368.544	337.82
368.925	364.26
369.306	362.22
369.688	366.29
370.069	364.71
370.45	371.04
370.831	372.62
371.212	359.74
371.593	353.63
371.974	364.26
372.355	380.75
372.736	388.21
373.117	390.47
373.498	388.66
373.879	369.23
374.26	378.72
374.641	363.8
375.021	369
375.402	385.72
375.783	409.9
376.163	414.42
376.544	427.98
376.925	400.19
377.305	391.37
377.686	397.02
378.066	411.03
378.447	415.55
378.827	434.31
379.208	410.13
379.588	436.8
379.968	415.33
380.349	410.36
380.729	413.97
381.109	407.64
381.489	443.12
381.87	404.93
382.25	430.92
382.63	434.54
383.01	438.15
383.39	416.68
383.77	444.25
384.15	438.6
384.53	426.18
384.91	458.72
385.29	467.3
385.67	481.99
386.049	479.96
386.429	465.72
386.809	467.76
387.189	457.81
387.568	503.24
387.948	498.26
388.328	488.32
388.707	490.35
389.087	494.42
389.466	514.08
389.846	512.5
390.225	524.03
390.605	498.49
390.984	550.24
391.363	541.88
391.743	556.34
392.122	552.27
392.501	541.2
392.881	564.7
393.26	560.18
393.639	601.54
394.018	585.27
394.397	595.44
394.776	586.62
395.155	606.51
395.534	604.93
395.913	618.49
396.292	624.14
396.671	620.07
397.05	652.16
397.429	653.97
397.808	655.55
398.186	683.12
398.565	690.12
398.944	690.58
399.323	696.9
399.701	708.65
400.08	714.76
400.458	740.74
400.837	768.31
401.215	788.2
401.594	767.86
401.972	777.8
402.351	784.58
402.729	807.86
403.107	813.28
403.486	847.18
403.864	833.17
404.242	851.93
404.62	876.11
404.999	891.25
405.377	895.32
405.755	929.89
406.133	944.13
406.511	948.2
406.889	996.78
407.267	987.06
407.645	995.65
408.023	1013.96
408.401	1014.63
408.779	1074.97
409.156	1097.12
409.534	1116.33
409.912	1153.61
410.29	1150.45
410.667	1179.83
411.045	1187.29
411.422	1240.17
411.8	1251.01
412.178	1265.25
412.555	1282.2
412.933	1326.72
413.31	1356.32
413.687	1366.04
414.065	1384.12
414.442	1418.47
414.819	1448.3
415.197	1484.9
415.574	1476.32
415.951	1493.49
416.328	1536.43
416.705	1550.89
417.082	1573.72
417.46	1576.65
417.837	1595.64
418.214	1653.49
418.591	1635.41
418.967	1659.59
419.344	1687.16
419.721	1698.01
420.098	1718.8
420.475	1766.25
420.852	1763.32
421.228	1825.01
421.605	1817.33
421.982	1853.48
422.358	1884.89
422.735	1911.33
423.111	1908.4
423.488	1921.96
423.864	1945.01
424.241	1991.11
424.617	2004.66
424.994	2051.22
425.37	2048.73
425.746	2049.86
426.123	2125.79
426.499	2146.36
426.875	2143.42
427.251	2215.51
427.627	2245.34
428.003	2258.9
428.379	2294.83
428.756	2349.97
429.132	2408.95
429.507	2413.24
429.883	2457.53
430.259	2512.9
430.635	2516.06
431.011	2542.05
431.387	2605.55
431.763	2644.65
432.138	2644.42
432.514	2690.3
432.89	2696.62
433.265	2791.54
433.641	2826.11
434.016	2829.95
434.392	2895.04
434.767	2976.84
435.143	2946.56
435.518	2977.07
435.894	3017.97
436.269	3081.47
436.644	3149.72
437.02	3138.42
437.395	3158.53
437.77	3224.52
438.145	3266.55
438.52	3307.68
438.895	3346.32
439.271	3364.18
439.646	3459.54
440.021	3453.89
440.395	3494.12
440.77	3442.14
441.145	3492.99
441.52	3578.63
441.895	3582.25
442.27	3658.41
442.645	3612.31
443.019	3651.4
443.394	3670.61
443.769	3768.46
444.143	3734.34
444.518	3842.13
444.892	3764.62
445.267	3832.64
445.641	3836.26
446.016	3902.24
446.39	3918.96
446.764	3957.16
447.139	3975.01
447.513	3992.86
447.887	4043.93
448.262	4065.63
448.636	4102.01
449.01	4120.09
449.384	4208.67
449.758	4161.44
450.132	4233.76
450.506	4265.85
450.88	4348.33
451.254	4329.58
451.628	4411.38
452.002	4470.36
452.376	4462.68
452.75	4543.58
453.123	4555.78
453.497	4687.76
453.871	4738.15
454.244	4798.04
454.618	4841.65
454.992	4916
455.365	4914.87
455.739	5013.17
456.112	5048.2
456.486	5130.68
456.859	5167.75
457.232	5297.91
457.606	5256.33
457.979	5344.01
458.352	5462.88
458.725	5545.14
459.099	5501.75
459.472	5712.59
459.845	5713.95
460.218	5830.55
460.591	5861.51
460.964	5907.61
461.337	5997.78
461.71	6117.55
462.083	6249.75
462.456	6240.49
462.829	6280.03
463.201	6399.8
463.574	6404.78
463.947	6502.85
464.32	6628.95
464.692	6747.82
465.065	6749.85
465.438	6866.23
465.81	6954.14
466.183	7057.64
466.555	7223.96
466.928	7252.44
467.3	7196.84
467.672	7356.61
468.045	7583.95
468.417	7604.29
468.789	7685.19
469.161	7814
469.534	7898.3
469.906	8044.51
470.278	8185.29
470.65	8256.25
471.022	8420.54
471.394	8543.25
471.766	8674.09
472.138	8778.72
472.51	8973.07
472.882	9077.47
473.253	9235.44
473.625	9396.56
473.997	9560.4
474.369	9613.96
474.74	9748.42
475.112	9956.09
475.484	10126.94
475.855	10269.98
476.227	10332.81
476.598	10659.13
476.97	10752.91
477.341	11032.22
477.713	11156.29
478.084	11201.26
478.455	11568.93
478.827	11658.65
479.198	12000.33
479.569	12026.55
479.94	12470.15
480.311	12521.68
480.682	12808.9
481.053	13044.15
481.424	13285.05
481.795	13414.08
482.166	13653.4
482.537	13873.51
482.908	14141.07
483.279	14307.39
483.65	14507.39
484.021	14828.28
484.391	14909.41
484.762	15078.9
485.133	15261.04
485.503	15567.47
485.874	15788.26
486.244	16034.13
486.615	16266.21
486.985	16475.47
487.356	16919.98
487.726	17049.01
488.097	17336.47
488.467	17418.27
488.837	17738.49
489.207	17963.12
489.578	18259.6
489.948	18377.57
490.318	18692.59
490.688	18758.12
491.058	19054.84
491.428	19309.07
491.798	19526.24
492.168	19864.31
492.538	20073.34
492.908	20205.54
493.278	20394.92
493.648	20509.49
494.017	20857.28
494.387	21040.77
494.757	21227.66
495.126	21417.26
495.496	21543.13
495.866	21632.62
496.235	21848.66
496.605	22099.73
496.974	22235.32
497.344	22450.45
497.713	22551.7
498.082	22832.59
498.452	23039.59
498.821	23212.69
499.19	23297.89
499.559	23515.51
499.928	23582.63
500.298	23891.55
500.667	24061.49
501.036	24038.89
501.405	24400.91
501.774	24343.51
502.143	24644.52
502.512	24787.79
502.88	25054.45
503.249	24978.52
503.618	25339.42
503.987	25476.14
504.356	25601.56
504.724	25709.58
505.093	25844.72
505.462	26012.4
505.83	26248.1
506.199	26418.26
506.567	26792.94
506.936	26754.97
507.304	27033.84
507.672	27212.14
508.041	27373.26
508.409	27631.34
508.777	27843.53
509.145	27899.35
509.514	28118.33
509.882	28232.68
510.25	28499.34
510.618	28528.71
510.986	28763.74
511.354	29034.46
511.722	29314.91
512.09	29589.02
512.458	29606.42
512.826	29880.99
513.193	30117.15
513.561	30197.82
513.929	30391.04
514.297	30700.41
514.664	30936.33
515.032	31081.64
515.4	31488.64
515.767	31507.84
516.135	31682.08
516.502	31728.63
516.869	32133.59
517.237	32322.51
517.604	32292
517.972	32754.59
518.339	32960.91
518.706	32959.78
519.073	33263.96
519.44	33502.14
519.808	33874.34
520.175	33824.85
520.542	34328.56
520.909	34584.37
521.276	34667.99
521.643	35026.85
522.009	35180.52
522.376	35546.61
522.743	35770.1
523.11	36104.56
523.477	36490.09
523.843	36477.66
524.21	36963.52
524.577	37155.38
524.943	37508.14
525.31	37635.82
525.676	37976.37
526.043	38241
526.409	38387.21
526.776	38816.58
527.142	38974.54
527.508	39100.41
527.874	39500.85
528.241	39647.97
528.607	39799.6
528.973	40241.4
529.339	40209.99
529.705	40565.01
530.071	40917.99
530.437	41087.03
530.803	41323.63
531.169	41722.26
531.535	41705.54
531.901	41840.23
532.267	42117.28
532.632	42366.09
532.998	42430.27
533.364	42643.82
533.73	42739.64
534.095	43123.81
534.461	43304.14
534.826	43350.47
535.192	43497.36
535.557	43929.44
535.923	43825.03
536.288	44150
536.653	44181.63
537.019	44258.7
537.384	44494.17
537.749	44695.29
538.114	44816.65
538.479	44981.84
538.845	45335.28
539.21	45173.47
539.575	45427.93
539.94	45650.97
540.305	45843.96
540.67	45623.18
541.034	45921.48
541.399	46097.06
541.764	46197.18
542.129	46350.84
542.494	46461.8
542.858	46488.24
543.223	46633.77
543.587	46895.91
543.952	46923.26
544.316	47130.71
544.681	47068.79
545.045	47352.4
545.41	47582
545.774	47683.69
546.138	47708.1
546.503	47894.53
546.867	47903.57
547.231	48245.93
547.595	48243.9
547.959	48424.01
548.324	48391.47
548.688	48526.38
549.052	48754.4
549.416	48836.43
549.779	48932.7
550.143	48999.14
550.507	49260.37
550.871	49242.74
551.235	49458.78
551.599	49644.32
551.962	49724.77
552.326	49833.69
552.689	50056.96
553.053	49899.22
553.417	49984.65
553.78	50550.51
554.143	50395.26
554.507	50604.29
554.87	50694.23
555.234	51042.02
555.597	50879.31
555.96	51040.89
556.323	51230.49
556.686	51329.92
557.05	51465.06
557.413	51684.94
557.776	51646.3
558.139	51980.07
558.502	51949.57
558.865	52045.38
559.228	52373.96
559.59	52407.18
559.953	52484.47
560.316	52772.37
560.679	52805.14
561.041	52959.71
561.404	53157.67
561.767	53317.67
562.129	53226.14
562.492	53576.19
562.854	53550.43
563.217	53672.46
563.579	53728.28
563.941	53972.56
564.304	54033.58
564.666	54151.09
565.028	54284.19
565.39	54368.26
565.753	54573.68
566.115	54599.21
566.477	54763.28
566.839	54869.26
567.201	55041.24
567.563	55009.15
567.925	55263.15
568.287	55283.04
568.648	55306.99
569.01	55499.08
569.372	55646.42
569.734	55576.14
570.095	55780.2
570.457	55857.26
570.819	55901.55
571.18	55936.58
571.542	56079.4
571.903	56123.47
572.265	56292.05
572.626	56321.2
572.987	56377.25
573.349	56447.75
573.71	56614.3
574.071	56617.01
574.432	56657.24
574.794	56885.03
575.155	56815.88
575.516	56822.66
575.877	56988.3
576.238	56988.08
576.599	57028.75
576.96	57051.8
577.32	57118.7
577.681	57204.8
578.042	57291.35
578.403	57287.5
578.763	57330.67
579.124	57296.32
579.485	57436.2
579.845	57496.09
580.206	57424.45
580.566	57464.9
580.927	57470.55
581.287	57534.73
581.648	57498.57
582.008	57654.5
582.368	57539.7
582.728	57466.71
583.089	57539.02
583.449	57606.82
583.809	57562.75
584.169	57604.56
584.529	57598.23
584.889	57800.03
585.249	57607.72
585.609	57677.55
585.969	57759.13
586.329	57656.31
586.688	57678
587.048	57663.31
587.408	57712.13
587.768	57656.53
588.127	57637.33
588.487	57585.35
588.846	57809.07
589.206	57634.39
589.565	57646.37
589.925	57835.97
590.284	57722.97
590.643	57792.8
591.003	57715.97
591.362	57815.4
591.721	57838.45
592.08	57798
592.44	57910.99
592.799	57871.22
593.158	57862.18
593.517	57836.19
593.876	57841.16
594.235	57744.44
594.593	57825.12
594.952	57829.19
595.311	57844.78
595.67	57903.53
596.029	58012.91
596.387	57979.46
596.746	58066.69
597.104	57880.48
597.463	57861.28
597.822	57993.93
598.18	57934.04
598.538	57934.04
598.897	58064.89
599.255	57882.74
599.613	58209.29
599.972	58039.58
600.33	58121.38
600.688	58062.17
601.046	58134.26
601.404	58195.5
601.762	58151.66
602.12	58275.95
602.478	58316.63
602.836	58306.69
603.194	58213.36
603.552	58242.51
603.91	58195.96
604.268	58393.69
604.625	58235.5
604.983	58333.13
605.341	58302.62
605.698	58392.79
606.056	58432.79
606.413	58401.37
606.771	58390.53
607.128	58508.72
607.485	58370.19
607.843	58393.69
608.2	58556.4
608.557	58687.69
608.914	58528.15
609.272	58657.19
609.629	58648.15
609.986	58749.16
610.343	58649.05
610.7	58829.84
611.057	58752.33
611.414	58758.88
611.771	58795.49
612.127	58868.25
612.484	58843.62
612.841	58893.34
613.198	58888.37
613.554	58907.58
613.911	58987.35
614.267	58978.76
614.624	58963.62
614.98	59002.04
615.337	59179.66
615.693	59017.4
616.05	59090.85
616.406	59192.99
616.762	59122.94
617.118	59115.93
617.475	59089.04
617.831	59212.2
618.187	59218.53
618.543	59311.18
618.899	59286.77
619.255	59256.49
619.611	59282.25
619.967	59312.31
620.323	59305.98
620.678	59263.5
621.034	59183.05
621.39	59244.06
621.746	59283.61
622.101	59516.37
622.457	59272.31
622.812	59322.71
623.168	59395.47
623.523	59456.71
623.879	59490.38
624.234	59259.43
624.589	59379.2
624.945	59432.53
625.3	59428.24
625.655	59347.56
626.01	59397.05
626.365	59392.76
626.72	59391.63
627.075	59340.56
627.43	59402.48
627.785	59282.93
628.14	59301.46
628.495	59335.36
628.85	59227.57
629.205	59197.29
629.559	59356.6
629.914	59219.66
630.269	59214.69
630.623	59172.65
630.978	59136.95
631.332	59258.75
631.687	59221.24
632.041	59167.46
632.396	59196.61
632.75	59006.1
633.104	59139.66
633.459	58948.7
633.813	58995.48
634.167	58932.66
634.521	58955.26
634.875	58941.02
635.229	58878.42
635.583	58763.62
635.937	58788.93
636.291	58741.03
636.645	58766.34
636.999	58706.22
637.352	58736.73
637.706	58600.46
638.06	58744.64
638.413	58712.33
638.767	58629.62
639.121	58609.96
639.474	58457.64
639.828	58524.08
640.181	58544.42
640.534	58454.25
640.888	58393.46
641.241	58320.25
641.594	58361.83
641.947	58365.67
642.301	58266.01
642.654	58327.48
643.007	58325.44
643.36	58251.77
643.713	58162.96
644.066	58276.18
644.419	58117.09
644.771	57999.12
645.124	57772.01
645.477	57720.26
645.83	57533.6
646.182	57415.64
646.535	57330.44
646.888	57336.09
647.24	57207.06
647.593	57346.26
647.945	57257
648.298	57110.33
648.65	57112.82
649.002	57029.66
649.355	57169.99
649.707	57114.4
650.059	57195.53
650.411	57544.9
650.763	57452.25
651.115	57745.8
651.467	57662.41
651.819	57657.89
652.171	57547.61
652.523	57510.32
652.875	57515.75
653.227	57379.03
653.578	57566.14
653.93	57492.25
654.282	57352.14
654.633	57250.22
654.985	57292.93
655.337	57293.61
655.688	57265.58
656.039	57406.6
656.391	57187.17
656.742	57213.16
657.094	57177.45
657.445	57317.79
657.796	57233.95
658.147	57155.98
658.498	57149.66
658.849	57220.16
659.2	57153.05
659.551	57069.88
659.902	57169.99
660.253	57106.72
660.604	57131.58
660.955	56979.49
661.306	57080.05
661.656	57013.84
662.007	57096.32
662.358	57039.6
662.708	56998.47
663.059	56933.16
663.409	56807.29
663.76	56966.16
664.11	56991.47
664.461	56941.07
664.811	57022.43
665.161	56998.93
665.511	56908.08
665.862	56970.68
666.212	56954.63
666.562	56970.68
666.912	56864.01
667.262	56908.76
667.612	56868.76
667.962	56843.22
668.312	56818.82
668.662	56919.15
669.011	56805.94
669.361	56721.64
669.711	56663.79
670.06	56740.17
670.41	56704.24
670.76	56564.59
671.109	56751.7
671.459	56707.18
671.808	56695.66
672.157	56697.01
672.507	56445.95
672.856	56504.7
673.205	56504.93
673.554	56602.33
673.904	56451.59
674.253	56524.59
674.602	56521.2
674.951	56132.73
675.3	56031.49
675.649	56455.66
675.998	56375.21
676.346	56369.11
676.695	56442.78
677.044	56222
677.393	56349.9
677.741	56350.13
678.09	56275.1
678.438	56158.04
678.787	56277.81
679.135	56253.41
679.484	56015
679.832	56184.48
680.181	55934.09
680.529	56025.62
680.877	55945.39
681.225	55865.4
681.573	56101.1
681.922	55885.51
682.27	55729.13
682.618	55763.93
682.966	55707.21
683.314	55767.77
683.661	55739.98
684.009	55587.89
684.357	55558.28
684.705	55424.73
685.053	55390.15
685.4	55463.6
685.748	55294.79
686.095	55277.16
686.443	55114.68
686.79	55092.99
687.138	55138.86
687.485	55155.13
687.832	55032.2
688.18	55006.89
688.527	54883.73
688.874	54809.15
689.221	54749.94
689.568	54718.08
689.915	54682.83
690.262	54645.54
690.609	54609.16
690.956	54475.83
691.303	54443.96
691.65	54251.43
691.997	54302.72
692.344	54149.96
692.69	54137.31
693.037	54025.67
693.383	53838.1
693.73	53914.26
694.077	53793.13
694.423	53793.81
694.769	53583.42
695.116	53572.35
695.462	53524.44
695.808	53477.21
696.155	53459.81
696.501	53238.35
696.847	53277.67
697.193	53057.11
697.539	53152.47
697.885	52865.25
698.231	52741.86
698.577	52803.33
698.923	52697.57
699.269	52518.36
699.614	52451.25
699.96	52404.92
700.306	52342.55
700.651	52312.04
700.997	52179.16
701.342	52156.34
701.688	51969.68
702.033	51948.21
702.379	51852.39
702.724	51778.05
703.069	51794.99
703.415	51411.28
703.76	51312.75
704.105	51480.43
704.45	51289.47
704.795	51239.08
705.14	51084.05
705.485	50959.54
705.83	50923.38
706.175	50815.36
706.52	50778.98
706.865	50700.11
707.209	50686.32
707.554	50437.52
707.899	50615.36
708.243	50371.75
708.588	50237.29
708.932	50166.11
709.277	50106.22
709.621	50073.46
709.966	49871.2
710.31	49872.33
710.654	49544.66
710.998	49650.87
711.342	49580.59
711.687	49551.44
712.031	49476.18
712.375	49085.91
712.719	49327.26
713.063	49099.47
713.407	49277.77
713.75	48965.01
714.094	49174.27
714.438	48914.62
714.782	48890.89
715.125	48681.63
715.469	48701.97
715.812	48558.92
716.156	48339.72
716.499	48482.54
716.843	48372.03
717.186	48245.93
717.53	48289.32
717.873	48368.87
718.216	48255.65
718.559	48003.68
718.902	47720.75
719.246	47846.62
719.589	47748.77
719.932	47561.21
720.275	47654.09
720.617	47431.94
720.96	47532.28
721.303	47470.36
721.646	47596.01
721.989	47227.2
722.331	47223.36
722.674	47017.72
723.016	47097.49
723.359	47015.68
723.701	46998.06
724.044	46689.82
724.386	46509.48
724.729	46613.44
725.071	46664.06
725.413	46459.54
725.755	46503.61
726.097	46183.39
726.439	46068.59
726.782	46220.45
727.124	46284.63
727.465	45993.11
727.807	46052.77
728.149	45857.07
728.491	45903.62
728.833	45836.05
729.175	45753.57
729.516	45644.2
729.858	45476.74
730.199	45573.01
730.541	45550.19
730.882	45330.76
731.224	45424.31
731.565	45140.25
731.906	45243.75
732.248	45310.19
732.589	45039.92
732.93	44919.92
733.271	44891.22
733.612	44906.36
733.953	44995.17
734.294	44732.35
734.635	44662.98
734.976	44688.74
735.317	44538.24
735.658	44550.44
735.999	44444.23
736.339	44321.97
736.68	44431.12
737.021	44222.31
737.361	44039.72
737.702	44174.63
738.042	43928.08
738.383	44045.59
738.723	43911.36
739.063	43912.26
739.404	43928.31
739.744	43656.68
740.084	43594.98
740.424	43703.23
740.764	43491.48
741.104	43573.52
741.444	43417.14
741.784	43260.3
742.124	43333.97
742.464	43312.96
742.804	43261.21
743.143	43090.14
743.483	43064.38
743.823	42844.49
744.162	42808.56
744.502	42926.98
744.841	42671.39
745.181	42728.79
745.52	42657.61
745.86	42730.37
746.199	42456.26
746.538	42398.63
746.877	42549.81
747.216	42360.89
747.556	42303.72
747.895	42340.33
748.234	42105.98
748.573	42038.64
748.911	41887.91
749.25	41879.55
749.589	41671.87
749.928	41753.45
750.267	41662.38
750.605	41478.66
750.944	41452.22
751.283	41291.32
751.621	41292.67
751.96	41175.61
752.298	41117.31
752.636	41136.52
752.975	40869.63
753.313	40670.54
753.651	40813.59
753.989	40643.2
754.327	40624.89
754.666	40385.12
755.004	40439.36
755.342	40411.56
755.679	40339.93
756.017	40036.43
756.355	40218.35
756.693	39994.63
757.031	40139.93
757.368	39796.44
757.706	39643.68
758.044	39452.95
758.381	39535.2
758.719	39345.6
759.056	39431.7
759.394	39177.02
759.731	38906.75
760.068	38807.99
760.405	38720.08
760.743	38603.25
761.08	38696.81
761.417	38550.6
761.754	38375.23
762.091	38387.44
762.428	38110.83
762.765	38029.48
763.102	37984.74
763.438	37792.42
763.775	37580.9
764.112	37666.1
764.449	37679.66
764.785	37406.9
765.122	37113.12
765.458	37041.48
765.795	36902.73
766.131	36868.61
766.467	36881.04
766.804	36604.66
767.14	36495.06
767.476	36488.73
767.812	36280.37
768.148	36243.09
768.485	36108.17
768.821	35755.19
769.157	35815.08
769.492	35719.71
769.828	35652.59
770.164	35332.15
770.5	35332.15
770.836	35228.42
771.171	35113.62
771.507	34930.35
771.842	34632.73
772.178	34737.82
772.513	34595.67
772.849	34436.81
773.184	34304.61
773.519	34339.63
773.855	34104.16
774.19	33905.07
774.525	33994.11
774.86	33953.66
775.195	33622.59
775.53	33691.29
775.865	33400.45
776.2	33163.17
776.535	33070.06
776.87	33059.44
777.205	32752.33
777.539	32775.61
777.874	32783.29
778.209	32431.66
778.543	32404.09
778.878	32261.95
779.212	32272.34
779.547	32089.98
779.881	32102.18
780.215	31856.76
780.55	31930.88
780.884	31790.77
781.218	31616.54
781.552	31608.86
781.886	31474.4
782.22	31208.42
782.554	31086.84
782.888	30770.46
783.222	30632.16
783.556	30641.88
783.889	30495.44
784.223	30317.37
784.557	30401.21
784.89	30372.05
785.224	30222.68
785.557	29939.52
785.891	29956.02
786.224	29815.68
786.558	29704.5
786.891	29485.52
787.224	29417.05
787.557	29257.06
787.891	29222.48
788.224	29306.55
788.557	29274.23
788.89	29097.51
789.223	29038.53
789.556	28802.6
789.888	28739.33
790.221	28679.44
790.554	28412.11
790.887	28414.59
791.219	28264.54
791.552	28217.08
791.884	28162.85
792.217	28001.72
792.549	27912.46
792.882	27709.07
793.214	27623.2
793.546	27641.28
793.879	27520.38
794.211	27326.48
794.543	27474.73
794.875	27277.22
795.207	27289.42
795.539	27111.12
795.871	27046.27
796.203	26852.6
796.535	26664.36
796.867	26659.61
797.198	26553.4
797.53	26635.2
797.862	26449.67
798.193	26324.25
798.525	26205.61
798.856	26346.85
799.188	26096.23
799.519	25947.76
799.85	25787.99
800.182	25719.75
800.513	25816.69
800.844	25527.21
801.175	25765.17
801.506	25652.18
801.837	25288.8
802.168	25320.66
802.499	25234.79
802.83	25178.97
803.161	25028.69
803.491	25079.09
803.822	25013.55
804.153	24990.05
804.483	24666.67
804.814	24560.68
805.145	24594.13
805.475	24556.39
805.805	24420.57
806.136	24524.52
806.466	24449.95
806.796	24438.2
807.126	24095.61
807.457	24045.22
807.787	24122.5
808.117	23995.05
808.447	23909.85
808.777	23921.83
809.107	23823.53
809.436	23770.65
809.766	23704.21
810.096	23567.04
810.426	23558.45
810.755	23658.56
811.085	23535.4
811.414	23372.46
811.744	23136.09
812.073	23182.87
812.403	23151.23
812.732	23034.62
813.061	23068.52
813.39	22809.54
813.719	22789.88
814.049	23036.88
814.378	22830.78
814.707	22745.14
815.036	22668.75
815.365	22560.28
815.693	22450.45
816.022	22331.81
816.351	22332.04
816.68	22232.83
817.008	22252.95
817.337	22026.51
817.665	22040.97
817.994	22138.82
818.322	22066.51
818.651	22027.42
818.979	21858.15
819.307	22000.98
819.636	21910.36
819.964	21796.91
820.292	21731.6
820.62	21795.33
820.948	21630.14
821.276	21842.79
821.604	21675.56
821.932	21713.53
822.259	21720.98
822.587	21590.82
822.915	21553.98
823.243	21614.32
823.57	21556.69
823.898	21618.39
824.225	21496.81
824.553	21467.66
824.88	21473.76
825.207	21557.82
825.535	21487.77
825.862	21583.81
826.189	21516.02
826.516	21530.03
826.843	21539.07
827.17	21576.81
827.497	21536.35
827.824	21548.33
828.151	21576.13
828.478	21351.5
828.805	21556.69
829.131	21443.48
829.458	21384.72
829.785	21364.38
830.111	21356.47
830.438	21414.32
830.764	21384.72
831.09	21386.53
831.417	21271.95
831.743	21403.48
832.069	21301.78
832.395	21327.09
832.722	21342.69
833.048	21220.66
833.374	21218.85
833.7	21198.96
834.026	21169.36
834.351	21218.85
834.677	21172.52
835.003	21184.95
835.329	21073.32
835.654	21195.57
835.98	21071.06
836.306	21186.31
836.631	20957.61
836.956	20984.28
837.282	20978.86
837.607	20872.64
837.932	20879.2
838.258	20932.3
838.583	20805.07
838.908	20757.84
839.233	20707.22
839.558	20654.57
839.883	20638.07
840.208	20595.14
840.533	20477.63
840.858	20538.41
841.182	20586.55
841.507	20396.5
841.832	20267.91
842.156	20285.99
842.481	20274.01
842.805	20262.26
843.13	20134.36
843.454	20076.96
843.778	20082.61
844.103	19974.36
844.427	19963.51
844.751	19966.68
845.075	19868.83
845.399	19811.2
845.723	19655.05
846.047	19785.21
846.371	19579.34
846.695	19537.76
847.019	19366.47
847.343	19286.47
847.666	19247.38
847.99	19166.02
848.313	19138.68
848.637	18997.89
848.96	18957.67
849.284	18988.63
849.607	18842.64
849.931	18773.72
850.254	18662.53
850.577	18474.74
850.9	18340.73
851.223	18411.01
851.546	18255.99
851.869	18201.08
852.192	18254.41
852.515	18007.41
852.838	18088.54
853.161	18026.84
853.483	17832.05
853.806	17823.23
854.129	17756.79
854.451	17741.2
854.774	17605.84
855.096	17602.22
855.419	17525.61
855.741	17482.22
856.063	17316.35
856.385	17365.62
856.708	17256.92
857.03	17173.08
857.352	17235.22
857.674	17211.95
857.996	17119.75
858.318	16993.88
858.64	17057.38
858.961	16924.05
859.283	16991.62
859.605	16821
859.926	16880.66
860.248	16766.08
860.57	16830.94
860.891	16696.71
861.212	16672.53
861.534	16585.07
861.855	16584.17
862.176	16566.99
862.498	16541.68
862.819	16488.58
863.14	16382.82
863.461	16359.54
863.782	16265.31
864.103	16348.69
864.424	16251.75
864.745	16287.45
865.065	16240.22
865.386	16120.45
865.707	16163.84
866.027	16148.02
866.348	16088.81
866.668	16016.5
866.989	15958.2
867.309	15833
867.63	15866.45
867.95	15819.44
868.27	15813.57
868.59	15753
868.91	15844.3
869.23	15782.61
869.55	15740.35
869.87	15807.92
870.19	15666.9
870.51	15710.07
870.83	15623.29
871.15	15469.85
871.469	15607.24
871.789	15635.49
872.109	15518.43
872.428	15411.54
872.748	15498.77
873.067	15423.97
873.386	15431.66
873.706	15399.57
874.025	15365.22
874.344	15287.48
874.663	15247.71
874.982	15253.58
875.301	15243.19
875.62	15155.51
875.939	15125.22
876.258	15250.19
876.577	15111.21
876.896	15098.33
877.214	15040.25
877.533	15113.92
877.852	15067.15
878.17	15066.02
878.489	15041.38
878.807	14994.15
879.125	14947.38
879.444	14906.47
879.762	14845.68
880.08	14885.68
880.398	14744.89
880.716	14782.86
881.034	14722.07
881.352	14721.62
881.67	14677.33
881.988	14753.71
882.306	14639.36
882.624	14560.27
882.941	14513.71
883.259	14521.17
883.577	14524.11
883.894	14507.16
884.212	14380.16
884.529	14414.28
884.846	14336.54
885.164	14343.32
885.481	14325.92
885.798	14331.35
886.115	14206.15
886.432	14245.47
886.75	14244.12
887.067	14175.42
887.383	14158.7
887.7	14157.57
888.017	14064.01
888.334	14063.33
888.651	13939.94
888.967	13986.72
889.284	13874.18
889.6	13826.27
889.917	13744.02
890.233	13769.1
890.55	13704.7
890.866	13733.4
891.182	13707.41
891.498	13636.9
891.815	13550.8
892.131	13536.79
892.447	13461.76
892.763	13387.19
893.079	13436.91
893.395	13363.91
893.71	13252.28
894.026	13316.91
894.342	13146.52
894.657	13120.08
894.973	13098.84
895.289	13150.13
895.604	13158.5
895.92	13034.43
896.235	13004.38
896.55	12913.98
896.865	12961.21
897.181	12864.72
897.496	12788.56
897.811	12788.79
898.126	12725.96
898.441	12626.31
898.756	12665.63
899.071	12564.16
899.386	12512.64
899.7	12452.3
900.015	12440.55
900.33	12326.43
900.644	12328.24
900.959	12297.05
901.273	12230.84
901.588	12269.48
901.902	12071.97
902.216	12107
902.531	12044.17
902.845	11916.49
903.159	11962.6
903.473	11932.09
903.787	11909.94
904.101	11801.92
904.415	11807.57
904.729	11720.34
905.042	11707.46
905.356	11633.34
905.67	11601.02
905.984	11613
906.297	11585.2
906.611	11470.18
906.924	11419.33
907.237	11443.06
907.551	11304.99
907.864	11262.05
908.177	11276.96
908.491	11186.34
908.804	11198.55
909.117	11068.83
909.43	10985.9
909.743	11042.17
910.056	11005.78
910.368	10958.55
910.681	10842.17
910.994	10928.5
911.307	10799.69
911.619	10759.91
911.932	10788.16
912.244	10601.73
912.557	10580.71
912.869	10602.4
913.181	10505.46
913.494	10502.75
913.806	10378.91
914.118	10386.59
914.43	10376.2
914.742	10227.27
915.054	10246.93
915.366	10297.55
915.678	10196.31
915.99	10126.71
916.302	10050.78
916.613	10063.66
916.925	10002.87
917.236	9924.23
917.548	9903.44
917.859	9916.77
918.171	9832.93
918.482	9853.05
918.794	9788.64
919.105	9735.99
919.416	9623.22
919.727	9602.66
920.038	9628.42
920.349	9515.2
920.66	9409.44
920.971	9496.45
921.282	9450.34
921.593	9335.77
921.903	9315.21
922.214	9256.45
922.525	9251.71
922.835	9199.96
923.146	9167.41
923.456	9144.14
923.767	9196.34
924.077	9052.16
924.387	9021.66
924.697	8958.83
925.008	8954.54
925.318	8969.68
925.628	8926.29
925.938	8869.34
926.248	8693.98
926.558	8771.72
926.867	8644.04
927.177	8720.87
927.487	8660.53
927.796	8569.46
928.106	8583.7
928.416	8474.55
928.725	8493.53
929.034	8459.64
929.344	8441.11
929.653	8376.93
929.962	8329.02
930.271	8244.05
930.581	8263.94
930.89	8201.11
931.199	8160.89
931.508	8162.02
931.817	8171.73
932.125	8077.73
932.434	8045.18
932.743	7977.16
933.051	7925.87
933.36	7924.96
933.669	7903.04
933.977	7828.01
934.286	7797.96
934.594	7773.55
934.902	7738.53
935.21	7747.11
935.519	7668.7
935.827	7710.5
936.135	7569.72
936.443	7574.69
936.751	7524.52
937.059	7447.23
937.367	7421.92
937.674	7437.74
937.982	7371.76
938.29	7382.83
938.597	7366.33
938.905	7285.88
939.213	7276.62
939.52	7238.2
939.827	7224.41
940.135	7153
940.442	7136.73
940.749	7177.64
941.056	7192.78
941.363	7042.95
941.67	7084.31
941.977	6938.55
942.284	6883.18
942.591	6963.63
942.898	6942.16
943.205	6878.66
943.511	6831.88
943.818	6805.89
944.125	6803.18
944.431	6759.34
944.738	6753.01
945.044	6703.07
945.35	6640.48
945.657	6660.36
945.963	6630.98
946.269	6585.56
946.575	6568.61
946.881	6473.93
947.187	6526.81
947.493	6452.68
947.799	6403.65
948.105	6399.8
948.41	6351.9
948.716	6374.04
949.022	6263.31
949.327	6292.46
949.633	6234.16
949.938	6220.6
950.244	6208.62
950.549	6115.52
950.854	6137.89
951.16	6078.46
951.465	6115.74
951.77	6062.64
952.075	6026.25
952.38	6035.29
952.685	6040.94
952.99	5929.31
953.294	5943.09
953.599	5928.86
953.904	5822.42
954.209	5824.45
954.513	5867.84
954.818	5800.72
955.122	5815.19
955.426	5797.33
955.731	5759.14
956.035	5682.99
956.339	5693.83
956.643	5664.46
956.948	5685.7
957.252	5620.16
957.556	5613.61
957.86	5563.44
958.163	5528.87
958.467	5482.31
958.771	5475.99
959.075	5487.06
959.378	5382.66
959.682	5395.08
959.985	5362.77
960.289	5352.37
960.592	5340.4
960.896	5301.98
961.199	5244.81
961.502	5256.1
961.805	5207.97
962.108	5152.6
962.411	5194.64
962.714	5139.27
963.017	5086.62
963.32	5134.3
963.623	5064.47
963.926	5116.9
964.228	5054.75
964.531	5015.89
964.833	4992.16
965.136	4945.83
965.438	5000.97
965.741	4900.63
966.043	4914.19
966.345	4882.78
966.648	4839.84
966.95	4853.86
967.252	4793.74
967.554	4785.38
967.856	4773.86
968.158	4792.61
968.46	4738.6
968.761	4723.24
969.063	4659.51
969.365	4659.06
969.666	4614.77
969.968	4557.59
970.269	4598.27
970.571	4594.43
970.872	4559.63
971.174	4553.07
971.475	4499.51
971.776	4520.76
972.077	4464.71
972.378	4499.74
972.679	4451.61
972.98	4407.99
973.281	4375.9
973.582	4426.07
973.883	4364.83
974.183	4349.24
974.484	4314.66
974.785	4281.44
975.085	4307.2
975.386	4231.05
975.686	4215
975.986	4227.88
976.287	4189.92
976.587	4181.56
976.887	4163.48
977.187	4130.71
977.487	4190.14
977.787	4113.99
978.087	4082.8
978.387	4071.96
978.687	4042.35
978.987	4061.33
979.286	4015.01
979.586	4031.96
979.885	3978.4
980.185	3960.09
980.484	3931.62
980.784	3902.02
981.083	3932.07
981.382	3912.64
981.682	3906.08
981.981	3894.33
982.28	3838.74
982.579	3820.44
982.878	3833.32
983.177	3823.37
983.475	3809.59
983.774	3732.98
984.073	3748.35
984.372	3730.04
984.67	3699.08
984.969	3685.75
985.267	3721.91
985.566	3657.28
985.864	3628.58
986.162	3654.34
986.461	3628.35
986.759	3622.48
987.057	3511.97
987.355	3541.35
987.653	3570.73
987.951	3508.81
988.249	3491.63
988.547	3486.89
988.844	3475.13
989.142	3494.57
989.44	3421.12
989.737	3380.9
990.035	3398.98
990.332	3450.5
990.63	3365.98
990.927	3375.93
991.224	3288.25
991.521	3306.1
991.819	3285.99
992.116	3299.77
992.413	3265.42
992.71	3241.47
993.006	3214.58
993.303	3224.29
993.6	3227.23
993.897	3203.05
994.193	3180.91
994.49	3175.71
994.787	3137.74
995.083	3120.79
995.379	3101.81
995.676	3095.94
995.972	3080.57
996.268	3045.77
996.565	3044.86
996.861	3022.49
997.157	3036.5
997.453	3001.25
997.749	2984.53
998.044	2958.99
998.34	2958.76
998.636	2945.43
998.932	2918.54
999.227	2852.78
999.523	2891.65
999.818	2874.7
1000.114	2838.32
1000.409	2809.84
1000.704	2812.33
1001	2813.68
1001.295	2782.72
1001.59	2768.49
1001.885	2746.57
1002.18	2749.73
1002.475	2709.73
1002.77	2693.01
1003.065	2707.02
1003.359	2679.22
1003.654	2704.99
1003.949	2667.02
1004.243	2647.36
1004.538	2608.72
1004.832	2599
1005.127	2601.49
1005.421	2567.14
1005.715	2571.66
1006.009	2558.32
1006.304	2524.88
1006.598	2500.02
1006.892	2489.62
1007.186	2484.2
1007.48	2474.48
1007.773	2455.27
1008.067	2444.88
1008.361	2419.34
1008.655	2419.12
1008.948	2366.69
1009.242	2396.74
1009.535	2368.72
1009.829	2356.07
1010.122	2317.2
1010.415	2319.01
1010.708	2295.05
1011.001	2304.32
1011.295	2289.63
1011.588	2271.55
1011.881	2260.93
1012.173	2269.74
1012.466	2253.92
1012.759	2206.92
1013.052	2196.98
1013.344	2197.2
1013.637	2160.59
1013.93	2169.41
1014.222	2149.75
1014.514	2158.79
1014.807	2118.56
1015.099	2102.29
1015.391	2097.77
1015.683	2086.02
1015.976	2084.89
1016.268	2052.35
1016.56	2024.1
1016.851	2018.68
1017.143	2003.31
1017.435	2021.61
1017.727	1979.35
1018.018	1973.03
1018.31	1949.07
1018.602	1925.57
1018.893	1967.15
1019.185	1946.14
1019.476	1877.21
1019.767	1901.39
1020.058	1886.02
1020.35	1835.18
1020.641	1856.87
1020.932	1830.66
1021.223	1833.14
1021.514	1807.16
1021.804	1758.8
1022.095	1785.46
1022.386	1781.62
1022.677	1767.61
1022.967	1756.54
1023.258	1722.41
1023.548	1725.58
1023.839	1710.21
1024.129	1703.2
1024.419	1681.96
1024.709	1693.03
1025	1662.53
1025.29	1669.31
1025.58	1639.7
1025.87	1611.45
1026.16	1625.69
1026.449	1620.49
1026.739	1606.03
1027.029	1602.64
1027.319	1528.52
1027.608	1552.02
1027.898	1548.63
1028.187	1545.92
1028.477	1525.36
1028.766	1532.13
1029.055	1493.72
1029.344	1500.27
1029.634	1491.68
1029.923	1479.03
1030.212	1476.09
1030.501	1448.97
1030.79	1448.97
1031.078	1440.61
1031.367	1416.21
1031.656	1428.86
1031.945	1403.1
1032.233	1393.16
1032.522	1357.22
1032.81	1378.47
1033.099	1349.31
1033.387	1365.13
1033.675	1342.31
1033.963	1327.39
1034.251	1325.59
1034.54	1318.36
1034.828	1305.93
1035.116	1318.36
1035.403	1289.43
1035.691	1275.87
1035.979	1294.4
1036.267	1269.09
1036.554	1263.67
1036.842	1251.92
1037.129	1244.68
1037.417	1255.98
1037.704	1232.48
1037.992	1221.63
1038.279	1221.41
1038.566	1210.56
1038.853	1210.56
1039.14	1210.56
