Data from breadboard_white_FLMS001491_00087.txt Node
Date: Wed Feb 08 10:48:24 GMT 2017
User: dcchb
Spectrometer: FLMS00149
Trigger mode: 0
Integration Time (sec): 2.000000E-2
Scans to average: 10
Electric dark correction enabled: true
Nonlinearity correction enabled: false
Boxcar width: 0
XAxis mode: Wavelengths
Number of Pixels in Spectrum: 2048
>>>>>Begin Spectral Data<<<<<
341.393	-17.26
341.776	-17.26
342.16	-17.26
342.543	-50.25
342.927	-53.19
343.31	-80.31
343.693	-75.56
344.077	-78.5
344.46	-74.89
344.843	-47.32
345.226	-52.51
345.61	-35.56
345.993	-5.73
346.376	11.21
346.759	15.06
347.142	25.45
347.525	48.73
347.908	74.72
348.291	72.91
348.674	101.38
349.057	100.93
349.44	120.82
349.823	127.82
350.206	166.46
350.588	206.01
350.971	221.38
351.354	248.27
351.737	265.44
352.119	263.86
352.502	283.3
352.884	297.76
353.267	284.88
353.65	314.71
354.032	320.81
354.414	337.99
354.797	311.32
355.179	348.38
355.562	347.48
355.944	351.09
356.326	345.67
356.709	375.5
357.091	370.75
357.473	358.78
357.855	378.66
358.238	378.44
358.62	358.78
359.002	347.7
359.384	369.62
359.766	369.62
360.148	349.06
360.53	352.9
360.912	349.51
361.294	369.4
361.676	352.22
362.057	352.67
362.439	354.26
362.821	349.96
363.203	353.58
363.584	355.16
363.966	366.01
364.348	352.45
364.729	348.38
365.111	359.68
365.493	365.78
365.874	344.31
366.256	327.59
366.637	340.25
367.019	342.05
367.4	368.49
367.781	328.27
368.163	334.82
368.544	326.23
368.925	343.41
369.306	360.81
369.688	339.34
370.069	341.83
370.45	348.83
370.831	330.08
371.212	358.78
371.593	361.49
371.974	358.32
372.355	361.26
372.736	346.8
373.117	356.97
373.498	348.38
373.879	345.44
374.26	364.65
374.641	350.64
375.021	356.29
375.402	377.31
375.783	372.11
376.163	367.59
376.544	385.44
376.925	378.89
377.305	362.17
377.686	371.2
378.066	388.15
378.447	377.53
378.827	376.63
379.208	378.89
379.588	387.93
379.968	405.78
380.349	397.87
380.729	368.04
381.109	400.58
381.489	393.13
381.87	414.59
382.25	417.98
382.63	395.39
383.01	407.14
383.39	419.79
383.77	428.83
384.15	429.06
384.53	422.5
384.91	428.38
385.29	440.58
385.67	442.39
386.049	434.03
386.429	448.49
386.809	471.32
387.189	452.78
387.568	458.89
387.948	465.89
388.328	450.75
388.707	475.83
389.087	458.66
389.466	467.93
389.846	479.22
390.225	505.66
390.605	508.6
390.984	507.02
391.363	516.29
391.743	497.98
392.122	495.72
392.501	520.81
392.881	532.33
393.26	513.8
393.639	536.17
394.018	535.04
394.397	565.55
394.776	547.47
395.155	562.16
395.534	538.88
395.913	587.02
396.292	554.48
396.671	612.1
397.05	583.63
397.429	611.42
397.808	590.18
398.186	586.34
398.565	618.66
398.944	625.44
399.323	615.72
399.701	635.6
400.08	646
400.458	661.14
400.837	653.91
401.215	666.56
401.594	682.38
401.972	678.77
402.351	681.03
402.729	706.56
403.107	719.44
403.486	733.91
403.864	741.59
404.242	753.57
404.62	753.34
404.999	774.13
405.377	783.4
405.755	814.81
406.133	846.22
406.511	837.86
406.889	830.63
407.267	850.51
407.645	872.66
408.023	893.23
408.401	905.88
408.779	924.41
409.156	927.57
409.534	937.52
409.912	981.13
410.29	977.97
410.667	1014.13
411.045	1021.13
411.422	1019.1
411.8	1033.11
412.178	1081.69
412.555	1088.93
412.933	1107.68
413.31	1128.93
413.687	1178.64
414.065	1205.76
414.442	1223.16
414.819	1179.77
415.197	1242.82
415.574	1267
415.951	1290.73
416.328	1303.61
416.705	1300.45
417.082	1314.91
417.46	1366.66
417.837	1351.74
418.214	1355.59
418.591	1401.69
418.967	1411.18
419.344	1445.98
419.721	1456.15
420.098	1464.74
420.475	1491.4
420.852	1488.01
421.228	1534.34
421.605	1519.65
421.982	1581.12
422.358	1569.14
422.735	1593.77
423.111	1583.38
423.488	1611.62
423.864	1643.71
424.241	1652.53
424.617	1711.28
424.994	1673.09
425.37	1703.15
425.746	1746.54
426.123	1751.96
426.499	1750.83
426.875	1791.28
427.251	1814.33
427.627	1856.14
428.003	1859.08
428.379	1917.83
428.756	1925.97
429.132	1945.4
429.507	1975
429.883	1963.48
430.259	2060.43
430.635	2087.54
431.011	2097.94
431.387	2177.49
431.763	2173.87
432.138	2180.87
432.514	2233.53
432.89	2230.14
433.265	2322.11
433.641	2336.13
434.016	2339.74
434.392	2375.22
434.767	2419.96
435.143	2417.03
435.518	2463.13
435.894	2471.71
436.269	2522.33
436.644	2543.13
437.02	2618.83
437.395	2591.94
437.77	2598.04
438.145	2689.11
438.52	2724.14
438.895	2727.08
439.271	2745.38
439.646	2746.96
440.021	2804.81
440.395	2836.22
440.77	2815.66
441.145	2829.45
441.52	2918.48
441.895	2921.42
442.27	2939.27
442.645	2950.12
443.019	2993.06
443.394	2988.76
443.769	3007.07
444.143	3021.98
444.518	3101.75
444.892	3105.82
445.267	3092.94
445.641	3177.68
446.016	3186.95
446.39	3175.65
446.764	3253.39
447.139	3220.4
447.513	3235.76
447.887	3267.4
448.262	3268.98
448.636	3330.9
449.01	3369.77
449.384	3367.28
449.758	3384.69
450.132	3447.06
450.506	3458.36
450.88	3475.08
451.254	3499.26
451.628	3525.02
452.002	3597.11
452.376	3628.29
452.75	3640.05
453.123	3667.84
453.497	3773.83
453.871	3818.12
454.244	3888.4
454.618	3885.91
454.992	3941.28
455.365	3971.79
455.739	4059.47
456.112	4105.57
456.486	4121.61
456.859	4165.91
457.232	4255.4
457.606	4276.64
457.979	4290.42
458.352	4374.49
458.725	4440.25
459.099	4498.33
459.472	4582.62
459.845	4620.13
460.218	4667.36
460.591	4692
460.964	4702.84
461.337	4780.58
461.71	4908.26
462.083	4979.22
462.456	4983.74
462.829	5031.65
463.201	5112.32
463.574	5181.93
463.947	5248.59
464.32	5364.07
464.692	5365.88
465.065	5445.87
465.438	5517.28
465.81	5554.57
466.183	5615.81
466.555	5772.64
466.928	5809.48
467.3	5832.53
467.672	5882.02
468.045	6058.51
468.417	6093.77
468.789	6102.35
469.161	6216.7
469.534	6319.98
469.906	6489.46
470.278	6540.53
470.65	6607.43
471.022	6689
471.394	6825.27
471.766	6926.51
472.138	6962.9
472.51	7181.65
472.882	7225.04
473.253	7300.29
473.625	7452.83
473.997	7581.86
474.369	7623.22
474.74	7711.35
475.112	7915.64
475.484	7975.98
475.855	8171.9
476.227	8251
476.598	8425.46
476.97	8576.19
477.341	8735.5
477.713	8842.85
478.084	8896.18
478.455	9170.52
478.827	9224.98
479.198	9481.93
479.569	9472.66
479.94	9808.47
480.311	9951.29
480.682	10102.02
481.053	10349.25
481.424	10565.74
481.795	10596.25
482.166	10793.08
482.537	10896.58
482.908	11144.93
483.279	11233.74
483.65	11479.16
484.021	11679.61
484.391	11839.6
484.762	11904.46
485.133	12107.39
485.503	12237.79
485.874	12558
486.244	12643.2
486.615	12892.46
486.985	13075.96
487.356	13399.79
487.726	13340.81
488.097	13645.21
488.467	13658.54
488.837	14006.1
489.207	14205.87
489.578	14351.4
489.948	14477.95
490.318	14765.18
490.688	14840.2
491.058	14995.23
491.428	15195.9
491.798	15307.99
492.168	15762.66
492.538	15724.02
492.908	15946.16
493.278	16067.97
493.648	16200.62
494.017	16439.26
494.387	16570.1
494.757	16692.58
495.126	16904.78
495.496	16936.42
495.866	17078.34
496.235	17313.13
496.605	17388.16
496.974	17591.32
497.344	17711.77
497.713	17887.81
498.082	18015.26
498.452	18242.37
498.821	18352.2
499.19	18311.52
499.559	18556.72
499.928	18780.89
500.298	18743.38
500.667	19011.62
501.036	19040.77
501.405	19255.23
501.774	19274.21
502.143	19452.06
502.512	19560.53
502.88	19725.72
503.249	19723.69
503.618	19932.72
503.987	20047.07
504.356	20216.11
504.724	20309.21
505.093	20424.24
505.462	20440.51
505.83	20718.69
506.199	20858.12
506.567	21091.79
506.936	20968.18
507.304	21382.18
507.672	21487.03
508.041	21642.06
508.409	21781.26
508.777	22019
509.145	22207.69
509.514	22140.58
509.882	22343.28
510.25	22448.14
510.618	22727.68
510.986	22742.82
511.354	23031.17
511.722	23173.77
512.09	23329.02
512.458	23440.88
512.826	23646.75
513.193	23759.52
513.561	23820.53
513.929	24230.69
514.297	24278.15
514.664	24456.67
515.032	24650.11
515.4	24893.05
515.767	24927.4
516.135	25091.68
516.502	24940.28
516.869	25485.35
517.237	25549.75
517.604	25538.23
517.972	25983.19
518.339	26126.23
518.706	26157.42
519.073	26273.57
519.44	26593.57
519.808	26815.03
520.175	26902.71
520.542	27271.29
520.909	27359.42
521.276	27499.08
521.643	27734.33
522.009	27896.13
522.376	28094.32
522.743	28456.34
523.11	28604.81
523.477	28935.88
523.843	29099.04
524.21	29373.15
524.577	29608.85
524.943	29733.14
525.31	29880.03
525.676	30188.05
526.043	30367.25
526.409	30463.97
526.776	30863.74
527.142	31037.07
527.508	31209.94
527.874	31388.02
528.241	31614.9
528.607	31804.95
528.973	32120.43
529.339	32162.01
529.705	32500.53
530.071	32623.01
530.437	32829.79
530.803	33013.51
531.169	33197.69
531.535	33275.88
531.901	33362.2
532.267	33545.7
532.632	33678.13
532.998	33831.79
533.364	34186.81
533.73	34300.71
534.095	34501.15
534.461	34576.18
534.826	34802.16
535.192	34876.29
535.557	35193.34
535.923	35224.3
536.288	35384.07
536.653	35530.05
537.019	35448.7
537.384	35775.47
537.749	35781.12
538.114	35913.1
538.479	36169.13
538.845	36317.6
539.21	36266.76
539.575	36371.39
539.94	36533.87
540.305	36795.33
540.67	36687.31
541.034	36936.35
541.399	37093.86
541.764	37242.55
542.129	37423.56
542.494	37450.46
542.858	37666.04
543.223	37578.59
543.587	38052.02
543.952	37913.95
544.316	38213.37
544.681	37991.68
545.045	38248.63
545.41	38510.09
545.774	38643.19
546.138	38666.24
546.503	38777.2
546.867	38871.21
547.231	39212.22
547.595	39147.59
547.959	39266
548.324	39231.2
548.688	39561.81
549.052	39703.05
549.416	39737.85
549.779	39797.51
550.143	39870.05
550.507	40252.42
550.871	40300.32
551.235	40335.13
551.599	40733.31
551.962	40792.29
552.326	40928.33
552.689	41204.03
553.053	41038.61
553.417	41162.45
553.78	41589.1
554.143	41453.29
554.507	41762.88
554.87	41796.56
555.234	42182.31
555.597	42205.13
555.96	42260.27
556.323	42436.31
556.686	42611.45
557.05	42953.36
557.413	42934.83
557.776	43150.65
558.139	43350.41
558.502	43527.13
558.865	43551.09
559.228	43851.87
559.59	43973
559.953	44143.61
560.316	44521.91
560.679	44539.99
561.041	44807.78
561.404	44829.02
561.767	45097.03
562.129	44976.59
562.492	45414.09
562.854	45416.12
563.217	45644.82
563.579	45788.32
563.941	46075.54
564.304	46136.56
564.666	46499.03
565.028	46553.95
565.39	46608.86
565.753	46868.29
566.115	47052.46
566.477	47239.13
566.839	47272.34
567.201	47531.55
567.563	47621.49
567.925	47762.28
568.287	47930.18
568.648	47924.76
569.01	48180.57
569.372	48556.6
569.734	48330.17
570.095	48731.06
570.457	48651.97
570.819	48718.18
571.18	48760.44
571.542	49116.82
571.903	49097.83
572.265	49364.94
572.626	49399.07
572.987	49377.37
573.349	49558.39
573.71	49611.27
574.071	49726.52
574.432	49893.07
574.794	50045.61
575.155	50098.94
575.516	50051.48
575.877	50162.21
576.238	50302.32
576.599	50291.47
576.96	50362.66
577.32	50504.8
577.681	50524.24
578.042	50573.05
578.403	50583.9
578.763	50636.1
579.124	50771.91
579.485	50856.66
579.845	50967.61
580.206	50967.39
580.566	50898.69
580.927	51004.9
581.287	51067.05
581.648	50945.69
582.008	51132.81
582.368	51102.98
582.728	51218.46
583.089	51104.56
583.449	51131.9
583.809	51126.25
584.169	51194.05
584.529	51107.27
584.889	51353.37
585.249	51224.78
585.609	51179.59
585.969	51288.28
586.329	51188.63
586.688	51240.38
587.048	51218.91
587.408	51240.83
587.768	51225.46
588.127	51182.52
588.487	51176.42
588.846	51372.35
589.206	51158.57
589.565	51184.56
589.925	51425.46
590.284	51251.67
590.643	51318.11
591.003	51345.68
591.362	51452.57
591.721	51472.46
592.08	51535.74
592.44	51496.64
592.799	51484.44
593.158	51501.84
593.517	51511.33
593.876	51538.45
594.235	51479.24
594.593	51460.48
594.952	51559.46
595.311	51478.56
595.67	51578.67
596.029	51622.74
596.387	51661.16
596.746	51691.66
597.104	51584.1
597.463	51617.09
597.822	51726.69
598.18	51546.13
598.538	51760.14
598.897	51820.25
599.255	51646.69
599.613	52001.94
599.972	51891.66
600.33	51872.22
600.688	51790.42
601.046	51817.31
601.404	52002.84
601.762	51860.02
602.12	52110.18
602.478	52028.6
602.836	52126.68
603.194	51946.35
603.552	52029.51
603.91	51999.9
604.268	52195.15
604.625	52060.02
604.983	52212.1
605.341	52030.86
605.698	52225.66
606.056	52257.07
606.413	52191.76
606.771	52339.78
607.128	52358.54
607.485	52276.05
607.843	52328.03
608.2	52302.27
608.557	52551.3
608.914	52478.31
609.272	52611.87
609.629	52666.55
609.986	52820.22
610.343	52574.35
610.7	52800.33
611.057	52786.1
611.414	52770.51
611.771	52755.82
612.127	52927.56
612.484	52876.49
612.841	53010.72
613.198	52820
613.554	52858.41
613.911	53067.67
614.267	53075.58
614.624	53030.61
614.98	53065.86
615.337	53167.1
615.693	53061.57
616.05	53050.05
616.406	53272.64
616.762	53224.05
617.118	53173.66
617.475	53212.08
617.831	53243.49
618.187	53317.38
618.543	53308.8
618.899	53481.67
619.255	53371.62
619.611	53411.17
619.967	53412.3
620.323	53524.16
620.678	53438.51
621.034	53433.09
621.39	53461.11
621.746	53345.41
622.101	53704.49
622.457	53424.5
622.812	53505.85
623.168	53638.5
623.523	53610.93
623.879	53727.77
624.234	53401.67
624.589	53522.35
624.945	53598.73
625.3	53577.72
625.655	53574.55
626.01	53528
626.365	53575.91
626.72	53490.94
627.075	53574.55
627.43	53577.49
627.785	53512.41
628.14	53525.06
628.495	53439.64
628.85	53560.09
629.205	53322.13
629.559	53548.79
629.914	53317.61
630.269	53397.83
630.623	53287.55
630.978	53282.13
631.332	53428.34
631.687	53370.72
632.041	53208.91
632.396	53262.7
632.75	53253.43
633.104	53285.97
633.459	53185.64
633.813	53136.37
634.167	53062.02
634.521	53194.45
634.875	53200.78
635.229	53065.41
635.583	52846.21
635.937	52922.14
636.291	52922.37
636.645	52899.09
636.999	52838.3
637.352	52850.73
637.706	52687.12
638.06	52826.32
638.413	52745.65
638.767	52650.96
639.121	52658.19
639.474	52470.85
639.828	52587.91
640.181	52574.58
640.534	52518.53
640.888	52420.46
641.241	52319.22
641.594	52360.57
641.947	52390.18
642.301	52373.45
642.654	52391.08
643.007	52186.79
643.36	52164.65
643.713	52105.44
644.066	52236.51
644.419	52130.52
644.771	51874.94
645.124	51618.67
645.477	51550.2
645.83	51316.31
646.182	51159.47
646.535	51051.68
646.888	51070.21
647.24	50917.9
647.593	51154.05
647.945	50966.26
648.298	50930.33
648.65	50746.38
649.002	50703.21
649.355	50675.42
649.707	50666.61
650.059	51011.46
650.411	51292.35
650.763	51331.9
651.115	51604.43
651.467	51429.98
651.819	51409.18
652.171	51388.62
652.523	51266.82
652.875	51267.72
653.227	51181.39
653.578	51327.83
653.93	51228.85
654.282	51098.68
654.633	50956.54
654.985	51126.48
655.337	51020.72
655.688	50956.77
656.039	51146.82
656.391	50865.92
656.742	50915.64
657.094	50954.96
657.445	51021.62
657.796	50900.72
658.147	50849.65
658.498	50771.46
658.849	50876.32
659.2	50873.83
659.551	50824.34
659.902	50976.43
660.253	50758.35
660.604	50855.98
660.955	50674.06
661.306	50832.93
661.656	50748.41
662.007	50659.83
662.358	50736.89
662.708	50749.54
663.059	50556.1
663.409	50385.26
663.76	50676.55
664.11	50599.94
664.461	50661.63
664.811	50596.32
665.161	50574.63
665.511	50394.07
665.862	50518.81
666.212	50616.66
666.562	50512.03
666.912	50587.74
667.262	50401.75
667.612	50443.11
667.962	50349.55
668.312	50385.48
668.662	50570.79
669.011	50440.62
669.361	50338.48
669.711	50375.31
670.06	50340.96
670.41	50249.22
670.76	50180.06
671.109	50283.34
671.459	50247.41
671.808	50169.9
672.157	50265.94
672.507	49987.08
672.856	49980.97
673.205	50112.95
673.554	50058.49
673.904	50083.12
674.253	50256.67
674.602	50108.2
674.951	49644.94
675.3	49308.68
675.649	49867.08
675.998	49877.47
676.346	49768.78
676.695	49968.54
677.044	49649.68
677.393	49847.42
677.741	49893.97
678.09	49691.04
678.438	49595
678.787	49661.66
679.135	49688.55
679.484	49347.09
679.832	49542.79
680.181	49400.2
680.529	49570.14
680.877	49386.87
681.225	49307.55
681.573	49547.99
681.922	49198.62
682.27	49157.94
682.618	49125.18
682.966	48969.7
683.314	49160.43
683.661	49011.28
684.009	48851.51
684.357	48758.18
684.705	48598.41
685.053	48686.54
685.4	48505.76
685.748	48479.32
686.095	48488.36
686.443	48342.15
686.79	48277.74
687.138	48333.33
687.485	48321.36
687.832	48168.14
688.18	48190.51
688.527	48011.31
688.874	47898.32
689.221	47706.23
689.568	47653.58
689.915	47590.08
690.262	47554.6
690.609	47472.34
690.956	47470.98
691.303	47304.89
691.65	47165.45
691.997	47133.14
692.344	46840.94
692.69	46764.34
693.037	46784
693.383	46503.33
693.73	46634.4
694.077	46444.8
694.423	46564.57
694.769	46399.6
695.116	46270.34
695.462	46235.76
695.808	45920.97
696.155	46152.83
696.501	45639.39
696.847	45755.77
697.193	45516.23
697.539	45670.13
697.885	45375.67
698.231	45177.94
698.577	45317.37
698.923	45119.86
699.269	45008.45
699.614	44826.53
699.96	44591.51
700.306	44645.75
700.651	44431.52
700.997	44405.98
701.342	44371.86
701.688	44318.98
702.033	44009.83
702.379	44182.03
702.724	43902.04
703.069	44111.07
703.415	43648.49
703.76	43616.85
704.105	43565.55
704.45	43423.18
704.795	43286.69
705.14	43089.86
705.485	43135.5
705.83	42944.1
706.175	42936.41
706.52	43036.98
706.865	42842.18
707.209	42628.85
707.554	42340.95
707.899	42606.48
708.243	42379.37
708.588	42329.88
708.932	42112.25
709.277	42127.17
709.621	42037.91
709.966	41786.84
710.31	41862.09
710.654	41479.95
710.998	41723.34
711.342	41660.74
711.687	41423.91
712.031	41275.44
712.375	41214.88
712.719	41204.48
713.063	41152.51
713.407	41263.01
713.75	40971.27
714.094	40932.17
714.438	40697.38
714.782	40821.21
715.125	40693.08
715.469	40784.61
715.812	40421
716.156	40198.41
716.499	40274.79
716.843	40319.31
717.186	39992.99
717.53	40169.71
717.873	40160.89
718.216	39957.96
718.559	39938.07
718.902	39690.85
719.246	39641.81
719.589	39555.94
719.932	39547.12
720.275	39537.18
720.617	39514.81
720.96	39357.3
721.303	39396.39
721.646	39264.65
721.989	39071.2
722.331	39095.84
722.674	38976.07
723.016	39012.67
723.359	38859.23
723.701	38944.2
724.044	38525.91
724.386	38420.6
724.729	38763.87
725.071	38583.99
725.413	38475.97
725.755	38387.38
726.097	38293.82
726.439	37990.33
726.782	38191.23
727.124	38222.41
727.465	38138.12
727.807	38026.26
728.149	37859.26
728.491	37870.11
728.833	37762.76
729.175	37651.58
729.516	37634.63
729.858	37706.04
730.199	37652.94
730.541	37459.5
730.882	37533.62
731.224	37556.22
731.565	37197.13
731.906	37291.36
732.248	37229.67
732.589	37194.64
732.93	36946.97
733.271	37088.66
733.612	36979.28
733.953	37055.89
734.294	36834.2
734.635	36772.73
734.976	36858.16
735.317	36665.17
735.658	36693.41
735.999	36623.13
736.339	36457.71
736.68	36677.59
737.021	36425.17
737.361	36258.62
737.702	36430.6
738.042	36253.2
738.383	36267.21
738.723	36310.37
739.063	36147.44
739.404	36051.85
739.744	35993.32
740.084	35963.04
740.424	35922.59
740.764	35866.99
741.104	35903.38
741.444	35790.16
741.784	35603.95
742.124	35667.23
742.464	35503.39
742.804	35471.07
743.143	35351.98
743.483	35388.82
743.823	35263.62
744.162	35182.27
744.502	35291.64
744.841	35009.39
745.181	35163.06
745.52	34956.51
745.86	35019.56
746.199	34863.18
746.538	34816.63
746.877	35021.59
747.216	34805.55
747.556	34665.67
747.895	34692.79
748.234	34499.12
748.573	34487.14
748.911	34504.77
749.25	34458.22
749.589	34128.96
749.928	34321.05
750.267	34304.55
750.605	34115.4
750.944	33979.36
751.283	33917.67
751.621	33851
751.96	33750.89
752.298	33666.15
752.636	33757.45
752.975	33526.94
753.313	33413.5
753.651	33537.34
753.989	33333.05
754.327	33263
754.666	33170.34
755.004	33191.36
755.342	33167.63
755.679	33121.3
756.017	32871.37
756.355	32907.07
756.693	32854.87
757.031	32780.75
757.368	32472.96
757.706	32526.52
758.044	32363.36
758.381	32426.63
758.719	32331.27
759.056	32337.14
759.394	32214.44
759.731	31916.14
760.068	31981.45
760.405	31911.17
760.743	31736.48
761.08	31797.5
761.417	31565.19
761.754	31529.93
762.091	31472.53
762.428	31299.21
762.765	31203.16
763.102	31268.47
763.438	30984.86
763.775	31001.36
764.112	30963.39
764.449	30879.78
764.785	30714.36
765.122	30517.3
765.458	30352.79
765.795	30377.65
766.131	30307.37
766.467	30107.6
766.804	30040.48
767.14	29875.51
767.476	29871.67
767.812	29655.63
768.148	29749.42
768.485	29593.71
768.821	29426.26
769.157	29472.59
769.492	29297.22
769.828	29476.88
770.164	29026.95
770.5	29064.24
770.836	28857.24
771.171	28685.04
771.507	28716.45
771.842	28594.19
772.178	28513.97
772.513	28393.74
772.849	28342.67
773.184	28195.33
773.519	28155.33
773.855	27951.95
774.19	27913.31
774.525	27713.76
774.86	27903.81
775.195	27595.8
775.53	27599.64
775.865	27467.22
776.2	27247.79
776.535	27055.25
776.87	27124.17
777.205	26995.36
777.539	26923.5
777.874	26926.44
778.209	26720.57
778.543	26593.79
778.878	26524.64
779.212	26394.7
779.547	26197.42
779.881	26284.42
780.215	26095.73
780.55	26133.92
780.884	26025.22
781.218	25833.13
781.552	25904.77
781.886	25733.48
782.22	25495.06
782.554	25500.04
782.888	25232.02
783.222	25176.65
783.556	25082.65
783.889	25078.8
784.223	24891.46
784.557	24865.48
784.89	24942.31
785.224	24708.19
785.557	24534.86
785.891	24566.73
786.224	24389.78
786.558	24419.16
786.891	24297.13
787.224	24117.47
787.557	24006.29
787.891	24021.2
788.224	23939.85
788.557	23949.12
788.89	23810.36
789.223	23839.97
789.556	23637.26
789.888	23486.98
790.221	23467.55
790.554	23394.33
790.887	23307.55
791.219	23210.6
791.552	23250.38
791.884	22933.32
792.217	22873.89
792.549	22823.04
792.882	22747.11
793.214	22632.99
793.546	22675.25
793.879	22479.32
794.211	22513.45
794.543	22443.39
794.875	22296.05
795.207	22548.7
795.539	22223.06
795.871	22141.48
796.203	21945.78
796.535	21969.51
796.867	21946.91
797.198	21826.91
797.53	21743.52
797.862	21570.65
798.193	21663.53
798.525	21472.12
798.856	21539.01
799.188	21294.27
799.519	21149.64
799.85	21198.68
800.182	21144.22
800.513	21099.47
800.844	20928.63
801.175	21028.29
801.506	21002.98
801.837	20726.6
802.168	20722.76
802.499	20656.55
802.83	20537
803.161	20421.07
803.491	20539.49
803.822	20514.18
804.153	20315.09
804.483	20211.81
804.814	20173.85
805.145	20152.38
805.475	20158.26
805.805	20038.03
806.136	20008.88
806.466	19940.63
806.796	19951.26
807.126	19767.08
807.457	19725.05
807.787	19739.96
808.117	19675.56
808.447	19568.89
808.777	19632.17
809.107	19571.38
809.436	19430.82
809.766	19293.19
810.096	19275.57
810.426	19235.34
810.755	19181.33
811.085	19224.49
811.414	19225.4
811.744	19010.94
812.073	19090.94
812.403	18941.79
812.732	18846.65
813.061	18947.44
813.39	18832.19
813.719	18735.02
814.049	18793.55
814.378	18774.56
814.707	18721.23
815.036	18655.92
815.365	18562.37
815.693	18372.09
816.022	18488.69
816.351	18364.86
816.68	18300.23
817.008	18334.8
817.337	18067.91
817.665	18056.16
817.994	18122.6
818.322	18141.36
818.651	18065.43
818.979	17999.89
819.307	17963.96
819.636	17854.14
819.964	17710.41
820.292	17847.81
820.62	17800.35
820.948	17802.84
821.276	17867.24
821.604	17792.67
821.932	17891.65
822.259	17845.55
822.587	17694.14
822.915	17675.16
823.243	17695.27
823.57	17665.44
823.898	17752.22
824.225	17604.2
824.553	17646.46
824.88	17663.18
825.207	17669.73
825.535	17664.31
825.862	17690.98
826.189	17493.92
826.516	17681.03
826.843	17757.87
827.17	17716.74
827.497	17702.95
827.824	17730.07
828.151	17747.47
828.478	17707.47
828.805	17735.04
829.131	17595.61
829.458	17634.71
829.785	17495.95
830.111	17567.81
830.438	17755.61
830.764	17585.67
831.09	17615.95
831.417	17497.99
831.743	17645.55
832.069	17663.18
832.395	17536.18
832.722	17558.1
833.048	17438.78
833.374	17490.98
833.7	17370.31
834.026	17443.52
834.351	17426.8
834.677	17358.33
835.003	17348.84
835.329	17317.43
835.654	17299.8
835.98	17351.78
836.306	17299.35
836.631	17190.88
836.956	17255.05
837.282	17252.12
837.607	17165.79
837.932	17134.61
838.258	17271.55
838.583	17074.72
838.908	17019.81
839.233	17039.24
839.558	16954.72
839.883	16912.69
840.208	16936.65
840.533	16785.91
840.858	16829.08
841.182	16884.67
841.507	16817.1
841.832	16597.22
842.156	16623.43
842.481	16695.52
842.805	16712.92
843.13	16672.25
843.454	16528.75
843.778	16493.49
844.103	16451.91
844.427	16452.14
844.751	16449.43
845.075	16319.71
845.399	16231.8
845.723	16252.37
846.047	16261.18
846.371	16130.11
846.695	16145.25
847.019	15929.44
847.343	15956.56
847.666	15841.53
847.99	15771.25
848.313	15773.06
848.637	15722.44
848.96	15572.39
849.284	15593.63
849.607	15524.03
849.931	15426.4
850.254	15322
850.577	15251.94
850.9	15170.36
851.223	15079.52
851.546	14954.32
851.869	14977.83
852.192	15021.22
852.515	14818.28
852.838	14805.4
853.161	14791.16
853.483	14761.11
853.806	14694.67
854.129	14663.94
854.451	14634.56
854.774	14506.65
855.096	14536.93
855.419	14429.82
855.741	14407.9
856.063	14350.27
856.385	14330.84
856.708	14221.91
857.03	14221.01
857.352	14189.82
857.674	14163.16
857.996	14102.37
858.318	14046.78
858.64	14019.66
858.961	14011.3
859.283	13959.32
859.605	13895.14
859.926	13971.75
860.248	13845.88
860.57	13830.74
860.891	13774.92
861.212	13771.53
861.534	13755.49
861.855	13642.04
862.176	13702.61
862.498	13683.17
862.819	13647.24
863.14	13531.31
863.461	13541.25
863.782	13467.81
864.103	13498.32
864.424	13412.44
864.745	13444.53
865.065	13387.81
865.386	13343.07
865.707	13391.43
866.027	13303.29
866.348	13246.8
866.668	13216.06
866.989	13193.01
867.309	13064.88
867.63	13109.4
867.95	13090.42
868.27	12922.29
868.59	13066.01
868.91	13008.84
869.23	12956.18
869.55	12964.09
869.87	13037.09
870.19	13041.38
870.51	12932.91
870.83	12929.29
871.15	12917.99
871.469	12825.34
871.789	12874.38
872.109	12861.72
872.428	12802.52
872.748	12765
873.067	12755.74
873.386	12761.61
873.706	12649.07
874.025	12627.83
874.344	12614.05
874.663	12634.61
874.982	12629.64
875.301	12563.88
875.62	12493.6
875.939	12438.68
876.258	12540.6
876.577	12454.95
876.896	12503.32
877.214	12412.02
877.533	12424.45
877.852	12308.07
878.17	12326.37
878.489	12408.18
878.807	12402.08
879.125	12331.12
879.444	12358.69
879.762	12223.77
880.08	12292.7
880.398	12268.29
880.716	12247.5
881.034	12197.11
881.352	12272.36
881.67	12205.7
881.988	12163.66
882.306	12137
882.624	12033.05
882.941	12058.13
883.259	11948.75
883.577	11931.58
883.894	11940.39
884.212	11932.48
884.529	11950.11
884.846	11920.96
885.164	11894.07
885.481	11813.39
885.798	11853.61
886.115	11760.28
886.432	11751.24
886.75	11739.04
887.067	11763.67
887.383	11674.18
887.7	11699.27
888.017	11617.01
888.334	11652.49
888.651	11553.28
888.967	11523.68
889.284	11417.24
889.6	11443.68
889.917	11406.39
890.233	11383.8
890.55	11330.46
890.866	11272.61
891.182	11340.18
891.498	11228.55
891.815	11249.34
892.131	11152.16
892.447	11124.82
892.763	11109.23
893.079	11053.64
893.395	11003.24
893.71	11044.82
894.026	10935.9
894.342	10942.68
894.657	10930.25
894.973	10840.08
895.289	10846.64
895.604	10847.54
895.92	10768.22
896.235	10694.1
896.55	10798.95
896.865	10735.68
897.181	10607.55
897.496	10638.96
897.811	10577.26
898.126	10577.49
898.441	10528.23
898.756	10467.66
899.071	10391.51
899.386	10456.82
899.7	10338.63
900.015	10302.47
900.33	10189.48
900.644	10156.26
900.959	10207.78
901.273	10191.29
901.588	10158.07
901.902	10044.4
902.216	10022.02
902.531	9945.87
902.845	9911.97
903.159	9934.34
903.473	9920.78
903.787	9898.86
904.101	9885.08
904.415	9890.73
904.729	9797.85
905.042	9693.9
905.356	9651.64
905.67	9680.34
905.984	9648.7
906.297	9593.79
906.611	9556.5
906.924	9432.89
907.237	9504.07
907.551	9438.09
907.864	9441.7
908.177	9373.68
908.491	9281.48
908.804	9335.94
909.117	9293
909.43	9212.55
909.743	9176.62
910.056	9187.02
910.368	9101.37
910.681	9031.54
910.994	9017.08
911.307	8929.17
911.619	8823.86
911.932	8889.17
912.244	8819.57
912.557	8761.27
912.869	8832.68
913.181	8748.61
913.494	8725.11
913.806	8692.79
914.118	8629.97
914.43	8594.94
914.742	8597.43
915.054	8550.42
915.366	8502.97
915.678	8451.22
915.99	8424.78
916.302	8341.62
916.613	8314.95
916.925	8364.67
917.236	8335.06
917.548	8293.03
917.859	8304.78
918.171	8167.84
918.482	8182.52
918.794	8153.83
919.105	8163.54
919.416	8005.35
919.727	7978.91
920.038	7961.29
920.349	7923.32
920.66	7896.88
920.971	7916.32
921.282	7912.48
921.593	7850.56
921.903	7723.55
922.214	7751.35
922.525	7709.32
922.835	7679.26
923.146	7646.27
923.456	7633.39
923.767	7570.79
924.077	7582.77
924.387	7521.3
924.697	7404.24
925.008	7495.31
925.318	7456.67
925.628	7341.64
925.938	7359.95
926.248	7318.59
926.558	7277.92
926.867	7268.2
927.177	7231.14
927.487	7119.05
927.796	7107.3
928.106	7122.89
928.416	7096.45
928.725	6986.17
929.034	6994.76
929.344	6982.56
929.653	6955.21
929.962	6928.32
930.271	6882.45
930.581	6831.83
930.89	6863.24
931.199	6768.1
931.508	6852.39
931.817	6770.58
932.125	6766.74
932.434	6699.17
932.743	6674.32
933.051	6651.72
933.36	6616.24
933.669	6554.32
933.977	6524.72
934.286	6495.34
934.594	6487.43
934.902	6481.78
935.21	6445.4
935.519	6438.62
935.827	6395.45
936.135	6370.37
936.443	6347.09
936.751	6319.3
937.059	6262.12
937.367	6254.21
937.674	6244.27
937.982	6200.88
938.29	6143.71
938.597	6151.17
938.905	6119.08
939.213	6088.79
939.52	6072.52
939.827	6087.66
940.135	6033.88
940.442	5998.63
940.749	5977.61
941.056	5978.29
941.363	5909.82
941.67	5859.65
941.977	5821.01
942.284	5780.1
942.591	5785.98
942.898	5800.89
943.205	5782.14
943.511	5736.94
943.818	5716.6
944.125	5656.49
944.431	5587.11
944.738	5703.04
945.044	5576.94
945.35	5588.02
945.657	5611.97
945.963	5553.44
946.269	5505.76
946.575	5496.95
946.881	5472.99
947.187	5472.54
947.493	5414.69
947.799	5444.74
948.105	5339.21
948.41	5363.39
948.716	5380.11
949.022	5334.46
949.327	5273
949.633	5217.18
949.938	5267.8
950.244	5224.86
950.549	5202.72
950.854	5143.28
951.16	5148.93
951.465	5125.2
951.77	5113.45
952.075	5059.67
952.38	5038.2
952.685	5032.1
952.99	4964.3
953.294	4998.88
953.599	4989.61
953.904	4969.5
954.209	4918.2
954.513	4891.76
954.818	4866.68
955.122	4834.82
955.426	4836.4
955.731	4807.25
956.035	4784.87
956.339	4777.87
956.643	4771.09
956.948	4706.01
957.252	4671.88
957.556	4715.95
957.86	4647.02
958.163	4633.24
958.467	4667.82
958.771	4595.27
959.075	4586.69
959.378	4544.43
959.682	4558.89
959.985	4504.2
960.289	4473.92
960.592	4489.06
960.896	4481.83
961.199	4455.17
961.502	4467.82
961.805	4381.04
962.108	4368.39
962.411	4365.68
962.714	4317.77
963.017	4352.12
963.32	4352.34
963.623	4313.25
963.926	4267.6
964.228	4272.35
964.531	4227.37
964.833	4219.69
965.136	4168.17
965.438	4160.48
965.741	4111.9
966.043	4130.88
966.345	4119.35
966.648	4102.63
966.95	4084.78
967.252	4041.62
967.554	4043.88
967.856	4042.97
968.158	4007.04
968.46	3991.22
968.761	3923.88
969.063	3988.96
969.365	3937.44
969.666	3918.91
969.968	3885.69
970.269	3875.07
970.571	3847.05
970.872	3897.21
971.174	3869.19
971.475	3828.52
971.776	3801.62
972.077	3840.27
972.378	3753.71
972.679	3760.49
972.98	3752.58
973.281	3731.57
973.582	3645.02
973.883	3671.23
974.183	3645.47
974.484	3699.93
974.785	3647.5
975.085	3629.88
975.386	3620.39
975.686	3565.02
975.986	3539.26
976.287	3544.23
976.587	3554.4
976.887	3555.08
977.187	3536.09
977.487	3495.64
977.787	3502.65
978.087	3449.32
978.387	3412.03
978.687	3476.43
978.987	3466.26
979.286	3439.82
979.586	3397.34
979.885	3347.62
980.185	3353.27
980.484	3330.45
980.784	3337
981.083	3319.83
981.382	3310.79
981.682	3281.41
981.981	3260.39
982.28	3226.72
982.579	3246.61
982.878	3220.4
983.177	3209.1
983.475	3188.08
983.774	3161.41
984.073	3128.42
984.372	3149.21
984.67	3137.01
984.969	3087.74
985.267	3102.21
985.566	3087.07
985.864	3106.05
986.162	3054.75
986.461	3047.29
986.759	3049.1
987.057	3060.63
987.355	3005.26
987.653	2997.35
987.951	2989.44
988.249	2940.4
988.547	2930.69
988.844	2937.69
989.142	2938.6
989.44	2899.05
989.737	2871.25
990.035	2872.38
990.332	2886.84
990.63	2827.64
990.927	2816.11
991.224	2846.85
991.521	2817.92
991.819	2819.28
992.116	2771.59
992.413	2787.41
992.71	2768.2
993.006	2735.66
993.303	2722.1
993.6	2707.19
993.897	2768.66
994.193	2702.9
994.49	2706.96
994.787	2699.28
995.083	2640.07
995.379	2653.18
995.676	2615.44
995.972	2633.97
996.268	2614.54
996.565	2569.57
996.861	2563.92
997.157	2557.81
997.453	2551.49
997.749	2565.05
998.044	2540.64
998.34	2526.4
998.636	2524.37
998.932	2484.6
999.227	2458.61
999.523	2434.43
999.818	2426.74
1000.114	2448.21
1000.409	2403.47
1000.704	2404.15
1001	2375.22
1001.295	2354.43
1001.59	2342
1001.885	2379.97
1002.18	2332.74
1002.475	2361.66
1002.77	2327.31
1003.065	2298.84
1003.359	2275.11
1003.654	2286.63
1003.949	2252.51
1004.243	2278.5
1004.538	2257.48
1004.832	2227.43
1005.127	2229.46
1005.421	2171.16
1005.715	2184.72
1006.009	2151.72
1006.304	2154.89
1006.598	2177.49
1006.892	2141.1
1007.186	2087.09
1007.48	2114.89
1007.773	2101.33
1008.067	2101.33
1008.361	2065.17
1008.655	2064.95
1008.948	2079.18
1009.242	2036.25
1009.535	2035.57
1009.829	2024.04
1010.122	2029.69
1010.415	2000.54
1010.708	1967.55
1011.001	1947.66
1011.295	1987.89
1011.588	1968
1011.881	1912.63
1012.173	1891.62
1012.466	1934.33
1012.759	1913.09
1013.052	1910.37
1013.344	1918.28
1013.637	1862.92
1013.93	1860.88
1014.222	1874.67
1014.514	1810.72
1014.807	1838.06
1015.099	1801.22
1015.391	1832.18
1015.683	1768.46
1015.976	1752.19
1016.268	1771.62
1016.56	1763.71
1016.851	1765.52
1017.143	1720.55
1017.435	1740.66
1017.727	1694.79
1018.018	1688.01
1018.31	1709.93
1018.602	1702.47
1018.893	1645.75
1019.185	1658.63
1019.476	1642.13
1019.767	1650.72
1020.058	1621.12
1020.35	1597.84
1020.641	1600.55
1020.932	1592.87
1021.223	1547.22
1021.514	1556.26
1021.804	1548.58
1022.095	1535.69
1022.386	1546.32
1022.677	1517.16
1022.967	1525.07
1023.258	1465.41
1023.548	1514
1023.839	1523.94
1024.129	1481.68
1024.419	1476.03
1024.709	1443.04
1025	1434.91
1025.29	1436.04
1025.58	1421.57
1025.87	1445.98
1026.16	1395.58
1026.449	1399.2
1026.739	1392.42
1027.029	1368.92
1027.319	1368.24
1027.608	1356.72
1027.898	1339.09
1028.187	1313.78
1028.477	1353.78
1028.766	1340.44
1029.055	1309.49
1029.344	1322.14
1029.634	1320.11
1029.923	1280.79
1030.212	1287.34
1030.501	1264.06
1030.79	1257.74
1031.078	1249.15
1031.367	1266.1
1031.656	1252.54
1031.945	1253.89
1032.233	1203.73
1032.522	1235.36
1032.81	1203.27
1033.099	1192.88
1033.387	1193.1
1033.675	1202.82
1033.963	1175.48
1034.251	1152.88
1034.54	1183.84
1034.828	1158.08
1035.116	1135.25
1035.403	1137.74
1035.691	1112.2
1035.979	1147.46
1036.267	1140
1036.554	1098.19
1036.842	1101.36
1037.129	1093.67
1037.417	1069.49
1037.704	1056.38
1037.992	1062.71
1038.279	1061.36
1038.566	1060.68
1038.853	1060.68
1039.14	1060.68
