Data from breadboard_white_FLMS001491_00094.txt Node
Date: Wed Feb 08 10:48:33 GMT 2017
User: dcchb
Spectrometer: FLMS00149
Trigger mode: 0
Integration Time (sec): 2.000000E-2
Scans to average: 10
Electric dark correction enabled: true
Nonlinearity correction enabled: false
Boxcar width: 0
XAxis mode: Wavelengths
Number of Pixels in Spectrum: 2048
>>>>>Begin Spectral Data<<<<<
341.393	-20.61
341.776	-20.61
342.16	-20.61
342.543	-45.92
342.927	-62.64
343.31	-51.79
343.693	-75.29
344.077	-52.92
344.46	-54.05
344.843	-57.22
345.226	-42.08
345.61	-46.82
345.993	-3.21
346.376	-20.61
346.759	8.32
347.142	23.69
347.525	44.93
347.908	57.58
348.291	73.63
348.674	88.99
349.057	106.85
349.44	112.72
349.823	143.68
350.206	178.48
350.588	199.27
350.971	230.69
351.354	226.39
351.737	233.17
352.119	242.44
352.502	267.52
352.884	275.43
353.267	264.58
353.65	284.02
354.032	293.51
354.414	312.72
354.797	315.43
355.179	339.16
355.562	334.86
355.944	334.64
356.326	344.13
356.709	348.88
357.091	317.24
357.473	348.65
357.855	344.36
358.238	350
358.62	361.08
359.002	340.74
359.384	333.51
359.766	356.33
360.148	317.46
360.53	366.28
360.912	354.98
361.294	325.82
361.676	358.14
362.057	347.07
362.439	326.95
362.821	352.94
363.203	347.97
363.584	345.03
363.966	333.28
364.348	359.27
364.729	342.77
365.111	339.61
365.493	338.93
365.874	318.37
366.256	333.73
366.637	330.34
367.019	332.6
367.4	330.57
367.781	354.75
368.163	327.63
368.544	339.38
368.925	332.6
369.306	348.65
369.688	323.11
370.069	331.47
370.45	338.48
370.831	312.27
371.212	341.64
371.593	320.18
371.974	340.51
372.355	322.66
372.736	345.94
373.117	339.61
373.498	337.8
373.879	354.98
374.26	354.98
374.641	325.6
375.021	325.6
375.402	334.86
375.783	349.1
376.163	384.81
376.544	366.28
376.925	344.81
377.305	342.77
377.686	361.98
378.066	368.54
378.447	352.94
378.827	374.64
379.208	355.88
379.588	388.65
379.968	378.25
380.349	358.37
380.729	387.97
381.109	390.23
381.489	378.48
381.87	360.63
382.25	379.83
382.63	390.68
383.01	380.74
383.39	396.11
383.77	402.66
384.15	383.45
384.53	407.86
384.91	399.5
385.29	391.36
385.67	386.16
386.049	396.78
386.429	409.89
386.809	396.33
387.189	419.61
387.568	424.13
387.948	425.03
388.328	434.52
388.707	423.45
389.087	449.21
389.466	433.39
389.846	436.56
390.225	453.73
390.605	463.45
390.984	487.85
391.363	477.69
391.743	458.93
392.122	467.29
392.501	481.07
392.881	500.51
393.26	502.77
393.639	492.15
394.018	488.31
394.397	500.06
394.776	497.35
395.155	511.13
395.534	507.51
395.913	501.64
396.292	524.69
396.671	533.5
397.05	544.12
397.429	555.88
397.808	567.63
398.186	552.03
398.565	585.48
398.944	571.24
399.323	571.69
399.701	590.9
400.08	614.86
400.458	599.72
400.837	622.31
401.215	614.86
401.594	601.52
401.972	639.04
402.351	645.59
402.729	663.22
403.107	655.76
403.486	682.43
403.864	652.14
404.242	691.46
404.62	679.04
404.999	718.58
405.377	703.89
405.755	733.72
406.133	743.89
406.511	738.92
406.889	743.89
407.267	771.69
407.645	797.68
408.023	811.01
408.401	824.79
408.779	822.76
409.156	865.02
409.534	833.61
409.912	881.52
410.29	900.05
410.667	907.73
411.045	930.1
411.422	932.59
411.8	962.64
412.178	967.62
412.555	1013.04
412.933	1028.63
413.31	1031.12
413.687	1048.52
414.065	1065.01
414.442	1061.85
414.819	1112.24
415.197	1112.7
415.574	1142.98
415.951	1174.84
416.328	1152.47
416.705	1175.97
417.082	1144.33
417.46	1212.58
417.837	1233.37
418.214	1219.13
418.591	1244.67
418.967	1270.66
419.344	1293.93
419.721	1288.74
420.098	1293.48
420.475	1316.76
420.852	1373.71
421.228	1377.77
421.605	1380.71
421.982	1398.34
422.358	1435.85
422.735	1428.85
423.111	1431.56
423.488	1476.08
423.864	1479.24
424.241	1497.32
424.617	1539.13
424.994	1516.53
425.37	1513.14
425.746	1541.84
426.123	1553.59
426.499	1589.07
426.875	1650.76
427.251	1659.12
427.627	1680.37
428.003	1700.25
428.379	1699.35
428.756	1743.19
429.132	1790.87
429.507	1792.45
429.883	1823.19
430.259	1826.8
430.635	1839.46
431.011	1876.52
431.387	1928.49
431.763	1959.45
432.138	1953.8
432.514	2032.9
432.89	2048.72
433.265	2067.25
433.641	2110.86
434.016	2107.7
434.392	2148.38
434.767	2190.86
435.143	2195.83
435.518	2214.14
435.894	2255.49
436.269	2251.65
436.644	2316.05
437.02	2337.3
437.395	2347.47
437.77	2370.29
438.145	2403.28
438.52	2452.32
438.895	2457.97
439.271	2504.52
439.646	2532.09
440.021	2565.77
440.395	2567.35
440.77	2586.33
441.145	2599.66
441.52	2617.97
441.895	2633.56
442.27	2670.17
442.645	2685.54
443.019	2697.06
443.394	2713.33
443.769	2733.45
444.143	2754.91
444.518	2795.82
444.892	2803.95
445.267	2800.11
445.641	2882.82
446.016	2878.75
446.39	2879.66
446.764	2955.13
447.139	2898.19
447.513	2959.2
447.887	2963.04
448.262	2981.12
448.636	3029.26
449.01	3060.44
449.384	3088.01
449.758	3102.47
450.132	3147.45
450.506	3150.38
450.88	3196.71
451.254	3175.92
451.628	3215.24
452.002	3301.34
452.376	3308.12
452.75	3317.38
453.123	3369.13
453.497	3405.74
453.871	3457.95
454.244	3546.98
454.618	3554.89
454.992	3624.95
455.365	3616.36
455.739	3726.19
456.112	3758.5
456.486	3757.6
456.859	3818.39
457.232	3886.86
457.606	3858.84
457.979	3947.65
458.352	4010.25
458.725	4096.8
459.099	4067.65
459.472	4166.4
459.845	4210.92
460.218	4249.34
460.591	4304.93
460.964	4325.04
461.337	4407.75
461.71	4463.8
462.083	4532.04
462.456	4571.59
462.829	4597.12
463.201	4673.73
463.574	4730.68
463.947	4785.14
464.32	4878.47
464.692	4925.03
465.065	4922.54
465.438	5017
465.81	5142.2
466.183	5188.75
466.555	5247.05
466.928	5293.38
467.3	5308.74
467.672	5396.43
468.045	5555.52
468.417	5553.48
468.789	5592.58
469.161	5654.95
469.534	5791.9
469.906	5899.01
470.278	5923.19
470.65	6007.94
471.022	6107.14
471.394	6232.11
471.766	6301.94
472.138	6334.03
472.51	6538.77
472.882	6549.62
473.253	6692.44
473.625	6767.24
473.997	6911.87
474.369	6980.79
474.74	7050.85
475.112	7211.97
475.484	7310.5
475.855	7454.68
476.227	7533.09
476.598	7762.92
476.97	7769.92
477.341	7992.74
477.713	8124.49
478.084	8192.96
478.455	8343.69
478.827	8455.1
479.198	8731.48
479.569	8645.61
479.94	8930.34
480.311	9013.28
480.682	9228.64
481.053	9412.37
481.424	9575.53
481.795	9679.7
482.166	9825.24
482.537	10020.71
482.908	10192.68
483.279	10292.34
483.65	10549.74
484.021	10735.04
484.391	10797.41
484.762	10976.17
485.133	11015.71
485.503	11252.32
485.874	11436.27
486.244	11513.1
486.615	11801.68
486.985	11938.63
487.356	12143.37
487.726	12309.46
488.097	12551.94
488.467	12522.11
488.837	12826.51
489.207	13033.29
489.578	13123.91
489.948	13233.73
490.318	13401.19
490.688	13509.88
491.058	13814.51
491.428	13974.73
491.798	14058.8
492.168	14385.79
492.538	14469.18
492.908	14546.92
493.278	14890.64
493.648	14870.08
494.017	15120.69
494.387	15153.01
494.757	15322.94
495.126	15499.66
495.496	15534.92
495.866	15641.58
496.235	15828.47
496.605	16002.47
496.974	16110.04
497.344	16295.8
497.713	16386.42
498.082	16474.78
498.452	16666.41
498.821	16867.08
499.19	16771.72
499.559	17071.83
499.928	17155.66
500.298	17248.09
500.667	17385.94
501.036	17520.17
501.405	17615.99
501.774	17747.06
502.143	17855.76
502.512	18041.07
502.88	18095.08
503.249	18219.59
503.618	18298.91
503.987	18413.26
504.356	18655.29
504.724	18743.42
505.093	18785.9
505.462	18943.87
505.83	19032.23
506.199	19206.01
506.567	19430.18
506.936	19458.88
507.304	19722.6
507.672	19779.1
508.041	19874.24
508.409	20021.35
508.777	20246.43
509.145	20332.98
509.514	20354
509.882	20694.78
510.25	20665.63
510.618	20921.89
510.986	20922.12
511.354	21102
511.722	21264.48
512.09	21539.05
512.458	21492.95
512.826	21695.21
513.193	21878.7
513.561	21875.09
513.929	22220.16
514.297	22365.92
514.664	22531.57
515.032	22693.82
515.4	22826.25
515.767	22978.11
516.135	23143.53
516.502	23042.74
516.869	23496.51
517.237	23555.27
517.604	23572.45
517.972	23844.08
518.339	24077.74
518.706	24184.18
519.073	24269.38
519.44	24451.29
519.808	24743.49
520.175	24700.55
520.542	25136.7
520.909	25230.71
521.276	25243.14
521.643	25508.89
522.009	25729.9
522.376	25915.89
522.743	26152.04
523.11	26370.11
523.477	26647.39
523.843	26742.08
524.21	27166.02
524.577	27372.12
524.943	27322.4
525.31	27531.21
525.676	27840.81
526.043	27980.01
526.409	28177.97
526.776	28551.98
527.142	28605.99
527.508	28731.41
527.874	28867
528.241	29100.44
528.607	29343.37
528.973	29566.86
529.339	29608.67
529.705	29876.23
530.071	30212.04
530.437	30283.46
530.803	30481.19
531.169	30618.36
531.535	30647.29
531.901	30891.35
532.267	30968.41
532.632	31152.13
532.998	31250.89
533.364	31401.84
533.73	31695.62
534.095	31833.92
534.461	32074.37
534.826	32119.34
535.192	32198.66
535.557	32385.09
535.923	32539.44
536.288	32636.61
536.653	32818.3
537.019	32762.94
537.384	32933.33
537.749	33196.15
538.114	33275.92
538.479	33366.54
538.845	33485.63
539.21	33513.88
539.575	33724.04
539.94	33797.94
540.305	33995
540.67	33970.36
541.034	34170.81
541.399	34215.78
541.764	34420.3
542.129	34547.98
542.494	34624.81
542.858	34768.76
543.223	34787.07
543.587	35077
543.952	34988.87
544.316	35118.36
544.681	35187.28
545.045	35316.54
545.41	35561.51
545.774	35740.26
546.138	35856.42
546.503	35978.22
546.867	35925.79
547.231	36264.77
547.595	36306.57
547.959	36340.47
548.324	36506.12
548.688	36511.31
549.052	36692.1
549.416	36658.88
549.779	36730.29
550.143	37019.1
550.507	37096.16
550.871	37293.67
551.235	37368.69
551.599	37653.66
551.962	37711.28
552.326	37894.33
552.689	38024.95
553.053	37943.14
553.417	38008.45
553.78	38492.05
554.143	38440.98
554.507	38665.38
554.87	38717.58
555.234	39066.5
555.597	38733.85
555.96	39069.21
556.323	39410.22
556.686	39327.96
557.05	39668.29
557.413	39707.61
557.776	39793.26
558.139	40065.8
558.502	40101.5
558.865	40285.9
559.228	40599.12
559.59	40711.2
559.953	40725.44
560.316	41116.39
560.679	41243.62
561.041	41527.23
561.404	41577.17
561.767	41755.7
562.129	41692.42
562.492	42208.11
562.854	42038.4
563.217	42026.2
563.579	42276.36
563.941	42639.51
564.304	42902.33
564.666	43159.95
565.028	43081.76
565.39	43139.84
565.753	43487.18
566.115	43624.12
566.477	43800.39
566.839	44010.78
567.201	44165.8
567.563	44084.9
567.925	44429.98
568.287	44476.53
568.648	44524.21
569.01	44758.78
569.372	44983.63
569.734	44914.26
570.095	45126.45
570.457	45426.79
570.819	45535.03
571.18	45655.71
571.542	45784.29
571.903	45782.48
572.265	45999.2
572.626	46123.26
572.987	46192.19
573.349	46339.08
573.71	46481.22
574.071	46433.31
574.432	46584.04
574.794	46912.17
575.155	46730.03
575.516	46848.9
575.877	47002.56
576.238	47050.92
576.599	47270.81
576.96	47218.6
577.32	47261.77
577.681	47264.93
578.042	47419.73
578.403	47536.79
578.763	47509.67
579.124	47451.14
579.485	47571.36
579.845	47658.37
580.206	47701.98
580.566	47753.5
580.927	47586.05
581.287	47941.07
581.648	47779.72
582.008	47941.3
582.368	47867.85
582.728	47920.51
583.089	47979.71
583.449	47903.56
583.809	48064.46
584.169	48023.78
584.529	47849.09
584.889	48154.4
585.249	47986.49
585.609	48017
585.969	48100.61
586.329	48087.28
586.688	48161.86
587.048	48079.15
587.408	47987.4
587.768	48052.71
588.127	48043.21
588.487	47965.48
588.846	48330.66
589.206	48058.13
589.565	48037.34
589.925	48304
590.284	48123.66
590.643	48145.13
591.003	48334.73
591.362	48326.14
591.721	48209.76
592.08	48336.31
592.44	48372.02
592.799	48445.92
593.158	48220.16
593.517	48312.36
593.876	48400.27
594.235	48329.31
594.593	48362.53
594.952	48373.37
595.311	48298.57
595.67	48460.15
596.029	48586.7
596.387	48504.44
596.746	48611.79
597.104	48517.78
597.463	48636.64
597.822	48672.8
598.18	48591.9
598.538	48520.26
598.897	48726.59
599.255	48417.89
599.613	48891.55
599.972	48680.71
600.33	48765.23
600.688	48686.59
601.046	48758.68
601.404	48957.54
601.762	48853.14
602.12	49074.37
602.478	49069.63
602.836	49032.34
603.194	48886.13
603.552	48891.55
603.91	48864.44
604.268	49110.98
604.625	48905.79
604.983	49154.37
605.341	48865.57
605.698	49294.71
606.056	49272.11
606.413	49233.92
606.771	49360.69
607.128	49379.68
607.485	49235.27
607.843	49298.55
608.2	49345.1
608.557	49533.12
608.914	49397.98
609.272	49683.62
609.629	49633.91
609.986	49653.79
610.343	49664.87
610.7	49872.09
611.057	49821.02
611.414	49675.71
611.771	49743.28
612.127	49848.14
612.484	49815.6
612.841	49967.46
613.198	49897.18
613.554	49976.04
613.911	50130.62
614.267	50148.02
614.624	50065.76
614.98	50081.13
615.337	50315.7
615.693	50216.94
616.05	50131.97
616.406	50312.08
616.762	50275.47
617.118	50238.86
617.475	50357.28
617.831	50451.29
618.187	50431.63
618.543	50507.78
618.899	50685.86
619.255	50540.78
619.611	50567.44
619.967	50694.44
620.323	50703.71
620.678	50465.3
621.034	50486.31
621.39	50539.42
621.746	50477.95
622.101	50873.87
622.457	50524.28
622.812	50607.44
623.168	50731.51
623.523	50652.19
623.879	50826.64
624.234	50606.31
624.589	50566.76
624.945	50631.39
625.3	50722.47
625.655	50742.8
626.01	50694.67
626.365	50746.87
626.72	50557.05
627.075	50708.23
627.43	50599.53
627.785	50519.99
628.14	50660.77
628.495	50621.23
628.85	50551.85
629.205	50479.08
629.559	50693.09
629.914	50594.33
630.269	50580.32
630.623	50250.39
630.978	50363.15
631.332	50483.38
631.687	50571.51
632.041	50364.96
632.396	50437.73
632.75	50327.9
633.104	50363.61
633.459	50088.58
633.813	50174.68
634.167	50060.34
634.521	50100.56
634.875	50137.62
635.229	50147.11
635.583	49887.69
635.937	49918.42
636.291	49843.39
636.645	49941.7
636.999	49802.72
637.352	49986.67
637.706	49606.56
638.06	49864.64
638.413	49731.08
638.767	49570.63
639.121	49548.94
639.474	49368.15
639.828	49438.88
640.181	49408.15
640.534	49407.7
640.888	49257.65
641.241	49210.42
641.594	49234.6
641.947	49335.84
642.301	49072.11
642.654	49253.58
643.007	49089.51
643.36	49058.78
643.713	48999.57
644.066	49249.06
644.419	48969.52
644.771	48769.97
645.124	48548.06
645.477	48409.53
645.83	48147.17
646.182	47798.93
646.535	47674.64
646.888	47625.82
647.24	47474.19
647.593	47682.77
647.945	47550.8
648.298	47440.07
648.65	47277.58
649.002	47243.91
649.355	47467.86
649.707	47242.33
650.059	47509.89
650.411	48003.44
650.763	48010.22
651.115	48343.09
651.467	48243.89
651.819	48210.89
652.171	48169.09
652.523	47902.65
652.875	47981.29
653.227	47930.67
653.578	48153.04
653.93	47978.36
654.282	47785.59
654.633	47838.25
654.985	47705.37
655.337	47770.23
655.688	47754.86
656.039	47902.43
656.391	47613.17
656.742	47505.38
657.094	47759.61
657.445	47728.19
657.796	47572.04
658.147	47470.12
658.498	47535.2
658.849	47503.79
659.2	47411.37
659.551	47428.09
659.902	47493.62
660.253	47473.74
660.604	47526.17
660.955	47181.09
661.306	47355.32
661.656	47309
662.007	47367.53
662.358	47441.42
662.708	47363.46
663.059	47183.58
663.409	46896.35
663.76	47297.92
664.11	47278.26
664.461	47210.24
664.811	47342.22
665.161	47186.97
665.511	47099.74
665.862	47092.5
666.212	47135.67
666.562	47207.08
666.912	47111.71
667.262	47122.56
667.612	47106.06
667.962	47191.71
668.312	47090.92
668.662	47059.06
669.011	47011.83
669.361	47087.53
669.711	46887.31
670.06	46889.12
670.41	46863.36
670.76	46824.72
671.109	46954.43
671.459	46839.63
671.808	46801.44
672.157	46852.51
672.507	46574.78
672.856	46611.84
673.205	46678.96
673.554	46806.41
673.904	46431.73
674.253	46802.79
674.602	46621.56
674.951	46100.21
675.3	45714.46
675.649	46363.71
675.998	46289.59
676.346	46383.6
676.695	46515.12
677.044	46223.83
677.393	46312.19
677.741	46362.13
678.09	46059.99
678.438	46215.24
678.787	46093.21
679.135	46120.33
679.484	45918.3
679.832	46022.25
680.181	45699.77
680.529	45938.64
680.877	45625.65
681.225	45728.02
681.573	45956.26
681.922	45689.83
682.27	45462.04
682.618	45598.31
682.966	45402.83
683.314	45596.5
683.661	45444.86
684.009	45148.15
684.357	45036.29
684.705	45037.42
685.053	45187.7
685.4	45031.99
685.748	44815.5
686.095	44796.97
686.443	44665.68
686.79	44542.06
687.138	44550.42
687.485	44633.59
687.832	44572.8
688.18	44522.4
688.527	44367.15
688.874	44373.48
689.221	44177.1
689.568	43942.53
689.915	44052.58
690.262	43899.14
690.609	43768.98
690.956	43727.62
691.303	43654.85
691.65	43427.52
691.997	43301.42
692.344	43119.28
692.69	43140.07
693.037	43257.58
693.383	43013.29
693.73	42961.54
694.077	42552.06
694.423	42765.16
694.769	42627.09
695.116	42479.07
695.462	42461.44
695.808	42298.28
696.155	42493.3
696.501	42013.54
696.847	42073.65
697.193	41795.02
697.539	42011.73
697.885	41502.82
698.231	41415.59
698.577	41552.54
698.923	41484.06
699.269	41216.95
699.614	41192.77
699.96	40931.54
700.306	41048.14
700.651	40867.81
700.997	40744.65
701.342	40691.54
701.688	40658.55
702.033	40456.07
702.379	40422.62
702.724	40346.02
703.069	40303.3
703.415	39903.09
703.76	40016.08
704.105	39969.3
704.45	39884.33
704.795	39616.32
705.14	39474.4
705.485	39478.92
705.83	39255.87
706.175	39329.32
706.52	39185.82
706.865	39061.08
707.209	39043.68
707.554	38974.3
707.899	39017.69
708.243	38758.94
708.588	38737.02
708.932	38463.81
709.277	38415.9
709.621	38335.22
709.966	38211.16
710.31	38204.6
710.654	37976.59
710.998	38094.78
711.342	37986.08
711.687	37860.88
712.031	37679.87
712.375	37589.93
712.719	37559.42
713.063	37531.85
713.407	37446.2
713.75	37243.05
714.094	37247.79
714.438	37147.23
714.782	37111.52
715.125	37000.34
715.469	37159.43
715.812	36825.88
716.156	36784.75
716.499	36695.94
716.843	36766.67
717.186	36476.96
717.53	36592.67
717.873	36618.66
718.216	36624.08
718.559	36436.06
718.902	36294.6
719.246	36175.05
719.589	36059.8
719.932	35917.66
720.275	35933.25
720.617	35931.67
720.96	35931.89
721.303	35942.74
721.646	35805.57
721.989	35589.08
722.331	35835.63
722.674	35560.6
723.016	35505.69
723.359	35485.35
723.701	35441.51
724.044	35235.19
724.386	35017.12
724.729	35241.74
725.071	35141.63
725.413	34955.87
725.755	35076.1
726.097	34883.11
726.439	34725.15
726.782	34767.41
727.124	34917.91
727.465	34693.06
727.807	34571.93
728.149	34514.3
728.491	34420.75
728.833	34481.08
729.175	34313.41
729.516	34285.16
729.858	34279.96
730.199	34235.67
730.541	34236.35
730.882	34036.8
731.224	34171.71
731.565	33838.62
731.906	33898.95
732.248	33923.36
732.589	33799.52
732.93	33683.59
733.271	33595.91
733.612	33783.25
733.953	33642.46
734.294	33540.09
734.635	33443.37
734.976	33483.6
735.317	33376.71
735.658	33400.89
735.999	33215.36
736.339	33298.29
736.68	33246.54
737.021	33123.83
737.361	33050.16
737.702	33047
738.042	33037.96
738.383	33085.87
738.723	32947.34
739.063	32737.85
739.404	32823.28
739.744	32720.45
740.084	32661.7
740.424	32619.21
740.764	32566.78
741.104	32650.17
741.444	32463.06
741.784	32326.34
742.124	32419.22
742.464	32286.57
742.804	32235.49
743.143	32139.9
743.483	32164.99
743.823	31921.38
744.162	32101.71
744.502	32070.98
744.841	31847.93
745.181	31871.66
745.52	31921.15
745.86	31807.71
746.199	31759.12
746.538	31648.62
746.877	31716.41
747.216	31597.54
747.556	31505.12
747.895	31550.77
748.234	31375.63
748.573	31358.68
748.911	31163.43
749.25	31324.56
749.589	31061.51
749.928	31213.6
750.267	31175.41
750.605	30937.22
750.944	30993.27
751.283	30840.05
751.621	30868.75
751.96	30690
752.298	30687.51
752.636	30669.66
752.975	30479.16
753.313	30397.12
753.651	30458.59
753.989	30313.06
754.327	30261.99
754.666	29998.72
755.004	30099.96
755.342	29918.72
755.679	30045.04
756.017	29840.75
756.355	29811.83
756.693	29778.38
757.031	29677.82
757.368	29564.15
757.706	29498.62
758.044	29414.55
758.381	29568.9
758.719	29347.21
759.056	29252.97
759.394	29152.86
759.731	29083.94
760.068	28985.86
760.405	28919.88
760.743	28863.38
761.08	28968.01
761.417	28692.54
761.754	28652.54
762.091	28554.24
762.428	28412.77
762.765	28313.79
763.102	28316.95
763.438	28185.88
763.775	28038.54
764.112	28078.09
764.449	28093.23
764.785	27847.59
765.122	27667.7
765.458	27596.97
765.795	27511.1
766.131	27635.16
766.467	27431.55
766.804	27339.8
767.14	27145.91
767.476	27208.06
767.812	27105.69
768.148	27021.85
768.485	26952.92
768.821	26760.16
769.157	26616.21
769.492	26672.7
769.828	26559.49
770.164	26381.18
770.5	26318.14
770.836	26368.3
771.171	26072.27
771.507	26034.98
771.842	25859.84
772.178	25840.18
772.513	25784.82
772.849	25697.14
773.184	25573.07
773.519	25569.23
773.855	25391.15
774.19	25252.85
774.525	25160.88
774.86	25126.53
775.195	25133.08
775.53	24959.75
775.865	24885.18
776.2	24611.74
776.535	24369.03
776.87	24438.86
777.205	24359.32
777.539	24293.78
777.874	24425.98
778.209	24175.37
778.543	24093.79
778.878	24097.4
779.212	23912.78
779.547	23832.55
779.881	23801.82
780.215	23579.22
780.55	23804.76
780.884	23523.63
781.218	23403.41
781.552	23535.61
781.886	23314.6
782.22	23245.9
782.554	23245.22
782.888	22904.89
783.222	22771.11
783.556	22833.26
783.889	22670.32
784.223	22560.72
784.557	22463.1
784.89	22504.22
785.224	22371.35
785.557	22294.29
785.891	22166.61
786.224	22095.87
786.558	22135.65
786.891	21898.36
787.224	21961.64
787.557	21767.29
787.891	21782.44
788.224	21680.29
788.557	21598.26
788.89	21650.91
789.223	21594.87
789.556	21477.81
789.888	21288.44
790.221	21281.21
790.554	21080.08
790.887	21168.21
791.219	20919.41
791.552	21013.64
791.884	20859.3
792.217	20821.56
792.549	20649.13
792.882	20594.22
793.214	20433.09
793.546	20553.54
793.879	20274.45
794.211	20326.2
794.543	20334.11
794.875	20223.83
795.207	20275.13
795.539	20111.97
795.871	20110.84
796.203	19865.42
796.535	19867.68
796.867	19780.23
797.198	19722.6
797.53	19761.02
797.862	19599.67
798.193	19683.73
798.525	19424.53
798.856	19463.17
799.188	19256.4
799.519	19248.27
799.85	19129.85
800.182	19091.43
800.513	19123.97
800.844	18914.71
801.175	18952.23
801.506	18824.32
801.837	18827.03
802.168	18804.66
802.499	18705.23
802.83	18667.94
803.161	18585.01
803.491	18513.82
803.822	18662.97
804.153	18346.14
804.483	18387.04
804.814	18319.7
805.145	18265.24
805.475	18307.5
805.805	18163.55
806.136	18148.86
806.466	18125.58
806.796	18053.04
807.126	17952.48
807.457	17934.18
807.787	17931.46
808.117	17811.24
808.447	17679.27
808.777	17740.73
809.107	17644.47
809.436	17632.49
809.766	17523.11
810.096	17471.36
810.426	17423.45
810.755	17529.89
811.085	17472.27
811.414	17288.09
811.744	17288.54
812.073	17361.76
812.403	17217.81
812.732	17144.14
813.061	17159.28
813.39	16971.71
813.719	16979.85
814.049	17105.5
814.378	17016.46
814.707	16928.78
815.036	16848.55
815.365	16821.66
815.693	16627.09
816.022	16727.88
816.351	16585.06
816.68	16494.44
817.008	16550.93
817.337	16438.62
817.665	16354.78
817.994	16478.39
818.322	16430.03
818.651	16239.98
818.979	16166.09
819.307	16346.19
819.636	16258.97
819.964	16091.74
820.292	16214.9
820.62	16135.13
820.948	16112.53
821.276	16137.61
821.604	16138.52
821.932	16077.95
822.259	16214.22
822.587	15988.46
822.915	16073.66
823.243	16064.85
823.57	16037.95
823.898	15972.42
824.225	16013.1
824.553	15907.11
824.88	15911.18
825.207	16063.72
825.535	15974
825.862	16022.36
826.189	15932.42
826.516	16059.65
826.843	16047.22
827.17	15970.61
827.497	15956.6
827.824	15985.75
828.151	16083.38
828.478	16036.82
828.805	16103.94
829.131	15995.92
829.458	15885.19
829.785	15828.92
830.111	15916.83
830.438	15991.4
830.764	15929.03
831.09	15928.8
831.417	15835.02
831.743	15862.14
832.069	15993.66
832.395	15774.23
832.722	15818.52
833.048	15792.76
833.374	15804.74
833.7	15682.26
834.026	15837.51
834.351	15746.89
834.677	15707.34
835.003	15684.74
835.329	15707.57
835.654	15745.98
835.98	15587.8
836.306	15716.61
836.631	15653.33
836.956	15550.28
837.282	15561.81
837.607	15571.75
837.932	15539.89
838.258	15505.99
838.583	15530.62
838.908	15404.07
839.233	15319.33
839.558	15312.1
839.883	15339.67
840.208	15303.06
840.533	15269.16
840.858	15269.61
841.182	15215.15
841.507	15288.82
841.832	15124.08
842.156	15057.41
842.481	15039.79
842.805	14992.11
843.13	15000.69
843.454	14962.5
843.778	14920.47
844.103	14860.81
844.427	14788.27
844.751	14833.47
845.075	14733.81
845.399	14684.32
845.723	14624.43
846.047	14711.44
846.371	14572.46
846.695	14507.6
847.019	14454.27
847.343	14440.93
847.666	14314.84
847.99	14324.33
848.313	14241.39
848.637	14077.78
848.96	14225.35
849.284	13979.03
849.607	13914.85
849.931	13933.83
850.254	13816.54
850.577	13761.63
850.9	13694.06
851.223	13699.94
851.546	13657.45
851.869	13546.72
852.192	13559.15
852.515	13428.53
852.838	13365.48
853.161	13444.12
853.483	13347.4
853.806	13316.22
854.129	13239.61
854.451	13205.71
854.774	13214.98
855.096	13166.17
855.419	13046.85
855.741	12991.71
856.063	12991.48
856.385	12937.47
856.708	12975.89
857.03	12783.58
857.352	12879.62
857.674	12753.29
857.996	12623.81
858.318	12689.57
858.64	12600.3
858.961	12569.8
859.283	12584.94
859.605	12499.52
859.926	12478.95
860.248	12479.63
860.57	12432.17
860.891	12430.14
861.212	12359.41
861.534	12436.24
861.855	12354.21
862.176	12345.4
862.498	12366.19
862.819	12260.2
863.14	12234.66
863.461	12215.46
863.782	12198.28
864.103	12149.02
864.424	12108.79
864.745	12057.95
865.065	11995.57
865.386	11935.91
865.707	12050.71
866.027	12078.28
866.348	12044.39
866.668	11893.2
866.989	11914.45
867.309	11780.66
867.63	11841.23
867.95	11870.15
868.27	11786.09
868.59	11810.95
868.91	11726.88
869.23	11812.3
869.55	11651.4
869.87	11732.3
870.19	11692.98
870.51	11693.66
870.83	11757.16
871.15	11544.96
871.469	11683.04
871.789	11604.17
872.109	11551.29
872.428	11489.37
872.748	11648.69
873.067	11535.7
873.386	11533.89
873.706	11559.88
874.025	11400.34
874.344	11461.35
874.663	11377.06
874.982	11380.68
875.301	11297.51
875.62	11388.81
875.939	11261.81
876.258	11286.21
876.577	11226.1
876.896	11242.37
877.214	11247.35
877.533	11217.74
877.852	11198.99
878.17	11224.52
878.489	11131.87
878.807	11253
879.125	11123.51
879.444	11167.12
879.762	11141.81
880.08	11080.8
880.398	11078.99
880.716	11080.34
881.034	11036.05
881.352	10970.06
881.67	10936.17
881.988	10980.46
882.306	10930.29
882.624	10918.77
882.941	10864.08
883.259	10781.37
883.577	10831.54
883.894	10827.92
884.212	10827.92
884.529	10736.4
884.846	10800.8
885.164	10686.68
885.481	10705.44
885.798	10711.54
886.115	10619.79
886.432	10699.56
886.75	10586.57
887.067	10634.25
887.383	10518.78
887.7	10547.25
888.017	10528.72
888.334	10501.6
888.651	10419.34
888.967	10403.53
889.284	10390.87
889.6	10343.64
889.917	10280.82
890.233	10325.56
890.55	10239.46
890.866	10224.1
891.182	10134.15
891.498	10201.27
891.815	10093.03
892.131	10076.08
892.447	10091.9
892.763	10034.95
893.079	9987.27
893.395	9999.92
893.71	9963.99
894.026	9897.32
894.342	9893.71
894.657	9780.72
894.973	9827.95
895.289	9913.14
895.604	9718.8
895.92	9715.18
896.235	9698.01
896.55	9701.4
896.865	9647.16
897.181	9614.62
897.496	9557.22
897.811	9508.86
898.126	9508.41
898.441	9495.3
898.756	9458.01
899.071	9388.64
899.386	9404.68
899.7	9307.28
900.015	9343.44
900.33	9226.83
900.644	9227.06
900.959	9253.73
901.273	9235.65
901.588	9130.57
901.902	9102.09
902.216	9134.41
902.531	9055.31
902.845	9053.28
903.159	8968.99
903.473	8902.32
903.787	8892.83
904.101	8886.5
904.415	8871.36
904.729	8787.75
905.042	8796.79
905.356	8690.58
905.67	8734.19
905.984	8663.91
906.297	8628.88
906.611	8599.51
906.924	8594.31
907.237	8566.51
907.551	8476.12
907.864	8505.95
908.177	8451.71
908.491	8410.58
908.804	8360.42
909.117	8388.21
909.43	8321.55
909.743	8225.5
910.056	8220.53
910.368	8215.79
910.681	8159.97
910.994	8066.19
911.307	8110.48
911.619	8009.24
911.932	8055.34
912.244	7975.57
912.557	7948.22
912.869	7952.52
913.181	7916.59
913.494	7888.34
913.806	7822.8
914.118	7839.07
914.43	7739.64
914.742	7756.59
915.054	7694.9
915.366	7715.23
915.678	7654.67
915.99	7569.48
916.302	7506.88
916.613	7504.85
916.925	7526.31
917.236	7441.8
917.548	7446.32
917.859	7463.72
918.171	7334.23
918.482	7286.55
918.794	7339.65
919.105	7323.15
919.416	7244.29
919.727	7221.46
920.038	7238.64
920.349	7137.4
920.66	7138.53
920.971	7144.18
921.282	7120.45
921.593	7057.85
921.903	6978.08
922.214	7000.23
922.525	6924.52
922.835	6875.26
923.146	6909.83
923.456	6853.56
923.767	6827.35
924.077	6818.99
924.387	6808.82
924.697	6801.59
925.008	6679.78
925.318	6684.08
925.628	6659.22
925.938	6647.47
926.248	6637.52
926.558	6620.8
926.867	6555.04
927.177	6502.39
927.487	6459.45
927.796	6427.13
928.106	6466.68
928.416	6424.2
928.725	6445.44
929.034	6335.84
929.344	6339
929.653	6291.77
929.962	6290.64
930.271	6206.57
930.581	6219.68
930.89	6178.55
931.199	6154.6
931.508	6173.13
931.817	6116.18
932.125	6139.68
932.434	6094.03
932.743	6022.4
933.051	6007.26
933.36	6045.67
933.669	6026.92
933.977	5965.22
934.286	5948.5
934.594	5906.02
934.902	5878
935.21	5856.75
935.519	5800.94
935.827	5781.5
936.135	5728.17
936.443	5752.35
936.751	5679.58
937.059	5685.01
937.367	5659.47
937.674	5661.05
937.982	5624.44
938.29	5589.19
938.597	5545.35
938.905	5546.25
939.213	5533.6
939.52	5506.71
939.827	5518.68
940.135	5463.54
940.442	5401.62
940.749	5415.63
941.056	5384
941.363	5333.15
941.67	5319.37
941.977	5321.63
942.284	5274.85
942.591	5282.53
942.898	5216.54
943.205	5235.98
943.511	5210.22
943.818	5160.95
944.125	5158.69
944.431	5145.81
944.738	5143.55
945.044	5096.32
945.35	5026.04
945.657	5026.04
945.963	5026.94
946.269	4987.85
946.575	4980.39
946.881	4956.89
947.187	4934.52
947.493	4893.61
947.799	4883.67
948.105	4895.65
948.41	4903.11
948.716	4853.84
949.022	4834.41
949.327	4776.78
949.633	4723.45
949.938	4805.48
950.244	4744.92
950.549	4662.66
950.854	4654.98
951.16	4675.54
951.465	4653.39
951.77	4627.86
952.075	4580.4
952.38	4560.52
952.685	4619.95
952.99	4578.37
953.294	4534.3
953.599	4525.26
953.904	4441.65
954.209	4451.14
954.513	4464.7
954.818	4419.05
955.122	4396.9
955.426	4407.75
955.731	4402.1
956.035	4356.45
956.339	4332.5
956.643	4354.42
956.948	4279.17
957.252	4306.29
957.556	4299.28
957.86	4235.33
958.163	4228.1
958.467	4202.11
958.771	4173.86
959.075	4172.5
959.378	4163.92
959.682	4136.8
959.985	4116.69
960.289	4078.49
960.592	4062.68
960.896	4046.63
961.199	4041.21
961.502	4021.32
961.805	3949.91
962.108	3943.13
962.411	3991.27
962.714	3887.31
963.017	3924.37
963.32	3919.4
963.623	3918.27
963.926	3900.19
964.228	3866.3
964.531	3821.55
964.833	3822
965.136	3854.09
965.438	3793.53
965.741	3779.52
966.043	3745.85
966.345	3713.98
966.648	3739.97
966.95	3751.95
967.252	3667.88
967.554	3623.59
967.856	3707.88
968.158	3640.54
968.46	3638.05
968.761	3627.21
969.063	3607.09
969.365	3590.82
969.666	3584.04
969.968	3506.08
970.269	3537.49
970.571	3537.49
970.872	3524.38
971.174	3458.17
971.475	3481.67
971.776	3492.52
972.077	3474.89
972.378	3405.74
972.679	3407.78
972.98	3389.02
973.281	3399.64
973.582	3401.45
973.883	3346.54
974.183	3384.28
974.484	3338.17
974.785	3283.49
975.085	3314.45
975.386	3299.31
975.686	3269.25
975.986	3293.43
976.287	3240.55
976.587	3207.56
976.887	3202.36
977.187	3189.7
977.487	3161.46
977.787	3176.37
978.087	3156.48
978.387	3151.97
978.687	3179.76
978.987	3123.27
979.286	3062.93
979.586	3082.14
979.885	3054.79
980.185	3060.44
980.484	3042.36
980.784	3051.4
981.083	3033.78
981.382	2990.61
981.682	2991.52
981.981	3019.31
982.28	3000.56
982.579	2936.83
982.878	2932.08
983.177	2917.4
983.475	2930.95
983.774	2860.45
984.073	2880.11
984.372	2868.13
984.67	2853.22
984.969	2832.65
985.267	2853.22
985.566	2801.24
985.864	2773.44
986.162	2796.04
986.461	2770.96
986.759	2781.35
987.057	2698.42
987.355	2738.87
987.653	2731.41
987.951	2735.7
988.249	2699.1
988.547	2698.87
988.844	2652.77
989.142	2663.62
989.44	2649.61
989.737	2635.14
990.035	2635.14
990.332	2643.96
990.63	2577.52
990.927	2628.36
991.224	2589.49
991.521	2560.12
991.819	2545.2
992.116	2548.37
992.413	2506.33
992.71	2514.69
993.006	2519.89
993.303	2496.62
993.6	2466.11
993.897	2462.94
994.193	2473.56
994.49	2425.2
994.787	2420.91
995.083	2420.46
995.379	2416.17
995.676	2408.48
995.972	2390.18
996.268	2357.18
996.565	2360.35
996.861	2348.82
997.157	2371.87
997.453	2353.12
997.749	2322.61
998.044	2302.72
998.34	2317.86
998.636	2319.22
998.932	2263.17
999.227	2257.53
999.523	2254.14
999.818	2256.17
1000.114	2217.3
1000.409	2219.79
1000.704	2180.01
1001	2183.86
1001.295	2177.3
1001.59	2162.61
1001.885	2183.18
1002.18	2159.9
1002.475	2130.75
1002.77	2158.09
1003.065	2121.03
1003.359	2098.43
1003.654	2126.46
1003.949	2080.58
1004.243	2068.38
1004.538	2058.43
1004.832	2024.09
1005.127	2033.35
1005.421	2023.41
1005.715	1992.22
1006.009	1992.45
1006.304	1984.54
1006.598	1974.82
1006.892	1943.18
1007.186	1954.26
1007.48	1970.75
1007.773	1928.72
1008.067	1904.99
1008.361	1905.9
1008.655	1897.76
1008.948	1871.09
1009.242	1872
1009.535	1836.52
1009.829	1859.34
1010.122	1801.27
1010.415	1809.18
1010.708	1831.77
1011.001	1837.65
1011.295	1803.07
1011.588	1796.07
1011.881	1792
1012.173	1767.14
1012.466	1756.75
1012.759	1783.19
1013.052	1764.43
1013.344	1736.18
1013.637	1733.02
1013.93	1736.18
1014.222	1700.93
1014.514	1689.63
1014.807	1688.05
1015.099	1677.2
1015.391	1642.63
1015.683	1667.48
1015.976	1614.38
1016.268	1629.07
1016.56	1650.08
1016.851	1585.45
1017.143	1596.53
1017.435	1579.58
1017.727	1588.16
1018.018	1562.18
1018.31	1576.64
1018.602	1564.66
1018.893	1546.81
1019.185	1536.19
1019.476	1540.93
1019.767	1533.02
1020.058	1516.53
1020.35	1516.75
1020.641	1487.15
1020.932	1458.68
1021.223	1458.9
1021.514	1429.07
1021.804	1455.96
1022.095	1428.62
1022.386	1427.49
1022.677	1410.77
1022.967	1427.72
1023.258	1397.66
1023.548	1407.15
1023.839	1369.19
1024.129	1358.79
1024.419	1381.39
1024.709	1352.24
1025	1360.6
1025.29	1339.36
1025.58	1317.89
1025.87	1315.18
1026.16	1303.88
1026.449	1281.73
1026.739	1298
1027.029	1285.8
1027.319	1284.22
1027.608	1275.18
1027.898	1263.2
1028.187	1252.58
1028.477	1246.25
1028.766	1212.13
1029.055	1253.03
1029.344	1227.72
1029.634	1183.88
1029.923	1197.89
1030.212	1208.97
1030.501	1193.37
1030.79	1172.58
1031.078	1201.73
1031.367	1158.12
1031.656	1144.56
1031.945	1157.22
1032.233	1153.37
1032.522	1151.11
1032.81	1139.59
1033.099	1121.51
1033.387	1098.91
1033.675	1099.14
1033.963	1108.18
1034.251	1099.36
1034.54	1089.42
1034.828	1047.39
1035.116	1063.66
1035.403	1048.29
1035.691	1051.46
1035.979	1062.53
1036.267	1058.23
1036.554	1019.59
1036.842	994.06
1037.129	1017.56
1037.417	1009.42
1037.704	1009.42
1037.992	999.03
1038.279	996.54
1038.566	994.73
1038.853	994.73
1039.14	994.73
