Data from breadboard_black_back_FLMS001491_00065.txt Node
Date: Wed Feb 08 10:50:43 GMT 2017
User: dcchb
Spectrometer: FLMS00149
Trigger mode: 0
Integration Time (sec): 2.000000E-2
Scans to average: 10
Electric dark correction enabled: true
Nonlinearity correction enabled: false
Boxcar width: 0
XAxis mode: Wavelengths
Number of Pixels in Spectrum: 2048
>>>>>Begin Spectral Data<<<<<
341.393	-16
341.776	-16
342.16	-16
342.543	-53.29
342.927	-50.13
343.31	-63.91
343.693	-59.62
344.077	-69.56
344.46	-51.48
344.843	-53.74
345.226	-38.83
345.61	-33.86
345.993	-3.12
346.376	-7.19
346.759	-0.86
347.142	28.29
347.525	38.69
347.908	56.31
348.291	66.93
348.674	84.79
349.057	107.16
349.44	111.68
349.823	122.75
350.206	151.68
350.588	211.56
350.971	224.44
351.354	219.7
351.737	243.88
352.119	272.13
352.502	258.11
352.884	268.74
353.267	295.18
353.65	312.8
354.032	334.95
354.414	320.03
354.797	320.49
355.179	326.36
355.562	336.08
355.944	322.52
356.326	332.46
356.709	334.72
357.091	343.08
357.473	355.06
357.855	381.05
358.238	358.45
358.62	356.42
359.002	346.7
359.384	372.46
359.766	341.95
360.148	351.9
360.53	362.29
360.912	357.1
361.294	334.95
361.676	356.64
362.057	362.97
362.439	332.46
362.821	351.22
363.203	336.76
363.584	358
363.966	338.79
364.348	338.34
364.729	323.88
365.111	342.18
365.493	332.91
365.874	334.04
366.256	343.31
366.637	334.5
367.019	340.37
367.4	313.25
367.781	334.95
368.163	333.14
368.544	312.58
368.925	331.11
369.306	341.95
369.688	338.34
370.069	322.97
370.45	316.87
370.831	322.07
371.212	335.4
371.593	349.41
371.974	354.16
372.355	341.05
372.736	347.38
373.117	325.68
373.498	353.25
373.879	344.89
374.26	351.45
374.641	356.42
375.021	369.98
375.402	367.04
375.783	350.09
376.163	364.33
376.544	364.33
376.925	376.3
377.305	369.98
377.686	377.66
378.066	367.94
378.447	368.85
378.827	367.26
379.208	378.79
379.588	397.09
379.968	397.32
380.349	379.24
380.729	381.28
381.109	374.04
381.489	395.51
381.87	404.55
382.25	400.26
382.63	388.73
383.01	407.26
383.39	385.79
383.77	408.39
384.15	396.87
384.53	413.82
384.91	430.77
385.29	436.64
385.67	432.35
386.049	437.77
386.429	430.54
386.809	428.28
387.189	449.3
387.568	449.3
387.948	450.43
388.328	457.66
388.707	457.88
389.087	437.09
389.466	465.79
389.846	446.13
390.225	459.47
390.605	461.5
390.984	466.92
391.363	484.1
391.743	475.96
392.122	482.97
392.501	474.15
392.881	486.36
393.26	467.15
393.639	496.3
394.018	485
394.397	490.2
394.776	494.72
395.155	488.62
395.534	497.88
395.913	514.61
396.292	523.42
396.671	539.92
397.05	519.8
397.429	517.32
397.808	515.74
398.186	519.35
398.565	511.89
398.944	532.23
399.323	550.08
399.701	549.41
400.08	564.1
400.458	542.18
400.837	563.64
401.215	578.56
401.594	561.38
401.972	569.52
402.351	584.89
402.729	585.34
403.107	572
403.486	592.57
403.864	574.94
404.242	582.63
404.62	607.48
404.999	607.48
405.377	610.87
405.755	627.6
406.133	603.19
406.511	620.14
406.889	628.73
407.267	658.33
407.645	658.1
408.023	661.27
408.401	679.57
408.779	670.99
409.156	694.49
409.534	667.6
409.912	695.39
410.29	729.06
410.667	728.16
411.045	712.34
411.422	733.36
411.8	726.35
412.178	771.55
412.555	746.46
412.933	769.29
413.31	773.81
413.687	785.33
414.065	777.65
414.442	801.6
414.819	805.67
415.197	805.67
415.574	791.43
415.951	829.4
416.328	852
416.705	822.17
417.082	841.83
417.46	832.34
417.837	870.3
418.214	875.5
418.591	859.91
418.967	864.65
419.344	875.73
419.721	908.72
420.098	903.97
420.475	897.65
420.852	926.57
421.228	933.35
421.605	907.14
421.982	942.84
422.358	934.03
422.735	948.94
423.111	975.84
423.488	979.45
423.864	993.69
424.241	979.68
424.617	1027.13
424.994	1010.19
425.37	1014.93
425.746	1003.63
426.123	1046.57
426.499	1059.68
426.875	1049.51
427.251	1082.27
427.627	1085.89
428.003	1096.96
428.379	1124.08
428.756	1132.44
429.132	1147.81
429.507	1145.32
429.883	1181.48
430.259	1208.6
430.635	1211.08
431.011	1203.85
431.387	1229.39
431.763	1230.52
432.138	1280.01
432.514	1302.38
432.89	1294.25
433.265	1333.57
433.641	1297.64
434.016	1315.26
434.392	1358.88
434.767	1385.77
435.143	1368.82
435.518	1394.36
435.894	1402.94
436.269	1451.3
436.644	1423.51
437.02	1450.85
437.395	1459.67
437.77	1458.99
438.145	1496.27
438.52	1495.37
438.895	1539.21
439.271	1517.97
439.646	1562.94
440.021	1576.05
440.395	1600.68
440.77	1567.68
441.145	1587.8
441.52	1623.28
441.895	1596.61
442.27	1611.53
442.645	1634.35
443.019	1670.05
443.394	1644.52
443.769	1670.28
444.143	1688.13
444.518	1698.75
444.892	1698.75
445.267	1703.05
445.641	1749.83
446.016	1759.77
446.39	1753.89
446.764	1782.14
447.139	1802.25
447.513	1805.19
447.887	1789.15
448.262	1815.36
448.636	1810.16
449.01	1864.63
449.384	1871.63
449.758	1854
450.132	1885.64
450.506	1895.81
450.88	1908.92
451.254	1924.29
451.628	1976.94
452.002	1964.96
452.376	1995.47
452.75	1999.99
453.123	2017.62
453.497	2090.83
453.871	2108.91
454.244	2116.14
454.618	2102.81
454.992	2156.14
455.365	2164.05
455.739	2214.45
456.112	2241.57
456.486	2300.09
456.859	2276.14
457.232	2286.54
457.606	2295.8
457.979	2363.82
458.352	2407.44
458.725	2430.03
459.099	2454.89
459.472	2473.42
459.845	2540.77
460.218	2549.58
460.591	2568.79
460.964	2600.65
461.337	2652.85
461.71	2673.42
462.083	2696.47
462.456	2697.82
462.829	2743.7
463.201	2741.89
463.574	2762.91
463.947	2820.31
464.32	2900.31
464.692	2892.62
465.065	2911.38
465.438	2993.64
465.81	3060.98
466.183	3051.71
466.555	3089.9
466.928	3138.04
467.3	3143.24
467.672	3135.33
468.045	3262.78
468.417	3266.17
468.789	3298.03
469.161	3345.72
469.534	3395.89
469.906	3449.22
470.278	3484.7
470.65	3535.54
471.022	3611.02
471.394	3646.73
471.766	3672.26
472.138	3743.45
472.51	3827.51
472.882	3869.77
473.253	3912.93
473.625	3947.28
473.997	4031.8
474.369	4079.71
474.74	4115.19
475.112	4221.63
475.484	4284
475.855	4330.55
476.227	4364.67
476.598	4524.67
476.97	4540.04
477.341	4599.02
477.713	4689.64
478.084	4730.54
478.455	4820.48
478.827	4903.87
479.198	5005.11
479.569	5030.64
479.94	5187.48
480.311	5223.41
480.682	5380.24
481.053	5432.67
481.424	5535.72
481.795	5598.54
482.166	5677.86
482.537	5742.72
482.908	5897.97
483.279	5992.2
483.65	6030.17
484.021	6129.37
484.391	6237.84
484.762	6245.08
485.133	6370.72
485.503	6487.78
485.874	6612.3
486.244	6634.22
486.615	6709.47
486.985	6793.08
487.356	6944.27
487.726	6971.61
488.097	7149.46
488.467	7244.15
488.837	7356.46
489.207	7468.09
489.578	7556
489.948	7581.76
490.318	7715.77
490.688	7805.49
491.058	7901.08
491.428	8046.16
491.798	8086.61
492.168	8190.56
492.538	8244.12
492.908	8349.88
493.278	8509.2
493.648	8472.14
494.017	8592.58
494.387	8677.33
494.757	8668.52
495.126	8842.3
495.496	8901.05
495.866	8927.27
496.235	9038.22
496.605	9143.53
496.974	9243.42
497.344	9306.46
497.713	9339.46
498.082	9465.78
498.452	9487.7
498.821	9597.08
499.19	9655.16
499.559	9704.19
499.928	9791.42
500.298	9872.1
500.667	9997.07
501.036	9951.65
501.405	10076.16
501.774	10031.64
502.143	10177.85
502.512	10264.63
502.88	10357.51
503.249	10348.92
503.618	10415.59
503.987	10483.61
504.356	10515.7
504.724	10631.85
505.093	10665.75
505.462	10715.92
505.83	10842.47
506.199	10887.44
506.567	11078.17
506.936	11057.83
507.304	11228.67
507.672	11275.68
508.041	11258.05
508.409	11383.7
508.777	11520.19
509.145	11555.67
509.514	11608.1
509.882	11708.89
510.25	11739.17
510.618	11877.24
510.986	11883.57
511.354	12056.45
511.722	12109.1
512.09	12158.82
512.458	12190.91
512.826	12382.32
513.193	12424.57
513.561	12505.48
513.929	12636.55
514.297	12780.95
514.664	12779.14
515.032	12904.34
515.4	13077.66
515.767	13082.18
516.135	13171.67
516.502	13102.52
516.869	13357.43
517.237	13483.76
517.604	13421.84
517.972	13516.3
518.339	13728.49
518.706	13697.99
519.073	13792.9
519.44	13927.36
519.808	14090.97
520.175	14090.52
520.542	14306.33
520.909	14290.51
521.276	14402.38
521.643	14548.81
522.009	14634.91
522.376	14833.32
522.743	14923.27
523.11	15041.23
523.477	15171.85
523.843	15246.87
524.21	15471.95
524.577	15582.46
524.943	15614.55
525.31	15729.12
525.676	15905.39
526.043	16011.15
526.409	16046.4
526.776	16224.25
527.142	16299.73
527.508	16441.64
527.874	16573.39
528.241	16637.57
528.607	16728.87
528.973	16838.24
529.339	16922.54
529.705	17079.14
530.071	17146.26
530.437	17272.13
530.803	17395.97
531.169	17524.55
531.535	17547.6
531.901	17618.56
532.267	17695.85
532.632	17774.72
532.998	17778.78
533.364	18078.66
533.73	18024.2
534.095	18153.46
534.461	18263.97
534.826	18331.09
535.192	18396.17
535.557	18642.94
535.923	18475.71
536.288	18614.47
536.653	18703.51
537.019	18760.68
537.384	18758.19
537.749	18897.62
538.114	18907.34
538.479	19059.65
538.845	19192.76
539.21	19175.13
539.575	19254
539.94	19384.17
540.305	19441.34
540.67	19409.02
541.034	19557.72
541.399	19615.35
541.764	19717.04
542.129	19764.49
542.494	19705.74
542.858	19817.83
543.223	19962.46
543.587	20148.89
543.952	20028.44
544.316	20122
544.681	20140.08
545.045	20292.62
545.41	20350.69
545.774	20458.49
546.138	20522.21
546.503	20516.11
546.867	20491.25
547.231	20690.35
547.595	20763.34
547.959	20810.57
548.324	20874.52
548.688	20993.84
549.052	21023.22
549.416	21122.2
549.779	21137.79
550.143	21329.88
550.507	21378.92
550.871	21465.24
551.235	21477.9
551.599	21606.03
551.962	21677.21
552.326	21801.05
552.689	21948.62
553.053	21845.12
553.417	21723.31
553.78	22094.15
554.143	22033.36
554.507	22262.96
554.87	22220.7
555.234	22413.01
555.597	22341.15
555.96	22428.61
556.323	22697.52
556.686	22640.8
557.05	22791.53
557.413	22881.25
557.776	22946.11
558.139	23149.94
558.502	23143.39
558.865	23243.5
559.228	23403.04
559.59	23523.72
559.953	23561.46
560.316	23778.4
560.679	23822.24
561.041	23950.83
561.404	23977.72
561.767	24183.81
562.129	24180.88
562.492	24349.68
562.854	24358.72
563.217	24425.61
563.579	24491.6
563.941	24774.98
564.304	24828.99
564.666	24908.77
565.028	24978.82
565.39	25064.02
565.753	25289.09
566.115	25293.39
566.477	25383.78
566.839	25611.12
567.201	25583.55
567.563	25794.39
567.925	25939.93
568.287	25922.3
568.648	25993.71
569.01	26174.5
569.372	26285.45
569.734	26192.8
570.095	26371.33
570.457	26510.53
570.819	26606.8
571.18	26553.24
571.542	26774.48
571.903	26755.95
572.265	26858.32
572.626	26936.74
572.987	26933.57
573.349	27054.7
573.71	27217.18
574.071	27252.66
574.432	27397.51
574.794	27545.76
575.155	27615.14
575.516	27494.69
575.877	27562.93
576.238	27577.85
576.599	27835.69
576.96	27855.13
577.32	27813.32
577.681	27835.02
578.042	28065.52
578.403	27926.99
578.763	28037.72
579.124	28089.02
579.485	28098.74
579.845	28171.96
580.206	28104.16
580.566	28269.58
580.927	28335.12
581.287	28358.84
581.648	28285.17
582.008	28425.06
582.368	28368.34
582.728	28398.84
583.089	28415.11
583.449	28546.64
583.809	28406.98
584.169	28517.94
584.529	28417.6
584.889	28727.2
585.249	28477.03
585.609	28391.39
585.969	28532.4
586.329	28608.33
586.688	28511.61
587.048	28527.65
587.408	28471.16
587.768	28472.06
588.127	28380.09
588.487	28442.23
588.846	28639.29
589.206	28508.45
589.565	28461.44
589.925	28736.01
590.284	28565.62
590.643	28750.25
591.003	28681.32
591.362	28733.98
591.721	28613.08
592.08	28641.78
592.44	28767.42
592.799	28630.93
593.158	28727.2
593.517	28692.62
593.876	28782.11
594.235	28691.94
594.593	28820.98
594.952	28818.95
595.311	28680.64
595.67	28793.64
596.029	28839.28
596.387	28942.11
596.746	28997.25
597.104	28891.94
597.463	28880.41
597.822	29006.74
598.18	28869.11
598.538	28856.23
598.897	29068.66
599.255	28851.94
599.613	29140.29
599.972	29016.45
600.33	29129.22
600.688	29182.78
601.046	29076.34
601.404	29241.99
601.762	29077.92
602.12	29308.2
602.478	29297.8
602.836	29239.73
603.194	29210.12
603.552	29240.18
603.91	29224.58
604.268	29386.61
604.625	29284.92
604.983	29476.1
605.341	29254.64
605.698	29369.67
606.056	29483.79
606.413	29467.06
606.771	29627.74
607.128	29707.28
607.485	29543.9
607.843	29509.55
608.2	29749.09
608.557	29836.55
608.914	29614.86
609.272	29942.53
609.629	29858.24
609.986	29998.8
610.343	29751.35
610.7	30116.76
611.057	29975.75
611.414	29963.77
611.771	29927.17
612.127	30063.21
612.484	30049.87
612.841	30073.15
613.198	30092.81
613.554	30034.73
613.911	30332.8
614.267	30255.07
614.624	30365.8
614.98	30412.58
615.337	30430.88
615.693	30327.61
616.05	30384.1
616.406	30498.45
616.762	30504.55
617.118	30416.42
617.475	30371.22
617.831	30442.41
618.187	30547.49
618.543	30524.44
618.899	30685.79
619.255	30678.56
619.611	30601.05
619.967	30808.5
620.323	30817.09
620.678	30670.87
621.034	30608.73
621.39	30592.46
621.746	30637.65
622.101	31041.49
622.457	30681.04
622.812	30720.82
623.168	30812.79
623.523	30756.52
623.879	30949.74
624.234	30679.24
624.589	30862.28
624.945	30875.39
625.3	30877.2
625.655	30838.78
626.01	30815.05
626.365	30700.25
626.72	30679.69
627.075	30832.23
627.43	30840.59
627.785	30688.28
628.14	30814.37
628.495	30873.13
628.85	30821.83
629.205	30778.89
629.559	30814.37
629.914	30710.87
630.269	30748.16
630.623	30662.74
630.978	30555.17
631.332	30712.46
631.687	30778.22
632.041	30557.21
632.396	30657.77
632.75	30539.58
633.104	30572.8
633.459	30491.44
633.813	30406.25
634.167	30391.79
634.521	30389.3
634.875	30436.76
635.229	30262.07
635.583	30149.31
635.937	30140.94
636.291	30088.29
636.645	30225.46
636.999	30089.87
637.352	29993.38
637.706	30127.39
638.06	30057.56
638.413	29919.48
638.767	30043.77
639.121	29962.19
639.474	29886.49
639.828	29770.33
640.181	29790.9
640.534	29814.85
640.888	29698.02
641.241	29490.34
641.594	29698.7
641.947	29827.73
642.301	29536.89
642.654	29631.13
643.007	29564.46
643.36	29695.53
643.713	29481.53
644.066	29495.54
644.419	29401.08
644.771	29219.61
645.124	29025.72
645.477	28887.42
645.83	28811.26
646.182	28626.41
646.535	28553.42
646.888	28559.74
647.24	28281.78
647.593	28569.69
647.945	28389.8
648.298	28289.24
648.65	28211.73
649.002	28164.73
649.355	28325.17
649.707	28321.11
650.059	28463.02
650.411	28699.17
650.763	28775.56
651.115	28963.8
651.467	28797.48
651.819	28818.95
652.171	28830.7
652.523	28715.45
652.875	28701.43
653.227	28505.73
653.578	28791.83
653.93	28807.19
654.282	28620.31
654.633	28640.87
654.985	28519.29
655.337	28556.58
655.688	28611.72
656.039	28671.15
656.391	28445.4
656.742	28474.77
657.094	28529.24
657.445	28509.58
657.796	28461.67
658.147	28473.19
658.498	28301.45
658.849	28279.07
659.2	28344.83
659.551	28322.46
659.902	28472.29
660.253	28298.73
660.604	28393.87
660.955	28263.71
661.306	28409.24
661.656	28119.53
662.007	28318.17
662.358	28117.72
662.708	28329.69
663.059	28215.8
663.409	27947.56
663.76	28227.1
664.11	28251.5
664.461	28256.47
664.811	28194.56
665.161	28154.33
665.511	28119.98
665.862	28049.93
666.212	28103.03
666.562	28247.89
666.912	28165.63
667.262	27984.62
667.612	28069.59
667.962	28043.6
668.312	27997.5
668.662	28116.59
669.011	28112.98
669.361	27900.33
669.711	27963.37
670.06	27981.68
670.41	27911.17
670.76	27844.06
671.109	27966.99
671.459	27734.91
671.808	27896.26
672.157	27863.04
672.507	27661.24
672.856	27704.62
673.205	27815.36
673.554	27871.85
673.904	27646.1
674.253	27795.47
674.602	27772.42
674.951	27298.76
675.3	27143.51
675.649	27563.16
675.998	27547.11
676.346	27535.59
676.695	27607.68
677.044	27389.6
677.393	27456.04
677.741	27552.99
678.09	27437.06
678.438	27435.25
678.787	27368.59
679.135	27476.83
679.484	27165.2
679.832	27274.35
680.181	27176.28
680.529	27170.4
680.877	27150.74
681.225	27232.32
681.573	27205.88
681.922	27048.37
682.27	27064.19
682.618	27040.01
682.966	26935.61
683.314	26971.08
683.661	26978.99
684.009	26662.17
684.357	26739.45
684.705	26680.7
685.053	26746.01
685.4	26628.04
685.748	26506.92
686.095	26510.53
686.443	26384.89
686.79	26367.26
687.138	26379.24
687.485	26254.04
687.832	26262.85
688.18	26281.16
688.527	26158.68
688.874	26057.66
689.221	26140.15
689.568	25879.36
689.915	25988.96
690.262	26052.24
690.609	25893.82
690.956	25863.77
691.303	25807.27
691.65	25540.61
691.997	25660.16
692.344	25427.17
692.69	25362.77
693.037	25473.04
693.383	25191.92
693.73	25351.24
694.077	25191.7
694.423	25122.55
694.769	25049.1
695.116	25093.85
695.462	24895.21
695.808	24842.78
696.155	24954.87
696.501	24694.08
696.847	24662.9
697.193	24499.74
697.539	24526.4
697.885	24445.73
698.231	24332.51
698.577	24330.25
698.923	24390.81
699.269	24315.11
699.614	24108.56
699.96	24111.05
700.306	24046.64
700.651	24011.61
700.997	23974.33
701.342	23927.32
701.688	23832.86
702.033	23662.92
702.379	23765.52
702.724	23686.88
703.069	23684.84
703.415	23403.04
703.76	23444.17
704.105	23382.48
704.45	23372.99
704.795	23315.59
705.14	23203.5
705.485	23157.63
705.83	23095.03
706.175	23170.96
706.52	22926.22
706.865	22961.92
707.209	22905.43
707.554	22775.04
707.899	22863.17
708.243	22814.58
708.588	22702.04
708.932	22550.41
709.277	22616.62
709.621	22478.1
709.966	22338.44
710.31	22453.24
710.654	22289.4
710.998	22257.08
711.342	22259.34
711.687	22205.11
712.031	22235.16
712.375	22042.17
712.719	22088.05
713.063	22106.81
713.407	22119.69
713.75	21953.36
714.094	22036.07
714.438	21916.08
714.782	21922.4
715.125	21791.33
715.469	21884.44
715.812	21659.13
716.156	21606.93
716.499	21701.62
716.843	21706.14
717.186	21460.04
717.53	21547.95
717.873	21493.04
718.216	21553.15
718.559	21354.96
718.902	21320.61
719.246	21333.04
719.589	21234.51
719.932	21112.93
720.275	20988.42
720.617	21154.74
720.96	21187.06
721.303	21025.93
721.646	21011.24
721.989	20870.68
722.331	21008.98
722.674	20797.01
723.016	20879.49
723.359	20849.44
723.701	20797.24
724.044	20783
724.386	20598.37
724.729	20726.73
725.071	20600.18
725.413	20672.72
725.755	20520.18
726.097	20501.2
726.439	20398.38
726.782	20497.58
727.124	20537.58
727.465	20453.06
727.807	20380.3
728.149	20288.55
728.491	20258.49
728.833	20343.01
729.175	20218.95
729.516	20182.56
729.858	20171.94
730.199	20208.32
730.541	20143.02
730.882	20119.29
731.224	20177.36
731.565	19989.8
731.906	19955
732.248	19985.05
732.589	19880.42
732.93	19801.78
733.271	19869.8
733.612	19946.18
733.953	19841.78
734.294	19792.06
734.635	19826.19
734.976	19788.45
735.317	19634.55
735.658	19690.37
735.999	19682.46
736.339	19544.16
736.68	19657.83
737.021	19545.29
737.361	19491.28
737.702	19588.45
738.042	19499.87
738.383	19398.63
738.723	19414.9
739.063	19371.74
739.404	19378.29
739.744	19224.17
740.084	19241.12
740.424	19331.06
740.764	19236.6
741.104	19334.45
741.444	19118.86
741.784	19100.56
742.124	19091.74
742.464	19117.73
742.804	19019.88
743.143	18975.14
743.483	18938.53
743.823	18878.64
744.162	18982.59
744.502	18859.43
744.841	18809.94
745.181	18867.12
745.52	18862.6
745.86	18857.4
746.199	18815.82
746.538	18807.46
746.877	18757.97
747.216	18748.02
747.556	18683.84
747.895	18708.48
748.234	18566.11
748.573	18520.91
748.911	18529.95
749.25	18437.98
749.589	18435.72
749.928	18433.68
750.267	18432.78
750.605	18315.49
750.944	18292.22
751.283	18256.96
751.621	18210.41
751.96	18181.26
752.298	18154.59
752.636	18157.53
752.975	18025.78
753.313	17954.37
753.651	18035.05
753.989	17990.53
754.327	17814.26
754.666	17812.91
755.004	17812.23
755.342	17812.68
755.679	17747.6
756.017	17574.95
756.355	17734.72
756.693	17627.38
757.031	17641.84
757.368	17451.33
757.706	17435.74
758.044	17463.54
758.381	17525.46
758.719	17460.37
759.056	17515.74
759.394	17294.28
759.731	17182.19
760.068	17105.58
760.405	17075.3
760.743	17111.46
761.08	17058.12
761.417	17059.03
761.754	16949.65
762.091	16951.69
762.428	16866.27
762.765	16770.45
763.102	16826.94
763.438	16731.81
763.775	16672.82
764.112	16586.27
764.449	16667.63
764.785	16473.28
765.122	16387.86
765.458	16304.02
765.795	16371.59
766.131	16328.43
766.467	16308.09
766.804	16240.29
767.14	16101.99
767.476	16123.69
767.812	16009.79
768.148	16008.89
768.485	15888.89
768.821	15887.08
769.157	15850.02
769.492	15830.81
769.828	15692.51
770.164	15687.09
770.5	15564.83
770.836	15575
771.171	15473.08
771.507	15509.01
771.842	15342.01
772.178	15343.59
772.513	15281
772.849	15295.23
773.184	15181.11
773.519	15146.08
773.855	15078.52
774.19	15051.62
774.525	14997.61
774.86	15056.82
775.195	14961.46
775.53	14805.08
775.865	14815.25
776.2	14621.35
776.535	14601.01
776.87	14598.75
777.205	14520.11
777.539	14501.13
777.874	14594.23
778.209	14363.51
778.543	14339.33
778.878	14231.76
779.212	14213.23
779.547	14154.02
779.881	14218.2
780.215	14085.32
780.55	14169.39
780.884	14078.09
781.218	13910.86
781.552	13984.53
781.886	13825.44
782.22	13763.3
782.554	13728.72
782.888	13625.9
783.222	13541.61
783.556	13564.21
783.889	13575.05
784.223	13419.35
784.557	13408.05
784.89	13373.25
785.224	13322.18
785.557	13211.22
785.891	13249.41
786.224	13179.81
786.558	13189.53
786.891	13043.32
787.224	12967.84
787.557	12984.11
787.891	12934.84
788.224	12921.74
788.557	12849.87
788.89	12831.8
789.223	12946.59
789.556	12761.97
789.888	12716.54
790.221	12731.23
790.554	12600.62
790.887	12667.28
791.219	12563.1
791.552	12625.47
791.884	12441.52
792.217	12477.68
792.549	12434.52
792.882	12281.08
793.214	12261.41
793.546	12293.96
793.879	12126.73
794.211	12089.22
794.543	12164.69
794.875	12037.92
795.207	12084.24
795.539	12070.69
795.871	12114.07
796.203	11866.85
796.535	11836.12
796.867	11785.72
797.198	11825.27
797.53	11779.85
797.862	11772.39
798.193	11830.69
798.525	11676.12
798.856	11735.33
799.188	11603.58
799.519	11578.49
799.85	11472.06
800.182	11452.4
800.513	11477.48
800.844	11362
801.175	11442.23
801.506	11410.36
801.837	11299.18
802.168	11243.81
802.499	11261.67
802.83	11216.47
803.161	11162.91
803.491	11097.6
803.822	11135.12
804.153	11067.1
804.483	11019.87
804.814	10945.52
805.145	10968.57
805.475	10999.98
805.805	10886.31
806.136	10922.24
806.466	10870.49
806.796	10880.66
807.126	10798.63
807.457	10827.1
807.787	10799.98
808.117	10686.54
808.447	10666.65
808.777	10685.64
809.107	10547.56
809.436	10604.06
809.766	10582.81
810.096	10611.74
810.426	10463.95
810.755	10565.64
811.085	10481.57
811.414	10487
811.744	10383.5
812.073	10424.85
812.403	10481.12
812.732	10322.03
813.061	10410.62
813.39	10254.91
813.719	10246.33
814.049	10266.67
814.378	10209.27
814.707	10146.22
815.036	10189.83
815.365	10107.8
815.693	10036.84
816.022	10058.99
816.351	9992.77
816.68	9920.91
817.008	10029.84
817.337	9878.65
817.665	9894.92
817.994	9944.64
818.322	9865.55
818.651	9845.66
818.979	9785.55
819.307	9817.41
819.636	9798.2
819.964	9715.04
820.292	9754.14
820.62	9784.42
820.948	9675.95
821.276	9755.94
821.604	9715.95
821.932	9686.79
822.259	9732.67
822.587	9706.68
822.915	9678.88
823.243	9783.06
823.57	9686.34
823.898	9748.26
824.225	9670.97
824.553	9672.78
824.88	9627.13
825.207	9740.58
825.535	9679.34
825.862	9702.39
826.189	9682.5
826.516	9694.93
826.843	9686.12
827.17	9662.16
827.497	9682.5
827.824	9686.34
828.151	9685.44
828.478	9673.91
828.805	9778.99
829.131	9696.06
829.458	9696.28
829.785	9718.43
830.111	9616.74
830.438	9713.01
830.764	9623.74
831.09	9636.17
831.417	9573.12
831.743	9701.93
832.069	9663.97
832.395	9663.97
832.722	9624.87
833.048	9576.97
833.374	9644.31
833.7	9585.1
834.026	9588.94
834.351	9546.46
834.677	9564.76
835.003	9571.54
835.329	9529.06
835.654	9535.16
835.98	9490.41
836.306	9581.94
836.631	9521.37
836.956	9535.61
837.282	9495.16
837.607	9493.13
837.932	9435.05
838.258	9461.49
838.583	9346.01
838.908	9367.48
839.233	9362.73
839.558	9386.01
839.883	9320.7
840.208	9250.65
840.533	9297.65
840.858	9289.74
841.182	9310.76
841.507	9314.83
841.832	9176.3
842.156	9206.81
842.481	9201.38
842.805	9232.57
843.13	9163.87
843.454	9140.59
843.778	9148.5
844.103	9101.72
844.427	9086.36
844.751	9070.76
845.075	9074.83
845.399	8998
845.723	9013.36
846.047	9000.71
846.371	8956.87
846.695	8923.88
847.019	8833.93
847.343	8868.96
847.666	8823.99
847.99	8737.67
848.313	8749.19
848.637	8629.42
848.96	8668.74
849.284	8622.19
849.607	8629.42
849.931	8609.31
850.254	8500.16
850.577	8480.95
850.9	8407.96
851.223	8400.5
851.546	8371.8
851.869	8313.95
852.192	8402.76
852.515	8260.39
852.838	8285.93
853.161	8212.71
853.483	8184.69
853.806	8189.66
854.129	8168.42
854.451	8140.17
854.774	8038.25
855.096	8096.55
855.419	8003.9
855.741	8050.68
856.063	7943.56
856.385	7956.9
856.708	7928.87
857.03	7966.16
857.352	7927.97
857.674	7874.41
857.996	7897.91
858.318	7793.06
858.64	7803
858.961	7774.3
859.283	7789.22
859.605	7756
859.926	7800.06
860.248	7757.8
860.57	7609.11
860.891	7714.64
861.212	7680.29
861.534	7600.52
861.855	7631.03
862.176	7620.63
862.498	7559.39
862.819	7603.23
863.14	7497.47
863.461	7504.48
863.782	7525.04
864.103	7570.46
864.424	7552.84
864.745	7533.63
865.065	7466.51
865.386	7531.37
865.707	7464.25
866.027	7428.32
866.348	7456.34
866.668	7360.3
866.989	7405.05
867.309	7370.02
867.63	7275.78
867.95	7395.1
868.27	7342.45
868.59	7347.19
868.91	7333.63
869.23	7284.37
869.55	7249.12
869.87	7328.89
870.19	7285.95
870.51	7224.49
870.83	7300.64
871.15	7229.91
871.469	7198.95
871.789	7231.04
872.109	7257.25
872.428	7232.62
872.748	7210.47
873.067	7240.3
873.386	7146.52
873.706	7193.53
874.025	7134.54
874.344	7117.6
874.663	7100.42
874.982	7112.17
875.301	7120.31
875.62	7056.13
875.939	7038.95
876.258	7043.7
876.577	7041.21
876.896	7072.62
877.214	6981.33
877.533	7034.21
877.852	7029.24
878.17	6977.94
878.489	7036.02
878.807	6998.28
879.125	7012.06
879.444	6928.9
879.762	6899.97
880.08	6951.05
880.398	6920.31
880.716	6874.21
881.034	6836.47
881.352	6873.53
881.67	6828.34
881.988	6876.02
882.306	6838.28
882.624	6810.26
882.941	6836.92
883.259	6776.59
883.577	6763.25
883.894	6800.09
884.212	6775.91
884.529	6752.63
884.846	6706.76
885.164	6694.78
885.481	6747.89
885.798	6697.95
886.115	6676.7
886.432	6622.69
886.75	6574.56
887.067	6599.64
887.383	6601
887.7	6516.03
888.017	6596.25
888.334	6572.75
888.651	6513.54
888.967	6504.5
889.284	6503.83
889.6	6454.56
889.917	6405.07
890.233	6437.16
890.55	6396.71
890.866	6443.04
891.182	6430.83
891.498	6355.36
891.815	6323.72
892.131	6345.86
892.447	6329.14
892.763	6308.8
893.079	6265.19
893.395	6244.4
893.71	6258.86
894.026	6231.97
894.342	6173.89
894.657	6197.17
894.973	6172.31
895.289	6180.9
895.604	6153.33
895.92	6170.28
896.235	6131.18
896.55	6076.94
896.865	6064.06
897.181	6069.71
897.496	6020.68
897.811	6014.8
898.126	5965.54
898.441	5939.1
898.756	5926.67
899.071	5915.82
899.386	5912.2
899.7	5871.53
900.015	5791.75
900.33	5859.55
900.644	5825.2
900.959	5821.58
901.273	5809.16
901.588	5776.84
901.902	5750.85
902.216	5707.69
902.531	5750.4
902.845	5712.21
903.159	5688.03
903.473	5623.4
903.787	5617.07
904.101	5622.95
904.415	5601.48
904.729	5571.87
905.042	5520.12
905.356	5530.97
905.67	5513.57
905.984	5508.15
906.297	5564.42
906.611	5440.8
906.924	5453.23
907.237	5397.19
907.551	5395.83
907.864	5372.1
908.177	5383.18
908.491	5353.57
908.804	5328.49
909.117	5288.26
909.43	5273.35
909.743	5236.29
910.056	5250.75
910.368	5221.6
910.681	5240.81
910.994	5166.46
911.307	5178.44
911.619	5102.73
911.932	5110.64
912.244	5093.69
912.557	5079.68
912.869	5067.25
913.181	5059.8
913.494	5043.07
913.806	5021.61
914.118	5009.63
914.43	4987.71
914.742	4990.42
915.054	4927.37
915.366	4928.5
915.678	4875.17
915.99	4885.79
916.302	4830.42
916.613	4823.42
916.925	4844.21
917.236	4829.07
917.548	4819.35
917.859	4810.99
918.171	4764.89
918.482	4727.38
918.794	4727.83
919.105	4668.17
919.416	4665.68
919.727	4698.68
920.038	4658.45
920.349	4634.5
920.66	4573.03
920.971	4587.04
921.282	4589.07
921.593	4511.11
921.903	4552.69
922.214	4507.95
922.525	4463.2
922.835	4479.47
923.146	4449.64
923.456	4437.21
923.767	4423.43
924.077	4420.27
924.387	4395.86
924.697	4373.94
925.008	4333.94
925.318	4358.57
925.628	4346.14
925.938	4249.87
926.248	4255.52
926.558	4250.55
926.867	4270.44
927.177	4204.23
927.487	4198.35
927.796	4162.64
928.106	4187.28
928.416	4119.71
928.725	4187.95
929.034	4119.48
929.344	4067.28
929.653	4056.88
929.962	4042.87
930.271	4034.06
930.581	4028.41
930.89	3999.03
931.199	3988.86
931.508	3947.74
931.817	3982.76
932.125	3935.08
932.434	3929.2
932.743	3906.83
933.051	3899.15
933.36	3909.77
933.669	3838.36
933.977	3863.22
934.286	3847.85
934.594	3849.66
934.902	3830.68
935.21	3804.24
935.519	3763.56
935.827	3786.61
936.135	3728.76
936.443	3718.81
936.751	3737.12
937.059	3698.25
937.367	3669.1
937.674	3662.77
937.982	3663.22
938.29	3664.35
938.597	3672.26
938.905	3649.21
939.213	3608.08
939.52	3591.36
939.827	3569.89
940.135	3574.19
940.442	3512.04
940.749	3543.23
941.056	3533.06
941.363	3502.32
941.67	3477.01
941.977	3435.66
942.284	3468.65
942.591	3479.5
942.898	3439.05
943.205	3389.78
943.511	3422.55
943.818	3387.75
944.125	3401.08
944.431	3359.73
944.738	3351.14
945.044	3294.19
945.35	3317.92
945.657	3313.4
945.963	3311.37
946.269	3270.01
946.575	3278.83
946.881	3248.32
947.187	3272.05
947.493	3256.45
947.799	3183.24
948.105	3220.07
948.41	3165.83
948.716	3181.65
949.022	3169.45
949.327	3140.52
949.633	3117.02
949.938	3143.69
950.244	3135.78
950.549	3098.04
950.854	3077.02
951.16	3064.82
951.465	3054.43
951.77	3048.78
952.075	3041.09
952.38	3017.59
952.685	3008.32
952.99	2994.31
953.294	2965.16
953.599	2986.4
953.904	2966.52
954.209	2942.11
954.513	2922
954.818	2928.33
955.122	2863.47
955.426	2892.4
955.731	2878.61
956.035	2838.39
956.339	2842.91
956.643	2846.07
956.948	2821.89
957.252	2845.62
957.556	2830.48
957.86	2791.83
958.163	2800.65
958.467	2781.66
958.771	2773.53
959.075	2747.31
959.378	2770.37
959.682	2739.63
959.985	2692.4
960.289	2710.25
960.592	2725.62
960.896	2698.73
961.199	2698.05
961.502	2685.85
961.805	2649.92
962.108	2656.02
962.411	2607.88
962.714	2621.22
963.017	2582.8
963.32	2600.65
963.623	2601.33
963.926	2585.29
964.228	2568.79
964.531	2553.87
964.833	2584.16
965.136	2537.83
965.438	2537.15
965.741	2490.82
966.043	2496.7
966.345	2498.06
966.648	2510.94
966.95	2461.9
967.252	2455.57
967.554	2478.62
967.856	2455.12
968.158	2423.93
968.46	2437.04
968.761	2426.19
969.063	2427.32
969.365	2431.39
969.666	2391.39
969.968	2359.75
970.269	2369.7
970.571	2350.94
970.872	2345.52
971.174	2332.64
971.475	2317.04
971.776	2319.76
972.077	2289.25
972.378	2284.5
972.679	2306.42
972.98	2291.73
973.281	2245.18
973.582	2248.57
973.883	2249.93
974.183	2251.06
974.484	2219.65
974.785	2227.78
975.085	2220.55
975.386	2236.82
975.686	2225.75
975.986	2213.54
976.287	2223.71
976.587	2164.28
976.887	2186.88
977.187	2192.3
977.487	2159.31
977.787	2142.81
978.087	2132.87
978.387	2122.47
978.687	2114.34
978.987	2112.98
979.286	2110.5
979.586	2082.93
979.885	2056.94
980.185	2067.33
980.484	2060.78
980.784	2059.2
981.083	2050.61
981.382	2013.1
981.682	2024.62
981.981	2035.24
982.28	2015.58
982.579	1998.41
982.878	2024.85
983.177	1983.72
983.475	1985.53
983.774	1967.67
984.073	1973.32
984.372	1942.36
984.67	1935.58
984.969	1962.25
985.267	1923.61
985.566	1952.53
985.864	1933.78
986.162	1922.93
986.461	1900.56
986.759	1904.4
987.057	1894.23
987.355	1885.19
987.653	1858.52
987.951	1879.54
988.249	1851.97
988.547	1868.47
988.844	1857.39
989.142	1860.78
989.44	1817.4
989.737	1836.6
990.035	1793.67
990.332	1807.23
990.63	1809.71
990.927	1792.76
991.224	1759.54
991.521	1776.94
991.819	1749.83
992.116	1776.49
992.413	1731.97
992.71	1736.27
993.006	1737.85
993.303	1691.75
993.6	1706.44
993.897	1715.7
994.193	1692.88
994.49	1714.12
994.787	1738.53
995.083	1656.5
995.379	1686.78
995.676	1656.27
995.972	1694.91
996.268	1653.33
996.565	1659.43
996.861	1625.99
997.157	1650.39
997.453	1614.92
997.749	1628.7
998.044	1593.45
998.34	1599.55
998.636	1609.72
998.932	1567.23
999.227	1559.78
999.523	1567.68
999.818	1574.69
1000.114	1553
1000.409	1580.57
1000.704	1542.83
1001	1547.57
1001.295	1514.8
1001.59	1510.29
1001.885	1490.85
1002.18	1520.45
1002.475	1513.67
1002.77	1493.79
1003.065	1489.72
1003.359	1465.09
1003.654	1471.87
1003.949	1457.41
1004.243	1449.5
1004.538	1450.4
1004.832	1440
1005.127	1430.06
1005.421	1409.27
1005.715	1427.8
1006.009	1403.4
1006.304	1382.38
1006.598	1378.99
1006.892	1393.68
1007.186	1388.71
1007.48	1391.64
1007.773	1360.68
1008.067	1359.55
1008.361	1352.55
1008.655	1356.16
1008.948	1343.51
1009.242	1331.76
1009.535	1355.94
1009.829	1320.46
1010.122	1334.47
1010.415	1322.27
1010.708	1305.54
1011.001	1291.08
1011.295	1272.55
1011.588	1294.92
1011.881	1290.4
1012.173	1241.14
1012.466	1257.86
1012.759	1255.83
1013.052	1275.04
1013.344	1242.27
1013.637	1233.46
1013.93	1237.07
1014.222	1215.38
1014.514	1231.42
1014.807	1187.13
1015.099	1192.78
1015.391	1229.16
1015.683	1192.33
1015.976	1177.64
1016.268	1189.16
1016.56	1173.34
1016.851	1159.11
1017.143	1145.32
1017.435	1170.63
1017.727	1151.2
1018.018	1110.75
1018.31	1123.4
1018.602	1153.68
1018.893	1107.36
1019.185	1094.93
1019.476	1108.71
1019.767	1123.4
1020.058	1081.82
1020.35	1073.01
1020.641	1066.46
1020.932	1080.01
1021.223	1081.82
1021.514	1053.12
1021.804	1064.42
1022.095	1044.76
1022.386	1051.09
1022.677	1047.47
1022.967	1050.86
1023.258	1026.46
1023.548	1029.17
1023.839	1019.68
1024.129	1028.49
1024.419	1015.38
1024.709	990.07
1025	981.49
1025.29	991.88
1025.58	979.45
1025.87	967.02
1026.16	972.9
1026.449	965.44
1026.739	967.7
1027.029	939.23
1027.319	952.33
1027.608	940.81
1027.898	929.96
1028.187	939.9
1028.477	950.07
1028.766	914.59
1029.055	917.31
1029.344	931.32
1029.634	896.52
1029.923	876.18
1030.212	906.69
1030.501	884.76
1030.79	893.8
1031.078	894.26
1031.367	891.32
1031.656	852
1031.945	856.29
1032.233	863.3
1032.522	844.77
1032.81	872.34
1033.099	843.18
1033.387	851.77
1033.675	850.19
1033.963	829.63
1034.251	827.37
1034.54	836.86
1034.828	836.4
1035.116	815.39
1035.403	835.27
1035.691	818.78
1035.979	795.05
1036.267	791.43
1036.554	767.71
1036.842	776.07
1037.129	785.11
1037.417	769.06
1037.704	777.2
1037.992	777.2
1038.279	750.31
1038.566	750.76
1038.853	750.76
1039.14	750.76
