Data from breadboard_black_back_FLMS001491_00087.txt Node
Date: Wed Feb 08 10:51:03 GMT 2017
User: dcchb
Spectrometer: FLMS00149
Trigger mode: 0
Integration Time (sec): 2.000000E-2
Scans to average: 10
Electric dark correction enabled: true
Nonlinearity correction enabled: false
Boxcar width: 0
XAxis mode: Wavelengths
Number of Pixels in Spectrum: 2048
>>>>>Begin Spectral Data<<<<<
341.393	-31.27
341.776	-31.27
342.16	-31.27
342.543	-58.39
342.927	-57.94
343.31	-91.61
343.693	-65.85
344.077	-54.09
344.46	-41.21
344.843	-73.98
345.226	-35.11
345.61	-14.1
345.993	-34.21
346.376	-5.73
346.759	20.71
347.142	20.93
347.525	40.37
347.908	70.65
348.291	69.74
348.674	71.78
349.057	121.72
349.44	121.49
349.823	139.57
350.206	157.43
350.588	198.33
350.971	198.55
351.354	224.09
351.737	250.53
352.119	255.73
352.502	283.75
352.884	275.61
353.267	296.63
353.65	284.43
354.032	301.6
354.414	295.27
354.797	300.25
355.179	323.75
355.562	330.53
355.944	321.94
356.326	325.78
356.709	363.52
357.091	349.74
357.473	351.32
357.855	331.21
358.238	347.25
358.62	359.91
359.002	354.93
359.384	342.96
359.766	350.19
360.148	347.02
360.53	351.09
360.912	350.41
361.294	335.27
361.676	334.82
362.057	340.7
362.439	344.31
362.821	320.58
363.203	341.83
363.584	348.15
363.966	353.58
364.348	335.95
364.729	346.12
365.111	320.58
365.493	323.07
365.874	331.21
366.256	345.22
366.637	347.48
367.019	330.53
367.4	337.99
367.781	314.48
368.163	333.47
368.544	313.13
368.925	338.21
369.306	348.38
369.688	335.05
370.069	343.64
370.45	340.7
370.831	340.02
371.212	336.63
371.593	326.23
371.974	337.08
372.355	339.12
372.736	346.35
373.117	352
373.498	355.39
373.879	350.64
374.26	367.59
374.641	340.7
375.021	323.3
375.402	341.15
375.783	350.87
376.163	399.23
376.544	381.37
376.925	374.37
377.305	380.02
377.686	349.51
378.066	363.75
378.447	359.91
378.827	379.79
379.208	390.64
379.588	386.35
379.968	373.92
380.349	395.84
380.729	376.4
381.109	386.8
381.489	395.16
381.87	404.2
382.25	409.4
382.63	397.64
383.01	413.01
383.39	438.32
383.77	414.37
384.15	437.87
384.53	421.37
384.91	410.98
385.29	430.86
385.67	430.19
386.049	439.68
386.429	430.64
386.809	441.03
387.189	433.58
387.568	418.89
387.948	430.64
388.328	451.2
388.707	452.78
389.087	447.14
389.466	467.25
389.846	459.11
390.225	470.86
390.605	483.29
390.984	468.6
391.363	479
391.743	488.72
392.122	476.06
392.501	514.48
392.881	509.28
393.26	503.86
393.639	491.2
394.018	500.24
394.397	503.86
394.776	514.7
395.155	507.25
395.534	509.28
395.913	492.78
396.292	528.94
396.671	513.12
397.05	529.39
397.429	534.59
397.808	527.81
398.186	534.36
398.565	559.9
398.944	542.27
399.323	564.65
399.701	573.23
400.08	553.35
400.458	544.53
400.837	548.6
401.215	571.65
401.594	557.19
401.972	569.84
402.351	590.86
402.729	582.27
403.107	612.1
403.486	580.69
403.864	603.97
404.242	618.66
404.62	608.94
404.999	612.78
405.377	614.36
405.755	639.45
406.133	648.03
406.511	657.75
406.889	668.6
407.267	657.75
407.645	672.67
408.023	697.3
408.401	698.65
408.779	709.95
409.156	724.42
409.534	718.09
409.912	735.94
410.29	733.23
410.667	749.27
411.045	755.15
411.422	763.29
411.8	771.87
412.178	777.07
412.555	806.67
412.933	772.78
413.31	770.52
413.687	832.89
414.065	813.91
414.442	826.33
414.819	818.2
415.197	834.24
415.574	847.35
415.951	852.1
416.328	868.14
416.705	878.99
417.082	886.67
417.46	884.19
417.837	895.94
418.214	917.86
418.591	905.2
418.967	901.81
419.344	944.52
419.721	916.5
420.098	935.26
420.475	926.44
420.852	966.9
421.228	973.22
421.605	948.59
421.982	975.03
422.358	993.56
422.735	1020.45
423.111	1006.44
423.488	1019.32
423.864	1041.24
424.241	1042.37
424.617	1053.22
424.994	1065.88
425.37	1071.98
425.746	1046.67
426.123	1086.44
426.499	1082.6
426.875	1109.04
427.251	1134.57
427.627	1130.06
428.003	1178.87
428.379	1156.27
428.756	1167.12
429.132	1177.29
429.507	1209.15
429.883	1221.8
430.259	1246.21
430.635	1262.48
431.011	1273.33
431.387	1288.47
431.763	1315.36
432.138	1305.87
432.514	1337.28
432.89	1325.3
433.265	1373.89
433.641	1401.91
434.016	1406.88
434.392	1417.28
434.767	1457.05
435.143	1445.98
435.518	1440.78
435.894	1455.47
436.269	1492.31
436.644	1516.49
437.02	1529.14
437.395	1513.1
437.77	1549.03
438.145	1572.98
438.52	1580.44
438.895	1633.54
439.271	1635.8
439.646	1668.57
440.021	1663.83
440.395	1667.89
440.77	1646.65
441.145	1674.22
441.52	1694.33
441.895	1706.76
442.27	1719.64
442.645	1730.27
443.019	1730.27
443.394	1741.79
443.769	1789.02
444.143	1768.46
444.518	1798.29
444.892	1815.91
445.267	1817.04
445.641	1826.53
446.016	1822.92
446.39	1830.15
446.764	1847.78
447.139	1861.79
447.513	1883.93
447.887	1883.03
448.262	1900.66
448.636	1904.27
449.01	1948.34
449.384	1955.34
449.758	1970.48
450.132	2014.1
450.506	1983.14
450.88	2019.3
451.254	2006.87
451.628	2062.91
452.002	2076.47
452.376	2116.02
452.75	2147.43
453.123	2134.1
453.497	2182.46
453.871	2169.35
454.244	2216.35
454.618	2242.34
454.992	2290.7
455.365	2258.61
455.739	2290.7
456.112	2367.99
456.486	2353.07
456.859	2418.16
457.232	2443.69
457.606	2460.19
457.979	2485.27
458.352	2519.17
458.725	2549.45
459.099	2569.11
459.472	2616.12
459.845	2640.3
460.218	2693.18
460.591	2684.14
460.964	2720.07
461.337	2774.98
461.71	2837.58
462.083	2853.63
462.456	2830.35
462.829	2901.99
463.201	2904.25
463.574	2922.32
463.947	2984.02
464.32	3059.95
464.692	3099.27
465.065	3067.63
465.438	3158.7
465.81	3174.3
466.183	3213.84
466.555	3267.4
466.928	3322.77
467.3	3293.39
467.672	3369.32
468.045	3425.59
468.417	3447.06
468.789	3454.29
469.161	3528.41
469.534	3589.2
469.906	3659.93
470.278	3681.17
470.65	3739.93
471.022	3777.9
471.394	3863.09
471.766	3878.23
472.138	3950.55
472.51	4033.26
472.882	4102.41
473.253	4132.46
473.625	4170.2
473.997	4295.62
474.369	4308.5
474.74	4322.51
475.112	4432.79
475.484	4509.4
475.855	4607.7
476.227	4684.09
476.598	4762.5
476.97	4797.76
477.341	4934.47
477.713	4965.21
478.084	4978.54
478.455	5115.49
478.827	5174.02
479.198	5320.23
479.569	5345.31
479.94	5484.74
480.311	5538.98
480.682	5642.7
481.053	5765.87
481.424	5871.4
481.795	5990.04
482.166	5938.29
482.537	6119.98
482.908	6189.36
483.279	6266.87
483.65	6387.09
484.021	6504.38
484.391	6590.25
484.762	6645.39
485.133	6697.14
485.503	6807.65
485.874	6954.31
486.244	7065.72
486.615	7168.54
486.985	7218.93
487.356	7398.82
487.726	7466.39
488.097	7571.69
488.467	7668.19
488.837	7825.92
489.207	7894.17
489.578	8003.32
489.948	8081.96
490.318	8215.74
490.688	8251.22
491.058	8296.87
491.428	8495.29
491.798	8558.56
492.168	8722.17
492.538	8764.43
492.908	8876.07
493.278	9005.33
493.648	8961.71
494.017	9128.26
494.387	9121.03
494.757	9237.19
495.126	9357.41
495.496	9395.6
495.866	9490.06
496.235	9574.35
496.605	9654.12
496.974	9732.99
497.344	9807.12
497.713	9861.35
498.082	9980.22
498.452	10064.28
498.821	10177.27
499.19	10183.6
499.559	10316.93
499.928	10334.33
500.298	10447.32
500.667	10548.79
501.036	10537.94
501.405	10643.25
501.774	10716.92
502.143	10792.63
502.512	10881.21
502.88	10970.93
503.249	10915.56
503.618	11077.59
503.987	11075.78
504.356	11203.46
504.724	11235.55
505.093	11340.63
505.462	11373.85
505.83	11478.94
506.199	11588.54
506.567	11666.73
506.936	11746.73
507.304	11886.38
507.672	11837.12
508.041	12005.02
508.409	12040.28
508.777	12123.21
509.145	12264.45
509.514	12250.44
509.882	12438.23
510.25	12439.81
510.618	12626.02
510.986	12605.46
511.354	12788.96
511.722	12881.38
512.09	12954.83
512.458	13000.93
512.826	13105.56
513.193	13201.15
513.561	13258.1
513.929	13371.77
514.297	13560.24
514.664	13602.5
515.032	13645.66
515.4	13879.55
515.767	13851.98
516.135	13964.75
516.502	13901.02
516.869	14087.45
517.237	14146.66
517.604	14198.19
517.972	14382.59
518.339	14501
518.706	14535.8
519.073	14587.33
519.44	14685.18
519.808	14903.25
520.175	14931.27
520.542	15086.3
520.909	15289.68
521.276	15272.06
521.643	15443.8
522.009	15521.54
522.376	15691.25
522.743	15776.9
523.11	15937.8
523.477	16090.34
523.843	16096.89
524.21	16387.96
524.577	16486.26
524.943	16556.99
525.31	16681.96
525.676	16832.02
526.043	16811.9
526.409	16982.75
526.776	17134.61
527.142	17243.53
527.508	17338.67
527.874	17530.08
528.241	17571.2
528.607	17639.68
528.973	17936.39
529.339	17845.55
529.705	17977.97
530.071	18251.86
530.437	18364.63
530.803	18428.58
531.169	18499.99
531.535	18432.2
531.901	18638.75
532.267	18737.73
532.632	18918.97
532.998	18873.77
533.364	18927.33
533.73	19128.23
534.095	19211.84
534.461	19308.79
534.826	19491.83
535.192	19485.28
535.557	19508.55
535.923	19596.91
536.288	19704.93
536.653	19891.14
537.019	19829.68
537.384	19937.24
537.749	20020.18
538.114	20157.8
538.479	20200.51
538.845	20192.15
539.21	20195.77
539.575	20320.74
539.94	20543.33
540.305	20571.35
540.67	20547.85
541.034	20664
541.399	20753.27
541.764	20788.75
542.129	20912.59
542.494	20978.57
542.858	21059.25
543.223	21130.89
543.587	21271.45
543.952	21323.65
544.316	21211.79
544.681	21372.01
545.045	21466.7
545.41	21520.93
545.774	21659.46
546.138	21576.52
546.503	21769.29
546.867	21841.15
547.231	21974.25
547.595	22028.04
547.959	22019.45
548.324	22059.22
548.688	22224.42
549.052	22211.08
549.416	22370.85
549.779	22444.3
550.143	22417.63
550.507	22654.23
550.871	22684.52
551.235	22617.85
551.599	22841.57
551.962	22927.9
552.326	23016.49
552.689	23096.71
553.053	23061
553.417	23151.62
553.78	23489.24
554.143	23323.82
554.507	23620.54
554.87	23651.04
555.234	23763.13
555.597	23697.82
555.96	23762
556.323	23931.72
556.686	23990.24
557.05	24246.28
557.413	24344.13
557.776	24314.3
558.139	24408.09
558.502	24432.04
558.865	24691.24
559.228	24642.66
559.59	24871.13
559.953	24986.83
560.316	25024.12
560.679	25181.17
561.041	25349.76
561.404	25461.62
561.767	25661.61
562.129	25483.54
562.492	25740.71
562.854	25718.34
563.217	25847.15
563.579	25919.91
563.941	26211.2
564.304	26246.23
564.666	26546.79
565.028	26483.74
565.39	26584.98
565.753	26753.34
566.115	26838.76
566.477	26954.69
566.839	27094.12
567.201	27300.21
567.563	27247.11
567.925	27392.87
568.287	27449.36
568.648	27573.2
569.01	27614.78
569.372	27878.73
569.734	27819.97
570.095	27877.83
570.457	28053.87
570.819	28085.05
571.18	28138.38
571.542	28277.59
571.903	28267.65
572.265	28376.34
572.626	28602.78
572.987	28612.27
573.349	28752.61
573.71	28791.7
574.071	28744.02
574.432	28788.54
574.794	29149.66
575.155	29112.6
575.516	29078.25
575.877	29110.79
576.238	29312.82
576.599	29323.44
576.96	29473.26
577.32	29497.67
577.681	29521.62
578.042	29578.57
578.403	29554.39
578.763	29621.74
579.124	29591.91
579.485	29776.08
579.845	29866.47
580.206	29771.34
580.566	29871.67
580.927	29927.72
581.287	30023.53
581.648	29817.66
582.008	30049.75
582.368	29937.66
582.728	30006.13
583.089	30100.37
583.449	30058.11
583.809	30036.87
584.169	30223.53
584.529	30004.55
584.889	30214.49
585.249	30110.54
585.609	30101.27
585.969	30290.42
586.329	30154.15
586.688	30288.38
587.048	30234.6
587.408	30146.47
587.768	30117.99
588.127	30095.62
588.487	30176.3
588.846	30348.04
589.206	30056.3
589.565	30273.02
589.925	30320.25
590.284	30325.22
590.643	30435.05
591.003	30427.36
591.362	30387.82
591.721	30288.16
592.08	30312.34
592.44	30512.56
592.799	30431.88
593.158	30353.69
593.517	30404.77
593.876	30504.2
594.235	30328.61
594.593	30361.83
594.952	30470.98
595.311	30422.84
595.67	30543.07
596.029	30664.87
596.387	30571.54
596.746	30644.31
597.104	30656.06
597.463	30576.06
597.822	30490.86
598.18	30668.26
598.538	30692.44
598.897	30757.3
599.255	30549.17
599.613	31048.36
599.972	30677.98
600.33	30887.46
600.688	30716.17
601.046	30929.27
601.404	30917.52
601.762	30835.49
602.12	30982.6
602.478	30947.12
602.836	30956.39
603.194	30974.02
603.552	31098.08
603.91	30915.49
604.268	31094.01
604.625	30966.11
604.983	31261.92
605.341	30930.85
605.698	31195.03
606.056	31209.26
606.413	31105.54
606.771	31253.33
607.128	31376.27
607.485	31248.36
607.843	31210.39
608.2	31510.05
608.557	31455.59
608.914	31395.47
609.272	31500.1
609.629	31648.12
609.986	31765.18
610.343	31709.82
610.7	31837.27
611.057	31837.04
611.414	31725.41
611.771	31749.59
612.127	31878.4
612.484	31736.71
612.841	32005.85
613.198	31934.22
613.554	31886.99
613.911	31949.36
614.267	32056.93
614.624	31991.62
614.98	32092.63
615.337	32234.32
615.693	32093.31
616.05	32101.9
616.406	32280.2
616.762	32235.45
617.118	32151.16
617.475	32123.59
617.831	32409.23
618.187	32195.9
618.543	32341.66
618.899	32470.7
619.255	32330.36
619.611	32469.34
619.967	32621.43
620.323	32537.14
620.678	32382.57
621.034	32340.76
621.39	32407.2
621.746	32340.53
622.101	32790.47
622.457	32503.02
622.812	32585.95
623.168	32667.98
623.523	32607.65
623.879	32704.14
624.234	32509.79
624.589	32575.33
624.945	32632.5
625.3	32694.2
625.655	32615.1
626.01	32582.79
626.365	32594.31
626.72	32550.7
627.075	32571.26
627.43	32652.62
627.785	32474.09
628.14	32622.33
628.495	32569.68
628.85	32534.43
629.205	32455.56
629.559	32567.42
629.914	32338.27
630.269	32452.17
630.623	32325.62
630.978	32391.15
631.332	32468.21
631.687	32563.58
632.041	32307.99
632.396	32298.73
632.75	32242.68
633.104	32409.68
633.459	32215.34
633.813	32227.54
634.167	32099.18
634.521	31951.62
634.875	32133.31
635.229	31970.37
635.583	31986.87
635.937	31933.31
636.291	31831.85
636.645	31929.92
636.999	31807.67
637.352	31887.21
637.706	31747.1
638.06	31849.93
638.413	31810.83
638.767	31754.79
639.121	31697.16
639.474	31555.7
639.828	31636.82
640.181	31472.31
640.534	31480.9
640.888	31369.26
641.241	31255.14
641.594	31413.78
641.947	31462.36
642.301	31389.37
642.654	31294.91
643.007	31283.84
643.36	31122.94
643.713	31155.71
644.066	31261.92
644.419	31140.11
644.771	30971.08
645.124	30573.12
645.477	30618.77
645.83	30408.16
646.182	30217.2
646.535	30092.46
646.888	30247.93
647.24	30000.48
647.593	29996.64
647.945	30054.72
648.298	29842.29
648.65	29924.78
649.002	29794.84
649.355	29883.42
649.707	29935.63
650.059	30025.57
650.411	30345.56
650.763	30306.24
651.115	30720.46
651.467	30523.63
651.819	30425.33
652.171	30427.82
652.523	30443.41
652.875	30375.84
653.227	30223.75
653.578	30449.74
653.93	30357.08
654.282	30202.96
654.633	30159.57
654.985	30191.66
655.337	30165.22
655.688	30187.14
656.039	30346.46
656.391	29933.37
656.742	30085.68
657.094	30157.99
657.445	30163.87
657.796	30061.95
658.147	30030.31
658.498	29925.68
658.849	30063.31
659.2	29972.69
659.551	29934.5
659.902	30000.03
660.253	29977.88
660.604	30055.17
660.955	29853.59
661.306	29952.8
661.656	29914.61
662.007	29927.04
662.358	29922.52
662.708	29677.1
663.059	29813.82
663.409	29640.04
663.76	29878.9
664.11	29720.94
664.461	29781.28
664.811	29786.93
665.161	29667.16
665.511	29667.84
665.862	29708.51
666.212	29713.71
666.562	29722.75
666.912	29691.79
667.262	29732.01
667.612	29622.41
667.962	29636.65
668.312	29601.17
668.662	29729.98
669.011	29630.77
669.361	29696.54
669.711	29544.45
670.06	29539.7
670.41	29472.13
670.76	29501.96
671.109	29645.92
671.459	29462.64
671.808	29394.85
672.157	29506.94
672.507	29304.91
672.856	29370.22
673.205	29288.41
673.554	29632.58
673.904	29239.6
674.253	29390.33
674.602	29425.81
674.951	28811.81
675.3	28732.49
675.649	29361.63
675.998	29200.5
676.346	29271.69
676.695	29190.79
677.044	29000.96
677.393	29131.35
677.741	29054.52
678.09	29022.43
678.438	28964.35
678.787	29100.84
679.135	29054.29
679.484	28805.71
679.832	28826.73
680.181	28779.05
680.529	28862.89
680.877	28742.66
681.225	28751.48
681.573	28925.48
681.922	28629.22
682.27	28551.93
682.618	28645.04
682.966	28622.44
683.314	28699.5
683.661	28500.18
684.009	28301.32
684.357	28294.54
684.705	28320.98
685.053	28226.52
685.4	28212.96
685.748	27969.8
686.095	28039.86
686.443	27886.64
686.79	27897.03
687.138	27960.08
687.485	28005.05
687.832	27777.04
688.18	27989.24
688.527	27698.85
688.874	27695.23
689.221	27624.95
689.568	27565.07
689.915	27514.67
690.262	27401.68
690.609	27501.34
690.956	27264.74
691.303	27356.03
691.65	27189.26
691.997	27223.38
692.344	26974.12
692.69	27024.29
693.037	26963.27
693.383	26772.32
693.73	26890.28
694.077	26678.76
694.423	26623.62
694.769	26535.71
695.116	26556.28
695.462	26462.95
695.808	26325.55
696.155	26399.22
696.501	26257.98
696.847	26229.96
697.193	26092.56
697.539	26189.96
697.885	25928.95
698.231	25959.68
698.577	25770.76
698.923	25764.89
699.269	25706.36
699.614	25515.63
699.96	25562.86
700.306	25535.74
700.651	25454.61
700.997	25374.62
701.342	25400.38
701.688	25316.31
702.033	25222.98
702.379	25195.18
702.724	25144.79
703.069	25163.1
703.415	24867.28
703.76	24928.07
704.105	24872.03
704.45	24718.36
704.795	24689.89
705.14	24597.23
705.485	24550.91
705.83	24474.07
706.175	24587.74
706.52	24355.66
706.865	24394.75
707.209	24285.38
707.554	24244.02
707.899	24269.11
708.243	24108.43
708.588	24094.65
708.932	23961.32
709.277	23964.26
709.621	23989.34
709.966	23787.09
710.31	23835.22
710.654	23547.32
710.998	23710.48
711.342	23651.72
711.687	23585.51
712.031	23492.18
712.375	23367.66
712.719	23473.87
713.063	23376.93
713.407	23479.52
713.75	23246.54
714.094	23228.46
714.438	23138.29
714.782	23195.01
715.125	23049.48
715.469	23110.04
715.812	22956.15
716.156	22818.3
716.499	22875.02
716.843	22825.76
717.186	22626.89
717.53	22952.08
717.873	22812.42
718.216	22784.63
718.559	22593.22
718.902	22586.21
719.246	22623.5
719.589	22473.67
719.932	22408.37
720.275	22439.78
720.617	22402.72
720.96	22441.81
721.303	22372.43
721.646	22345.09
721.989	22151.42
722.331	22196.17
722.674	22058.32
723.016	22150.29
723.359	22031.43
723.701	22135.83
724.044	22009.96
724.386	21853.8
724.729	21984.42
725.071	21969.06
725.413	21956.85
725.755	21847.25
726.097	21737.87
726.439	21656.29
726.782	21672.57
727.124	21814.03
727.465	21576.3
727.807	21632.79
728.149	21471.67
728.491	21448.16
728.833	21509.63
729.175	21408.62
729.516	21420.82
729.858	21411.1
730.199	21513.02
730.541	21358.9
730.882	21373.82
731.224	21289.3
731.565	21225.57
731.906	21228.96
732.248	21230.77
732.589	21061.06
732.93	21074.84
733.271	21160.04
733.612	21064.67
733.953	21055.86
734.294	20948.97
734.635	20919.14
734.976	21004.33
735.317	20852.93
735.658	20893.83
735.999	20833.72
736.339	20677.79
736.68	20751.91
737.021	20688.18
737.361	20509.43
737.702	20775.64
738.042	20631.46
738.383	20534.06
738.723	20511.69
739.063	20587.62
739.404	20467.17
739.744	20452.26
740.084	20434.41
740.424	20473.28
740.764	20417.01
741.104	20429.43
741.444	20315.09
741.784	20219.72
742.124	20261.76
742.464	20218.37
742.804	20206.39
743.143	20071.93
743.483	20200.06
743.823	20074.87
744.162	20025.38
744.502	20052.95
744.841	19907.19
745.181	20029.67
745.52	19934.31
745.86	19990.8
746.199	19848.66
746.538	19853.63
746.877	19820.19
747.216	19854.31
747.556	19790.36
747.895	19722.33
748.234	19638.04
748.573	19570.25
748.911	19737.48
749.25	19614.31
749.589	19474.43
749.928	19562.56
750.267	19499.97
750.605	19421.1
750.944	19355.79
751.283	19199.18
751.621	19306.3
751.96	19196.25
752.298	19233.53
752.636	19184.04
752.975	19137.49
753.313	18925.75
753.651	19137.49
753.989	18977.04
754.327	19017.72
754.666	18850.04
755.004	18868.35
755.342	18912.86
755.679	18958.51
756.017	18706.54
756.355	18826.09
756.693	18645.75
757.031	18678.07
757.368	18666.32
757.706	18556.94
758.044	18460.22
758.381	18510.61
758.719	18439.66
759.056	18459.32
759.394	18346.78
759.731	18132.55
760.068	18187.46
760.405	18131.19
760.743	18134.81
761.08	18159.21
761.417	17937.75
761.754	17992.21
762.091	17908.82
762.428	17838.54
762.765	17737.08
763.102	17818.43
763.438	17709.51
763.775	17690.52
764.112	17669.73
764.449	17658.43
764.785	17543.86
765.122	17394.26
765.458	17388.16
765.795	17335.5
766.131	17249.63
766.467	17256.18
766.804	17190.42
767.14	17087.83
767.476	17006.93
767.812	16966.47
768.148	17017.55
768.485	16888.96
768.821	16944.33
769.157	16771.9
769.492	16824.11
769.828	16726.26
770.164	16529.65
770.5	16568.75
770.836	16503.44
771.171	16468.41
771.507	16378.02
771.842	16247.4
772.178	16387.28
772.513	16190.22
772.849	16162.88
773.184	16011.02
773.519	16033.17
773.855	15986.61
774.19	15958.14
774.525	15878.59
774.86	15877.01
775.195	15853.06
775.53	15782.1
775.865	15721.76
776.2	15561.31
776.535	15447.64
776.87	15474.31
777.205	15356.35
777.539	15221.44
777.874	15346.63
778.209	15233.19
778.543	15208.1
778.878	15084.04
779.212	15174.21
779.547	15056.69
779.881	15115.9
780.215	14880.65
780.55	14953.19
780.884	14884.95
781.218	14802.01
781.552	14900.09
781.886	14686.31
782.22	14616.93
782.554	14632.3
782.888	14529.7
783.222	14477.27
783.556	14369.71
783.889	14238.41
784.223	14309.6
784.557	14250.84
784.89	14288.81
785.224	14145.08
785.557	14099.88
785.891	14079.09
786.224	14033.67
786.558	14011.3
786.891	13787.8
787.224	13815.15
787.557	13809.27
787.891	13777.41
788.224	13655.38
788.557	13708.26
788.89	13664.64
789.223	13523.63
789.556	13561.59
789.888	13383.97
790.221	13443.18
790.554	13377.87
790.887	13421.26
791.219	13370.86
791.552	13339
791.884	13236.86
792.217	13113.24
792.549	13162.73
792.882	13066.01
793.214	13037.99
793.546	13044.54
793.879	12916.86
794.211	12875.96
794.543	12907.15
794.875	12798
795.207	12873.02
795.539	12764.78
795.871	12731.78
796.203	12651.79
796.535	12654.95
796.867	12591.67
797.198	12478.01
797.53	12546.7
797.862	12423.09
798.193	12440.72
798.525	12314.39
798.856	12351.45
799.188	12280.5
799.519	12161.63
799.85	12157.11
800.182	12189.2
800.513	12204.34
800.844	12045.7
801.175	12155.3
801.506	12042.08
801.837	12046.38
802.168	11960.96
802.499	11922.31
802.83	11853.84
803.161	11865.82
803.491	11788.53
803.822	11833.95
804.153	11680.74
804.483	11650.68
804.814	11629.89
805.145	11605.26
805.475	11635.32
805.805	11508.99
806.136	11561.19
806.466	11572.49
806.796	11535.21
807.126	11434.87
807.457	11413.17
807.787	11415.21
808.117	11338.83
808.447	11379.28
808.777	11370.24
809.107	11250.24
809.436	11223.35
809.766	11264.48
810.096	11185.38
810.426	11109.68
810.755	11107.65
811.085	11104.93
811.414	11134.09
811.744	11031.26
812.073	10927.54
812.403	10979.29
812.732	10907.43
813.061	10927.99
813.39	10795.11
813.719	10888.89
814.049	10920.98
814.378	10902.23
814.707	10823.13
815.036	10815
815.365	10691.16
815.693	10629.01
816.022	10630.6
816.351	10602.35
816.68	10526.87
817.008	10591.95
817.337	10490.94
817.665	10432.64
817.994	10480.77
818.322	10367.33
818.651	10380.43
818.979	10477.15
819.307	10486.42
819.636	10448.45
819.964	10322.13
820.292	10350.6
820.62	10355.8
820.948	10272.87
821.276	10333.2
821.604	10254.33
821.932	10297.5
822.259	10387.44
822.587	10319.87
822.915	10249.14
823.243	10244.84
823.57	10288.91
823.898	10224.96
824.225	10212.53
824.553	10226.99
824.88	10256.37
825.207	10318.06
825.535	10312.41
825.862	10310.6
826.189	10255.69
826.516	10346.76
826.843	10340.43
827.17	10286.88
827.497	10248.23
827.824	10234.45
828.151	10335.24
828.478	10270.38
828.805	10309.25
829.131	10263.15
829.458	10242.13
829.785	10271.06
830.111	10257.95
830.438	10252.3
830.764	10203.04
831.09	10168.24
831.417	10188.57
831.743	10286.42
832.069	10197.61
832.395	10211.62
832.722	10250.27
833.048	10246.65
833.374	10213.21
833.7	10129.59
834.026	10150.38
834.351	10119.65
834.677	10177.5
835.003	10124.39
835.329	10131.85
835.654	10149.48
835.98	10091.4
836.306	10071.97
836.631	10047.56
836.956	10020.89
837.282	10100.89
837.607	9992.42
837.932	9987.9
838.258	10015.02
838.583	9933.89
838.908	9892.99
839.233	9993.1
839.558	9872.42
839.883	9877.85
840.208	9844.18
840.533	9824.74
840.858	9901.8
841.182	9820.9
841.507	9886.43
841.832	9777.51
842.156	9738.42
842.481	9741.81
842.805	9716.95
843.13	9692.54
843.454	9631.3
843.778	9657.51
844.103	9643.73
844.427	9606.22
844.751	9595.37
845.075	9592.66
845.399	9557.86
845.723	9530.06
846.047	9560.12
846.371	9395.83
846.695	9483.28
847.019	9415.71
847.343	9315.38
847.666	9271.54
847.99	9217.53
848.313	9214.14
848.637	9159.9
848.96	9097.3
849.284	9106.57
849.607	9066.12
849.931	9073.35
850.254	9027.93
850.577	8975.95
850.9	8879.23
851.223	8920.58
851.546	8800.14
851.869	8853.02
852.192	8828.84
852.515	8690.99
852.838	8774.37
853.161	8730.31
853.483	8659.57
853.806	8615.28
854.129	8596.75
854.451	8598.79
854.774	8526.7
855.096	8536.19
855.419	8554.49
855.741	8464.55
856.063	8455.96
856.385	8447.38
856.708	8359.92
857.03	8334.39
857.352	8344.33
857.674	8355.4
857.996	8303.43
858.318	8277.66
858.64	8256.2
858.961	8220.49
859.283	8179.81
859.605	8202.64
859.926	8161.73
860.248	8150.89
860.57	8123.54
860.891	8131.45
861.212	8161.51
861.534	8144.33
861.855	8054.62
862.176	8079.02
862.498	8042.42
862.819	8028.18
863.14	7990.67
863.461	7981.4
863.782	7949.54
864.103	8042.42
864.424	7994.96
864.745	7956.54
865.065	7884.45
865.386	7919.26
865.707	7876.77
866.027	7894.85
866.348	7839.71
866.668	7808.52
866.989	7859.37
867.309	7765.36
867.63	7807.85
867.95	7780.28
868.27	7717.23
868.59	7773.5
868.91	7719.71
869.23	7785.93
869.55	7710
869.87	7742.08
870.19	7702.31
870.51	7683.1
870.83	7666.38
871.15	7610.11
871.469	7613.5
871.789	7684.68
872.109	7642.65
872.428	7599.72
872.748	7573.05
873.067	7579.15
873.386	7537.57
873.706	7574.63
874.025	7517.01
874.344	7498.48
874.663	7466.39
874.982	7544.35
875.301	7506.16
875.62	7459.38
875.939	7406.05
876.258	7500.06
876.577	7436.56
876.896	7489.89
877.214	7431.81
877.533	7399.95
877.852	7420.29
878.17	7418.25
878.489	7374.41
878.807	7388.2
879.125	7397.91
879.444	7294.64
879.762	7350
880.08	7333.06
880.398	7272.04
880.716	7267.97
881.034	7267.07
881.352	7241.76
881.67	7238.14
881.988	7272.04
882.306	7244.7
882.624	7165.83
882.941	7151.14
883.259	7191.59
883.577	7131.93
883.894	7155.89
884.212	7151.59
884.529	7122.67
884.846	7065.27
885.164	7086.96
885.481	7060.97
885.798	7105.94
886.115	7011.48
886.432	7023.01
886.75	7017.58
887.067	6976
887.383	6967.19
887.7	6941.2
888.017	7011.03
888.334	6954.53
888.651	6940.98
888.967	6908.43
889.284	6900.52
889.6	6902.56
889.917	6787.08
890.233	6858.94
890.55	6837.48
890.866	6770.81
891.182	6810.58
891.498	6786.63
891.815	6707.99
892.131	6706.86
892.447	6669.12
892.763	6658.5
893.079	6624.6
893.395	6586.18
893.71	6641.55
894.026	6590.48
894.342	6618.95
894.657	6527.88
894.973	6521.33
895.289	6498.5
895.604	6498.73
895.92	6460.08
896.235	6458.05
896.55	6415.79
896.865	6425.51
897.181	6416.24
897.496	6403.59
897.811	6389.13
898.126	6374.21
898.441	6284.5
898.756	6287.43
899.071	6270.48
899.386	6310.03
899.7	6265.51
900.015	6198.85
900.33	6223.48
900.644	6169.7
900.959	6161.56
901.273	6175.12
901.588	6098.29
901.902	6069.59
902.216	6063.48
902.531	6041.79
902.845	6033.65
903.159	5955.01
903.473	6024.62
903.787	5890.38
904.101	5906.2
904.415	5851.29
904.729	5918.86
905.042	5914.11
905.356	5883.15
905.67	5802.02
905.984	5786.88
906.297	5812.64
906.611	5716.83
906.924	5778.29
907.237	5710.5
907.551	5731.52
907.864	5704.62
908.177	5678.18
908.491	5666.43
908.804	5612.42
909.117	5604.51
909.43	5570.16
909.743	5570.39
910.056	5575.14
910.368	5489.71
910.681	5463.05
910.994	5500.56
911.307	5443.84
911.619	5446.78
911.932	5428.02
912.244	5378.3
912.557	5341.24
912.869	5299.21
913.181	5309.38
913.494	5275.26
913.806	5270.96
914.118	5263.73
914.43	5258.53
914.742	5208.59
915.054	5189.38
915.366	5192.32
915.678	5185.54
915.99	5129.5
916.302	5116.84
916.613	5137.63
916.925	5070.74
917.236	5075.71
917.548	4966.11
917.859	5011.08
918.171	5009.5
918.482	4978.09
918.794	4978.77
919.105	4984.42
919.416	4917.75
919.727	4889.05
920.038	4912.78
920.349	4817.64
920.66	4848.15
920.971	4810.86
921.282	4819.9
921.593	4811.77
921.903	4765.44
922.214	4783.07
922.525	4739.9
922.835	4756.85
923.146	4687.48
923.456	4671.2
923.767	4641.38
924.077	4607.48
924.387	4618.55
924.697	4571.32
925.008	4595.95
925.318	4532.68
925.628	4573.81
925.938	4568.83
926.248	4535.39
926.558	4491.1
926.867	4537.65
927.177	4394.83
927.487	4403.42
927.796	4363.19
928.106	4390.08
928.416	4389.4
928.725	4369.52
929.034	4342.85
929.344	4334.94
929.653	4312.8
929.962	4270.54
930.271	4254.49
930.581	4216.75
930.89	4229.18
931.199	4175.17
931.508	4149.64
931.817	4180.6
932.125	4199.8
932.434	4168.85
932.743	4110.77
933.051	4090.88
933.36	4054.72
933.669	4042.97
933.977	4070.99
934.286	4089.98
934.594	4079.58
934.902	4060.83
935.21	4026.7
935.519	4011.79
935.827	3973.6
936.135	3962.75
936.443	3889.98
936.751	3893.82
937.059	3909.19
937.367	3858.34
937.674	3899.93
937.982	3855.18
938.29	3852.02
938.597	3835.75
938.905	3807.72
939.213	3790.55
939.52	3758.46
939.827	3778.12
940.135	3713.26
940.442	3749.65
940.749	3728.4
941.056	3719.82
941.363	3680.04
941.67	3689.31
941.977	3651.12
942.284	3630.33
942.591	3594.17
942.898	3606.6
943.205	3590.33
943.511	3588.52
943.818	3520.27
944.125	3516.88
944.431	3526.15
944.738	3509.88
945.044	3515.53
945.35	3454.97
945.657	3490.67
945.963	3458.13
946.269	3409.32
946.575	3429.43
946.881	3411.12
947.187	3402.31
947.493	3423.78
947.799	3369.32
948.105	3353.27
948.41	3333.16
948.716	3322.09
949.022	3317.57
949.327	3324.12
949.633	3278.93
949.938	3288.87
950.244	3268.08
950.549	3222.66
950.854	3229.21
951.16	3226.27
951.465	3220.85
951.77	3190.11
952.075	3157.8
952.38	3212.03
952.685	3175.2
952.99	3152.15
953.294	3130.23
953.599	3116.9
953.904	3120.74
954.209	3088.2
954.513	3071.02
954.818	3088.65
955.122	3075.09
955.426	3083.22
955.731	3017.91
956.035	3067.18
956.339	3032.15
956.643	2999.16
956.948	3034.64
957.252	2978.82
957.556	2965.04
957.86	2954.87
958.163	2933.4
958.467	2935.88
958.771	2902.89
959.075	2918.71
959.378	2895.43
959.682	2879.84
959.985	2874.19
960.289	2829.45
960.592	2799.39
960.896	2823.12
961.199	2818.82
961.502	2848.43
961.805	2812.72
962.108	2767.07
962.411	2758.71
962.714	2742.44
963.017	2733.63
963.32	2748.32
963.623	2713.29
963.926	2749
964.228	2671.03
964.531	2682.78
964.833	2670.58
965.136	2696.34
965.438	2672.16
965.741	2634.87
966.043	2604.14
966.345	2643.69
966.648	2653.4
966.95	2620.19
967.252	2560.07
967.554	2601.2
967.856	2602.33
968.158	2566.63
968.46	2555.1
968.761	2552.16
969.063	2566.63
969.365	2522.33
969.666	2537.93
969.968	2480.53
970.269	2482.11
970.571	2490.92
970.872	2455.22
971.174	2430.59
971.475	2420.19
971.776	2422.22
972.077	2425.61
972.378	2418.16
972.679	2426.74
972.98	2396.46
973.281	2411.83
973.582	2394.43
973.883	2344.49
974.183	2371.38
974.484	2351.94
974.785	2334.32
975.085	2333.19
975.386	2351.72
975.686	2316.01
975.986	2331.61
976.287	2345.16
976.587	2285.5
976.887	2272.62
977.187	2293.87
977.487	2233.75
977.787	2241.44
978.087	2252.06
978.387	2235.11
978.687	2219.29
978.987	2225.85
979.286	2234.66
979.586	2217.26
979.885	2176.36
980.185	2172.51
980.484	2164.6
980.784	2162.57
981.083	2169.58
981.382	2172.51
981.682	2157.6
981.981	2102.01
982.28	2101.55
982.579	2102.01
982.878	2072.63
983.177	2097.04
983.475	2081.67
983.774	2066.3
984.073	2075.79
984.372	2045.29
984.67	2031.95
984.969	2032.63
985.267	2023.14
985.566	2002.8
985.864	2019.52
986.162	2004.83
986.461	1970.48
986.759	1993.54
987.057	1967.32
987.355	1919.86
987.653	1923.48
987.951	1891.84
988.249	1970.26
988.547	1896.81
988.844	1962.58
989.142	1884.84
989.44	1926.42
989.737	1900.2
990.035	1874.44
990.332	1879.41
990.63	1888
990.927	1840.77
991.224	1864.5
991.521	1820.88
991.819	1840.54
992.116	1840.32
992.413	1822.01
992.71	1800.09
993.006	1807.33
993.303	1804.61
993.6	1811.17
993.897	1799.87
994.193	1787.66
994.49	1782.24
994.787	1744.95
995.083	1768.68
995.379	1763.94
995.676	1711.28
995.972	1742.24
996.268	1712.64
996.565	1718.51
996.861	1710.38
997.157	1690.04
997.453	1689.81
997.749	1671.06
998.044	1661.79
998.34	1693.88
998.636	1664.96
998.932	1666.31
999.227	1641
999.523	1650.72
999.818	1614.34
1000.114	1645.52
1000.409	1617.95
1000.704	1608.46
1001	1589.25
1001.295	1580.89
1001.59	1610.95
1001.885	1566.43
1002.18	1559.65
1002.475	1551.06
1002.77	1537.5
1003.065	1551.29
1003.359	1543.83
1003.654	1506.99
1003.949	1502.7
1004.243	1524.17
1004.538	1509.93
1004.832	1497.05
1005.127	1464.28
1005.421	1517.84
1005.715	1483.04
1006.009	1483.72
1006.304	1460.44
1006.598	1471.29
1006.892	1452.98
1007.186	1429.26
1007.48	1452.98
1007.773	1418.86
1008.067	1416.83
1008.361	1407.34
1008.655	1389.03
1008.948	1381.12
1009.242	1412.53
1009.535	1374.79
1009.829	1394.91
1010.122	1366.66
1010.415	1367.56
1010.708	1359.43
1011.001	1346.32
1011.295	1323.72
1011.588	1333.67
1011.881	1323.72
1012.173	1314.91
1012.466	1312.65
1012.759	1297.28
1013.052	1320.33
1013.344	1285.53
1013.637	1299.99
1013.93	1307.45
1014.222	1294.8
1014.514	1251.41
1014.807	1251.63
1015.099	1241.69
1015.391	1243.95
1015.683	1251.41
1015.976	1212.09
1016.268	1205.76
1016.56	1195.36
1016.851	1194.23
1017.143	1217.51
1017.435	1186.1
1017.727	1205.53
1018.018	1188.81
1018.31	1169.38
1018.602	1159.66
1018.893	1170.05
1019.185	1138.87
1019.476	1156.72
1019.767	1159.88
1020.058	1159.43
1020.35	1132.54
1020.641	1132.99
1020.932	1100.9
1021.223	1101.81
1021.514	1098.19
1021.804	1086.44
1022.095	1081.02
1022.386	1081.47
1022.677	1061.13
1022.967	1055.03
1023.258	1051.19
1023.548	1068.14
1023.839	1046.22
1024.129	1068.14
1024.419	1038.53
1024.709	1015.71
1025	1015.93
1025.29	1030.85
1025.58	1042.6
1025.87	991.08
1026.16	1008.7
1026.449	993.34
1026.739	976.16
1027.029	961.25
1027.319	974.8
1027.608	975.93
1027.898	956.5
1028.187	936.61
1028.477	950.17
1028.766	946.11
1029.055	940.68
1029.344	940.46
1029.634	909.04
1029.923	893
1030.212	919.21
1030.501	911.08
1030.79	914.69
1031.078	893.9
1031.367	904.75
1031.656	904.52
1031.945	896.16
1032.233	884.19
1032.522	863.85
1032.81	887.35
1033.099	856.16
1033.387	863.85
1033.675	871.98
1033.963	855.94
1034.251	851.42
1034.54	843.28
1034.828	835.37
1035.116	851.19
1035.403	821.36
1035.691	811.65
1035.979	853
1036.267	813
1036.554	802.38
1036.842	783.17
1037.129	811.87
1037.417	805.09
1037.704	825.88
1037.992	783.62
1038.279	778.88
1038.566	764.19
1038.853	764.19
1039.14	764.19
