Data from breadboard_white_FLMS001491_00004.txt Node
Date: Wed Feb 08 10:47:09 GMT 2017
User: dcchb
Spectrometer: FLMS00149
Trigger mode: 0
Integration Time (sec): 2.000000E-2
Scans to average: 10
Electric dark correction enabled: true
Nonlinearity correction enabled: false
Boxcar width: 0
XAxis mode: Wavelengths
Number of Pixels in Spectrum: 2048
>>>>>Begin Spectral Data<<<<<
341.393	-9.35
341.776	-9.35
342.16	-9.35
342.543	-56.13
342.927	-59.74
343.31	-67.88
343.693	-69.46
344.077	-83.02
344.46	-41.67
344.843	-55
345.226	-29.91
345.61	-21.78
345.993	-40.08
346.376	-14.55
346.759	13.02
347.142	24.1
347.525	49.18
347.908	49.63
348.291	73.81
348.674	95.96
349.057	117.65
349.44	128.05
349.823	145.22
350.206	192.23
350.588	237.42
350.971	219.57
351.354	244.2
351.737	240.36
352.119	272
352.502	277.87
352.884	289.85
353.267	314.26
353.65	303.18
354.032	324.65
354.414	315.16
354.797	352.22
355.179	328.72
355.562	336.4
355.944	359.91
356.326	366.69
356.709	346.35
357.091	365.1
357.473	356.06
357.855	378.44
358.238	373.46
358.62	374.37
359.002	346.35
359.384	351.09
359.766	353.13
360.148	354.71
360.53	376.63
360.912	338.44
361.294	347.93
361.676	355.61
362.057	343.18
362.439	368.95
362.821	345.44
363.203	352
363.584	363.07
363.966	353.13
364.348	361.71
364.729	363.52
365.111	358.55
365.493	358.78
365.874	353.8
366.256	345.89
366.637	349.28
367.019	342.51
367.4	349.06
367.781	362.39
368.163	364.43
368.544	351.54
368.925	339.79
369.306	358.78
369.688	339.57
370.069	336.18
370.45	344.76
370.831	353.8
371.212	333.92
371.593	342.51
371.974	344.09
372.355	357.19
372.736	353.35
373.117	376.18
373.498	365.78
373.879	346.57
374.26	355.16
374.641	351.32
375.021	388.83
375.402	360.36
375.783	373.01
376.163	391.54
376.544	370.08
376.925	375.95
377.305	392.45
377.686	369.62
378.066	388.15
378.447	381.15
378.827	388.38
379.208	393.58
379.588	389.28
379.968	397.87
380.349	362.84
380.729	382.73
381.109	400.58
381.489	406.46
381.87	402.39
382.25	407.36
382.63	416.63
383.01	400.13
383.39	404.88
383.77	412.56
384.15	427.7
384.53	435.38
384.91	427.02
385.29	432.45
385.67	414.14
386.049	439.9
386.429	446.23
386.809	423.18
387.189	446.91
387.568	461.15
387.948	455.72
388.328	465.67
388.707	463.41
389.087	450.98
389.466	472.45
389.846	475.38
390.225	466.34
390.605	504.08
390.984	483.52
391.363	509.05
391.743	510.18
392.122	509.05
392.501	521.71
392.881	507.02
393.26	532.56
393.639	527.81
394.018	531.2
394.397	559.9
394.776	556.28
395.155	575.95
395.534	574.82
395.913	567.36
396.292	572.33
396.671	559.45
397.05	599
397.429	598.32
397.808	608.03
398.186	596.96
398.565	612.1
398.944	626.11
399.323	642.38
399.701	667.47
400.08	662.5
400.458	674.7
400.837	661.82
401.215	694.36
401.594	702.5
401.972	721.25
402.351	696.85
402.729	744.75
403.107	745.88
403.486	779.78
403.864	776.62
404.242	775.49
404.62	788.37
404.999	807.35
405.377	824.07
405.755	834.24
406.133	870.4
406.511	858.2
406.889	898.42
407.267	897.29
407.645	929.16
408.023	920.57
408.401	959.89
408.779	963.05
409.156	987.01
409.534	1010.51
409.912	1035.82
410.29	1055.25
410.667	1068.36
411.045	1094.12
411.422	1095.03
411.8	1115.82
412.178	1161.47
412.555	1164.63
412.933	1187
413.31	1220
413.687	1231.97
414.065	1252.31
414.442	1302.03
414.819	1299.77
415.197	1345.19
415.574	1363.04
415.951	1389.48
416.328	1392.2
416.705	1391.07
417.082	1430.16
417.46	1435.13
417.837	1471.74
418.214	1507.9
418.591	1487.56
418.967	1509.25
419.344	1551.74
419.721	1522.36
420.098	1550.83
420.475	1584.73
420.852	1618.18
421.228	1632.41
421.605	1654.56
421.982	1670.15
422.358	1687.1
422.735	1731.4
423.111	1730.72
423.488	1770.26
423.864	1784.95
424.241	1805.07
424.617	1860.88
424.994	1829.25
425.37	1863.14
425.746	1887.1
426.123	1921.67
426.499	1907.44
426.875	1967.55
427.251	1988.34
427.627	2027.66
428.003	2069.24
428.379	2098.17
428.756	2087.32
429.132	2147.43
429.507	2175.23
429.883	2221.33
430.259	2226.07
430.635	2292.51
431.011	2296.13
431.387	2351.27
431.763	2387.42
432.138	2375.9
432.514	2424.71
432.89	2438.72
433.265	2523.46
433.641	2537.25
434.016	2584.48
434.392	2606.85
434.767	2638.72
435.143	2669.9
435.518	2670.13
435.894	2724.14
436.269	2800.07
436.644	2778.37
437.02	2812.27
437.395	2833.97
437.77	2882.55
438.145	2926.84
438.52	2952.83
438.895	2975.2
439.271	2981.98
439.646	3063.11
440.021	3106.5
440.395	3115.31
440.77	3085.48
441.145	3135.65
441.52	3178.59
441.895	3173.84
442.27	3223.79
442.645	3266.72
443.019	3278.47
443.394	3289.09
443.769	3360.5
444.143	3314.86
444.518	3387.17
444.892	3403.22
445.267	3406.15
445.641	3427.4
446.016	3466.04
446.39	3486.83
446.764	3518.24
447.139	3527.73
447.513	3579.26
447.887	3549.88
448.262	3569.54
448.636	3607.73
449.01	3671.68
449.384	3712.36
449.758	3750.55
450.132	3730.89
450.506	3775.41
450.88	3822.87
451.254	3800.04
451.628	3905.35
452.002	3922.98
452.376	3969.98
452.75	3963.88
453.123	4031.9
453.497	4093.59
453.871	4111.67
454.244	4213.82
454.618	4266.92
454.992	4349.86
455.365	4310.76
455.739	4412.91
456.112	4450.19
456.486	4520.02
456.859	4580.36
457.232	4637.08
457.606	4642.73
457.979	4724.99
458.352	4797.3
458.725	4840.47
459.099	4895.38
459.472	4912.55
459.845	5019.44
460.218	5062.83
460.591	5122.72
460.964	5148.71
461.337	5269.16
461.71	5320.91
462.083	5466.21
462.456	5422.15
462.829	5500.79
463.201	5580.11
463.574	5596.6
463.947	5655.59
464.32	5800.21
464.692	5858.07
465.065	5900.33
465.438	5978.06
465.81	6094.22
466.183	6140.09
466.555	6228
466.928	6336.92
467.3	6313.65
467.672	6415.34
468.045	6555
468.417	6595.45
468.789	6671.15
469.161	6747.99
469.534	6863.92
469.906	7044.7
470.278	7046.96
470.65	7091.71
471.022	7286.73
471.394	7470.23
471.766	7465.71
472.138	7572.15
472.51	7745.47
472.882	7884.91
473.253	7958.58
473.625	8055.75
473.997	8235.18
474.369	8271.79
474.74	8387.27
475.112	8601.5
475.484	8689.18
475.855	8810.53
476.227	8909.06
476.598	9216.4
476.97	9249.62
477.341	9482.83
477.713	9525.31
478.084	9667.46
478.455	9929.15
478.827	10041.91
479.198	10292.98
479.569	10296.14
479.94	10560.99
480.311	10728.22
480.682	10958.05
481.053	11147.64
481.424	11382.44
481.795	11497.92
482.166	11707.4
482.537	11865.59
482.908	12057.9
483.279	12192.14
483.65	12405.01
484.021	12640.94
484.391	12842.52
484.762	12868.28
485.133	12997.99
485.503	13235.27
485.874	13469.39
486.244	13575.6
486.615	13981.02
486.985	14066.21
487.356	14340.1
487.726	14368.13
488.097	14704.61
488.467	14774.89
488.837	15035
489.207	15225.05
489.578	15467.98
489.948	15651.93
490.318	15792.95
490.688	15894.86
491.058	16221.18
491.428	16380.95
491.798	16572.13
492.168	16824.56
492.538	17019.81
492.908	17150.88
493.278	17411.21
493.648	17413.02
494.017	17662.5
494.387	17793.57
494.757	17973.45
495.126	18113.79
495.496	18250.28
495.866	18247.57
496.235	18590.16
496.605	18712.42
496.974	18849.59
497.344	18940.43
497.713	19156.47
498.082	19275.11
498.452	19514.88
498.821	19627.42
499.19	19603.47
499.559	19831.48
499.928	19931.59
500.298	20026.28
500.667	20262.89
501.036	20227.18
501.405	20521.64
501.774	20603.89
502.143	20796.43
502.512	20863.77
502.88	21021.06
503.249	21073.71
503.618	21377.88
503.987	21400.48
504.356	21515.96
504.724	21615.62
505.093	21828.27
505.462	21945.33
505.83	22036.85
506.199	22284.98
506.567	22541.92
506.936	22429.83
507.304	22747.34
507.672	22860.33
508.041	23006.09
508.409	23108.91
508.777	23360.2
509.145	23420.99
509.514	23529.92
509.882	23792.28
510.25	23809.01
510.618	24019.85
510.986	24028.89
511.354	24364.47
511.722	24493.73
512.09	24773.05
512.458	24796.1
512.826	24992.03
513.193	25111.12
513.561	25192.25
513.929	25458.91
514.297	25748.84
514.664	25880.59
515.032	25997.42
515.4	26229.06
515.767	26371.2
516.135	26486.68
516.502	26422.05
516.869	26941.35
517.237	27019.54
517.604	27009.37
517.972	27386.99
518.339	27570.72
518.706	27611.17
519.073	27785.85
519.44	27987.2
519.808	28326.4
520.175	28327.76
520.542	28610.01
520.909	28851.59
521.276	28765.03
521.643	29266.94
522.009	29501.29
522.376	29607.05
522.743	29811.79
523.11	29990.54
523.477	30362.96
523.843	30474.59
524.21	30941.47
524.577	31097.18
524.943	31226.66
525.31	31352.99
525.676	31517.73
526.043	31864.16
526.409	31981.9
526.776	32388.67
527.142	32362.91
527.508	32686.97
527.874	32912.04
528.241	33100.74
528.607	33218.25
528.973	33545.93
529.339	33559.71
529.705	33969.19
530.071	34153.59
530.437	34277.21
530.803	34472.23
531.169	34605.56
531.535	34662.96
531.901	34717.65
532.267	34934.36
532.632	35239.21
532.998	35302.26
533.364	35635.59
533.73	35526.66
534.095	35887.33
534.461	36054.56
534.826	36183.14
535.192	36384.5
535.557	36670.36
535.923	36546.07
536.288	36723.02
536.653	36750.59
537.019	36957.14
537.384	37130.69
537.749	37361.19
538.114	37415.88
538.479	37395.54
538.845	37578.36
539.21	37641.64
539.575	37758.47
539.94	37884.34
540.305	38190.1
540.67	38071
541.034	38280.04
541.399	38445.91
541.764	38598
542.129	38688.16
542.494	38748.95
542.858	38886.58
543.223	38966.35
543.587	39296.96
543.952	39130.41
544.316	39346.45
544.681	39332.67
545.045	39645.43
545.41	39839.09
545.774	39874.35
546.138	39821.92
546.503	40050.16
546.867	40216.71
547.231	40375.8
547.595	40386.88
547.959	40556.81
548.324	40628.45
548.688	40646.53
549.052	40938.5
549.416	40942.79
549.779	41161.09
550.143	41005.16
550.507	41501.65
550.871	41548.65
551.235	41592.04
551.599	41771.47
551.962	41872.26
552.326	41991.81
552.689	42355.64
553.053	42164.23
553.417	42390.44
553.78	42872.01
554.143	42759.47
554.507	42849.18
554.87	43062.74
555.234	43309.06
555.597	43084.21
555.96	43318.1
556.323	43469.28
556.686	43641.25
557.05	43898.42
557.413	43982.49
557.776	44165.53
558.139	44244.63
558.502	44559.2
558.865	44603.94
559.228	44884.61
559.59	44915.12
559.953	45075.57
560.316	45436.46
560.679	45456.35
561.041	45748.99
561.404	45909.44
561.767	46245.03
562.129	46046.84
562.492	46572.93
562.854	46388.53
563.217	46550.78
563.579	46634.85
563.941	46793.04
564.304	47212.69
564.666	47285.9
565.028	47364.77
565.39	47487.93
565.753	47766.57
566.115	47907.58
566.477	47966.79
566.839	48137.63
567.201	48416.04
567.563	48334.92
567.925	48715.02
568.287	48670.05
568.648	48779.2
569.01	49000.89
569.372	49192.29
569.734	49065.97
570.095	49405.4
570.457	49531.04
570.819	49647.42
571.18	49559.06
571.542	49727.2
571.903	49878.6
572.265	50035.21
572.626	50117.47
572.987	50119.05
573.349	50265.49
573.71	50392.26
574.071	50350.91
574.432	50639.04
574.794	50780.27
575.155	50680.84
575.516	50629.09
575.877	50836.09
576.238	50838.58
576.599	51007.61
576.96	50955.41
577.32	51046.26
577.681	51204.9
578.042	51274.27
578.403	51339.58
578.763	51307.94
579.124	51328.51
579.485	51373.71
579.845	51494.61
580.206	51439.47
580.566	51474.27
580.927	51525.11
581.287	51645.11
581.648	51435.17
582.008	51792.23
582.368	51508.17
582.728	51719.69
583.089	51666.13
583.449	51588.39
583.809	51665.45
584.169	51770.53
584.529	51681.72
584.889	51929.62
585.249	51641.04
585.609	51650.99
585.969	51847.59
586.329	51701.83
586.688	51761.49
587.048	51801.27
587.408	51691.66
587.768	51615.51
588.127	51755.84
588.487	51582.74
588.846	51866.12
589.206	51727.14
589.565	51697.99
589.925	51865.44
590.284	51712.68
590.643	51775.73
591.003	51747.93
591.362	51884.65
591.721	51747.03
592.08	51799.91
592.44	51896.4
592.799	51894.14
593.158	51827.71
593.517	51883.97
593.876	51873.81
594.235	51781.15
594.593	51833.58
594.952	51837.2
595.311	51863.41
595.67	51852.34
596.029	52024.31
596.387	52061.15
596.746	52040.58
597.104	51845.33
597.463	52002.84
597.822	52036.51
598.18	51909.28
598.538	51903.86
598.897	52142.5
599.255	51803.3
599.613	52344.3
599.972	52156.06
600.33	52283.51
600.688	51980.02
601.046	52199.67
601.404	52216.4
601.762	52208.49
602.12	52374.36
602.478	52286.9
602.836	52336.84
603.194	52229.73
603.552	52238.54
603.91	52170.07
604.268	52389.95
604.625	52262.95
604.983	52366.22
605.341	52318.31
605.698	52455.26
606.056	52430.63
606.413	52433.11
606.771	52530.96
607.128	52534.58
607.485	52458.65
607.843	52559.21
608.2	52638.98
608.557	52760.79
608.914	52578.42
609.272	52662.94
609.629	52858.19
609.986	52921.01
610.343	52751.75
610.7	52967.34
611.057	52983.15
611.414	52831.29
611.771	52898.19
612.127	52953.1
612.484	52930.27
612.841	53042.36
613.198	52922.82
613.554	53013.21
613.911	53154.68
614.267	53126.88
614.624	53076.03
614.98	53144.51
615.337	53302.47
615.693	53167.78
616.05	53182.02
616.406	53335.46
616.762	53284.84
617.118	53146.77
617.475	53264.5
617.831	53370.04
618.187	53384.27
618.543	53364.84
618.899	53569.13
619.255	53473.09
619.611	53422.47
619.967	53496.36
620.323	53513.76
620.678	53443.26
621.034	53392.18
621.39	53471.05
621.746	53366.2
622.101	53634.21
622.457	53318.97
622.812	53466.53
623.168	53548.79
623.523	53542.24
623.879	53601.44
624.234	53420.66
624.589	53538.62
624.945	53544.95
625.3	53511.95
625.655	53495.01
626.01	53459.3
626.365	53556.25
626.72	53473.31
627.075	53369.36
627.43	53517.6
627.785	53367.33
628.14	53533.2
628.495	53434.67
628.85	53397.83
629.205	53331.85
629.559	53379.3
629.914	53260.44
630.269	53351.73
630.623	53125.98
630.978	53144.05
631.332	53250.72
631.687	53316.48
632.041	53137.95
632.396	53238.06
632.75	53061.34
633.104	53071.74
633.459	52975.7
633.813	52977.51
634.167	52922.14
634.521	52893.21
634.875	52933.89
635.229	52800.79
635.583	52699.55
635.937	52655.25
636.291	52635.37
636.645	52685.99
636.999	52526.44
637.352	52642.15
637.706	52466.56
638.06	52522.15
638.413	52474.92
638.767	52456.39
639.121	52514.69
639.474	52244.42
639.828	52269.28
640.181	52256.85
640.534	52276.05
640.888	52176.62
641.241	52113.8
641.594	52111.09
641.947	52185.89
642.301	52036.51
642.654	52039.68
643.007	52061.37
643.36	51969.17
643.713	51908.61
644.066	51988.38
644.419	51728.95
644.771	51551.33
645.124	51212.81
645.477	51073.37
645.83	50895.3
646.182	50742.31
646.535	50658.02
646.888	50742.54
647.24	50616.21
647.593	50723.33
647.945	50671.58
648.298	50384.81
648.65	50515.88
649.002	50267.52
649.355	50468.87
649.707	50362.43
650.059	50546.61
650.411	50867.5
650.763	50853.72
651.115	51281.5
651.467	51033.38
651.819	51060.27
652.171	50951.8
652.523	50821.18
652.875	50903.66
653.227	50683.78
653.578	50958.12
653.93	50807.84
654.282	50715.64
654.633	50646.95
654.985	50681.29
655.337	50614.18
655.688	50754.51
656.039	50804.68
656.391	50419.61
656.742	50495.08
657.094	50509.55
657.445	50602.88
657.796	50434.75
658.147	50380.29
658.498	50350
658.849	50458.93
659.2	50340.51
659.551	50226.62
659.902	50409.44
660.253	50315.43
660.604	50254.87
660.955	50335.54
661.306	50377.12
661.656	50212.61
662.007	50214.64
662.358	50181.19
662.708	50104.59
663.059	50138.71
663.409	49838.38
663.76	50218.93
664.11	50105.72
664.461	50026.85
664.811	50112.72
665.161	49972.39
665.511	49867.53
665.862	49891.26
666.212	49960.18
666.562	49979.62
666.912	49900.3
667.262	49771.49
667.612	49789.79
667.962	49809.23
668.312	49779.4
668.662	49919.51
669.011	49709.34
669.361	49695.78
669.711	49794.31
670.06	49719.29
670.41	49665.28
670.76	49619.18
671.109	49760.87
671.459	49572.62
671.808	49555.9
672.157	49606.52
672.507	49301.9
672.856	49452.4
673.205	49492.85
673.554	49486.3
673.904	49427.54
674.253	49584.37
674.602	49441.1
674.951	48828.46
675.3	48589.15
675.649	49118.17
675.998	49261.44
676.346	49192.07
676.695	49252.18
677.044	48999.08
677.393	49151.84
677.741	49117.95
678.09	49039.98
678.438	48951.85
678.787	48821.91
679.135	48990.49
679.484	48606.77
679.832	48763.83
680.181	48643.38
680.529	48627.56
680.877	48550.96
681.225	48596.83
681.573	48709.82
681.922	48372.88
682.27	48308.02
682.618	48343.95
682.966	48215.37
683.314	48290.17
683.661	48234.35
684.009	48031.42
684.357	47854.02
684.705	47774.03
685.053	47813.57
685.4	47658.1
685.748	47605.9
686.095	47506.01
686.443	47401.38
686.79	47410.19
687.138	47523.64
687.485	47433.24
687.832	47328.16
688.18	47226.92
688.527	47140.6
688.874	47072.35
689.221	46892.92
689.568	46835.97
689.915	46768.18
690.262	46695.18
690.609	46451.58
690.956	46478.69
691.303	46228.76
691.65	46158.02
691.997	46182.88
692.344	45776.79
692.69	45868.31
693.037	45878.03
693.383	45578.6
693.73	45654.76
694.077	45365.28
694.423	45440.75
694.769	45166.41
695.116	45196.02
695.462	45057.71
695.808	44848.45
696.155	44836.7
696.501	44653.43
696.847	44868.11
697.193	44408.47
697.539	44518.29
697.885	44261.8
698.231	44053.45
698.577	44233.33
698.923	44012.54
699.269	43702.27
699.614	43527.36
699.96	43554.25
700.306	43650.52
700.651	43370.53
700.997	43256.18
701.342	43124.66
701.688	43114.26
702.033	42915.62
702.379	42834.5
702.724	42681.28
703.069	42928.5
703.415	42430.89
703.76	42308.63
704.105	42404.22
704.45	42271.8
704.795	41953.16
705.14	41953.84
705.485	41908.87
705.83	41697.8
706.175	41857.35
706.52	41644.02
706.865	41477.47
707.209	41476.56
707.554	41307.08
707.899	41411.71
708.243	41067.54
708.588	40923.58
708.932	40836.81
709.277	40743.48
709.621	40885.17
709.966	40496.7
710.31	40516.59
710.654	40264.62
710.998	40209.25
711.342	40264.17
711.687	40137.39
712.031	39945.31
712.375	39949.15
712.719	39729.04
713.063	39768.59
713.407	39806.1
713.75	39618.31
714.094	39643.84
714.438	39432.1
714.782	39459.22
715.125	39262.16
715.469	39280.69
715.812	39155.72
716.156	38812.91
716.499	38946.46
716.843	38838.89
717.186	38699.69
717.53	38842.28
717.873	38672.57
718.216	38735.39
718.559	38503.08
718.902	38288.17
719.246	38332.01
719.589	38275.74
719.932	38171.79
720.275	38119.59
720.617	38079.59
720.96	38072.13
721.303	37892.93
721.646	37797.11
721.989	37665.82
722.331	37767.74
722.674	37492.26
723.016	37612.26
723.359	37429.44
723.701	37495.2
724.044	37294.3
724.386	37074.87
724.729	37268.99
725.071	37093.18
725.413	37137.7
725.755	36958.27
726.097	36903.35
726.439	36707.2
726.782	36753.3
727.124	36805.95
727.465	36627.65
727.807	36568.22
728.149	36523.93
728.491	36454.55
728.833	36489.8
729.175	36343.14
729.516	36136.59
729.858	36142.02
730.199	36164.84
730.541	36021.12
730.882	36053.66
731.224	35978.63
731.565	35717.39
731.906	35731.86
732.248	35855.24
732.589	35786.77
732.93	35511.98
733.271	35601.24
733.612	35533.67
733.953	35591.3
734.294	35423.16
734.635	35363.51
734.976	35400.34
735.317	35165.09
735.658	35120.12
735.999	35165.32
736.339	35069.28
736.68	35121.03
737.021	35061.14
737.361	34825.21
737.702	35008.26
738.042	34751.09
738.383	34651.66
738.723	34863.41
739.063	34651.43
739.404	34627.93
739.744	34515.39
740.084	34362.85
740.424	34511.1
740.764	34406.47
741.104	34411.89
741.444	34112.46
741.784	34062.07
742.124	34145.46
742.464	33969.19
742.804	34138.45
743.143	33861.62
743.483	33888.06
743.823	33569.43
744.162	33697.33
744.502	33753.15
744.841	33447.4
745.181	33601.29
745.52	33422.09
745.86	33510.22
746.199	33397.46
746.538	33380.73
746.877	33445.36
747.216	33333.95
747.556	33143
747.895	33206.27
748.234	33004.02
748.573	32860.97
748.911	32812.39
749.25	32989.56
749.589	32755.21
749.928	32951.14
750.267	32815.1
750.605	32613.97
750.944	32504.37
751.283	32358.16
751.621	32447.88
751.96	32258.5
752.298	32204.94
752.636	32223.25
752.975	32034.33
753.313	31796.37
753.651	32121.33
753.989	31684.96
754.327	31731.51
754.666	31624.85
755.004	31666.2
755.342	31559.99
755.679	31470.5
756.017	31323.61
756.355	31380.33
756.693	31186.21
757.031	31224.18
757.368	31076.39
757.706	31015.82
758.044	30875.94
758.381	30941.02
758.719	30777.19
759.056	30740.8
759.394	30656.06
759.731	30494.25
760.068	30524.08
760.405	30303.98
760.743	30099.69
761.08	30305.11
761.417	30041.84
761.754	29983.76
762.091	29926.81
762.428	29748.74
762.765	29729.3
763.102	29671
763.438	29459.71
763.775	29332.48
764.112	29391.46
764.449	29392.81
764.785	29122.77
765.122	29015.88
765.458	28814.52
765.795	28847.07
766.131	28849.55
766.467	28603.68
766.804	28467.87
767.14	28492.95
767.476	28349.9
767.812	28281.88
768.148	28298.61
768.485	27989.69
768.821	27883.25
769.157	27843.25
769.492	27777.49
769.828	27683.71
770.164	27487.33
770.5	27468.35
770.836	27423.83
771.171	27177.28
771.507	27142.7
771.842	26967.12
772.178	26959.88
772.513	26733.9
772.849	26852.09
773.184	26690.96
773.519	26552.21
773.855	26578.65
774.19	26305.44
774.525	26203.29
774.86	26392.44
775.195	26195.84
775.53	25991.32
775.865	25862.51
776.2	25693.48
776.535	25596.98
776.87	25540.03
777.205	25459.58
777.539	25384.11
777.874	25465.23
778.209	25212.59
778.543	25122.64
778.878	25011.69
779.212	24932.14
779.547	24815.76
779.881	24782.09
780.215	24707.06
780.55	24662.54
780.884	24456.45
781.218	24407.18
781.552	24356.11
781.886	24255.77
782.22	24143.69
782.554	24004.71
782.888	23749.12
783.222	23768.78
783.556	23660.76
783.889	23672.06
784.223	23446.98
784.557	23451.5
784.89	23523.59
785.224	23290.6
785.557	23098.06
785.891	22987.33
786.224	23038.41
786.558	23062.36
786.891	22817.17
787.224	22752.54
787.557	22615.14
787.891	22605.65
788.224	22503.28
788.557	22464.86
788.89	22383.28
789.223	22390.51
789.556	22209.73
789.888	22099.22
790.221	22097.19
790.554	21905.78
790.887	21916.85
791.219	21814.93
791.552	21783.98
791.884	21653.36
792.217	21559.12
792.549	21521.84
792.882	21408.39
793.214	21310.54
793.546	21293.59
793.879	21215.4
794.211	21012.7
794.543	21073.71
794.875	20889.31
795.207	21007.95
795.539	20833.72
795.871	20864.9
796.203	20558.24
796.535	20507.85
796.867	20490.22
797.198	20371.81
797.53	20406.84
797.862	20263.34
798.193	20245.26
798.525	20228.54
798.856	20262.43
799.188	19989.67
799.519	19964.81
799.85	19757.81
800.182	19850.47
800.513	19772.28
800.844	19582
801.175	19666.52
801.506	19537.25
801.837	19463.81
802.168	19479.63
802.499	19396.47
802.83	19201.9
803.161	19257.94
803.491	19172.52
803.822	19204.61
804.153	19134.1
804.483	18942.24
804.814	18910.15
805.145	18878.74
805.475	18750.38
805.805	18868.12
806.136	18712.42
806.466	18761.46
806.796	18655.7
807.126	18557.17
807.457	18519.43
807.787	18424.06
808.117	18456.61
808.447	18313.78
808.777	18388.81
809.107	18283.73
809.436	18223.62
809.766	18110.63
810.096	18139.55
810.426	18120.12
810.755	18054.13
811.085	17972.1
811.414	17903.85
811.744	17779.79
812.073	17822.27
812.403	17838.32
812.732	17694.82
813.061	17624.54
813.39	17534.6
813.719	17546.57
814.049	17556.29
814.378	17433.58
814.707	17457.08
815.036	17345.9
815.365	17318.78
815.693	17090.77
816.022	17163.98
816.351	17070.2
816.68	16972.12
817.008	17001.95
817.337	16912.69
817.665	16892.35
817.994	16935.74
818.322	16820.72
818.651	16760.6
818.979	16753.15
819.307	16840.6
819.636	16734.62
819.964	16556.09
820.292	16668.86
820.62	16643.77
820.948	16540.72
821.276	16679.93
821.604	16476.32
821.932	16542.98
822.259	16628.63
822.587	16525.81
822.915	16407.62
823.243	16514.28
823.57	16491.91
823.898	16463.66
824.225	16384.57
824.553	16301.41
824.88	16384.12
825.207	16524.23
825.535	16374.63
825.862	16486.71
826.189	16393.38
826.516	16474.74
826.843	16463.21
827.17	16377.11
827.497	16495.53
827.824	16421.86
828.151	16388.41
828.478	16404.91
828.805	16449.65
829.131	16346.38
829.458	16378.69
829.785	16233.16
830.111	16337.11
830.438	16450.78
830.764	16347.28
831.09	16330.56
831.417	16214.86
831.743	16308.19
832.069	16251.92
832.395	16212.6
832.722	16248.3
833.048	16311.12
833.374	16279.71
833.7	16162.65
834.026	16100.06
834.351	16099.15
834.677	16040.4
835.003	16061.41
835.329	16074.75
835.654	16117.91
835.98	16044.24
836.306	16053.05
836.631	15964.47
836.956	16011.47
837.282	15969.66
837.607	15865.26
837.932	15852.15
838.258	15806.05
838.583	15843.34
838.908	15773.51
839.233	15797.69
839.558	15713.17
839.883	15627.53
840.208	15560.41
840.533	15605.83
840.858	15561.09
841.182	15615.1
841.507	15516.34
841.832	15514.54
842.156	15499.17
842.481	15387.76
842.805	15326.97
843.13	15352.05
843.454	15330.36
843.778	15199.06
844.103	15191.83
844.427	15171.49
844.751	15195
845.075	15105.05
845.399	15168.1
845.723	14934.66
846.047	14992.29
846.371	14795.91
846.695	14849.47
847.019	14722.47
847.343	14722.01
847.666	14558.18
847.99	14612.19
848.313	14534
848.637	14442.25
848.96	14394.79
849.284	14432.53
849.607	14183.05
849.931	14186.43
850.254	14123.84
850.577	14096.04
850.9	13964.07
851.223	13921.36
851.546	13967.91
851.869	13750.29
852.192	13936.95
852.515	13774.92
852.838	13649.95
853.161	13675.49
853.483	13632.55
853.806	13452.22
854.129	13461.93
854.451	13462.61
854.774	13347.81
855.096	13333.12
855.419	13265.78
855.741	13271.43
856.063	13180.36
856.385	13170.64
856.708	13034.15
857.03	13043.41
857.352	13103.98
857.674	13013.36
857.996	12929.07
858.318	12920.48
858.64	12959.57
858.961	12782.18
859.283	12942.85
859.605	12742.86
859.926	12810.65
860.248	12710.54
860.57	12667.83
860.891	12715.51
861.212	12542.41
861.534	12560.26
861.855	12487.5
862.176	12492.92
862.498	12499.47
862.819	12462.19
863.14	12368.63
863.461	12344.9
863.782	12365.92
864.103	12323.43
864.424	12299.7
864.745	12249.76
865.065	12250.67
865.386	12231.68
865.707	12231.23
866.027	12163.89
866.348	12091.35
866.668	12142.87
866.989	12049.99
867.309	11969.09
867.63	11979.49
867.95	12011.35
868.27	11936.1
868.59	11928.42
868.91	11927.29
869.23	11851.81
869.55	11881.18
869.87	11958.24
870.19	11842.99
870.51	11783.33
870.83	11770.68
871.15	11636.45
871.469	11759.83
871.789	11796.44
872.109	11689.78
872.428	11570.23
872.748	11598.03
873.067	11652.26
873.386	11639.84
873.706	11583.79
874.025	11513.96
874.344	11490.23
874.663	11516.45
874.982	11461.76
875.301	11458.82
875.62	11409.56
875.939	11370.69
876.258	11451.82
876.577	11309.45
876.896	11332.5
877.214	11230.81
877.533	11276
877.852	11276.23
878.17	11278.49
878.489	11239.62
878.807	11264.03
879.125	11245.5
879.444	11153.97
879.762	11176.34
880.08	11157.36
880.398	11022.68
880.716	11182.45
881.034	11037.59
881.352	11113.97
881.67	11043.47
881.988	11077.14
882.306	11015.22
882.624	10988.55
882.941	10877.82
883.259	10890.93
883.577	10956.46
883.894	10951.49
884.212	10791.27
884.529	10831.04
884.846	10813.19
885.164	10786.52
885.481	10718.73
885.798	10838.27
886.115	10672.4
886.432	10676.24
886.75	10570.71
887.067	10611.84
887.383	10592.63
887.7	10592.18
888.017	10540.88
888.334	10530.94
888.651	10597.15
888.967	10521.22
889.284	10450.26
889.6	10396.03
889.917	10318.06
890.233	10322.13
890.55	10262.47
890.866	10300.89
891.182	10233.77
891.498	10214.34
891.815	10107.45
892.131	10095.92
892.447	10097.28
892.763	10034.45
893.079	10021.35
893.395	9982.25
893.71	10010.27
894.026	9991.29
894.342	9944.29
894.657	9852.76
894.973	9824.06
895.289	9792.2
895.604	9910.39
895.92	9727.57
896.235	9713.56
896.55	9649.15
896.865	9644.86
897.181	9650.28
897.496	9592.88
897.811	9567.8
898.126	9519.66
898.441	9506.11
898.756	9434.02
899.071	9340.91
899.386	9403.74
899.7	9311.76
900.015	9337.75
900.33	9260.69
900.644	9167.58
900.959	9254.81
901.273	9138.43
901.588	9121.03
901.902	9117.64
902.216	9067.25
902.531	9014.37
902.845	8984.09
903.159	8937.31
903.473	8897.08
903.787	8937.76
904.101	8766.92
904.415	8833.13
904.729	8773.92
905.042	8706.8
905.356	8763.75
905.67	8691.89
905.984	8679.46
906.297	8659.57
906.611	8584.1
906.924	8556.3
907.237	8541.61
907.551	8489.41
907.864	8463.87
908.177	8406.47
908.491	8369.19
908.804	8361.28
909.117	8345.91
909.43	8284.67
909.743	8202.64
910.056	8290.32
910.368	8190.89
910.681	8155.18
910.994	8133.71
911.307	8055.75
911.619	7983.43
911.932	8069.99
912.244	8030.44
912.557	7945.02
912.869	7964.45
913.181	7871.35
913.494	7808.07
913.806	7794.06
914.118	7787.51
914.43	7743.89
914.742	7672.03
915.054	7721.07
915.366	7635.19
915.678	7554.29
915.99	7554.74
916.302	7431.36
916.613	7462.54
916.925	7458.48
917.236	7450.11
917.548	7384.81
917.859	7340.29
918.171	7314.75
918.482	7323.34
918.794	7296.22
919.105	7209.9
919.416	7158.82
919.727	7129.22
920.038	7143.91
920.349	7086.06
920.66	7034.53
920.971	7037.92
921.282	6982.1
921.593	6971.71
921.903	6947.76
922.214	6898.72
922.525	6892.84
922.835	6769.68
923.146	6787.31
923.456	6785.05
923.767	6746.18
924.077	6710.7
924.387	6692.39
924.697	6715.22
925.008	6630.25
925.318	6622.79
925.628	6591.83
925.938	6519.29
926.248	6479.52
926.558	6449.46
926.867	6413.08
927.177	6375.57
927.487	6355.45
927.796	6396.58
928.106	6331.73
928.416	6336.25
928.725	6312.52
929.034	6275.46
929.344	6272.29
929.653	6177.61
929.962	6129.92
930.271	6110.04
930.581	6169.47
930.89	6063.03
931.199	6033.88
931.508	6057.16
931.817	6042.92
932.125	5995.92
932.434	6000.44
932.743	5927.44
933.051	5905.07
933.36	5856.26
933.669	5853.09
933.977	5825.98
934.286	5806.99
934.594	5783.27
934.902	5671.86
935.21	5708.69
935.519	5731.06
935.827	5678.41
936.135	5643.61
936.443	5649.03
936.751	5562.48
937.059	5583.72
937.367	5540.79
937.674	5562.93
937.982	5535.59
938.29	5483.61
938.597	5478.64
938.905	5400.68
939.213	5434.8
939.52	5442.03
939.827	5416.04
940.135	5368.59
940.442	5308.25
940.749	5320.23
941.056	5290.4
941.363	5254.01
941.67	5255.6
941.977	5194.81
942.284	5205.65
942.591	5168.14
942.898	5160.23
943.205	5140.12
943.511	5074.58
943.818	5088.14
944.125	4986
944.431	5054.02
944.738	5046.11
945.044	4976.96
945.35	4938.09
945.657	4937.64
945.963	4921.59
946.269	4856.96
946.575	4914.81
946.881	4870.3
947.187	4831.65
947.493	4847.02
947.799	4738.55
948.105	4762.5
948.41	4749.85
948.716	4744.65
949.022	4729.51
949.327	4698.1
949.633	4633.01
949.938	4649.06
950.244	4670.75
950.549	4589.63
950.854	4581.72
951.16	4612.68
951.465	4511.21
951.77	4508.95
952.075	4469.85
952.38	4516.18
952.685	4469.4
952.99	4424.66
953.294	4434.6
953.599	4375.39
953.904	4324.1
954.209	4343.08
954.513	4369.07
954.818	4328.16
955.122	4288.84
955.426	4309.86
955.731	4260.82
956.035	4204.1
956.339	4224.66
956.643	4244.55
956.948	4163.87
957.252	4140.6
957.556	4139.69
957.86	4117.77
958.163	4094.27
958.467	4103.08
958.771	4092.24
959.075	4088.62
959.378	4031.45
959.682	4005.01
959.985	3993.48
960.289	3980.6
960.592	3986.7
960.896	3901.28
961.199	3910.55
961.502	3947.61
961.805	3908.29
962.108	3836.88
962.411	3826.48
962.714	3847.5
963.017	3801.85
963.32	3792.13
963.623	3769.99
963.926	3774.96
964.228	3757.78
964.531	3729.76
964.833	3680.27
965.136	3624.9
965.438	3663.1
965.741	3686.15
966.043	3621.51
966.345	3632.14
966.648	3626.49
966.95	3639.59
967.252	3568.18
967.554	3548.07
967.856	3534.96
968.158	3537.45
968.46	3532.48
968.761	3481.18
969.063	3493.38
969.365	3478.24
969.666	3452.03
969.968	3413.38
970.269	3405.48
970.571	3454.29
970.872	3408.87
971.174	3370.45
971.475	3353.5
971.776	3378.13
972.077	3339.04
972.378	3345.59
972.679	3273.95
972.98	3304.24
973.281	3280.05
973.582	3300.39
973.883	3245.48
974.183	3254.97
974.484	3210.23
974.785	3195.99
975.085	3165.03
975.386	3219.94
975.686	3135.2
975.986	3159.38
976.287	3162.32
976.587	3112.38
976.887	3146.27
977.187	3118.25
977.487	3081.19
977.787	3051.59
978.087	3017.91
978.387	3084.35
978.687	3019.95
978.987	3015.43
979.286	3030.8
979.586	3021.53
979.885	2991.7
980.185	2925.94
980.484	2946.05
980.784	2919.61
981.083	2927.75
981.382	2873.06
981.682	2899.05
981.981	2876.68
982.28	2868.09
982.579	2863.12
982.878	2847.3
983.177	2788.99
983.475	2767.53
983.774	2779.5
984.073	2776.57
984.372	2771.37
984.67	2798.71
984.969	2724.59
985.267	2741.31
985.566	2756
985.864	2738.83
986.162	2734.31
986.461	2681.88
986.759	2640.98
987.057	2673.52
987.355	2624.48
987.653	2587.19
987.951	2631.71
988.249	2617.7
988.547	2597.59
988.844	2552.84
989.142	2575.67
989.44	2551.03
989.737	2537.93
990.035	2541.77
990.332	2557.36
990.63	2523.24
990.927	2472.62
991.224	2468.55
991.521	2467.42
991.819	2450.47
992.116	2498.83
992.413	2424.26
992.71	2412.51
993.006	2394.65
993.303	2404.37
993.6	2385.39
993.897	2369.34
994.193	2380.64
994.49	2366.86
994.787	2346.75
995.083	2358.5
995.379	2328.89
995.676	2317.37
995.972	2297.93
996.268	2269.91
996.565	2237.82
996.861	2285.28
997.157	2246.64
997.453	2267.2
997.749	2247.99
998.044	2217.26
998.34	2225.17
998.636	2199.86
998.932	2156.24
999.227	2159.63
999.523	2161.21
999.818	2111.72
1000.114	2108.56
1000.409	2096.36
1000.704	2103.81
1001	2081.89
1001.295	2051.16
1001.59	2065.62
1001.885	2062.91
1002.18	2049.35
1002.475	2045.74
1002.77	2047.32
1003.065	2007.77
1003.359	2014.1
1003.654	1989.47
1003.949	1955.8
1004.243	1978.62
1004.538	1957.15
1004.832	1954.44
1005.127	1929.81
1005.421	1928.68
1005.715	1907.89
1006.009	1912.18
1006.304	1913.09
1006.598	1888
1006.892	1903.14
1007.186	1876.93
1007.48	1849.13
1007.773	1879.41
1008.067	1834.9
1008.361	1814.78
1008.655	1825.63
1008.948	1792.64
1009.242	1824.5
1009.535	1787.21
1009.829	1775.46
1010.122	1760.09
1010.415	1761
1010.708	1783.82
1011.001	1744.95
1011.295	1700.44
1011.588	1682.36
1011.881	1703.15
1012.173	1683.71
1012.466	1666.54
1012.759	1687.1
1013.052	1677.84
1013.344	1662.92
1013.637	1630.83
1013.93	1612.75
1014.222	1619.31
1014.514	1613.66
1014.807	1631.28
1015.099	1606.88
1015.391	1630.61
1015.683	1583.15
1015.976	1574.34
1016.268	1550.83
1016.56	1538.86
1016.851	1509.71
1017.143	1531.63
1017.435	1507.22
1017.727	1519.65
1018.018	1490.5
1018.31	1480.1
1018.602	1482.59
1018.893	1450.05
1019.185	1480.55
1019.476	1448.24
1019.767	1466.77
1020.058	1407.79
1020.35	1419.31
1020.641	1421.8
1020.932	1382.25
1021.223	1389.03
1021.514	1381.57
1021.804	1371.18
1022.095	1348.13
1022.386	1356.49
1022.677	1344.96
1022.967	1339.77
1023.258	1288.24
1023.548	1339.09
1023.839	1318.98
1024.129	1297.28
1024.419	1294.57
1024.709	1280.56
1025	1293.21
1025.29	1249.15
1025.58	1299.09
1025.87	1234.91
1026.16	1258.87
1026.449	1257.06
1026.739	1259.32
1027.029	1196.27
1027.319	1191.3
1027.608	1197.85
1027.898	1210.05
1028.187	1202.14
1028.477	1185.42
1028.766	1161.92
1029.055	1166.21
1029.344	1158.3
1029.634	1130.96
1029.923	1152.2
1030.212	1134.12
1030.501	1114.24
1030.79	1136.61
1031.078	1094.8
1031.367	1092.54
1031.656	1106.78
1031.945	1064.52
1032.233	1077.63
1032.522	1087.8
1032.81	1042.83
1033.099	1068.14
1033.387	1056.16
1033.675	1038.08
1033.963	1031.53
1034.251	1036.72
1034.54	1037.4
1034.828	1014.13
1035.116	1032.66
1035.403	985.65
1035.691	998.53
1035.979	982.04
1036.267	1006.22
1036.554	955.37
1036.842	975.03
1037.129	967.12
1037.417	954.69
1037.704	958.76
1037.992	949.27
1038.279	927.57
1038.566	948.36
1038.853	948.36
1039.14	948.36
