Data from breadboard_white_FLMS001491_00085.txt Node
Date: Wed Feb 08 10:48:23 GMT 2017
User: dcchb
Spectrometer: FLMS00149
Trigger mode: 0
Integration Time (sec): 2.000000E-2
Scans to average: 10
Electric dark correction enabled: true
Nonlinearity correction enabled: false
Boxcar width: 0
XAxis mode: Wavelengths
Number of Pixels in Spectrum: 2048
>>>>>Begin Spectral Data<<<<<
341.393	-9.69
341.776	-9.69
342.16	-9.69
342.543	-69.57
342.927	-69.35
343.31	-65.05
343.693	-71.61
344.077	-51.5
344.46	-60.08
344.843	-46.75
345.226	-38.61
345.61	-38.84
345.993	-18.5
346.376	10.42
346.759	-3.59
347.142	35.51
347.525	37.54
347.908	56.98
348.291	71.44
348.674	77.54
349.057	105.11
349.44	136.97
349.823	144.88
350.206	166.13
350.588	216.97
350.971	217.65
351.354	240.7
351.737	266.46
352.119	266.46
352.502	266.46
352.884	284.31
353.267	288.38
353.65	307.59
354.032	311.43
354.414	309.85
354.797	334.71
355.179	322.73
355.562	337.87
355.944	352.56
356.326	331.77
356.709	337.87
357.091	352.79
357.473	379.91
357.855	352.11
358.238	373.35
358.62	365.22
359.002	359.79
359.384	367.93
359.766	357.98
360.148	360.02
360.53	337.65
360.912	351.66
361.294	347.82
361.676	371.77
362.057	352.56
362.439	365.22
362.821	350.53
363.203	356.18
363.584	356.18
363.966	361.6
364.348	340.58
364.729	339.91
365.111	348.49
365.493	344.65
365.874	360.47
366.256	350.08
366.637	350.98
367.019	328.38
367.4	344.88
367.781	370.19
368.163	345.78
368.544	346.91
368.925	369.28
369.306	347.59
369.688	344.43
370.069	364.99
370.45	371.09
370.831	347.82
371.212	380.13
371.593	357.08
371.974	368.83
372.355	350.53
372.736	361.37
373.117	353.01
373.498	359.79
373.879	355.73
374.26	350.08
374.641	351.88
375.021	361.15
375.402	380.58
375.783	387.14
376.163	388.49
376.544	370.87
376.925	380.81
377.305	382.39
377.686	389.62
378.066	369.06
378.447	401.15
378.827	387.36
379.208	414.71
379.588	404.76
379.968	397.76
380.349	396.18
380.729	369.96
381.109	412.45
381.489	398.21
381.87	393.46
382.25	416.51
382.63	403.86
383.01	427.36
383.39	421.26
383.77	422.39
384.15	433.92
384.53	413.8
384.91	453.58
385.29	428.94
385.67	452.22
386.049	442.28
386.429	430.3
386.809	433.24
387.189	428.04
387.568	448.83
387.948	466.91
388.328	457.87
388.707	467.81
389.087	448.38
389.466	461.26
389.846	478.89
390.225	473.69
390.605	480.92
390.984	501.48
391.363	489.96
391.743	503.29
392.122	508.94
392.501	514.14
392.881	510.07
393.26	533.8
393.639	531.54
394.018	517.53
394.397	535.61
394.776	539.22
395.155	573.12
395.534	547.58
395.913	563.63
396.292	559.34
396.671	581.71
397.05	589.39
397.429	601.14
397.808	598.2
398.186	601.37
398.565	611.99
398.944	615.83
399.323	627.81
399.701	646.79
400.08	654.25
400.458	639.79
400.837	659.22
401.215	687.92
401.594	682.95
401.972	668.71
402.351	697.19
402.729	712.33
403.107	704.64
403.486	741.7
403.864	764.08
404.242	776.96
404.62	763.62
404.999	763.17
405.377	806.33
405.755	797.07
406.133	808.82
406.511	844.53
406.889	850.63
407.267	881.36
407.645	862.6
408.023	885.88
408.401	906.67
408.779	912.77
409.156	955.26
409.534	926.78
409.912	986.89
410.29	993.9
410.667	995.93
411.045	1014.24
411.422	1040.68
411.8	1058.76
412.178	1055.59
412.555	1097.4
412.933	1127
413.31	1140.79
413.687	1136.72
414.065	1171.52
414.442	1198.19
414.819	1241.8
415.197	1212.88
415.574	1264.85
415.951	1282.71
416.328	1273.67
416.705	1305.76
417.082	1314.8
417.46	1322.71
417.837	1355.25
418.214	1363.61
418.591	1372.87
418.967	1401.57
419.344	1444.74
419.721	1425.3
420.098	1439.99
420.475	1464.17
420.852	1480.44
421.228	1495.58
421.605	1531.97
421.982	1558.86
422.358	1570.38
422.735	1593.21
423.111	1602.02
423.488	1640.89
423.864	1640.89
424.241	1621.45
424.617	1654.9
424.994	1670.72
425.37	1716.59
425.746	1706.88
426.123	1737.61
426.499	1764.95
426.875	1801.11
427.251	1826.19
427.627	1856.48
428.003	1825.07
428.379	1895.12
428.756	1892.41
429.132	1955.68
429.507	1973.76
429.883	2040.2
430.259	2067.09
430.635	2025.51
431.011	2102.35
431.387	2145.28
431.763	2182.57
432.138	2146.64
432.514	2216.92
432.89	2216.47
433.265	2277.03
433.641	2333.75
434.016	2338.05
434.392	2385.95
434.767	2428.44
435.143	2402.45
435.518	2447.87
435.894	2440.42
436.269	2496.23
436.644	2526.74
437.02	2573.75
437.395	2582.56
437.77	2655.78
438.145	2651.26
438.52	2674.08
438.895	2692.16
439.271	2707.98
439.646	2807.19
440.021	2814.64
440.395	2829.78
440.77	2800.18
441.145	2850.57
441.52	2923.57
441.895	2918.6
442.27	2932.83
442.645	2915.21
443.019	3017.12
443.394	2976.9
443.769	3032.26
444.143	3020.29
444.518	3114.3
444.892	3089.89
445.267	3093.73
445.641	3142.09
446.016	3139.15
446.39	3151.36
446.764	3206.05
447.139	3181.64
447.513	3237.23
447.887	3265.71
448.262	3311.58
448.636	3323.56
449.01	3341.18
449.384	3429.77
449.758	3427.96
450.132	3476.55
450.506	3463.44
450.88	3497.56
451.254	3498.69
451.628	3579.37
452.002	3581.4
452.376	3631.12
452.75	3683.55
453.123	3674.73
453.497	3753.83
453.871	3768.29
454.244	3888.74
454.618	3902.52
454.992	3937.78
455.365	3958.34
455.739	4089.86
456.112	4102.52
456.486	4072.01
456.859	4155.4
457.232	4236.3
457.606	4276.3
457.979	4339.35
458.352	4396.07
458.725	4457.09
459.099	4474.49
459.472	4558.1
459.845	4628.83
460.218	4669.96
460.591	4687.36
460.964	4727.36
461.337	4844.42
461.71	4891.43
462.083	4992.21
462.456	4994.93
462.829	5015.49
463.201	5096.84
463.574	5135.26
463.947	5209.61
464.32	5333
464.692	5375.93
465.065	5452.54
465.438	5501.8
465.81	5617.06
466.183	5632.87
466.555	5801.68
466.928	5807.79
467.3	5821.34
467.672	5918.29
468.045	6075.8
468.417	6103.6
468.789	6121.45
469.161	6195.12
469.534	6314.44
469.906	6434.89
470.278	6490.25
470.65	6596.01
471.022	6706.52
471.394	6789.68
471.766	6894.08
472.138	6936.12
472.51	7113.29
472.882	7238.93
473.253	7271.93
473.625	7416.1
473.997	7615.42
474.369	7676.21
474.74	7737.45
475.112	7872.36
475.484	7984.45
475.855	8140.38
476.227	8283.2
476.598	8474.16
476.97	8569.97
477.341	8731.55
477.713	8910.3
478.084	8887.7
478.455	9148.26
478.827	9230.07
479.198	9511.19
479.569	9536.27
479.94	9830.5
480.311	9900.78
480.682	10088.8
481.053	10327.89
481.424	10463.03
481.795	10555.23
482.166	10740.54
482.537	10856.92
482.908	11087.19
483.279	11279.96
483.65	11472.27
484.021	11672.72
484.391	11824.35
484.762	11913.16
485.133	12089.43
485.503	12153.38
485.874	12506.37
486.244	12653.71
486.615	12880.14
486.985	12959.01
487.356	13310.19
487.726	13441.71
488.097	13626.56
488.467	13645.77
488.837	14039.21
489.207	14234.91
489.578	14311.52
489.948	14527.56
490.318	14672.64
490.688	14810.26
491.058	15044.15
491.428	15173.19
491.798	15384.71
492.168	15641.42
492.538	15772.04
492.908	15951.47
493.278	16101.75
493.648	16092.71
494.017	16457.67
494.387	16534.51
494.757	16794.16
495.126	16981.95
495.496	17003.2
495.866	17082.74
496.235	17336.52
496.605	17323.19
496.974	17512.79
497.344	17761.37
497.713	17871.65
498.082	18002.94
498.452	18203.62
498.821	18300.79
499.19	18344.4
499.559	18505.08
499.928	18633.66
500.298	18802.47
500.667	18979.42
501.036	18945.52
501.405	19151.84
501.774	19314.55
502.143	19447.2
502.512	19558.61
502.88	19761.77
503.249	19701.21
503.618	19898.71
503.987	20067.98
504.356	20136.67
504.724	20377.8
505.093	20403.79
505.462	20518.81
505.83	20671.8
506.199	20885.13
506.567	21182.52
506.936	21051.9
507.304	21474.94
507.672	21438.11
508.041	21553.13
508.409	21810.3
508.777	21924.2
509.145	22142.72
509.514	22130.07
509.882	22419.55
510.25	22474.92
510.618	22673.33
510.986	22744.97
511.354	23005.07
511.722	23177.5
512.09	23390.37
512.458	23391.73
512.826	23595.79
513.193	23701.1
513.561	23870.36
513.929	24084.59
514.297	24177.47
514.664	24398.71
515.032	24651.13
515.4	24908.3
515.767	24963.21
516.135	25140.61
516.502	25077.33
516.869	25525.91
517.237	25583.31
517.604	25519.58
517.972	25967.26
518.339	26139.45
518.706	26155.72
519.073	26390.29
519.44	26550.74
519.808	26837.51
520.175	26818.76
520.542	27326.09
520.909	27373.09
521.276	27302.14
521.643	27721.33
522.009	27938.05
522.376	28121.32
522.743	28268.21
523.11	28660.74
523.477	28927.18
523.843	28999.04
524.21	29366.49
524.577	29624.11
524.943	29815.29
525.31	29870.66
525.676	30215.5
526.043	30453.69
526.409	30522.84
526.776	30810.74
527.142	31048.7
527.508	31091.64
527.874	31411.86
528.241	31655.24
528.607	31724.62
528.973	32068.34
529.339	32173.42
529.705	32398.95
530.071	32704.71
530.437	32735.21
530.803	32998.03
531.169	33279.61
531.535	33094.75
531.901	33370.9
532.267	33514.4
532.632	33744.23
532.998	33842.3
533.364	34038.68
533.73	34069.87
534.095	34531.78
534.461	34574.03
534.826	34867.36
535.192	34912.78
535.557	35119.33
535.923	35212.66
536.288	35280
536.653	35516.61
537.019	35530.17
537.384	35677.06
537.749	35891.06
538.114	35979.65
538.479	36186.2
538.845	36228.45
539.21	36267.55
539.575	36385.74
539.94	36526.53
540.305	36776.24
540.67	36659.4
541.034	37010.13
541.399	37114.98
541.764	37219.16
542.129	37270.69
542.494	37510.23
542.858	37582.99
543.223	37744.12
543.587	37940.05
543.952	37840.39
544.316	38190.89
544.681	38145.92
545.045	38214.84
545.41	38514.95
545.774	38589.97
546.138	38638.79
546.503	38738.67
546.867	38819.57
547.231	38996.97
547.595	39131.43
547.959	39239.9
548.324	39421.59
548.688	39429.27
549.052	39667.23
549.416	39841.92
549.779	39809.83
550.143	39921.01
550.507	40309.25
550.871	40365.07
551.235	40469.25
551.599	40629.02
551.962	40827.2
552.326	40913.53
552.689	41150.81
553.053	41094.31
553.417	41119.85
553.78	41638.03
554.143	41607.52
554.507	41728.2
554.87	41992.14
555.234	42236.43
555.597	42073.05
555.96	42141.75
556.323	42598.91
556.686	42500.61
557.05	42902.18
557.413	42858.56
557.776	43179.91
558.139	43324.76
558.502	43246.8
558.865	43478.43
559.228	43755.71
559.59	43867.12
559.953	44071.41
560.316	44504.17
560.679	44438.41
561.041	44735.58
561.404	44787.33
561.767	45075
562.129	44939.19
562.492	45514.76
562.854	45450.81
563.217	45525.84
563.579	45693.74
563.941	46019.16
564.304	46019.61
564.666	46390.67
565.028	46479.48
565.39	46642.19
565.753	46944.78
566.115	46965.57
566.477	47158.11
566.839	47268.16
567.201	47578.21
567.563	47587.25
567.925	47786.34
568.287	47846
568.648	47843.29
569.01	48093.9
569.372	48375.03
569.734	48306.78
570.095	48624.06
570.457	48704.51
570.819	48770.5
571.18	48823.15
571.542	49085.29
571.903	49132.52
572.265	49227.89
572.626	49356.92
572.987	49413.64
573.349	49457.48
573.71	49634.88
574.071	49757.14
574.432	49860.64
574.794	50095.21
575.155	50028.32
575.516	49916.23
575.877	50236.22
576.238	50271.02
576.599	50424.69
576.96	50336.11
577.32	50405.71
577.681	50521.41
578.042	50639.15
578.403	50650.45
578.763	50688.86
579.124	50708.53
579.485	50840.5
579.845	50935.19
580.206	50931.34
580.566	50902.19
580.927	50937.9
581.287	51025.13
581.648	51001.17
582.008	51211.34
582.368	51033.26
582.728	51168.17
583.089	51076.2
583.449	51134.5
583.809	51092.92
584.169	51181.96
584.529	51095.18
584.889	51374.95
585.249	51128.18
585.609	51082.07
585.969	51381.5
586.329	51124.33
586.688	51302.86
587.048	51232.35
587.408	51134.28
587.768	51264.67
588.127	51209.53
588.487	51215.18
588.846	51445.91
589.206	51251.34
589.565	51214.05
589.925	51376.76
590.284	51196.42
590.643	51374.72
591.003	51388.96
591.362	51442.29
591.721	51434.38
592.08	51471.67
592.44	51561.16
592.799	51491.56
593.158	51400.71
593.517	51504.66
593.876	51561.84
594.235	51436.64
594.593	51513.02
594.952	51551.67
595.311	51509.63
595.67	51555.96
596.029	51724.54
596.387	51719.35
596.746	51769.97
597.104	51597.99
597.463	51626.47
597.822	51711.21
598.18	51607.94
598.538	51554.6
598.897	51719.8
599.255	51468.05
599.613	51961.15
599.972	51719.8
600.33	51908.27
600.688	51823.52
601.046	51960.7
601.404	52023.97
601.762	51819.46
602.12	52111.43
602.478	52138.54
602.836	52044.99
603.194	51912.56
603.552	52001.37
603.91	51974.48
604.268	52092.22
604.625	52035.95
604.983	52131.54
605.341	52144.42
605.698	52226.9
606.056	52311.87
606.413	52290.63
606.771	52347.58
607.128	52341.93
607.485	52236.17
607.843	52349.84
608.2	52354.81
608.557	52600.45
608.914	52445.2
609.272	52529.27
609.629	52558.19
609.986	52756.83
610.343	52584.63
610.7	52778.75
611.057	52815.81
611.414	52711.64
611.771	52740.34
612.127	52875.25
612.484	52800.22
612.841	52944.4
613.198	52744.63
613.554	52811.52
613.911	53004.74
614.267	53049.25
614.624	52964.51
614.98	53040.67
615.337	53135.13
615.693	53161.57
616.05	52990.95
616.406	53342.81
616.762	53169.7
617.118	53169.25
617.475	53183.94
617.831	53256.71
618.187	53334.9
618.543	53392.97
618.899	53455.57
619.255	53431.84
619.611	53336.03
619.967	53436.14
620.323	53481.56
620.678	53422.58
621.034	53331.51
621.39	53391.17
621.746	53382.35
622.101	53625.28
622.457	53423.93
622.812	53516.59
623.168	53591.84
623.523	53632.97
623.879	53584.16
624.234	53360.66
624.589	53573.76
624.945	53550.48
625.3	53606.53
625.655	53541.9
626.01	53542.35
626.365	53582.57
626.72	53584.61
627.075	53487.21
627.43	53543.03
627.785	53412.86
628.14	53592.74
628.495	53465.52
628.85	53432.07
629.205	53375.8
629.559	53445.4
629.914	53375.8
630.269	53400.88
630.623	53313.43
630.978	53208.57
631.332	53402.69
631.687	53390.49
632.041	53169.48
632.396	53332.86
632.75	53150.5
633.104	53238.4
633.459	53175.35
633.813	53115.47
634.167	53162.47
634.521	53069.14
634.875	53137.61
635.229	53073.21
635.583	52917.05
635.937	52949.37
636.291	52906.89
636.645	52848.13
636.999	52817.17
637.352	52873.89
637.706	52643.39
638.06	52764.97
638.413	52672.09
638.767	52613.33
639.121	52690.17
639.474	52370.4
639.828	52469.84
640.181	52515.03
640.534	52586.22
640.888	52392.55
641.241	52162.95
641.594	52289.05
641.947	52372.89
642.301	52268.94
642.654	52281.14
643.007	52317.52
643.36	52141.71
643.713	52128.6
644.066	52258.99
644.419	52059.9
644.771	51884.99
645.124	51704.88
645.477	51481.16
645.83	51240.94
646.182	50952.13
646.535	50949.42
646.888	51023.55
647.24	50901.97
647.593	51067.84
647.945	50911.91
648.298	50740.16
648.65	50742.65
649.002	50603.44
649.355	50667.85
649.707	50620.84
650.059	50844.12
650.411	51253.14
650.763	51251.79
651.115	51649.97
651.467	51373.82
651.819	51482.74
652.171	51289.08
652.523	51263.77
652.875	51244.33
653.227	51049.31
653.578	51338.34
653.93	51280.71
654.282	50986.48
654.633	50976.32
654.985	51135.41
655.337	51073.94
655.688	51045.47
656.039	51121.4
656.391	50821.06
656.742	50905.13
657.094	50916.66
657.445	51093.6
657.796	50944.9
658.147	50832.59
658.498	50808.18
658.849	50920.72
659.2	50793.27
659.551	50720.5
659.902	50931.8
660.253	50698.58
660.604	50793.95
660.955	50649.77
661.306	50881.85
661.656	50709.88
662.007	50621.97
662.358	50667.62
662.708	50655.19
663.059	50581.98
663.409	50408.65
663.76	50613.84
664.11	50722.54
664.461	50622.65
664.811	50551.02
665.161	50560.51
665.511	50450.68
665.862	50485.03
666.212	50556.67
666.562	50575.2
666.912	50544.24
667.262	50432.6
667.612	50407.52
667.962	50456.33
668.312	50413.39
668.662	50522.09
669.011	50450
669.361	50406.84
669.711	50323.9
670.06	50224.24
670.41	50245.94
670.76	50186.05
671.109	50410.91
671.459	50293.17
671.808	50100.86
672.157	50215.88
672.507	49927.76
672.856	50040.97
673.205	50163.91
673.554	50198.93
673.904	49981.76
674.253	50238.93
674.602	50112.16
674.951	49440.31
675.3	49355.57
675.649	49840.3
675.998	49739.51
676.346	49748.1
676.695	49962.1
677.044	49551.95
677.393	49725.5
677.741	49759.85
678.09	49697.7
678.438	49614.54
678.787	49636.69
679.135	49689.8
679.484	49485.96
679.832	49605.73
680.181	49400.54
680.529	49463.36
680.877	49340.2
681.225	49372.74
681.573	49501.1
681.922	49226.76
682.27	49028.34
682.618	49092.97
682.966	49023.15
683.314	49147.44
683.661	49002.13
684.009	48858.63
684.357	48759.65
684.705	48641.46
685.053	48749.03
685.4	48696.83
685.748	48370.96
686.095	48454.12
686.443	48332.09
686.79	48335.71
687.138	48306.78
687.485	48242.15
687.832	48142.49
688.18	48069.72
688.527	47913.12
688.874	47790.18
689.221	47820.92
689.568	47711.77
689.915	47685.55
690.262	47498.44
690.609	47562.39
690.956	47316.98
691.303	47317.65
691.65	47118.34
691.997	47266.13
692.344	46851.68
692.69	46810.77
693.037	46718.8
693.383	46553.15
693.73	46774.17
694.077	46462.99
694.423	46501.86
694.769	46300.73
695.116	46236.55
695.462	46258.47
695.808	45959.72
696.155	46115.43
696.501	45739.16
696.847	45740.52
697.193	45488.32
697.539	45558.38
697.885	45364.03
698.231	45209.01
698.577	45180.54
698.923	45159.52
699.269	44916.14
699.614	44696.48
699.96	44693.99
700.306	44591.17
700.651	44470.72
700.997	44286.1
701.342	44388.01
701.688	44303.5
702.033	44160
702.379	44114.8
702.724	43994.8
703.069	44097.17
703.415	43520.01
703.76	43665.77
704.105	43530.64
704.45	43471.43
704.795	43196.41
705.14	43106.69
705.485	43111.66
705.83	42955.73
706.175	43022.63
706.52	42879.58
706.865	42627.16
707.209	42639.81
707.554	42498.35
707.899	42585.58
708.243	42428.97
708.588	42325.02
708.932	42170.44
709.277	41992.14
709.621	42008.87
709.966	41863.56
710.31	41832.15
710.654	41416.79
710.998	41456.11
711.342	41651.36
711.687	41485.72
712.031	41218.15
712.375	41142.68
712.719	41262.67
713.063	41057.03
713.407	41143.58
713.75	40866.3
714.094	40910.36
714.438	40685.06
714.782	40801.67
715.125	40515.8
715.469	40640.32
715.812	40317.84
716.156	40309.25
716.499	40137.05
716.843	40347.67
717.186	39959.88
717.53	40118.3
717.873	40229.03
718.216	40100.67
718.559	39915.14
718.902	39609.38
719.246	39637.18
719.589	39517.41
719.932	39447.35
720.275	39372.78
720.617	39376.85
720.96	39275.83
721.303	39206.23
721.646	39176.63
721.989	38955.16
722.331	39129.39
722.674	39009.17
723.016	38919.68
723.359	38764.43
723.701	38866.35
724.044	38494.16
724.386	38336.65
724.729	38639.01
725.071	38429.98
725.413	38492.8
725.755	38401.05
726.097	38265.46
726.439	38095.3
726.782	38100.95
727.124	38211.45
727.465	38029.54
727.807	37986.37
728.149	37903.66
728.491	37810.79
728.833	37889.88
729.175	37649.21
729.516	37620.51
729.858	37618.47
730.199	37565.82
730.541	37426.61
730.882	37373.28
731.224	37575.54
731.565	37210.12
731.906	37302.32
732.248	37312.49
732.589	37022.33
732.93	37037.92
733.271	36973.75
733.612	37026.85
733.953	36871.6
734.294	36825.73
734.635	36788.44
734.976	36921.32
735.317	36580.08
735.658	36560.87
735.999	36480.88
736.339	36475.23
736.68	36452.4
737.021	36449.69
737.361	36298.06
737.702	36449.92
738.042	36179.87
738.383	36200.88
738.723	36256.02
739.063	36039.31
739.404	36132.41
739.744	35985.52
740.084	35756.15
740.424	35890.16
740.764	35804.51
741.104	35968.8
741.444	35703.95
741.784	35512.09
742.124	35679.77
742.464	35485.2
742.804	35347.57
743.143	35288.37
743.483	35339.89
743.823	35293.11
744.162	35149.84
744.502	35247.92
744.841	35013.34
745.181	35028.94
745.52	34945.55
745.86	35079.33
746.199	34940.13
746.538	34911.65
746.877	34816.06
747.216	34867.13
747.556	34742.39
747.895	34678.44
748.234	34496.97
748.573	34502.4
748.911	34405.45
749.25	34296.98
749.589	34207.26
749.928	34235.51
750.267	34316.41
750.605	34127.49
750.944	33970.89
751.283	33824.9
751.621	33972.69
751.96	33797.33
752.298	33696.32
752.636	33664
752.975	33542.2
753.313	33414.74
753.651	33537.45
753.989	33387.62
754.327	33260.4
754.666	33158.25
755.004	33203
755.342	33189.89
755.679	33009.78
756.017	32794.65
756.355	32880.52
756.693	32712.61
757.031	32745.38
757.368	32527.08
757.706	32543.35
758.044	32516.01
758.381	32462.23
758.719	32270.59
759.056	32305.39
759.394	32142.01
759.731	31870.15
760.068	32010.03
760.405	31703.38
760.743	31785.86
761.08	31789.93
761.417	31554.45
761.754	31383.84
762.091	31387.23
762.428	31351.29
762.765	31233.11
763.102	31236.5
763.438	31038.99
763.775	30950.4
764.112	30888.03
764.449	30886.45
764.785	30635.61
765.122	30484.88
765.458	30283.3
765.795	30319.46
766.131	30337.54
766.467	30210.76
766.804	30071.78
767.14	29840.15
767.476	29858
767.812	29799.24
768.148	29854.84
768.485	29678.34
768.821	29501.4
769.157	29341.4
769.492	29385.92
769.828	29210.33
770.164	29022.32
770.5	28855.09
770.836	28912.71
771.171	28766.96
771.507	28745.49
771.842	28514.76
772.178	28460.07
772.513	28360.41
772.849	28301.88
773.184	28186.63
773.519	28203.58
773.855	27939.86
774.19	27855.12
774.525	27734.67
774.86	27791.61
775.195	27800.88
775.53	27555.24
775.865	27383.49
776.2	27216.94
776.535	27202.48
776.87	27008.13
777.205	27031.63
777.539	26884.75
777.874	26986.66
778.209	26539.22
778.543	26554.36
778.878	26406.34
779.212	26393.23
779.547	26120.92
779.881	26337.87
780.215	26130.41
780.55	26144.43
780.884	25928.84
781.218	25785.11
781.552	25839.57
781.886	25689.07
782.22	25592.12
782.554	25475.06
782.888	25212.02
783.222	25184.9
783.556	25050.22
783.889	25092.02
784.223	24854.29
784.557	24846.38
784.89	24823.78
785.224	24631.47
785.557	24489.55
785.891	24515.54
786.224	24365.94
786.558	24285.94
786.891	24211.37
787.224	24161.88
787.557	24028.55
787.891	24014.76
788.224	23890.02
788.557	23852.96
788.89	23793.53
789.223	23807.09
789.556	23599.41
789.888	23599.63
790.221	23453.2
790.554	23214.79
790.887	23288.91
791.219	23183.83
791.552	23129.59
791.884	22933.21
792.217	22767.11
792.549	22815.7
792.882	22678.98
793.214	22552.2
793.546	22633.33
793.879	22397.41
794.211	22435.14
794.543	22537.97
794.875	22424.07
795.207	22417.52
795.539	22203.06
795.871	22127.58
796.203	21963.52
796.535	21936.4
796.867	21875.16
797.198	21835.39
797.53	21807.36
797.862	21592.68
798.193	21669.29
798.525	21587.26
798.856	21402.63
799.188	21282.18
799.519	21227.94
799.85	21057.33
800.182	21140.04
800.513	21173.48
800.844	20849.88
801.175	21015.97
801.506	21062.98
801.837	20796.77
802.168	20830.22
802.499	20648.52
802.83	20453.73
803.161	20467.29
803.491	20510.9
803.822	20473.61
804.153	20348.19
804.483	20265.94
804.814	20237.91
805.145	20081.31
805.475	20151.59
805.805	20098.93
806.136	20072.49
806.466	20051.25
806.796	20022.1
807.126	19847.19
807.457	19700.98
807.787	19663.01
808.117	19574.2
808.447	19586.63
808.777	19623.24
809.107	19494.43
809.436	19376.24
809.766	19353.19
810.096	19345.06
810.426	19277.26
810.755	19328.11
811.085	19182.35
811.414	19180.77
811.744	19007.89
812.073	18969.7
812.403	18976.48
812.732	18890.38
813.061	18893.77
813.39	18709.37
813.719	18781.46
814.049	18789.14
814.378	18722.93
814.707	18634.11
815.036	18580.56
815.365	18526.09
815.693	18341.69
816.022	18432.54
816.351	18283.16
816.68	18210.4
817.008	18323.84
817.337	18153.9
817.665	18070.06
817.994	18189.15
818.322	18107.12
818.651	18008.82
818.979	17903.96
819.307	17913.46
819.636	17930.4
819.964	17813.35
820.292	17871.2
820.62	17829.62
820.948	17704.87
821.276	17891.31
821.604	17806.11
821.932	17779
822.259	17831.2
822.587	17748.04
822.915	17741.93
823.243	17723.18
823.57	17609.28
823.898	17753.46
824.225	17666.23
824.553	17656.51
824.88	17636.85
825.207	17726.57
825.535	17684.76
825.862	17661.26
826.189	17656.97
826.516	17764.31
826.843	17675.72
827.17	17754.36
827.497	17757.53
827.824	17741.03
828.151	17737.41
828.478	17645.44
828.805	17731.54
829.131	17569.28
829.458	17634.37
829.785	17521.15
830.111	17557.08
830.438	17644.76
830.764	17619.9
831.09	17610.64
831.417	17515.95
831.743	17630.53
832.069	17542.62
832.395	17475.95
832.722	17584.88
833.048	17412.45
833.374	17562.5
833.7	17420.59
834.026	17328.84
834.351	17377.88
834.677	17393.02
835.003	17408.61
835.329	17326.8
835.654	17429.17
835.98	17233.02
836.306	17313.92
836.631	17168.62
836.956	17318.67
837.282	17187.82
837.607	17226.69
837.932	17197.54
838.258	17161.84
838.583	17051.33
838.908	16983.76
839.233	17165.45
839.558	16989.19
839.883	16909.41
840.208	16866.03
840.533	16843.2
840.858	16803.88
841.182	16883.65
841.507	16768.17
841.832	16654.96
842.156	16643.43
842.481	16612.92
842.805	16668.06
843.13	16591
843.454	16557.11
843.778	16467.62
844.103	16501.52
844.427	16370.67
844.751	16473.49
845.075	16322.31
845.399	16290.45
845.723	16184.91
846.047	16184.46
846.371	16119.83
846.695	16014.75
847.019	15892.72
847.343	15901.76
847.666	15840.97
847.99	15724.59
848.313	15790.35
848.637	15654.76
848.96	15675.77
849.284	15565.95
849.607	15412.73
849.931	15449.11
850.254	15283.69
850.577	15310.13
850.9	15225.16
851.223	15087.99
851.546	15039.41
851.869	14949.24
852.192	15047.09
852.515	14859.07
852.838	14730.26
853.161	14776.14
853.483	14738.85
853.806	14646.2
854.129	14630.83
854.451	14563.94
854.774	14555.35
855.096	14474.22
855.419	14429.71
855.741	14471.51
856.063	14371.63
856.385	14274.68
856.708	14212.31
857.03	14281.01
857.352	14208.24
857.674	14146.55
857.996	14120.56
858.318	14100.9
858.64	14006.44
858.961	13986.33
859.283	13935.71
859.605	13883.05
859.926	13947.91
860.248	13838.53
860.57	13782.72
860.891	13747.92
861.212	13745.88
861.534	13634.92
861.855	13666.11
862.176	13727.8
862.498	13694.58
862.819	13613.91
863.14	13529.62
863.461	13510.18
863.782	13434.93
864.103	13412.33
864.424	13293.24
864.745	13543.4
865.065	13321.71
865.386	13257.31
865.707	13189.29
866.027	13285.1
866.348	13303.86
866.668	13169.4
866.989	13133.24
867.309	13088.05
867.63	13089.85
867.95	13057.09
868.27	13018.44
868.59	12992.23
868.91	12997.2
869.23	12930.31
869.55	12890.08
869.87	12935.51
870.19	12945.45
870.51	12899.58
870.83	12944.32
871.15	12916.98
871.469	12844.89
871.789	12780.71
872.109	12894.83
872.428	12784.55
872.748	12701.39
873.067	12829.07
873.386	12738.22
873.706	12675.4
874.025	12613.03
874.344	12587.49
874.663	12609.87
874.982	12515.18
875.301	12548.85
875.62	12514.05
875.939	12488.51
876.258	12560.6
876.577	12429.98
876.896	12379.14
877.214	12338.91
877.533	12390.21
877.852	12432.92
878.17	12361.74
878.489	12371.68
878.807	12376.2
879.125	12346.37
879.444	12255.3
879.762	12264.79
880.08	12244.9
880.398	12195.19
880.716	12262.53
881.034	12169.2
881.352	12187.96
881.67	12142.99
881.988	12115.64
882.306	12154.06
882.624	12144.79
882.941	12032.25
883.259	11966.72
883.577	11978.92
883.894	11937.79
884.212	11919.49
884.529	11896.66
884.846	11908.42
885.164	11871.58
885.481	11734.86
885.798	11776.22
886.115	11708.19
886.432	11785.71
886.75	11780.28
887.067	11633.85
887.383	11660.74
887.7	11652.6
888.017	11543
888.334	11617.35
888.651	11524.02
888.967	11487.41
889.284	11421.65
889.6	11434.76
889.917	11338.71
890.233	11439.05
890.55	11314.98
890.866	11361.54
891.182	11245.61
891.498	11249.45
891.815	11234.54
892.131	11209.23
892.447	11146.4
892.763	11061.66
893.079	11153.41
893.395	11017.82
893.71	10983.69
894.026	10938.72
894.342	10958.61
894.657	10841.55
894.973	10885.62
895.289	10769.46
895.604	10908.89
895.92	10773.08
896.235	10788.9
896.55	10731.27
896.865	10732.85
897.181	10653.08
897.496	10663.25
897.811	10583.03
898.126	10547.55
898.441	10549.36
898.756	10434.56
899.071	10396.37
899.386	10430.94
899.7	10253.09
900.015	10187.56
900.33	10174
900.644	10218.74
900.959	10175.13
901.273	10142.59
901.588	10181.68
901.902	10169.03
902.216	10046.09
902.531	9997.05
902.845	10030.5
903.159	9872.76
903.473	9955.47
903.787	9831.63
904.101	9773.56
904.415	9791.64
904.729	9816.04
905.042	9725.65
905.356	9656.27
905.67	9654.24
905.984	9621.24
906.297	9608.82
906.611	9481.13
906.924	9508.03
907.237	9480.68
907.551	9454.24
907.864	9419.22
908.177	9378.54
908.491	9316.85
908.804	9278.65
909.117	9249.28
909.43	9104.65
909.743	9092.44
910.056	9191.42
910.368	9045.21
910.681	9016.29
910.994	9030.98
911.307	8983.97
911.619	8923.41
911.932	8919.12
912.244	8817.2
912.557	8835.5
912.869	8730.19
913.181	8764.54
913.494	8797.54
913.806	8699.69
914.118	8699.69
914.43	8560.93
914.742	8579.46
915.054	8562.06
915.366	8530.88
915.678	8501.05
915.99	8454.04
916.302	8381.5
916.613	8309.87
916.925	8313.03
917.236	8278.45
917.548	8268.96
917.859	8249.3
918.171	8171.79
918.482	8115.3
918.794	8137.89
919.105	8095.18
919.416	8008.18
919.727	8076.2
920.038	7992.36
920.349	7904.91
920.66	7895.19
920.971	7913.72
921.282	7807.96
921.593	7796.43
921.903	7727.06
922.214	7685.02
922.525	7688.19
922.835	7694.74
923.146	7643.44
923.456	7564.58
923.767	7546.04
924.077	7580.39
924.387	7464.01
924.697	7511.24
925.008	7485.93
925.318	7404.13
925.628	7390.34
925.938	7365.48
926.248	7267.63
926.558	7244.81
926.867	7234.87
927.177	7202.32
927.487	7149.9
927.796	7068.77
928.106	7111.48
928.416	7074.87
928.725	7046.62
929.034	6994.19
929.344	7006.17
929.653	6988.09
929.962	6922.33
930.271	6838.94
930.581	6864.48
930.89	6846.63
931.199	6756.23
931.508	6750.13
931.817	6815.67
932.125	6769.34
932.434	6720.08
932.743	6622
933.051	6615.45
933.36	6599.18
933.669	6557.6
933.977	6537.94
934.286	6516.92
934.594	6575
934.902	6441.89
935.21	6379.97
935.519	6420.2
935.827	6365.28
936.135	6415.23
936.443	6271.73
936.751	6244.84
937.059	6210.49
937.367	6220.2
937.674	6204.38
937.982	6202.8
938.29	6181.56
938.597	6169.58
938.905	6115.57
939.213	6046.65
939.52	6077.83
939.827	6038.51
940.135	6010.04
940.442	6002.36
940.749	5976.14
941.056	5966.43
941.363	5870.83
941.67	5832.42
941.977	5845.75
942.284	5853.21
942.591	5804.85
942.898	5786.99
943.205	5793.1
943.511	5720.78
943.818	5744.96
944.125	5676.72
944.431	5665.64
944.738	5627
945.044	5627.22
945.35	5565.53
945.657	5603.5
945.963	5540.45
946.269	5542.48
946.575	5518.75
946.881	5443.5
947.187	5432.2
947.493	5419.55
947.799	5403.95
948.105	5371.64
948.41	5347.68
948.716	5262.26
949.022	5330.51
949.327	5250.06
949.633	5247.35
949.938	5187.24
950.244	5266.33
950.549	5155.6
950.854	5167.12
951.16	5098.2
951.465	5112.66
951.77	5118.31
952.075	5077.18
952.38	5050.29
952.685	5029.5
952.99	4960.35
953.294	5019.78
953.599	4932.55
953.904	4916.06
954.209	4870.63
954.513	4915.83
954.818	4916.51
955.122	4875.83
955.426	4825.89
955.731	4768.26
956.035	4799
956.339	4719
956.643	4803.97
956.948	4745.21
957.252	4715.84
957.556	4703.86
957.86	4680.58
958.163	4614.14
958.467	4661.6
958.771	4624.77
959.075	4584.31
959.378	4509.06
959.682	4546.58
959.985	4503.19
960.289	4477.88
960.592	4494.83
960.896	4469.52
961.199	4434.26
961.502	4407.14
961.805	4381.61
962.108	4345.68
962.411	4366.47
962.714	4347.03
963.017	4284.44
963.32	4299.12
963.623	4273.81
963.926	4244.44
964.228	4245.11
964.531	4216.87
964.833	4178
965.136	4167.83
965.438	4160.14
965.741	4141.84
966.043	4142.07
966.345	4127.83
966.648	4136.19
966.95	4112.01
967.252	4075.18
967.554	3987.95
967.856	4025.91
968.158	4025.69
968.46	3985.69
968.761	4011.22
969.063	3959.25
969.365	3920.6
969.666	3921.06
969.968	3890.1
970.269	3894.62
970.571	3852.36
970.872	3829.76
971.174	3808.74
971.475	3831.79
971.776	3794.73
972.077	3757.44
972.378	3770.32
972.679	3761.74
972.98	3724.9
973.281	3717.67
973.582	3725.81
973.883	3671.57
974.183	3671.8
974.484	3660.72
974.785	3607.84
975.085	3649.2
975.386	3612.36
975.686	3603.55
975.986	3576.43
976.287	3508.41
976.587	3551.57
976.887	3521.07
977.187	3513.16
977.487	3536.88
977.787	3510.44
978.087	3475.42
978.387	3479.03
978.687	3427.06
978.987	3453.04
979.286	3433.61
979.586	3377.11
979.885	3386.38
980.185	3366.04
980.484	3340.05
980.784	3329.43
981.083	3360.39
981.382	3267.29
981.682	3282.65
981.981	3276.78
982.28	3226.84
982.579	3234.75
982.878	3262.77
983.177	3193.62
983.475	3187.97
983.774	3147.29
984.073	3140.06
984.372	3142.77
984.67	3132.38
984.969	3172.83
985.267	3114.75
985.566	3087.63
985.864	3081.76
986.162	3074.98
986.461	3032.94
986.759	3019.38
987.057	3024.13
987.355	2975.32
987.653	3000.85
987.951	2956.79
988.249	2957.92
988.547	2934.64
988.844	2947.97
989.142	2942.78
989.44	2879.05
989.737	2887.41
990.035	2849.9
990.332	2851.25
990.63	2832.72
990.927	2867.3
991.224	2838.37
991.521	2805.6
991.819	2796.34
992.116	2812.16
992.413	2755.44
992.71	2755.66
993.006	2763.8
993.303	2735.78
993.6	2741.88
993.897	2712.5
994.193	2696.45
994.49	2696.91
994.787	2646.96
995.083	2649.22
995.379	2643.35
995.676	2613.07
995.972	2644.03
996.268	2584.82
996.565	2609
996.861	2582.33
997.157	2550.92
997.453	2554.76
997.749	2521.32
998.044	2532.39
998.34	2501.21
998.636	2477.7
998.932	2462.79
999.227	2484.93
999.523	2476.35
999.818	2450.36
1000.114	2423.24
1000.409	2420.53
1000.704	2417.59
1001	2403.35
1001.295	2383.24
1001.59	2386.18
1001.885	2391.15
1002.18	2365.16
1002.475	2348.22
1002.77	2297.59
1003.065	2299.63
1003.359	2292.62
1003.654	2302.34
1003.949	2246.75
1004.243	2275.67
1004.538	2229.57
1004.832	2218.95
1005.127	2224.83
1005.421	2214.66
1005.715	2219.18
1006.009	2160.42
1006.304	2146.64
1006.598	2158.84
1006.892	2127.66
1007.186	2106.87
1007.48	2129.24
1007.773	2121.33
1008.067	2094.66
1008.361	2058.28
1008.655	2039.75
1008.948	2073.19
1009.242	2050.14
1009.535	2037.04
1009.829	2009.92
1010.122	1983.03
1010.415	1976.47
1010.708	1992.97
1011.001	1956.59
1011.295	1939.64
1011.588	1937.38
1011.881	1955.23
1012.173	1938.28
1012.466	1912.07
1012.759	1887.66
1013.052	1906.64
1013.344	1881.33
1013.637	1849.47
1013.93	1831.62
1014.222	1847.21
1014.514	1819.64
1014.807	1798.85
1015.099	1813.54
1015.391	1813.99
1015.683	1756.37
1015.976	1770.38
1016.268	1772.19
1016.56	1734.45
1016.851	1715.69
1017.143	1729.93
1017.435	1735.35
1017.727	1693.32
1018.018	1687.22
1018.31	1681.79
1018.602	1701.23
1018.893	1684.96
1019.185	1659.87
1019.476	1641.57
1019.767	1637.95
1020.058	1641.34
1020.35	1607.67
1020.641	1590.72
1020.932	1589.14
1021.223	1568.57
1021.514	1588.91
1021.804	1538.29
1022.095	1531.29
1022.386	1543.72
1022.677	1531.06
1022.967	1511.63
1023.258	1510.05
1023.548	1498.97
1023.839	1509.59
1024.129	1463.27
1024.419	1453.32
1024.709	1454.23
1025	1422.59
1025.29	1435.92
1025.58	1421.69
1025.87	1409.26
1026.16	1415.58
1026.449	1369.48
1026.739	1396.15
1027.029	1383.72
1027.319	1364.29
1027.608	1343.5
1027.898	1358.64
1028.187	1350.28
1028.477	1342.59
1028.766	1319.32
1029.055	1256.49
1029.344	1278.86
1029.634	1276.6
1029.923	1301.24
1030.212	1272.09
1030.501	1286.55
1030.79	1247
1031.078	1252.2
1031.367	1243.39
1031.656	1263.95
1031.945	1241.13
1032.233	1268.47
1032.522	1207.68
1032.81	1184.4
1033.099	1210.39
1033.387	1190.28
1033.675	1160
1033.963	1176.27
1034.251	1176.72
1034.54	1134.01
1034.828	1164.29
1035.116	1141.69
1035.403	1148.25
1035.691	1130.85
1035.979	1101.24
1036.267	1093.78
1036.554	1094.24
1036.842	1095.14
1037.129	1063.05
1037.417	1098.3
1037.704	1080.45
1037.992	1090.4
1038.279	1047.91
1038.566	1046.1
1038.853	1046.1
1039.14	1046.1
