Data from breadboard_black_back_FLMS001491_00064.txt Node
Date: Wed Feb 08 10:50:43 GMT 2017
User: dcchb
Spectrometer: FLMS00149
Trigger mode: 0
Integration Time (sec): 2.000000E-2
Scans to average: 10
Electric dark correction enabled: true
Nonlinearity correction enabled: false
Boxcar width: 0
XAxis mode: Wavelengths
Number of Pixels in Spectrum: 2048
>>>>>Begin Spectral Data<<<<<
341.393	1.2
341.776	1.2
342.16	1.2
342.543	-51.68
342.927	-65.46
343.31	-83.09
343.693	-91.68
344.077	-62.07
344.46	-57.33
344.843	-58.91
345.226	-36.99
345.61	-19.59
345.993	-0.61
346.376	8.66
346.759	16.57
347.142	7.98
347.525	34.65
347.908	53.85
348.291	77.13
348.674	104.25
349.057	107.19
349.44	105.38
349.823	148.99
350.206	187.18
350.588	182.66
350.971	197.13
351.354	208.65
351.737	246.62
352.119	247.07
352.502	253.85
352.884	251.36
353.267	279.16
353.65	283.23
354.032	310.8
354.414	321.87
354.797	325.49
355.179	326.39
355.562	328.65
355.944	336.56
356.326	337.01
356.709	327.29
357.091	332.72
357.473	344.47
357.855	332.49
358.238	345.82
358.62	344.47
359.002	350.8
359.384	345.6
359.766	335.2
360.148	338.82
360.53	353.28
360.912	330.91
361.294	335.66
361.676	333.62
362.057	343.56
362.439	347.41
362.821	345.6
363.203	346.95
363.584	341.98
363.966	319.16
364.348	329.33
364.729	333.85
365.111	330.01
365.493	312.15
365.874	329.33
366.256	331.14
366.637	313.28
367.019	345.82
367.4	351.93
367.781	328.42
368.163	352.38
368.544	316.22
368.925	312.83
369.306	332.49
369.688	336.78
370.069	345.6
370.45	319.61
370.831	329.55
371.212	336.11
371.593	323.45
371.974	368.87
372.355	340.17
372.736	328.2
373.117	360.74
373.498	355.32
373.879	339.95
374.26	331.36
374.641	342.89
375.021	323.9
375.402	327.97
375.783	335.88
376.163	367.29
376.544	351.93
376.925	378.37
377.305	353.73
377.686	371.59
378.066	369.1
378.447	335.2
378.827	368.2
379.208	372.04
379.588	381.98
379.968	379.5
380.349	368.87
380.729	372.94
381.109	396.67
381.489	375.2
381.87	402.09
382.25	381.98
382.63	400.06
383.01	397.12
383.39	379.5
383.77	385.82
384.15	392.15
384.53	413.62
384.91	402.77
385.29	404.58
385.67	437.57
386.049	425.6
386.429	425.6
386.809	436.22
387.189	428.76
387.568	426.5
387.948	432.83
388.328	445.26
388.707	427.63
389.087	427.63
389.466	436.22
389.846	466.95
390.225	448.19
390.605	470.34
390.984	465.14
391.363	471.47
391.743	471.24
392.122	464.92
392.501	467.85
392.881	481.64
393.26	492.04
393.639	497.01
394.018	480.96
394.397	503.79
394.776	499.72
395.155	507.18
395.534	502.66
395.913	509.89
396.292	519.6
396.671	530
397.05	534.97
397.429	507.85
397.808	515.76
398.186	509.89
398.565	536.33
398.944	525.03
399.323	534.29
399.701	534.97
400.08	540.62
400.458	538.14
400.837	541.53
401.215	534.75
401.594	571.36
401.972	575.2
402.351	577.91
402.729	579.49
403.107	581.75
403.486	573.61
403.864	588.76
404.242	600.05
404.62	611.81
404.999	611.35
405.377	619.94
405.755	612.94
406.133	628.98
406.511	624.01
406.889	649.09
407.267	648.42
407.645	648.19
408.023	652.26
408.401	649.32
408.779	656.55
409.156	695.87
409.534	676.21
409.912	684.57
410.29	698.58
410.667	681.41
411.045	708.75
411.422	743.78
411.8	713.95
412.178	739.71
412.555	735.64
412.933	748.75
413.31	772.03
413.687	772.48
414.065	758.24
414.442	800.5
414.819	781.07
415.197	782.87
415.574	789.2
415.951	850.44
416.328	850.22
416.705	831.24
417.082	861.29
417.46	834.62
417.837	861.74
418.214	845.7
418.591	858.35
418.967	871.69
419.344	892.48
419.721	878.24
420.098	907.17
420.475	875.75
420.852	909.43
421.228	926.6
421.605	939.48
421.982	950.78
422.358	941.97
422.735	935.19
423.111	963.21
423.488	993.26
423.864	975.41
424.241	987.84
424.617	1012.93
424.994	1007.05
425.37	1042.76
425.746	1013.6
426.123	1014.96
426.499	1057.44
426.875	1082.75
427.251	1095.64
427.627	1113.94
428.003	1098.8
428.379	1122.53
428.756	1135.41
429.132	1145.35
429.507	1163.43
429.883	1172.92
430.259	1182.19
430.635	1191
431.011	1195.29
431.387	1232.81
431.763	1226.93
432.138	1236.65
432.514	1259.02
432.89	1248.17
433.265	1299.02
433.641	1343.54
434.016	1331.79
434.392	1340.37
434.767	1372.46
435.143	1354.16
435.518	1391.45
435.894	1400.26
436.269	1448.39
436.644	1435.74
437.02	1426.7
437.395	1431.45
437.77	1470.99
438.145	1497.43
438.52	1504.44
438.895	1501.05
439.271	1518
439.646	1551.67
440.021	1586.24
440.395	1579.01
440.77	1583.31
441.145	1600.03
441.52	1621.27
441.895	1610.42
442.27	1625.79
442.645	1634.15
443.019	1651.55
443.394	1665.79
443.769	1668.28
444.143	1678.44
444.518	1687.94
444.892	1684.09
445.267	1702.4
445.641	1753.92
446.016	1710.76
446.39	1741.27
446.764	1756.18
447.139	1764.77
447.513	1778.33
447.887	1776.52
448.262	1819.01
448.636	1799.8
449.01	1830.98
449.384	1866.46
449.758	1843.86
450.132	1893.35
450.506	1863.07
450.88	1914.82
451.254	1918.21
451.628	1932.45
452.002	1960.02
452.376	2025.1
452.75	1999.11
453.123	2022.16
453.497	2075.5
453.871	2089.51
454.244	2099.9
454.618	2139.22
454.992	2138.77
455.365	2162.5
455.739	2215.61
456.112	2268.94
456.486	2245.89
456.859	2240.24
457.232	2280.46
457.606	2307.35
457.979	2347.81
458.352	2381.02
458.725	2414.24
459.099	2452.44
459.472	2456.5
459.845	2501.02
460.218	2495.82
460.591	2537.63
460.964	2571.98
461.337	2602.71
461.71	2665.54
462.083	2724.52
462.456	2679.77
462.829	2724.07
463.201	2797.74
463.574	2768.59
463.947	2817.17
464.32	2886.32
464.692	2890.16
465.065	2926.32
465.438	2993.21
465.81	3049.48
466.183	3028.69
466.555	3130.61
466.928	3137.39
467.3	3130.16
467.672	3185.52
468.045	3241.12
468.417	3240.21
468.789	3285.18
469.161	3333.77
469.534	3394.11
469.906	3410.6
470.278	3493.09
470.65	3498.06
471.022	3598.39
471.394	3644.27
471.766	3649.47
472.138	3758.62
472.51	3815.11
472.882	3864.38
473.253	3934.66
473.625	3969.46
473.997	4065.27
474.369	4058.49
474.74	4145.95
475.112	4171.03
475.484	4227.53
475.855	4348.2
476.227	4429.56
476.598	4481.53
476.97	4506.39
477.341	4677.01
477.713	4688.53
478.084	4696.22
478.455	4831.81
478.827	4918.36
479.198	5026.15
479.569	5033.84
479.94	5199.48
480.311	5239.03
480.682	5316.99
481.053	5456.42
481.424	5553.14
481.795	5561.28
482.166	5672.46
482.537	5778
482.908	5904.77
483.279	5925.34
483.65	6028.84
484.021	6155.16
484.391	6192.45
484.762	6263.41
485.133	6341.6
485.503	6400.58
485.874	6568.94
486.244	6649.39
486.615	6747.24
486.985	6854.81
487.356	6913.79
487.726	7004.18
488.097	7167.34
488.467	7219.77
488.837	7374.57
489.207	7420.67
489.578	7514.9
489.948	7579.31
490.318	7719.19
490.688	7793.09
491.058	7888.22
491.428	7968.45
491.798	8059.07
492.168	8163.47
492.538	8285.05
492.908	8341.55
493.278	8412.73
493.648	8516.68
494.017	8620.41
494.387	8670.13
494.757	8720.29
495.126	8884.13
495.496	8902.44
495.866	8927.97
496.235	9019.72
496.605	9158.7
496.974	9144.01
497.344	9280.5
497.713	9329.09
498.082	9454.29
498.452	9539.03
498.821	9561.18
499.19	9590.1
499.559	9720.72
499.928	9775.86
500.298	9854.73
500.667	9913.26
501.036	9900.38
501.405	10024.44
501.774	10101.73
502.143	10193.7
502.512	10174.94
502.88	10321.38
503.249	10338.1
503.618	10461.26
503.987	10552.34
504.356	10586.46
504.724	10668.26
505.093	10676.85
505.462	10744.65
505.83	10834.14
506.199	10961.36
506.567	11040.68
506.936	11072.1
507.304	11200.45
507.672	11251.75
508.041	11282.49
508.409	11430.96
508.777	11496.72
509.145	11576.49
509.514	11567.9
509.882	11719.08
510.25	11726.77
510.618	11912.07
510.986	11910.72
511.354	12049.7
511.722	12180.77
512.09	12251.95
512.458	12219.18
512.826	12416.02
513.193	12400.42
513.561	12455.79
513.929	12593.19
514.297	12744.37
514.664	12846.74
515.032	12877.7
515.4	13098.48
515.767	13074.53
516.135	13184.58
516.502	13056.45
516.869	13269.78
517.237	13475.2
517.604	13388.65
517.972	13573.5
518.339	13656.89
518.706	13609.88
519.073	13750.67
519.44	13855.75
519.808	14063.2
520.175	14059.36
520.542	14214.84
520.909	14375.06
521.276	14444.66
521.643	14549.97
522.009	14652.34
522.376	14757.2
522.743	14782.05
523.11	15076.06
523.477	15143.85
523.843	15258.88
524.21	15512.43
524.577	15549.04
524.943	15613.67
525.31	15621.35
525.676	15818.86
526.043	15902.48
526.409	16007.33
526.776	16278.74
527.142	16340.43
527.508	16425.85
527.874	16416.36
528.241	16677.15
528.607	16719.86
528.973	16845.73
529.339	16887.54
529.705	17036.23
530.071	17276.68
530.437	17258.6
530.803	17356.68
531.169	17518.03
531.535	17507.18
531.901	17613.62
532.267	17664.92
532.632	17817.68
532.998	17832.82
533.364	17867.17
533.73	18066.04
534.095	18226.03
534.461	18238.24
534.826	18365.01
535.192	18418.12
535.557	18607.49
535.923	18536.31
536.288	18706.02
536.653	18721.61
537.019	18698.79
537.384	18732.91
537.749	18884.55
538.114	18942.62
538.479	19037.31
538.845	19149.4
539.21	19183.3
539.575	19239.34
539.94	19298.77
540.305	19470.75
540.67	19462.61
541.034	19486.11
541.399	19642.27
541.764	19706.45
542.129	19769.04
542.494	19820.57
542.858	19909.38
543.223	19954.8
543.587	20089.03
543.952	20098.98
544.316	20155.47
544.681	20137.62
545.045	20252.42
545.41	20393.88
545.774	20413.77
546.138	20442.24
546.503	20623.94
546.867	20534.67
547.231	20706.64
547.595	20828.45
547.959	20853.99
548.324	20905.74
548.688	20940.54
549.052	20971.5
549.416	21039.29
549.779	21195.67
550.143	21204.03
550.507	21303.69
550.871	21414.65
551.235	21383.46
551.599	21565.15
551.962	21681.53
552.326	21665.49
552.689	21904.35
553.053	21667.52
553.417	21876.33
553.78	22124.69
554.143	22183.44
554.507	22261.18
554.87	22254.63
555.234	22503.43
555.597	22411.01
555.96	22489.65
556.323	22660.04
556.686	22624.11
557.05	22854.16
557.413	22869.75
557.776	22919.92
558.139	23112.01
558.502	23002.86
558.865	23233.13
559.228	23394.26
559.59	23587.92
559.953	23636.29
560.316	23737.3
560.679	23789.5
561.041	23901.82
561.404	23929.16
561.767	24065.65
562.129	24076.05
562.492	24372.09
562.854	24443.5
563.217	24438.3
563.579	24594.9
563.941	24653.43
564.304	24785.18
564.666	24950.6
565.028	24962.8
565.39	25167.32
565.753	25244.83
566.115	25316.69
566.477	25473.98
566.839	25557.36
567.201	25606.4
567.563	25665.16
567.925	25885.49
568.287	25858.37
568.648	25956.9
569.01	26119.84
569.372	26334.52
569.734	26116.45
570.095	26372.48
570.457	26498.36
570.819	26550.33
571.18	26626.94
571.542	26742.87
571.903	26841.17
572.265	26921.62
572.626	26919.59
572.987	26909.87
573.349	27087.95
573.71	27218.34
574.071	27330.88
574.432	27309.86
574.794	27505.56
575.155	27365.23
575.516	27512.12
575.877	27612
576.238	27617.2
576.599	27728.38
576.96	27674.6
577.32	27841.37
577.681	27905.78
578.042	27980.35
578.403	27891.99
578.763	28038.66
579.124	28040.92
579.485	28191.87
579.845	28224.19
580.206	28240.23
580.566	28189.16
580.927	28222.61
581.287	28374.92
581.648	28275.94
582.008	28298.31
582.368	28371.3
582.728	28347.12
583.089	28334.24
583.449	28380.12
583.809	28381.47
584.169	28443.84
584.529	28402.26
584.889	28656.27
585.249	28533.11
585.609	28407.69
585.969	28599.77
586.329	28534.01
586.688	28508.25
587.048	28539.89
587.408	28430.28
587.768	28430.74
588.127	28578.3
588.487	28381.7
588.846	28685.19
589.206	28486.55
589.565	28509.15
589.925	28700.56
590.284	28625.31
590.643	28605.65
591.003	28687.9
591.362	28746.21
591.721	28562.48
592.08	28585.76
592.44	28740.56
592.799	28786.66
593.158	28664.85
593.517	28671.86
593.876	28736.94
594.235	28728.35
594.593	28683.38
594.952	28764.74
595.311	28785.53
595.67	28819.43
596.029	28982.81
596.387	28985.75
596.746	28977.39
597.104	28877.5
597.463	28849.03
597.822	29016.26
598.18	28871.63
598.538	28895.81
598.897	29134.22
599.255	28821.69
599.613	29303.48
599.972	29146.87
600.33	29171.51
600.688	28982.81
601.046	29086.76
601.404	29228.68
601.762	29228.23
602.12	29406.53
602.478	29394.78
602.836	29376.7
603.194	29245.18
603.552	29376.47
603.91	29204.95
604.268	29320.43
604.625	29395.68
604.983	29540.08
605.341	29337.83
605.698	29447.43
606.056	29514.77
606.413	29570.59
606.771	29558.62
607.128	29530.37
607.485	29555.45
607.843	29589.8
608.2	29738.95
608.557	29746.41
608.914	29691.49
609.272	30001.77
609.629	29951.83
609.986	30002.67
610.343	29791.15
610.7	30125.15
611.057	29943.24
611.414	29949.79
611.771	29978.49
612.127	30099.39
612.484	30046.96
612.841	30161.76
613.198	30133.29
613.554	30021.2
613.911	30265.49
614.267	30264.13
614.624	30144.81
614.98	30447.86
615.337	30578.48
615.693	30377.12
616.05	30316.79
616.406	30521.53
616.762	30433.17
617.118	30385.94
617.475	30429.33
617.831	30610.11
618.187	30572.83
618.543	30595.65
618.899	30651.69
619.255	30745.48
619.611	30642.65
619.967	30706.83
620.323	30820.5
620.678	30667.96
621.034	30624.35
621.39	30565.14
621.746	30662.99
622.101	31006.49
622.457	30716.78
622.812	30844.68
623.168	30856.43
623.523	30729.66
623.879	30963.32
624.234	30676.33
624.589	30877.9
624.945	30899.6
625.3	30780.73
625.655	30774.18
626.01	30777.79
626.365	30850.78
626.72	30827.73
627.075	30680.85
627.43	30874.29
627.785	30645.14
628.14	30790.22
628.495	30745.48
628.85	30749.32
629.205	30579.61
629.559	30837.68
629.914	30707.29
630.269	30633.62
630.623	30648.76
630.978	30653.73
631.332	30750.22
631.687	30650.79
632.041	30601.98
632.396	30547.52
632.75	30695.31
633.104	30541.64
633.459	30440.17
633.813	30355.66
634.167	30331.02
634.521	30335.77
634.875	30452.38
635.229	30206.73
635.583	30110.92
635.937	30290.35
636.291	30210.35
636.645	30228.65
636.999	30152.05
637.352	30121.76
637.706	29950.92
638.06	30134.19
638.413	30080.64
638.767	29962.9
639.121	30053.52
639.474	29827.31
639.828	29784.82
640.181	29920.41
640.534	29872.51
640.888	29689.91
641.241	29472.97
641.594	29635.22
641.947	29763.81
642.301	29606.07
642.654	29583.93
643.007	29601.55
643.36	29550.71
643.713	29440.88
644.066	29634.09
644.419	29439.97
644.771	29298.74
645.124	29041.57
645.477	29006.99
645.83	28736.26
646.182	28652.88
646.535	28567.68
646.888	28522.94
647.24	28414.46
647.593	28498.76
647.945	28371.53
648.298	28189.16
648.65	28142.61
649.002	28166.11
649.355	28302.6
649.707	28377.86
650.059	28328.59
650.411	28603.84
650.763	28788.92
651.115	28931.06
651.467	28871.4
651.819	28826.88
652.171	28739.2
652.523	28721.8
652.875	28727
653.227	28694.46
653.578	28729.48
653.93	28688.13
654.282	28667.79
654.633	28566.55
654.985	28410.4
655.337	28547.34
655.688	28604.06
656.039	28713.21
656.391	28380.34
656.742	28385.09
657.094	28418.31
657.445	28653.55
657.796	28492.2
658.147	28502.6
658.498	28297.41
658.849	28429.61
659.2	28265.09
659.551	28267.35
659.902	28372.43
660.253	28430.06
660.604	28377.18
660.955	28186.9
661.306	28163.85
661.656	28248.37
662.007	28189.16
662.358	28196.17
662.708	28169.5
663.059	28175.37
663.409	27970.41
663.76	28247.92
664.11	28242.27
664.461	28216.05
664.811	28316.84
665.161	28125.21
665.511	28034.14
665.862	28062.38
666.212	28194.58
666.562	28101.7
666.912	28153.68
667.262	28073.23
667.612	28134.25
667.962	28189.61
668.312	27870.07
668.662	28056.06
669.011	28047.69
669.361	27967.24
669.711	28020.58
670.06	27959.79
670.41	27956.17
670.76	27727.48
671.109	27849.06
671.459	27846.8
671.808	27875.5
672.157	27863.07
672.507	27708.04
672.856	27724.09
673.205	27711.21
673.554	27735.39
673.904	27572.45
674.253	27835.04
674.602	27770.64
674.951	27376.3
675.3	27197.1
675.649	27468.5
675.998	27522.28
676.346	27567.71
676.695	27616.97
677.044	27406.36
677.393	27605.9
677.741	27543.08
678.09	27450.42
678.438	27393.02
678.787	27333.14
679.135	27384.66
679.484	27092.92
679.832	27241.39
680.181	27183.08
680.529	27250.43
680.877	27120.71
681.225	27090.21
681.573	27297.66
681.922	27071.45
682.27	26995.97
682.618	27063.31
682.966	26961.85
683.314	27005.69
683.661	26934.96
684.009	26766.82
684.357	26771.12
684.705	26648.64
685.053	26689.31
685.4	26565.93
685.748	26491.8
686.095	26553.5
686.443	26358.93
686.79	26283
687.138	26456.78
687.485	26207.29
687.832	26287.29
688.18	26325.48
688.527	26057.69
688.874	26055.2
689.221	26022.66
689.568	26054.53
689.915	25916.9
690.262	25893.4
690.609	25875.32
690.956	25787.19
691.303	25807.3
691.65	25633.07
691.997	25635.1
692.344	25438.72
692.69	25391.72
693.037	25438.5
693.383	25251.38
693.73	25342
694.077	25121.22
694.423	25093.65
694.769	25048.9
695.116	24999.87
695.462	24920.32
695.808	24914.9
696.155	24959.87
696.501	24737.73
696.847	24695.47
697.193	24544.51
697.539	24618.63
697.885	24441.46
698.231	24452.99
698.577	24481.69
698.923	24275.36
699.269	24238.08
699.614	24143.84
699.96	24113.56
700.306	24097.06
700.651	24069.04
700.997	23883.06
701.342	23837.64
701.688	23802.83
702.033	23750.86
702.379	23620.47
702.724	23686.45
703.069	23653.01
703.415	23389.96
703.76	23498.44
704.105	23448.49
704.45	23292.34
704.795	23252.34
705.14	23148.61
705.485	23238.33
705.83	23149.97
706.175	23150.2
706.52	23043.76
706.865	22996.3
707.209	22899.13
707.554	22925.57
707.899	22854.16
708.243	22733.26
708.588	22691.45
708.932	22521.51
709.277	22545.01
709.621	22548.86
709.966	22416.88
710.31	22476.99
710.654	22289.88
710.998	22301.86
711.342	22354.29
711.687	22208.98
712.031	22101.64
712.375	22142.09
712.719	22101.41
713.063	22072.48
713.407	22131.69
713.75	21992.49
714.094	21955.43
714.438	21813.28
714.782	21863.68
715.125	21643.57
715.469	21855.99
715.812	21589.11
716.156	21601.76
716.499	21419.17
716.843	21467.75
717.186	21516.12
717.53	21565.83
717.873	21497.13
718.216	21403.8
718.559	21386.4
718.902	21239.96
719.246	21309.79
719.589	21217.14
719.932	21081.32
720.275	21076.58
720.617	21103.02
720.96	21145.73
721.303	21021.44
721.646	20915.23
721.989	20898.28
722.331	21020.99
722.674	20852.86
723.016	20907.32
723.359	20820.54
723.701	20876.58
724.044	20730.6
724.386	20594.11
724.729	20696.7
725.071	20596.82
725.413	20656.7
725.755	20573.77
726.097	20457.84
726.439	20453.32
726.782	20438.86
727.124	20504.62
727.465	20319.54
727.807	20412.64
728.149	20243.38
728.491	20164.29
728.833	20357.5
729.175	20301.23
729.516	20257.39
729.858	20154.12
730.199	20250.84
730.541	20157.73
730.882	20190.05
731.224	20144.85
731.565	19997.74
731.906	19970.62
732.248	19989.6
732.589	19893.78
732.93	19881.81
733.271	19937.17
733.612	19793.22
733.953	19906.89
734.294	19664.86
734.635	19738.53
734.976	19729.72
735.317	19653.34
735.658	19613.57
735.999	19568.6
736.339	19627.58
736.68	19598.2
737.021	19484.3
737.361	19418.77
737.702	19502.16
738.042	19486.34
738.383	19352.1
738.723	19548.71
739.063	19386.68
739.404	19404.98
739.744	19354.82
740.084	19297.64
740.424	19264.87
740.764	19219.45
741.104	19303.74
741.444	19147.36
741.784	19216.97
742.124	19139
742.464	19021.49
742.804	19012.68
743.143	19060.13
743.483	18995.96
743.823	18914.83
744.162	18906.69
744.502	18887.48
744.841	18860.59
745.181	18870.31
745.52	18807.03
745.86	18792.12
746.199	18833.47
746.538	18746.92
746.877	18674.83
747.216	18729.07
747.556	18695.62
747.895	18561.84
748.234	18590.09
748.573	18470.32
748.911	18508.06
749.25	18525.46
749.589	18448.63
749.928	18423.77
750.267	18404.11
750.605	18275.52
750.944	18297.22
751.283	18155.75
751.621	18167.95
751.96	18178.58
752.298	18025.81
752.636	18114.17
752.975	18056.54
753.313	17924.8
753.651	18021.07
753.989	17840.51
754.327	17928.41
754.666	17830.11
755.004	17839.83
755.342	17811.58
755.679	17818.59
756.017	17626.5
756.355	17659.27
756.693	17593.73
757.031	17650.68
757.368	17417.69
757.706	17551.02
758.044	17429.67
758.381	17451.36
758.719	17380.63
759.056	17379.5
759.394	17307.41
759.731	17170.01
760.068	17143.57
760.405	17122.78
760.743	17036.68
761.08	17075.33
761.417	17055.44
761.754	17029.23
762.091	16915.11
762.428	16940.87
762.765	16743.36
763.102	16822
763.438	16728.22
763.775	16643.7
764.112	16630.82
764.449	16665.62
764.785	16477.15
765.122	16389.92
765.458	16322.81
765.795	16317.16
766.131	16282.13
766.467	16244.16
766.804	16177.05
767.14	16052.98
767.476	16042.59
767.812	16071.29
768.148	16063.38
768.485	15930.05
768.821	15854.57
769.157	15839.43
769.492	15711.52
769.828	15794.23
770.164	15623.39
770.5	15648.02
770.836	15524.41
771.171	15469.27
771.507	15548.14
771.842	15242.83
772.178	15364.86
772.513	15300.01
772.849	15202.16
773.184	15148.15
773.519	15224.76
773.855	15027.92
774.19	14985.89
774.525	14915.84
774.86	14964.2
775.195	14940.69
775.53	14777.08
775.865	14770.76
776.2	14637.65
776.535	14581.16
776.87	14638.56
777.205	14514.27
777.539	14446.7
777.874	14470.42
778.209	14320.6
778.543	14312.01
778.878	14213.93
779.212	14310.2
779.547	14100.04
779.881	14198.57
780.215	14102.75
780.55	14163.54
780.884	14034.28
781.218	13941.62
781.552	13985.69
781.886	13851.23
782.22	13737.56
782.554	13757.9
782.888	13602.88
783.222	13606.49
783.556	13577.34
783.889	13488.3
784.223	13474.74
784.557	13358.82
784.89	13424.12
785.224	13370.57
785.557	13225.71
785.891	13234.07
786.224	13159.27
786.558	13146.39
786.891	13019.39
787.224	12994.53
787.557	13020.75
787.891	12971.71
788.224	13000.18
788.557	12912.5
788.89	12882.22
789.223	12807.87
789.556	12730.81
789.888	12696.69
790.221	12736.68
790.554	12625.73
790.887	12647.65
791.219	12603.36
791.552	12481.78
791.884	12432.51
792.217	12390.25
792.549	12311.39
792.882	12270.71
793.214	12277.04
793.546	12348.9
793.879	12197.94
794.211	12157.04
794.543	12188.45
794.875	12146.64
795.207	12098.96
795.539	11972.41
795.871	12016.7
796.203	11930.15
796.535	11884.28
796.867	11867.78
797.198	11773.55
797.53	11836.82
797.862	11704.85
798.193	11727.45
798.525	11677.05
798.856	11667.79
799.188	11608.35
799.519	11489.71
799.85	11484.51
800.182	11454.23
800.513	11425.53
800.844	11288.36
801.175	11443.84
801.506	11441.35
801.837	11353.44
802.168	11325.2
802.499	11239.78
802.83	11117.07
803.161	11179.21
803.491	11166.1
803.822	11110.74
804.153	11075.71
804.483	11042.27
804.814	10942.16
805.145	11067.12
805.475	10964.75
805.805	10939.22
806.136	10936.28
806.466	10876.39
806.796	10930.18
807.126	10763.86
807.457	10732.44
807.787	10723.4
808.117	10657.87
808.447	10719.34
808.777	10731.09
809.107	10644.31
809.436	10608.38
809.766	10669.17
810.096	10548.95
810.426	10486.12
810.755	10515.05
811.085	10439.57
811.414	10440.93
811.744	10362.28
812.073	10373.13
812.403	10405.22
812.732	10274.38
813.061	10346.69
813.39	10235.51
813.719	10216.07
814.049	10262.4
814.378	10185.34
814.707	10164.1
815.036	10128.84
815.365	10149.18
815.693	10015.17
816.022	10017.89
816.351	9941.05
816.68	9977.44
817.008	9958.23
817.337	9886.82
817.665	9870.77
817.994	9861.51
818.322	9912.58
818.651	9860.6
818.979	9749.42
819.307	9853.37
819.636	9809.08
819.964	9695.41
820.292	9779.93
820.62	9757.78
820.948	9709.19
821.276	9805.24
821.604	9763.88
821.932	9716.88
822.259	9716.2
822.587	9729.08
822.915	9630.33
823.243	9716.2
823.57	9717.1
823.898	9680.95
824.225	9618.35
824.553	9698.35
824.88	9662.64
825.207	9725.46
825.535	9688.4
825.862	9685.01
826.189	9645.92
826.516	9709.65
826.843	9781.06
827.17	9718.46
827.497	9682.75
827.824	9676.88
828.151	9764.56
828.478	9690.21
828.805	9742.87
829.131	9664.45
829.458	9689.76
829.785	9678.46
830.111	9674.17
830.438	9731.79
830.764	9620.83
831.09	9642.75
831.417	9541.74
831.743	9666.48
832.069	9606.37
832.395	9584.45
832.722	9674.84
833.048	9613.6
833.374	9664.45
833.7	9616.54
834.026	9594.17
834.351	9576.54
834.677	9563.43
835.003	9614.06
835.329	9542.42
835.654	9535.87
835.98	9508.97
836.306	9486.15
836.631	9491.8
836.956	9518.69
837.282	9527.73
837.607	9433.04
837.932	9449.09
838.258	9450.9
838.583	9390.78
838.908	9328.19
839.233	9357.34
839.558	9391.69
839.883	9299.49
840.208	9292.03
840.533	9245.48
840.858	9288.41
841.182	9267.17
841.507	9252.93
841.832	9237.57
842.156	9219.72
842.481	9191.02
842.805	9154.18
843.13	9191.47
843.454	9158.93
843.778	9100.62
844.103	9110.57
844.427	9132.03
844.751	9084.58
845.075	9069.66
845.399	9014.97
845.723	8996.22
846.047	9011.59
846.371	8928.2
846.695	8931.36
847.019	8866.05
847.343	8819.05
847.666	8796.9
847.99	8764.81
848.313	8740.63
848.637	8631.03
848.96	8592.16
849.284	8658.37
849.607	8548.09
849.931	8551.03
850.254	8507.64
850.577	8461.32
850.9	8375.67
851.223	8381.77
851.546	8327.31
851.869	8353.07
852.192	8330.02
852.515	8296.8
852.838	8251.38
853.161	8237.82
853.483	8177.93
853.806	8171.83
854.129	8175.67
854.451	8129.8
854.774	8075.56
855.096	8063.59
855.419	8022.23
855.741	7965.06
856.063	7905.4
856.385	7951.05
856.708	7925.96
857.03	7884.16
857.352	7906.53
857.674	7872.86
857.996	7882.35
858.318	7821.56
858.64	7826.08
858.961	7791.96
859.283	7779.08
859.605	7689.13
859.926	7714.67
860.248	7680.77
860.57	7706.53
860.891	7664.05
861.212	7643.94
861.534	7619.53
861.855	7579.53
862.176	7641.9
862.498	7585.41
862.819	7591.06
863.14	7576.82
863.461	7567.56
863.782	7516.03
864.103	7533.43
864.424	7521
864.745	7532.3
865.065	7518.97
865.386	7508.57
865.707	7502.47
866.027	7485.52
866.348	7416.37
866.668	7427.67
866.989	7361.68
867.309	7413.89
867.63	7335.24
867.95	7287.11
868.27	7343.83
868.59	7332.53
868.91	7320.1
869.23	7295.47
869.55	7281.01
869.87	7314
870.19	7325.98
870.51	7251.18
870.83	7295.25
871.15	7205.76
871.469	7164.63
871.789	7213.89
872.109	7243.72
872.428	7188.36
872.748	7203.95
873.067	7220.67
873.386	7135.7
873.706	7099.32
874.025	7131.63
874.344	7145.87
874.663	7126.44
874.982	7031.75
875.301	7096.83
875.62	7047.57
875.939	7029.04
876.258	7075.14
876.577	7008.7
876.896	7021.13
877.214	6976.38
877.533	7003.73
877.852	6986.33
878.17	6971.19
878.489	7034.24
878.807	6982.49
879.125	6951.3
879.444	6948.36
879.762	6902.04
880.08	6940.45
880.398	6938.42
880.716	6917.18
881.034	6871.75
881.352	6892.77
881.67	6858.65
881.988	6860.46
882.306	6825.43
882.624	6796.05
882.941	6789.04
883.259	6801.7
883.577	6775.03
883.894	6721.02
884.212	6725.09
884.529	6725.77
884.846	6699.56
885.164	6663.62
885.481	6693.45
885.798	6617.52
886.115	6632.66
886.432	6642.16
886.75	6629.95
887.067	6651.2
887.383	6563.97
887.7	6594.47
888.017	6581.59
888.334	6548.6
888.651	6557.86
888.967	6510.18
889.284	6514.7
889.6	6494.59
889.917	6458.66
890.233	6432.67
890.55	6395.61
890.866	6387.47
891.182	6426.34
891.498	6342.95
891.815	6335.5
892.131	6296.4
892.447	6285.33
892.763	6316.51
893.079	6293.01
893.395	6292.11
893.71	6252.79
894.026	6247.59
894.342	6229.96
894.657	6178.21
894.973	6108.84
895.289	6185.67
895.604	6094.37
895.92	6073.58
896.235	6076.3
896.55	6146.8
896.865	6072.68
897.181	6038.1
897.496	6040.59
897.811	6049.4
898.126	5983.64
898.441	5967.15
898.756	5914.04
899.071	5905.23
899.386	5934.6
899.7	5818.67
900.015	5830.2
900.33	5820.48
900.644	5889.18
900.959	5835.17
901.273	5799.01
901.588	5739.58
901.902	5786.13
902.216	5752.24
902.531	5706.36
902.845	5681.28
903.159	5670.88
903.473	5646.02
903.787	5589.53
904.101	5577.1
904.415	5569.64
904.729	5556.31
905.042	5502.52
905.356	5531.9
905.67	5482.19
905.984	5474.95
906.297	5472.47
906.611	5458.01
906.924	5459.36
907.237	5416.2
907.551	5429.53
907.864	5385.69
908.177	5410.78
908.491	5399.7
908.804	5322.64
909.117	5302.76
909.43	5317.67
909.743	5219.82
910.056	5268.63
910.368	5222.31
910.681	5211.23
910.994	5172.14
911.307	5158.81
911.619	5147.28
911.932	5167.39
912.244	5121.52
912.557	5079.71
912.869	5061.63
913.181	5093.5
913.494	5013.95
913.806	4997.23
914.118	5034.29
914.43	4979.83
914.742	4984.8
915.054	4932.37
915.366	4911.58
915.678	4916.78
915.99	4881.75
916.302	4812.83
916.613	4826.84
916.925	4808.76
917.236	4790
917.548	4768.76
917.859	4752.71
918.171	4745.48
918.482	4744.58
918.794	4685.82
919.105	4712.04
919.416	4655.09
919.727	4667.07
920.038	4649.89
920.349	4600.85
920.66	4571.02
920.971	4567.63
921.282	4580.97
921.593	4516.79
921.903	4511.36
922.214	4527.41
922.525	4524.92
922.835	4440.63
923.146	4458.94
923.456	4408.99
923.767	4384.36
924.077	4383.46
924.387	4353.18
924.697	4333.97
925.008	4320.63
925.318	4302.56
925.628	4349.79
925.938	4288.77
926.248	4231.37
926.558	4238.83
926.867	4222.56
927.177	4257.59
927.487	4195.89
927.796	4145.05
928.106	4155.89
928.416	4131.94
928.725	4115.44
929.034	4105.95
929.344	4126.06
929.653	4065.27
929.962	4069.79
930.271	4025.05
930.581	4029.57
930.89	3972.85
931.199	3965.84
931.508	3977.14
931.817	3982.79
932.125	3953.41
932.434	3949.35
932.743	3944.15
933.051	3899.4
933.36	3886.75
933.669	3867.77
933.977	3859.4
934.286	3900.53
934.594	3844.72
934.902	3818.73
935.21	3811.27
935.519	3790.93
935.827	3777.82
936.135	3767.2
936.443	3732.85
936.751	3712.97
937.059	3705.51
937.367	3692.63
937.674	3723.59
937.982	3652.4
938.29	3637.04
938.597	3638.84
938.905	3612.86
939.213	3606.53
939.52	3580.32
939.827	3586.64
940.135	3581.67
940.442	3504.61
940.749	3529.24
941.056	3536.02
941.363	3471.17
941.67	3468
941.977	3484.5
942.284	3435.01
942.591	3436.59
942.898	3394.56
943.205	3399.08
943.511	3424.84
943.818	3402.24
944.125	3373.09
944.431	3335.35
944.738	3315.01
945.044	3320.21
945.35	3329.47
945.657	3271.17
945.963	3270.72
946.269	3274.33
946.575	3246.54
946.881	3256.48
947.187	3232.3
947.493	3204.96
947.799	3218.97
948.105	3175.58
948.41	3169.03
948.716	3195.01
949.022	3190.5
949.327	3177.61
949.633	3141.68
949.938	3123.83
950.244	3112.76
950.549	3112.31
950.854	3078.18
951.16	3047.22
951.465	3016.04
951.77	3024.17
952.075	3052.19
952.38	3024.62
952.685	3022.14
952.99	2997.51
953.294	2963.38
953.599	2952.99
953.904	2948.24
954.209	2917.51
954.513	2908.02
954.818	2904.18
955.122	2913.67
955.426	2881.35
955.731	2879.54
956.035	2866.44
956.339	2917.51
956.643	2858.53
956.948	2824.63
957.252	2807.23
957.556	2786.44
957.86	2747.12
958.163	2796.83
958.467	2792.54
958.771	2782.82
959.075	2754.8
959.378	2755.48
959.682	2708.7
959.985	2720.68
960.289	2715.48
960.592	2705.54
960.896	2659.66
961.199	2677.74
961.502	2675.93
961.805	2628.48
962.108	2637.74
962.411	2634.8
962.714	2553.9
963.017	2599.32
963.32	2581.47
963.623	2585.99
963.926	2591.19
964.228	2575.6
964.531	2571.53
964.833	2541.92
965.136	2546.67
965.438	2522.94
965.741	2532.89
966.043	2541.47
966.345	2487.24
966.648	2476.16
966.95	2492.89
967.252	2457.86
967.554	2446.56
967.856	2434.13
968.158	2400.23
968.46	2433.9
968.761	2441.36
969.063	2422.15
969.365	2371.99
969.666	2436.62
969.968	2357.07
970.269	2369.73
970.571	2360.23
970.872	2361.59
971.174	2320.91
971.475	2321.37
971.776	2333.57
972.077	2272.33
972.378	2286.11
972.679	2293.12
972.98	2270.29
973.281	2271.42
973.582	2254.7
973.883	2325.89
974.183	2235.72
974.484	2229.62
974.785	2209.96
975.085	2215.15
975.386	2174.48
975.686	2177.41
975.986	2214.25
976.287	2167.47
976.587	2164.53
976.887	2136.51
977.187	2151.43
977.487	2147.81
977.787	2115.27
978.087	2114.82
978.387	2132.9
978.687	2118.21
978.987	2078.66
979.286	2084.76
979.586	2104.2
979.885	2088.38
980.185	2083.18
980.484	2055.16
980.784	2063.75
981.083	2026.01
981.382	2043.18
981.682	2037.31
981.981	2001.37
982.28	2010.41
982.579	1979.68
982.878	2024.2
983.177	2022.84
983.475	1971.09
983.774	1946.01
984.073	1956.18
984.372	1954.82
984.67	1936.74
984.969	1943.97
985.267	1946.46
985.566	1912.34
985.864	1899.46
986.162	1914.6
986.461	1907.14
986.759	1881.38
987.057	1866.46
987.355	1882.73
987.653	1891.77
987.951	1857.87
988.249	1828.95
988.547	1856.07
988.844	1865.56
989.142	1788.72
989.44	1804.99
989.737	1829.85
990.035	1814.71
990.332	1811.1
990.63	1785.11
990.927	1794.37
991.224	1770.19
991.521	1761.38
991.819	1802.28
992.116	1765
992.413	1735.39
992.71	1741.72
993.006	1686.13
993.303	1755.05
993.6	1738.56
993.897	1697.2
994.193	1716.64
994.49	1694.94
994.787	1670.08
995.083	1656.98
995.379	1653.36
995.676	1667.82
995.972	1651.55
996.268	1647.94
996.565	1649.07
996.861	1623.76
997.157	1611.33
997.453	1599.12
997.749	1590.31
998.044	1584.44
998.34	1603.87
998.636	1616.98
998.932	1576.3
999.227	1595.06
999.523	1558.67
999.818	1576.3
1000.114	1540.82
1000.409	1552.8
1000.704	1547.6
1001	1565
1001.295	1523.19
1001.59	1512.35
1001.885	1511.44
1002.18	1501.05
1002.475	1496.53
1002.77	1489.75
1003.065	1483.2
1003.359	1477.32
1003.654	1440.03
1003.949	1474.16
1004.243	1450.88
1004.538	1432.58
1004.832	1454.72
1005.127	1434.16
1005.421	1423.76
1005.715	1416.76
1006.009	1398.9
1006.304	1427.38
1006.598	1395.29
1006.892	1396.64
1007.186	1371.56
1007.48	1374.72
1007.773	1379.24
1008.067	1361.84
1008.361	1361.62
1008.655	1359.58
1008.948	1336.53
1009.242	1334.72
1009.535	1328.62
1009.829	1333.14
1010.122	1326.59
1010.415	1302.18
1010.708	1297.89
1011.001	1314.16
1011.295	1273.71
1011.588	1316.65
1011.881	1272.58
1012.173	1272.35
1012.466	1251.11
1012.759	1272.35
1013.052	1245.91
1013.344	1224.45
1013.637	1219.7
1013.93	1224.22
1014.222	1218.8
1014.514	1212.47
1014.807	1200.04
1015.099	1183.09
1015.391	1215.41
1015.683	1188.06
1015.976	1191.23
1016.268	1193.03
1016.56	1193.26
1016.851	1166.37
1017.143	1165.69
1017.435	1143.32
1017.727	1128.63
1018.018	1138.8
1018.31	1153.49
1018.602	1124.11
1018.893	1108.29
1019.185	1088.18
1019.476	1096.31
1019.767	1078.46
1020.058	1093.6
1020.35	1086.6
1020.641	1064.22
1020.932	1046.82
1021.223	1063.32
1021.514	1024.22
1021.804	1029.42
1022.095	1026.71
1022.386	1046.37
1022.677	1056.54
1022.967	1034.39
1023.258	1039.14
1023.548	1008.63
1023.839	1038.91
1024.129	1014.51
1024.419	994.17
1024.709	978.35
1025	996.65
1025.29	983.32
1025.58	967.5
1025.87	961.18
1026.16	985.36
1026.449	976.77
1026.739	961.63
1027.029	928.63
1027.319	921.85
1027.608	956.2
1027.898	926.83
1028.187	938.58
1028.477	923.89
1028.766	915.3
1029.055	917.11
1029.344	909.43
1029.634	903.1
1029.923	890.89
1030.212	903.55
1030.501	871.23
1030.79	863.78
1031.078	873.72
1031.367	868.07
1031.656	864.23
1031.945	860.16
1032.233	838.69
1032.522	852.25
1032.81	842.76
1033.099	859.71
1033.387	837.79
1033.675	821.97
1033.963	832.59
1034.251	841.18
1034.54	831.69
1034.828	803.89
1035.116	828.75
1035.403	812.03
1035.691	797.34
1035.979	781.52
1036.267	779.71
1036.554	781.97
1036.842	777.23
1037.129	763.44
1037.417	772.93
1037.704	777.45
1037.992	746.27
1038.279	755.3
1038.566	742.2
1038.853	742.2
1039.14	742.2
