Data from breadboard_black_back_FLMS001491_00018.txt Node
Date: Wed Feb 08 10:50:01 GMT 2017
User: dcchb
Spectrometer: FLMS00149
Trigger mode: 0
Integration Time (sec): 2.000000E-2
Scans to average: 10
Electric dark correction enabled: true
Nonlinearity correction enabled: false
Boxcar width: 0
XAxis mode: Wavelengths
Number of Pixels in Spectrum: 2048
>>>>>Begin Spectral Data<<<<<
341.393	-8.95
341.776	-8.95
342.16	-8.95
342.543	-74.49
342.927	-60.03
343.31	-67.71
343.693	-77.65
344.077	-55.73
344.46	-67.71
344.843	-52.8
345.226	-38.33
345.61	-36.52
345.993	-26.36
346.376	-7.82
346.759	10.93
347.142	28.33
347.525	28.56
347.908	56.35
348.291	78.05
348.674	94.09
349.057	134.32
349.44	113.53
349.823	131.61
350.206	160.08
350.588	210.25
350.971	207.99
351.354	242.11
351.737	250.25
352.119	270.81
352.502	269.68
352.884	285.73
353.267	294.31
353.65	285.05
354.032	324.6
354.414	328.89
354.797	311.71
355.179	329.57
355.562	335.44
355.944	333.86
356.326	352.84
356.709	345.84
357.091	342.22
357.473	356.91
357.855	355.56
358.238	342.67
358.62	331.83
359.002	358.04
359.384	328.66
359.766	346.97
360.148	356.46
360.53	346.29
360.912	330.02
361.294	349.23
361.676	350.81
362.057	334.99
362.439	359.85
362.821	369.57
363.203	340.41
363.584	336.35
363.966	341.54
364.348	346.74
364.729	342.45
365.111	345.84
365.493	346.97
365.874	338.15
366.256	337.48
366.637	346.29
367.019	342
367.4	345.16
367.781	331.83
368.163	327.53
368.544	355.56
368.925	350.81
369.306	354.65
369.688	342.22
370.069	356.69
370.45	334.99
370.831	369.57
371.212	360.08
371.593	347.65
371.974	367.08
372.355	362.56
372.736	349.91
373.117	351.94
373.498	356.46
373.879	365.05
374.26	349.23
374.641	335.22
375.021	362.34
375.402	365.5
375.783	354.88
376.163	391.49
376.544	394.2
376.925	368.44
377.305	380.19
377.686	343.58
378.066	359.62
378.447	395.55
378.827	407.98
379.208	379.51
379.588	393.52
379.968	402.33
380.349	384.93
380.729	376.35
381.109	382.9
381.489	386.74
381.87	400.75
382.25	417.47
382.63	409.11
383.01	412.73
383.39	420.86
383.77	415.89
384.15	384.48
384.53	412.05
384.91	406.18
385.29	408.66
385.67	426.74
386.049	433.52
386.429	436.01
386.809	438.04
387.189	438.27
387.568	459.73
387.948	440.07
388.328	437.36
388.707	452.95
389.087	465.61
389.466	467.42
389.846	462.9
390.225	460.64
390.605	465.84
390.984	476.68
391.363	483.46
391.743	488.43
392.122	500.86
392.501	487.98
392.881	510.58
393.26	488.43
393.639	517.36
394.018	517.81
394.397	497.02
394.776	517.36
395.155	551.93
395.534	512.39
395.913	536.34
396.292	510.13
396.671	530.24
397.05	543.35
397.429	547.64
397.808	555.32
398.186	559.62
398.565	556.45
398.944	587.87
399.323	566.62
399.701	544.48
400.08	591.26
400.458	571.6
400.837	598.04
401.215	601.65
401.594	609.11
401.972	597.58
402.351	594.42
402.729	606.62
403.107	596.68
403.486	603.23
403.864	648.66
404.242	634.19
404.62	638.49
404.999	639.39
405.377	641.65
405.755	637.81
406.133	657.02
406.511	649.11
406.889	673.29
407.267	678.94
407.645	705.38
408.023	695.89
408.401	724.36
408.779	712.38
409.156	722.55
409.534	737.69
409.912	749.9
410.29	750.35
410.667	791.48
411.045	777.69
411.422	752.16
411.8	788.99
412.178	801.42
412.555	817.24
412.933	829.44
413.31	840.51
413.687	828.31
414.065	824.7
414.442	855.66
414.819	859.95
415.197	850.46
415.574	886.16
415.951	876.22
416.328	896.33
416.705	897.01
417.082	913.73
417.46	903.56
417.837	917.35
418.214	937.01
418.591	929.1
418.967	956.9
419.344	954.86
419.721	960.96
420.098	967.52
420.475	968.42
420.852	992.15
421.228	999.15
421.605	1014.07
421.982	1018.14
422.358	1046.16
422.735	1037.12
423.111	1017.46
423.488	1083.9
423.864	1043.9
424.241	1062.66
424.617	1079.15
424.994	1091.13
425.37	1115.54
425.746	1120.96
426.123	1162.09
426.499	1134.29
426.875	1152.82
427.251	1176.33
427.627	1180.39
428.003	1183.1
428.379	1207.51
428.756	1230.33
429.132	1242.99
429.507	1272.82
429.883	1249.77
430.259	1286.6
430.635	1289.09
431.011	1307.17
431.387	1320.5
431.763	1349.43
432.138	1348.3
432.514	1374.51
432.89	1400.05
433.265	1414.96
433.641	1409.31
434.016	1440.72
434.392	1435.08
434.767	1502.19
435.143	1508.97
435.518	1508.07
435.894	1546.26
436.269	1545.35
436.644	1553.49
437.02	1585.81
437.395	1561.85
437.77	1587.61
438.145	1635.3
438.52	1654.05
438.895	1659.25
439.271	1682.75
439.646	1698.57
440.021	1717.78
440.395	1730.66
440.77	1699.25
441.145	1736.54
441.52	1751.68
441.895	1731.56
442.27	1809.3
442.645	1808.17
443.019	1824.44
443.394	1784.9
443.769	1809.98
444.143	1856.99
444.518	1874.61
444.892	1840.71
445.267	1891.33
445.641	1892.69
446.016	1922.07
446.39	1918.9
446.764	1957.1
447.139	1914.84
447.513	1950.32
447.887	1965.46
448.262	2004.33
448.636	2019.01
449.01	2054.49
449.384	2017.88
449.758	2053.14
450.132	2049.52
450.506	2097.2
450.88	2080.48
451.254	2096.53
451.628	2131.1
452.002	2156.41
452.376	2181.72
452.75	2209.52
453.123	2210.65
453.497	2241.38
453.871	2232.79
454.244	2313.7
454.618	2320.93
454.992	2339.68
455.365	2384.65
455.739	2427.82
456.112	2431.89
456.486	2493.58
456.859	2453.35
457.232	2541.49
457.606	2557.31
457.979	2622.16
458.352	2650.86
458.725	2642.5
459.099	2660.58
459.472	2741.71
459.845	2730.41
460.218	2738.54
460.591	2809.73
460.964	2806.56
461.337	2864.64
461.71	2930.63
462.083	2967.92
462.456	2958.65
462.829	3014.24
463.201	3047.91
463.574	3070.74
463.947	3121.58
464.32	3179.21
464.692	3175.14
465.065	3247.23
465.438	3291.52
465.81	3298.53
466.183	3366.1
466.555	3398.41
466.928	3441.58
467.3	3425.98
467.672	3497.39
468.045	3601.12
468.417	3609.26
468.789	3614.68
469.161	3671.17
469.534	3743.26
469.906	3865.97
470.278	3816.93
470.65	3907.33
471.022	3966.99
471.394	4047.44
471.766	4056.48
472.138	4141.67
472.51	4199.97
472.882	4257.6
473.253	4272.51
473.625	4367.65
473.997	4479.51
474.369	4484.94
474.74	4524.94
475.112	4665.95
475.484	4736.91
475.855	4799.51
476.227	4855.1
476.598	4981.42
476.97	4979.16
477.341	5147.07
477.713	5156.79
478.084	5264.13
478.455	5377.8
478.827	5430.45
479.198	5495.31
479.569	5551.58
479.94	5708.41
480.311	5793.15
480.682	5891.23
481.053	6018.91
481.424	6160.15
481.795	6207.83
482.166	6312.24
482.537	6369.18
482.908	6502.96
483.279	6639.23
483.65	6715.16
484.021	6783.86
484.391	6885.1
484.762	7007.81
485.133	7037.41
485.503	7114.02
485.874	7304.75
486.244	7371.87
486.615	7507.01
486.985	7596.04
487.356	7734.8
487.726	7799.88
488.097	7918.07
488.467	8015.24
488.837	8171.4
489.207	8177.5
489.578	8402.12
489.948	8440.31
490.318	8561.22
490.688	8616.58
491.058	8702.23
491.428	8803.7
491.798	8952.39
492.168	9032.84
492.538	9136.57
492.908	9259.28
493.278	9340.86
493.648	9449.55
494.017	9586.73
494.387	9679.38
494.757	9679.15
495.126	9755.08
495.496	9827.17
495.866	9917.56
496.235	10012.7
496.605	10142.42
496.974	10104.68
497.344	10321.62
497.713	10351.9
498.082	10446.36
498.452	10571.56
498.821	10579.92
499.19	10631.44
499.559	10791.89
499.928	10810.2
500.298	10865.11
500.667	11042.73
501.036	11042.51
501.405	11168.83
501.774	11184.65
502.143	11254.25
502.512	11387.36
502.88	11457.86
503.249	11493.34
503.618	11555.49
503.987	11606.79
504.356	11789.15
504.724	11814.24
505.093	11881.35
505.462	11910.96
505.83	12038.86
506.199	12034.12
506.567	12299.42
506.936	12277.5
507.304	12345.75
507.672	12509.36
508.041	12631.39
508.409	12674.1
508.777	12864.83
509.145	12887.43
509.514	12930.82
509.882	12959.74
510.25	13068.89
510.618	13090.14
510.986	13233.41
511.354	13364.71
511.722	13384.14
512.09	13638.82
512.458	13630.23
512.826	13745.03
513.193	13769.89
513.561	13834.52
513.929	13912.04
514.297	14120.39
514.664	14218.24
515.032	14258.69
515.4	14513.83
515.767	14554.5
516.135	14630.66
516.502	14606.03
516.869	14901.16
517.237	14903.87
517.604	14845.8
517.972	15128.27
518.339	15169.18
518.706	15217.09
519.073	15404.2
519.44	15467.47
519.808	15570.97
520.175	15621.82
520.542	15807.8
520.909	16038.31
521.276	15942.72
521.643	16183.61
522.009	16252.54
522.376	16433.78
522.743	16600.33
523.11	16681.68
523.477	16897.49
523.843	16963.71
524.21	17097.04
524.577	17243.93
524.943	17344.26
525.31	17419.06
525.676	17525.73
526.043	17715.55
526.409	17844.59
526.776	18135.43
527.142	17963.68
527.508	18141.98
527.874	18309.21
528.241	18434.63
528.607	18507.17
528.973	18753.49
529.339	18721.4
529.705	18930.43
530.071	19144.44
530.437	19158.68
530.803	19306.7
531.169	19443.87
531.535	19410.65
531.901	19495.17
532.267	19647.03
532.632	19780.13
532.998	19806.12
533.364	19891.77
533.73	20061.25
534.095	20129.95
534.461	20237.97
534.826	20265.31
535.192	20453.33
535.557	20562.71
535.923	20619.88
536.288	20656.72
536.653	20785.98
537.019	20774.68
537.384	20867.56
537.749	20972.87
538.114	21051.73
538.479	21182.13
538.845	21330.37
539.21	21245.4
539.575	21304.16
539.94	21415.57
540.305	21626.41
540.67	21494.43
541.034	21595
541.399	21762.9
541.764	21824.6
542.129	21872.73
542.494	21922.67
542.858	22107.3
543.223	22056.23
543.587	22178.26
543.952	22146.17
544.316	22222.78
544.681	22348.88
545.045	22495.99
545.41	22659.15
545.774	22729.2
546.138	22755.64
546.503	22789.54
546.867	22832.48
547.231	23022.08
547.595	23042.19
547.959	23155.86
548.324	23131.23
548.688	23164.22
549.052	23336.87
549.416	23363.09
549.779	23454.16
550.143	23426.59
550.507	23726.24
550.871	23674.26
551.235	23722.4
551.599	23923.3
551.962	24016.18
552.326	24134.82
552.689	24356.28
553.053	24182.5
553.417	24173.69
553.78	24580.91
554.143	24390.18
554.507	24637.4
554.87	24634.69
555.234	24953.78
555.597	24829.71
555.96	24929.37
556.323	25144.06
556.686	25130.27
557.05	25271.96
557.413	25407.78
557.776	25351.06
558.139	25685.06
558.502	25720.31
558.865	25716.02
559.228	26061.09
559.59	25949.68
559.953	26088.21
560.316	26476
560.679	26387.64
561.041	26611.36
561.404	26551.25
561.767	26845.48
562.129	26693.85
562.492	27080.05
562.854	26912.82
563.217	27101.29
563.579	27148.98
563.941	27338.12
564.304	27476.88
564.666	27679.81
565.028	27701.5
565.39	27802.52
565.753	28057.88
566.115	28165.22
566.477	28211.55
566.839	28303.3
567.201	28635.26
567.563	28575.83
567.925	28772.44
568.287	28853.11
568.648	28746.9
569.01	28959.55
569.372	29100.56
569.734	29046.1
570.095	29273.21
570.457	29368.8
570.819	29446.99
571.18	29461.23
571.542	29662.81
571.903	29631.85
572.265	29746.2
572.626	29872.52
572.987	29988.45
573.349	30129.69
573.71	30123.81
574.071	30345.05
574.432	30284.94
574.794	30513.63
575.155	30455.78
575.516	30402.9
575.877	30659.17
576.238	30738.26
576.599	30711.82
576.96	30803.79
577.32	30773.74
577.681	30928.54
578.042	31121.07
578.403	31062.54
578.763	31018.48
579.124	31180.28
579.485	31265.93
579.845	31345.7
580.206	31298.92
580.566	31263.9
580.927	31326.72
581.287	31449.88
581.648	31281.07
582.008	31618.24
582.368	31521.74
582.728	31534.85
583.089	31380.5
583.449	31455.98
583.809	31628.63
584.169	31599.25
584.529	31611.23
584.889	31788.18
585.249	31585.47
585.609	31461.63
585.969	31755.63
586.329	31587.5
586.688	31648.07
587.048	31598.35
587.408	31537.33
587.768	31581.63
588.127	31509.99
588.487	31466.6
588.846	31835.18
589.206	31524.23
589.565	31647.61
589.925	31702.75
590.284	31488.97
590.643	31592.7
591.003	31937.78
591.362	31912.69
591.721	31839.02
592.08	31812.13
592.44	31921.28
592.799	31917.89
593.158	31843.54
593.517	31738.01
593.876	31870.43
594.235	31854.84
594.593	31844.9
594.952	31924.67
595.311	31866.37
595.67	31959.47
596.029	32079.02
596.387	32168.05
596.746	32212.57
597.104	31970.09
597.463	32032.46
597.822	32194.49
598.18	31991.56
598.538	31994.95
598.897	32241.5
599.255	31973.26
599.613	32460.25
599.972	32222.06
600.33	32319.69
600.688	32196.98
601.046	32265.68
601.404	32481.26
601.762	32392.45
602.12	32498.67
602.478	32435.16
602.836	32480.59
603.194	32406.24
603.552	32468.61
603.91	32434.71
604.268	32572.56
604.625	32478.78
604.983	32734.59
605.341	32518.55
605.698	32611.2
606.056	32695.95
606.413	32694.37
606.771	32746.34
607.128	32950.86
607.485	32717.64
607.843	32668.6
608.2	32984.75
608.557	32968.03
608.914	32908.82
609.272	33152.89
609.629	33197.63
609.986	33340
610.343	33014.36
610.7	33388.59
611.057	33408.25
611.414	33196.5
611.771	33306.1
612.127	33370.05
612.484	33358.53
612.841	33367.12
613.198	33294.35
613.554	33425.65
613.911	33512.2
614.267	33600.56
614.624	33441.47
614.98	33530.95
615.337	33756.26
615.693	33656.6
616.05	33616.38
616.406	33813.43
616.762	33760.33
617.118	33690.05
617.475	33847.78
617.831	33861.79
618.187	33790.61
618.543	34003.94
618.899	33975.24
619.255	33977.04
619.611	33871.06
619.967	34014.78
620.323	34143.14
620.678	34031.73
621.034	33973.65
621.39	33959.64
621.746	33851.4
622.101	34479.4
622.457	33910.15
622.812	34118.74
623.168	34345.17
623.523	34124.39
623.879	34243.25
624.234	33955.12
624.589	34135.46
624.945	34260.88
625.3	34214.33
625.655	34227.66
626.01	34163.93
626.365	34185.17
626.72	34058.85
627.075	34091.62
627.43	34022.24
627.785	34061.79
628.14	34129.58
628.495	34138.17
628.85	34024.95
629.205	34011.85
629.559	34208
629.914	33826.99
630.269	33847.1
630.623	33913.54
630.978	33829.25
631.332	34182.69
631.687	34072.18
632.041	33828.35
632.396	33998.06
632.75	33838.74
633.104	33726.43
633.459	33666.54
633.813	33651.86
634.167	33678.52
634.521	33589.94
634.875	33660.22
635.229	33537.06
635.583	33277.63
635.937	33537.73
636.291	33455.7
636.645	33500.45
636.999	33362.15
637.352	33335.48
637.706	33266.1
638.06	33467.91
638.413	33307.46
638.767	33185.65
639.121	33153.79
639.474	33023.85
639.828	33069.5
640.181	33079.67
640.534	33025.43
640.888	32969.84
641.241	32823.85
641.594	32857.75
641.947	33055.49
642.301	32708.6
642.654	32830.63
643.007	32705.67
643.36	32765.32
643.713	32659.56
644.066	32661.82
644.419	32618.44
644.771	32425.67
645.124	32183.65
645.477	32051.9
645.83	31970.77
646.182	31766.48
646.535	31638.57
646.888	31559.93
647.24	31484.23
647.593	31574.85
647.945	31479.93
648.298	31334.63
648.65	31293.05
649.002	31100.28
649.355	31454.62
649.707	31302.09
650.059	31436.55
650.411	31897.55
650.763	31880.38
651.115	32201.05
651.467	32009.86
651.819	31918.79
652.171	31879.47
652.523	31770.77
652.875	31901.17
653.227	31638.8
653.578	31920.38
653.93	31648.97
654.282	31597.22
654.633	31575.3
654.985	31726.48
655.337	31782.3
655.688	31601.97
656.039	31743.43
656.391	31439.94
656.742	31511.12
657.094	31563.32
657.445	31764.67
657.796	31653.04
658.147	31417.11
658.498	31494.62
658.849	31391.12
659.2	31375.3
659.551	31461.4
659.902	31465.25
660.253	31451.91
660.604	31560.84
660.955	31242.88
661.306	31414.85
661.656	31424.34
662.007	31213.73
662.358	31218.92
662.708	31271.35
663.059	31102.77
663.409	31095.31
663.76	31332.37
664.11	31228.87
664.461	31262.09
664.811	31187.29
665.161	31101.87
665.511	31217.34
665.862	31161.53
666.212	31153.84
666.562	31171.92
666.912	31137.57
667.262	31072.94
667.612	31060.51
667.962	31100.51
668.312	31127.85
668.662	31088.53
669.011	31069.1
669.361	31065.93
669.711	30944.13
670.06	30862.78
670.41	30817.13
670.76	30930.57
671.109	30977.12
671.459	30909.55
671.808	30866.17
672.157	30989.1
672.507	30674.08
672.856	30651.03
673.205	30787.07
673.554	30798.37
673.904	30715.21
674.253	30796.34
674.602	30789.33
674.951	30135.79
675.3	30072.74
675.649	30688.09
675.998	30581.65
676.346	30549.79
676.695	30657.58
677.044	30369
677.393	30477.25
677.741	30445.61
678.09	30475.44
678.438	30438.61
678.787	30380.3
679.135	30475.44
679.484	30137.82
679.832	30367.87
680.181	30091.5
680.529	30301.66
680.877	30143.47
681.225	29979.86
681.573	30310.25
681.922	30051.5
682.27	29990.71
682.618	29950.94
682.966	29893.99
683.314	29941.9
683.661	29948
684.009	29765.86
684.357	29686.31
684.705	29649.7
685.053	29618.97
685.4	29603.37
685.748	29366.32
686.095	29379.88
686.443	29341.91
686.79	29177.62
687.138	29277.28
687.485	29303.04
687.832	29089.72
688.18	29142.6
688.527	29062.15
688.874	28961.13
689.221	28985.99
689.568	28928.36
689.915	28845.43
690.262	28819.67
690.609	28817.18
690.956	28607.24
691.303	28602.5
691.65	28607.02
691.997	28453.8
692.344	28308.49
692.69	28309.85
693.037	28288.38
693.383	28156.18
693.73	28157.54
694.077	27880.26
694.423	27967.03
694.769	27882.74
695.116	27729.53
695.462	27727.04
695.808	27710.09
696.155	27783.31
696.501	27529.98
696.847	27618.12
697.193	27256.77
697.539	27415.86
697.885	27133.38
698.231	27036.21
698.577	27097.68
698.923	27098.36
699.269	26926.83
699.614	26726.84
699.96	26709.66
700.306	26817.68
700.651	26650.23
700.997	26485.72
701.342	26615.43
701.688	26492.95
702.033	26455.21
702.379	26403.91
702.724	26360.75
703.069	26309
703.415	26076.69
703.76	26001.66
704.105	26047.31
704.45	25964.37
704.795	25772.51
705.14	25804.83
705.485	25695
705.83	25640.99
706.175	25615.23
706.52	25481.67
706.865	25510.83
707.209	25490.71
707.554	25381.11
707.899	25552.18
708.243	25295.46
708.588	25314.45
708.932	25004.4
709.277	25089.14
709.621	25150.84
709.966	24991.07
710.31	25057.28
710.654	24803.27
710.998	24837.4
711.342	24797.85
711.687	24724.86
712.031	24618.87
712.375	24590.62
712.719	24578.65
713.063	24470.85
713.407	24612.32
713.75	24445.77
714.094	24389.5
714.438	24295.94
714.782	24282.16
715.125	24118.55
715.469	24128.94
715.812	24065.89
716.156	24029.96
716.499	24070.41
716.843	24017.31
717.186	23753.13
717.53	23992.45
717.873	23963.52
718.216	23838.55
718.559	23707.03
718.902	23641.05
719.246	23761.49
719.589	23570.76
719.932	23455.51
720.275	23541.84
720.617	23468.62
720.96	23475.63
721.303	23407.83
721.646	23347.72
721.989	23301.17
722.331	23316.99
722.674	23217.78
723.016	23287.38
723.359	23229.98
723.701	23204.45
724.044	23056.88
724.386	23031.57
724.729	22982.76
725.071	22991.8
725.413	22961.29
725.755	22937.33
726.097	22837.68
726.439	22677.68
726.782	22721.97
727.124	22822.76
727.465	22718.36
727.807	22674.74
728.149	22598.36
728.491	22500.06
728.833	22598.59
729.175	22496.44
729.516	22520.62
729.858	22400.85
730.199	22538.48
730.541	22387.52
730.882	22275.43
731.224	22456.67
731.565	22182.55
731.906	22105.27
732.248	22237.01
732.589	22188.43
732.93	22139.84
733.271	21998.38
733.612	22106.62
733.953	22034.53
734.294	21917.47
734.635	21990.02
734.976	21844.48
735.317	21855.56
735.658	21840.19
735.999	21886.51
736.339	21751.15
736.68	21876.35
737.021	21683.81
737.361	21630.02
737.702	21685.39
738.042	21588.44
738.383	21696.46
738.723	21614.88
739.063	21511.16
739.404	21615.11
739.744	21494.21
740.084	21371.27
740.424	21437.49
740.764	21407.88
741.104	21414.66
741.444	21270.49
741.784	21141.22
742.124	21308.9
742.464	21287.43
742.804	21212.18
743.143	21173.09
743.483	21141.22
743.823	21017.84
744.162	20985.75
744.502	21007.22
744.841	20968.12
745.181	20997.27
745.52	20834.34
745.86	20976.26
746.199	20808.58
746.538	20808.58
746.877	20872.3
747.216	20843.83
747.556	20660.56
747.895	20749.82
748.234	20541.47
748.573	20690.61
748.911	20581.46
749.25	20628.69
749.589	20362.04
749.928	20458.53
750.267	20439.32
750.605	20341.02
750.944	20369.04
751.283	20228.71
751.621	20381.7
751.96	20190.97
752.298	20127.92
752.636	20127.69
752.975	20034.13
753.313	19990.97
753.651	20000.69
753.989	19896.06
754.327	19869.84
754.666	19698.1
755.004	19773.8
755.342	19844.08
755.679	19803.41
756.017	19650.87
756.355	19695.16
756.693	19634.82
757.031	19632.56
757.368	19534.03
757.706	19486.13
758.044	19474.15
758.381	19445.45
758.719	19313.02
759.056	19422.85
759.394	19260.6
759.731	19157.1
760.068	19188.73
760.405	19103.31
760.743	18991.68
761.08	18924.33
761.417	18843.66
761.754	18859.7
762.091	18911.45
762.428	18727.05
762.765	18644.57
763.102	18640.95
763.438	18607.05
763.775	18453.61
764.112	18502.2
764.449	18542.2
764.785	18397.57
765.122	18347.17
765.458	18192.37
765.795	18164.58
766.131	18208.42
766.467	18144.01
766.804	17937.69
767.14	17883.91
767.476	17916.9
767.812	17789.45
768.148	17848.65
768.485	17769.56
768.821	17616.12
769.157	17611.83
769.492	17554.2
769.828	17474.88
770.164	17327.09
770.5	17443.02
770.836	17396.92
771.171	17164.61
771.507	17214.55
771.842	17047.09
772.178	17072.63
772.513	17045.51
772.849	16988.11
773.184	16844.61
773.519	16872.86
773.855	16813.2
774.19	16768.46
774.525	16660.89
774.86	16624.05
775.195	16633.77
775.53	16523.49
775.865	16377.06
776.2	16350.62
776.535	16250.96
776.87	16301.35
777.205	16157.63
777.539	16074.69
777.874	16115.82
778.209	15980.46
778.543	15872.89
778.878	15832.66
779.212	15917.86
779.547	15810.52
779.881	15856.84
780.215	15665.44
780.55	15675.83
780.884	15622.72
781.218	15545.89
781.552	15544.76
781.886	15359.23
782.22	15326.46
782.554	15300.93
782.888	15172.12
783.222	15157.43
783.556	15109.07
783.889	15034.72
784.223	14994.27
784.557	14966.47
784.89	14942.97
785.224	14881.73
785.557	14814.61
785.891	14822.07
786.224	14681.96
786.558	14690.55
786.891	14581.4
787.224	14484.9
787.557	14438.8
787.891	14424.11
788.224	14406.03
788.557	14311.8
788.89	14339.14
789.223	14275.87
789.556	14164.46
789.888	14148.64
790.221	14175.53
790.554	13986.61
790.887	14057.79
791.219	13984.8
791.552	13926.95
791.884	13876.56
792.217	13851.92
792.549	13792.26
792.882	13621.87
793.214	13641.99
793.546	13604.25
793.879	13532.16
794.211	13476.11
794.543	13518.83
794.875	13463.23
795.207	13500.29
795.539	13442.67
795.871	13351.6
796.203	13286.52
796.535	13179.4
796.867	13179.85
797.198	13147.54
797.53	13099.4
797.862	13063.92
798.193	13094.88
798.525	12933.53
798.856	12975.56
799.188	12902.34
799.519	12814.21
799.85	12794.78
800.182	12794.55
800.513	12840.65
800.844	12620.77
801.175	12718.17
801.506	12726.53
801.837	12645.18
802.168	12581.67
802.499	12587.1
802.83	12438.85
803.161	12455.35
803.491	12403.37
803.822	12417.16
804.153	12401.57
804.483	12231.85
804.814	12176.49
805.145	12204.28
805.475	12152.31
805.805	12141.69
806.136	12191.18
806.466	12082.48
806.796	12157.96
807.126	11970.39
807.457	11981.92
807.787	11937.17
808.117	11869.6
808.447	11957.28
808.777	11976.04
809.107	11816.72
809.436	11725.88
809.766	11832.77
810.096	11757.29
810.426	11653.34
810.755	11684.98
811.085	11634.13
811.414	11598.88
811.744	11564.75
812.073	11551.65
812.403	11527.69
812.732	11426.22
813.061	11480.01
813.39	11432.55
813.719	11440.46
814.049	11454.7
814.378	11347.81
814.707	11324.31
815.036	11279.11
815.365	11230.98
815.693	11174.71
816.022	11239.11
816.351	11135.61
816.68	11089.06
817.008	11067.36
817.337	10988.5
817.665	11019.23
817.994	11040.25
818.322	11030.08
818.651	11049.96
818.979	10942.17
819.307	10979.01
819.636	10935.16
819.964	10830.76
820.292	10900.82
820.62	10854.26
820.948	10793.7
821.276	10896.97
821.604	10781.95
821.932	10818.78
822.259	10822.63
822.587	10878.22
822.915	10765
823.243	10827.6
823.57	10752.34
823.898	10862.4
824.225	10755.51
824.553	10705.11
824.88	10787.82
825.207	10827.37
825.535	10783.98
825.862	10735.17
826.189	10783.08
826.516	10821.95
826.843	10806.58
827.17	10790.99
827.497	10752.34
827.824	10727.03
828.151	10809.74
828.478	10873.7
828.805	10809.74
829.131	10777.88
829.458	10749.41
829.785	10642.97
830.111	10737.88
830.438	10827.82
830.764	10755.28
831.09	10712.35
831.417	10705.57
831.743	10703.31
832.069	10787.6
832.395	10699.46
832.722	10702.4
833.048	10744.89
833.374	10720.25
833.7	10680.93
834.026	10750.54
834.351	10663.08
834.677	10738.79
835.003	10593.7
835.329	10647.71
835.654	10645
835.98	10578.79
836.306	10613.37
836.631	10558.45
836.956	10581.95
837.282	10663.53
837.607	10505.8
837.932	10489.98
838.258	10497.21
838.583	10458.34
838.908	10444.1
839.233	10384.67
839.558	10434.39
839.883	10345.12
840.208	10424.9
840.533	10343.32
840.858	10350.32
841.182	10385.57
841.507	10323.2
841.832	10196.88
842.156	10253.83
842.481	10260.61
842.805	10179.93
843.13	10235.3
843.454	10195.52
843.778	10129.31
844.103	10118.69
844.427	10045.92
844.751	10108.52
845.075	10036.21
845.399	10016.54
845.723	10003.89
846.047	9958.02
846.371	9963.21
846.695	9918.47
847.019	9817.68
847.343	9762.99
847.666	9762.77
847.99	9668.76
848.313	9697
848.637	9645.25
848.96	9633.05
849.284	9658.36
849.607	9550.79
849.931	9479.38
850.254	9476.45
850.577	9410.01
850.9	9378.37
851.223	9338.6
851.546	9297.47
851.869	9314.64
852.192	9266.06
852.515	9192.61
852.838	9161.2
853.161	9142.44
853.483	9118.04
853.806	9037.59
854.129	9041.43
854.451	8974.76
854.774	9008.89
855.096	8957.82
855.419	8886.63
855.741	8867.2
856.063	8824.71
856.385	8857.48
856.708	8829.68
857.03	8763.24
857.352	8867.87
857.674	8777.03
857.996	8685.73
858.318	8636.69
858.64	8748.33
858.961	8666.52
859.283	8636.02
859.605	8624.04
859.926	8650.03
860.248	8571.38
860.57	8609.12
860.891	8565.06
861.212	8557.83
861.534	8497.94
861.855	8433.99
862.176	8467.21
862.498	8460.43
862.819	8424.95
863.14	8381.11
863.461	8420.43
863.782	8375.01
864.103	8398.96
864.424	8384.95
864.745	8360.77
865.065	8302.92
865.386	8306.98
865.707	8306.98
866.027	8249.13
866.348	8272.18
866.668	8282.8
866.989	8235.12
867.309	8168.46
867.63	8217.72
867.95	8170.27
868.27	8114.67
868.59	8145.41
868.91	8149.93
869.23	8148.8
869.55	8121
869.87	8142.7
870.19	8111.74
870.51	8023.6
870.83	8069.7
871.15	8056.6
871.469	7986.99
871.789	8021.79
872.109	8040.33
872.428	8003.26
872.748	8060.89
873.067	7949.25
873.386	7998.52
873.706	7931.85
874.025	7932.08
874.344	7923.72
874.663	7902.25
874.982	7935.47
875.301	7924.85
875.62	7856.6
875.939	7898.18
876.258	7877.17
876.577	7828.58
876.896	7810.95
877.214	7804.17
877.533	7832.42
877.852	7855.47
878.17	7827.68
878.489	7762.14
878.807	7772.08
879.125	7747.23
879.444	7732.31
879.762	7678.3
880.08	7683.27
880.398	7643.05
880.716	7678.3
881.034	7676.27
881.352	7626.78
881.67	7667.45
881.988	7572.99
882.306	7642.14
882.624	7602.14
882.941	7567.57
883.259	7516.05
883.577	7525.31
883.894	7513.56
884.212	7478.08
884.529	7526.44
884.846	7485.31
885.164	7425.88
885.481	7405.77
885.798	7395.82
886.115	7397.86
886.432	7337.74
886.75	7361.93
887.067	7409.83
887.383	7280.12
887.7	7401.02
888.017	7323.06
888.334	7255.94
888.651	7299.78
888.967	7233.11
889.284	7154.7
889.6	7178.43
889.917	7147.47
890.233	7144.3
890.55	7113.57
890.866	7162.61
891.182	7058.88
891.498	7067.7
891.815	7057.3
892.131	7046.91
892.447	7010.52
892.763	6995.61
893.079	6986.57
893.395	6961.48
893.71	6967.13
894.026	6898.66
894.342	6914.48
894.657	6828.61
894.973	6879.9
895.289	6854.37
895.604	6830.19
895.92	6804.43
896.235	6739.79
896.55	6759.46
896.865	6733.69
897.181	6724.88
897.496	6754.48
897.811	6658.67
898.126	6688.72
898.441	6638.78
898.756	6619.12
899.071	6542.51
899.386	6553.36
899.7	6486.47
900.015	6554.71
900.33	6439.46
900.644	6495.28
900.959	6457.09
901.273	6406.7
901.588	6399.24
901.902	6316.98
902.216	6353.36
902.531	6319.69
902.845	6297.32
903.159	6267.72
903.473	6233.37
903.787	6237.89
904.101	6223.65
904.415	6229.53
904.729	6203.31
905.042	6154.05
905.356	6081.73
905.67	6141.17
905.984	6108.62
906.297	6093.94
906.611	6025.92
906.924	6041.51
907.237	5971.91
907.551	5991.11
907.864	5981.85
908.177	5921.96
908.491	5964.9
908.804	5936.65
909.117	5861.17
909.43	5876.09
909.743	5783.66
910.056	5855.52
910.368	5783.89
910.681	5758.8
910.994	5762.87
911.307	5709.54
911.619	5690.56
911.932	5691.69
912.244	5679.03
912.557	5634.96
912.869	5605.59
913.181	5619.82
913.494	5566.94
913.806	5521.97
914.118	5491.92
914.43	5513.61
914.742	5537.57
915.054	5494.86
915.366	5486.95
915.678	5440.85
915.99	5387.74
916.302	5394.52
916.613	5347.97
916.925	5328.53
917.236	5307.06
917.548	5247.86
917.859	5272.26
918.171	5178.48
918.482	5229.33
918.794	5234.07
919.105	5215.99
919.416	5135.77
919.727	5164.47
920.038	5122.21
920.349	5138.71
920.66	5145.26
920.971	5098.26
921.282	5010.12
921.593	5008.54
921.903	4974.64
922.214	4993.4
922.525	4941.88
922.835	4915.66
923.146	4922.67
923.456	4907.3
923.767	4895.32
924.077	4840.41
924.387	4833.18
924.697	4783.91
925.008	4785.27
925.318	4850.58
925.628	4810.13
925.938	4733.97
926.248	4699.17
926.558	4693.29
926.867	4679.06
927.177	4674.99
927.487	4654.65
927.796	4632.28
928.106	4589.12
928.416	4578.27
928.725	4615.78
929.034	4506.63
929.344	4533.98
929.653	4562
929.962	4518.16
930.271	4504.15
930.581	4493.98
930.89	4378.27
931.199	4410.82
931.508	4392.06
931.817	4394.55
932.125	4406.07
932.434	4352.96
932.743	4322.46
933.051	4322.68
933.36	4264.61
933.669	4239.75
933.977	4269.13
934.286	4277.71
934.594	4234.32
934.902	4176.7
935.21	4159.98
935.519	4165.17
935.827	4150.71
936.135	4134.67
936.443	4123.37
936.751	4141.22
937.059	4116.59
937.367	4046.76
937.674	4076.59
937.982	4053.54
938.29	3998.4
938.597	4052.41
938.905	3962.69
939.213	3970.38
939.52	3933.77
939.827	3955.91
940.135	3894.45
940.442	3901
940.749	3891.73
941.056	3868.46
941.363	3861.23
941.67	3850.15
941.977	3785.97
942.284	3840.89
942.591	3812.64
942.898	3781.68
943.205	3796.82
943.511	3754.11
943.818	3740.55
944.125	3708.24
944.431	3696.26
944.738	3717.73
945.044	3665.98
945.35	3665.3
945.657	3640.22
945.963	3644.73
946.269	3586.66
946.575	3574.68
946.881	3601.35
947.187	3574.45
947.493	3546.66
947.799	3565.87
948.105	3528.58
948.41	3519.99
948.716	3482.25
949.022	3471.63
949.327	3457.62
949.633	3444.29
949.938	3432.99
950.244	3435.7
950.549	3438.19
950.854	3397.06
951.16	3376.72
951.465	3366.1
951.77	3364.74
952.075	3367.45
952.38	3356.15
952.685	3341.47
952.99	3301.69
953.294	3315.25
953.599	3268.25
953.904	3257.4
954.209	3227.57
954.513	3266.67
954.818	3235.93
955.122	3226.67
955.426	3180.57
955.731	3219.44
956.035	3167.91
956.339	3184.63
956.643	3187.57
956.948	3134.24
957.252	3096.73
957.556	3118.42
957.86	3091.3
958.163	3069.61
958.467	3028.03
958.771	3068.25
959.075	3029.61
959.378	3049.27
959.682	2985.54
959.985	3035.26
960.289	2994.36
960.592	2961.81
960.896	2951.42
961.199	2941.7
961.502	2953.91
961.805	2895.38
962.108	2895.6
962.411	2891.53
962.714	2872.78
963.017	2853.34
963.32	2848.15
963.623	2833.68
963.926	2845.89
964.228	2854.25
964.531	2832.1
964.833	2818.09
965.136	2776.51
965.438	2780.12
965.741	2770.41
966.043	2767.02
966.345	2771.54
966.648	2713.91
966.95	2768.6
967.252	2722.95
967.554	2712.1
967.856	2678.66
968.158	2666.91
968.46	2655.38
968.761	2648.6
969.063	2636.4
969.365	2632.78
969.666	2659.22
969.968	2618.32
970.269	2596.85
970.571	2593.24
970.872	2568.38
971.174	2587.36
971.475	2554.82
971.776	2565.44
972.077	2528.83
972.378	2545.78
972.679	2509.85
972.98	2484.54
973.281	2508.95
973.582	2501.94
973.883	2477.08
974.183	2469.62
974.484	2470.08
974.785	2428.95
975.085	2439.57
975.386	2443.18
975.686	2414.26
975.986	2437.08
976.287	2418.78
976.587	2407.25
976.887	2382.17
977.187	2388.72
977.487	2392.11
977.787	2352.57
978.087	2358.89
978.387	2330.64
978.687	2308.05
978.987	2291.1
979.286	2287.93
979.586	2278.44
979.885	2268.27
980.185	2277.76
980.484	2247.03
980.784	2273.92
981.083	2220.82
981.382	2224.43
981.682	2227.14
981.981	2236.64
982.28	2218.11
982.579	2187.37
982.878	2177.65
983.177	2158.45
983.475	2192.34
983.774	2143.08
984.073	2145.34
984.372	2139.92
984.67	2149.63
984.969	2117.54
985.267	2115.51
985.566	2104.89
985.864	2129.07
986.162	2071.67
986.461	2041.39
986.759	2080.71
987.057	2039.58
987.355	2063.08
987.653	2038.9
987.951	2014.04
988.249	2053.59
988.547	2031.67
988.844	2014.5
989.142	2009.52
989.44	2008.39
989.737	2005
990.035	1979.69
990.332	1978.56
990.63	1953.93
990.927	1941.28
991.224	1943.31
991.521	1940.6
991.819	1958
992.116	1896.08
992.413	1897.66
992.71	1875.74
993.006	1885.91
993.303	1885.23
993.6	1875.74
993.897	1878
994.193	1892.69
994.49	1873.71
994.787	1841.39
995.083	1826.03
995.379	1858.11
995.676	1825.35
995.972	1811.34
996.268	1768.63
996.565	1796.2
996.861	1787.16
997.157	1809.3
997.453	1764.56
997.749	1751.9
998.044	1745.8
998.34	1721.62
998.636	1699.25
998.932	1698.12
999.227	1728.85
999.523	1719.14
999.818	1706.93
1000.114	1687.72
1000.409	1654.5
1000.704	1656.31
1001	1688.4
1001.295	1650.21
1001.59	1611.57
1001.885	1637.33
1002.18	1618.35
1002.475	1615.18
1002.77	1607.73
1003.065	1596.2
1003.359	1604.34
1003.654	1569.76
1003.949	1574.73
1004.243	1562.98
1004.538	1548.74
1004.832	1595.52
1005.127	1541.06
1005.421	1545.58
1005.715	1552.13
1006.009	1501.51
1006.304	1503.1
1006.598	1530.44
1006.892	1516.43
1007.186	1491.12
1007.48	1490.89
1007.773	1492.25
1008.067	1456.32
1008.361	1459.48
1008.655	1461.97
1008.948	1447.73
1009.242	1447.96
1009.535	1412.93
1009.829	1429.65
1010.122	1413.83
1010.415	1436.21
1010.708	1411.8
1011.001	1352.59
1011.295	1399.82
1011.588	1387.39
1011.881	1362.31
1012.173	1381.29
1012.466	1395.53
1012.759	1344.23
1013.052	1344.68
1013.344	1355.98
1013.637	1336.77
1013.93	1313.27
1014.222	1334.51
1014.514	1312.59
1014.807	1287.51
1015.099	1296.32
1015.391	1260.16
1015.683	1273.5
1015.976	1272.59
1016.268	1278.7
1016.56	1274.4
1016.851	1247.74
1017.143	1227.85
1017.435	1231.01
1017.727	1221.07
1018.018	1225.82
1018.31	1225.14
1018.602	1215.87
1018.893	1194.18
1019.185	1186.95
1019.476	1182.88
1019.767	1202.09
1020.058	1173.61
1020.35	1162.31
1020.641	1138.36
1020.932	1195.31
1021.223	1180.62
1021.514	1154.63
1021.804	1123.22
1022.095	1123.67
1022.386	1100.85
1022.677	1122.32
1022.967	1087.51
1023.258	1093.84
1023.548	1079.15
1023.839	1131.81
1024.129	1068.98
1024.419	1061.53
1024.709	1052.26
1025	1055.2
1025.29	1053.16
1025.58	1061.07
1025.87	1073.95
1026.16	1037.57
1026.449	1042.09
1026.739	1017.23
1027.029	1037.35
1027.319	1016.56
1027.608	1030.79
1027.898	1015.2
1028.187	992.38
1028.477	993.96
1028.766	967.29
1029.055	972.26
1029.344	965.94
1029.634	978.36
1029.923	958.93
1030.212	968.19
1030.501	942.43
1030.79	933.39
1031.078	951.47
1031.367	931.36
1031.656	935.43
1031.945	930.46
1032.233	932.72
1032.522	910.57
1032.81	891.81
1033.099	878.03
1033.387	900.17
1033.675	896.56
1033.963	895.88
1034.251	874.19
1034.54	863.56
1034.828	885.26
1035.116	887.75
1035.403	855.43
1035.691	845.71
1035.979	837.8
1036.267	824.24
1036.554	843.9
1036.842	845.94
1037.129	845.03
1037.417	822.21
1037.704	832.38
1037.992	809.33
1038.279	812.94
1038.566	805.94
1038.853	805.94
1039.14	805.94
