Data from breadboard_white_FLMS001491_00088.txt Node
Date: Wed Feb 08 10:48:24 GMT 2017
User: dcchb
Spectrometer: FLMS00149
Trigger mode: 0
Integration Time (sec): 2.000000E-2
Scans to average: 10
Electric dark correction enabled: true
Nonlinearity correction enabled: false
Boxcar width: 0
XAxis mode: Wavelengths
Number of Pixels in Spectrum: 2048
>>>>>Begin Spectral Data<<<<<
341.393	-9.82
341.776	-9.82
342.16	-9.82
342.543	-55.46
342.927	-83.26
343.31	-59.53
343.693	-52.53
344.077	-55.92
344.46	-53.43
344.843	-72.87
345.226	-32.87
345.61	-23.38
345.993	-30.38
346.376	-2.36
346.759	14.59
347.142	29.73
347.525	28.83
347.908	39.45
348.291	76.74
348.674	84.64
349.057	109.28
349.44	100.01
349.823	126.23
350.206	165.77
350.588	194.02
350.971	224.98
351.354	258.88
351.737	254.36
352.119	263.62
352.502	274.02
352.884	292.55
353.267	284.64
353.65	325.77
354.032	303.4
354.414	315.83
354.797	325.99
355.179	337.97
355.562	351.08
355.944	328.48
356.326	353.79
356.709	345.65
357.091	344.52
357.473	376.61
357.855	344.07
358.238	356.5
358.62	356.5
359.002	354.69
359.384	365.77
359.766	349.27
360.148	365.77
360.53	356.28
360.912	360.34
361.294	336.84
361.676	362.15
362.057	359.89
362.439	366.45
362.821	361.02
363.203	346.33
363.584	353.56
363.966	350.63
364.348	335.03
364.729	350.17
365.111	360.12
365.493	339.55
365.874	354.92
366.256	341.81
366.637	362.6
367.019	312.89
367.4	358.08
367.781	367.58
368.163	353.79
368.544	342.27
368.925	327.58
369.306	346.33
369.688	362.83
370.069	344.75
370.45	334.81
370.831	353.56
371.212	330.06
371.593	370.51
371.974	352.21
372.355	357.86
372.736	365.09
373.117	361.25
373.498	356.95
373.879	358.76
374.26	358.54
374.641	373
375.021	371.42
375.402	368.7
375.783	355.15
376.163	381.81
376.544	367.12
376.925	376.84
377.305	377.07
377.686	383.39
378.066	385.65
378.447	389.5
378.827	380.23
379.208	388.37
379.588	370.29
379.968	382.72
380.349	366.45
380.729	411.87
381.109	399.44
381.489	374.58
381.87	400.34
382.25	416.61
382.63	399.89
383.01	418.65
383.39	403.51
383.77	430.85
384.15	412.32
384.53	418.42
384.91	411.42
385.29	420.68
385.67	434.01
386.049	439.21
386.429	414.13
386.809	448.93
387.189	457.29
387.568	444.64
387.948	471.98
388.328	481.92
388.707	472.88
389.087	468.59
389.466	455.03
389.846	460
390.225	492.77
390.605	488.48
390.984	466.33
391.363	499.55
391.743	495.26
392.122	501.81
392.501	521.92
392.881	509.72
393.26	505.65
393.639	551.98
394.018	549.72
394.397	545.2
394.776	549.27
395.155	570.73
395.534	567.12
395.913	556.04
396.292	575.25
396.671	608.02
397.05	596.27
397.429	587.23
397.808	576.38
398.186	611.18
398.565	594.91
398.944	616.38
399.323	608.25
399.701	656.16
400.08	641.69
400.458	641.01
400.837	667.23
401.215	674.23
401.594	680.79
401.972	684.85
402.351	696.61
402.729	687.57
403.107	704.52
403.486	716.49
403.864	745.42
404.242	746.55
404.62	770.5
404.999	775.25
405.377	769.6
405.755	801.01
406.133	801.24
406.511	809.37
406.889	839.65
407.267	852.08
407.645	857.96
408.023	884.62
408.401	899.76
408.779	914
409.156	932.53
409.534	945.41
409.912	949.93
410.29	1022.7
410.667	998.07
411.045	1044.85
411.422	1040.55
411.8	1054.34
412.178	1094.56
412.555	1090.95
412.933	1102.02
413.31	1122.58
413.687	1142.02
414.065	1171.62
414.442	1201.45
414.819	1225.18
415.197	1212.75
415.574	1261.56
415.951	1253.43
416.328	1290.04
416.705	1279.19
417.082	1319.19
417.46	1333.65
417.837	1350.83
418.214	1365.06
418.591	1370.49
418.967	1400.77
419.344	1436.7
419.721	1449.13
420.098	1429.24
420.475	1471.05
420.852	1507.88
421.228	1524.15
421.605	1536.13
421.982	1528
422.358	1574.1
422.735	1587.88
423.111	1594.89
423.488	1642.34
423.864	1624.27
424.241	1647.99
424.617	1668.56
424.994	1696.58
425.37	1710.82
425.746	1718.5
426.123	1749.69
426.499	1767.76
426.875	1812.51
427.251	1791.72
427.627	1846.86
428.003	1889.12
428.379	1917.14
428.756	1912.62
429.132	1970.92
429.507	1969.11
429.883	2021.54
430.259	2043.46
430.635	2066.51
431.011	2084.14
431.387	2125.95
431.763	2144.48
432.138	2182.67
432.514	2201.2
432.89	2237.58
433.265	2254.76
433.641	2304.47
434.016	2336.34
434.392	2383.34
434.767	2427.41
435.143	2422.89
435.518	2458.14
435.894	2456.79
436.269	2493.17
436.644	2534.75
437.02	2567.74
437.395	2613.17
437.77	2646.16
438.145	2675.99
438.52	2664.46
438.895	2742.2
439.271	2739.94
439.646	2799.6
440.021	2774.29
440.395	2834.18
440.77	2857.91
441.145	2855.87
441.52	2918.02
441.895	2910.79
442.27	2922.54
442.645	2948.3
443.019	3019.03
443.394	2970.44
443.769	3065.36
444.143	2977
444.518	3078.46
444.892	3080.72
445.267	3094.74
445.641	3135.41
446.016	3114.62
446.39	3194.62
446.764	3225.81
447.139	3212.7
447.513	3243.43
447.887	3272.58
448.262	3325.46
448.636	3299.93
449.01	3343.54
449.384	3378.57
449.758	3422.86
450.132	3443.88
450.506	3494.72
450.88	3506.7
451.254	3485.69
451.628	3585.8
452.002	3556.42
452.376	3644.55
452.75	3651.78
453.123	3650.43
453.497	3720.26
453.871	3786.02
454.244	3870.53
454.618	3909.85
454.992	3927.48
455.365	3946.01
455.739	4046.35
456.112	4073.24
456.486	4109.85
456.859	4167.93
457.232	4247.93
457.606	4240.47
457.979	4307.58
458.352	4381.71
458.725	4435.94
459.099	4472.78
459.472	4568.14
459.845	4647.69
460.218	4669.16
460.591	4687.46
460.964	4696.27
461.337	4901.02
461.71	4922.94
462.083	4989.6
462.456	5010.39
462.829	5037.28
463.201	5113.44
463.574	5164.51
463.947	5199.76
464.32	5303.04
464.692	5351.4
465.065	5470.94
465.438	5513.2
465.81	5562.24
466.183	5639.53
466.555	5745.74
466.928	5839.97
467.3	5737.38
467.672	5909.12
468.045	6096.69
468.417	6076.35
468.789	6114.54
469.161	6229.57
469.534	6302.11
469.906	6451.71
470.278	6530.8
470.65	6540.29
471.022	6663.68
471.394	6859.83
471.766	6801.53
472.138	6993.39
472.51	7122.65
472.882	7218.47
473.253	7328.52
473.625	7407.16
473.997	7564.67
474.369	7651.23
474.74	7707.04
475.112	7950.65
475.484	8003.98
475.855	8171.66
476.227	8224.77
476.598	8472.9
476.97	8507.47
477.341	8773
477.713	8845.09
478.084	8882.83
478.455	9161.92
478.827	9213.67
479.198	9426.55
479.569	9476.71
479.94	9797.16
480.311	9860.21
480.682	10122.8
481.053	10337.48
481.424	10476.24
481.795	10619.96
482.166	10799.17
482.537	10856.11
482.908	11128.42
483.279	11253.39
483.65	11499.94
484.021	11722.53
484.391	11844.34
484.762	11954.16
485.133	12014.05
485.503	12259.92
485.874	12563.41
486.244	12580.14
486.615	12882.05
486.985	13033.91
487.356	13337.86
487.726	13388.7
488.097	13696.26
488.467	13736.26
488.837	14005.63
489.207	14194.56
489.578	14406.3
489.948	14491.27
490.318	14692.17
490.688	14728.78
491.058	15030.01
491.428	15176
491.798	15299.61
492.168	15691.92
492.538	15701.41
492.908	15868.41
493.278	16139.14
493.648	16234.73
494.017	16397.66
494.387	16551.56
494.757	16639.24
495.126	16794.94
495.496	16959.68
495.866	17144.76
496.235	17283.29
496.605	17420.69
496.974	17444.87
497.344	17695.03
497.713	17894.8
498.082	18026.32
498.452	18189.71
498.821	18280.78
499.19	18278.74
499.559	18548.34
499.928	18746.53
500.298	18655.46
500.667	19026.52
501.036	18886.86
501.405	19182.45
501.774	19208.89
502.143	19515.32
502.512	19663.34
502.88	19709.21
503.249	19738.59
503.618	19928.42
503.987	19977.45
504.356	20231.46
504.724	20285.47
505.093	20471.23
505.462	20586.03
505.83	20682.3
506.199	20814.04
506.567	21131.77
506.936	21015.39
507.304	21509.17
507.672	21546.23
508.041	21613.57
508.409	21706.68
508.777	21950.96
509.145	22178.53
509.514	22120
509.882	22428.01
510.25	22494
510.618	22683.15
510.986	22700.32
511.354	22939.86
511.722	23110.93
512.09	23398.38
512.458	23399.29
512.826	23656.23
513.193	23735.55
513.561	23807.86
513.929	24107.29
514.297	24151.81
514.664	24361.97
515.032	24518.58
515.4	24826.82
515.767	24905.01
516.135	25117.66
516.502	25000.83
516.869	25438.1
517.237	25545.44
517.604	25648.72
517.972	25896.85
518.339	26140.23
518.706	26236.95
519.073	26395.82
519.44	26552.65
519.808	26869.93
520.175	26845.52
520.542	27313.31
520.909	27278.05
521.276	27434.21
521.643	27842.78
522.009	27926.85
522.376	28162.78
522.743	28380.62
523.11	28618.81
523.477	28870.78
523.843	29080.04
524.21	29423.53
524.577	29584.21
524.943	29667.6
525.31	29961.83
525.676	30245.21
526.043	30326.34
526.409	30529.27
526.776	30882.48
527.142	31058.97
527.508	31221
527.874	31535.57
528.241	31743.7
528.607	31695.79
528.973	31937.59
529.339	32072.96
529.705	32476.56
530.071	32619.38
530.437	32824.8
530.803	33026.38
531.169	33228.86
531.535	33237.22
531.901	33229.54
532.267	33496.2
532.632	33759.24
532.998	33992.23
533.364	34054.15
533.73	34082.85
534.095	34491.88
534.461	34649.16
534.826	34852.32
535.192	34835.14
535.557	35325.3
535.923	35148.81
536.288	35319.65
536.653	35611.39
537.019	35372.76
537.384	35713.09
537.749	35948.11
538.114	35926.87
538.479	36145.62
538.845	36307.42
539.21	36324.14
539.575	36364.82
539.94	36431.71
540.305	36698.82
540.67	36793.06
541.034	36919.83
541.399	37148.53
541.764	37272.14
542.129	37489.31
542.494	37454.51
542.858	37622.19
543.223	37691.79
543.587	38062.63
543.952	38010.65
544.316	37986.7
544.681	38103.31
545.045	38305.56
545.41	38543.29
545.774	38481.6
546.138	38561.15
546.503	38790.75
546.867	38835.94
547.231	39131.53
547.595	39120.23
547.959	39403.61
548.324	39355.25
548.688	39630.27
549.052	39717.27
549.416	39727.22
549.779	39874.56
550.143	40038.17
550.507	40127.21
550.871	40419.4
551.235	40364.94
551.599	40702.33
551.962	40813.52
552.326	40989.33
552.689	41121.53
553.053	40979.84
553.417	41102.78
553.78	41748.41
554.143	41521.75
554.507	41748.18
554.87	41858.69
555.234	42186.81
555.597	42069.3
555.96	42368.05
556.323	42487.82
556.686	42551.32
557.05	42805.56
557.413	42956.06
557.776	43147.02
558.139	43422.04
558.502	43418.87
558.865	43529.83
559.228	43962.14
559.59	43952.87
559.953	44111.28
560.316	44530.93
560.679	44419.75
561.041	44782
561.404	44830.36
561.767	45170.24
562.129	45153.52
562.492	45486.61
562.854	45452.27
563.217	45567.29
563.579	45812.26
563.941	46001.4
564.304	46270.77
564.666	46346.93
565.028	46513.03
565.39	46533.82
565.753	47015.16
566.115	46905.33
566.477	47062.17
566.839	47250.64
567.201	47679.1
567.563	47555.03
567.925	47758.87
568.287	47986.66
568.648	47919.55
569.01	48185.75
569.372	48438.63
569.734	48236.6
570.095	48564.5
570.457	48706.42
570.819	48810.37
571.18	48910.03
571.542	49145.05
571.903	49136.69
572.265	49389.11
572.626	49360.41
572.987	49273.63
573.349	49656.9
573.71	49676.11
574.071	49793.39
574.432	49920.85
574.794	50102.09
575.155	50087.62
575.516	49912.94
575.877	50114.52
576.238	50217.56
576.599	50391.12
576.96	50370.78
577.32	50453.26
577.681	50467.05
578.042	50569.87
578.403	50622.98
578.763	50665.46
579.124	50759.02
579.485	50873.82
579.845	50982.52
580.206	50958.56
580.566	50927.15
580.927	50920.14
581.287	51202.4
581.648	50956.53
582.008	51207.14
582.368	51047.15
582.728	51136.86
583.089	51119.91
583.449	51131.89
583.809	51167.14
584.169	51184.77
584.529	51032.68
584.889	51424.09
585.249	51134.15
585.609	51111.33
585.969	51279.68
586.329	51205.56
586.688	51293.02
587.048	51182.06
587.408	51181.83
587.768	51237.2
588.127	51134.15
588.487	51139.8
588.846	51441.71
589.206	51195.62
589.565	51162.4
589.925	51417.76
590.284	51239.46
590.643	51239.68
591.003	51382.5
591.362	51522.39
591.721	51450.75
592.08	51522.39
592.44	51486.68
592.799	51538.21
593.158	51496.85
593.517	51437.64
593.876	51572.1
594.235	51533.01
594.593	51448.04
594.952	51589.96
595.311	51474.93
595.67	51443.29
596.029	51724.64
596.387	51676.28
596.746	51761.03
597.104	51622.5
597.463	51601.26
597.822	51775.26
598.18	51636.51
598.538	51667.7
598.897	51826.79
599.255	51491.43
599.613	52130.51
599.972	51856.84
600.33	51920.34
600.688	51747.02
601.046	51928.71
601.404	51962.15
601.762	51963.73
602.12	52098.42
602.478	52055.03
602.836	52164.63
603.194	52036.72
603.552	52082.37
603.91	51978.2
604.268	52147.46
604.625	52075.82
604.983	52224.52
605.341	52036.5
605.698	52280.79
606.056	52326.66
606.413	52242.14
606.771	52334.8
607.128	52325.76
607.485	52304.51
607.843	52291.63
608.2	52488.01
608.557	52523.04
608.914	52393.1
609.272	52554.23
609.629	52672.64
609.986	52736.82
610.343	52622.47
610.7	52806.42
611.057	52767.55
611.414	52754.9
611.771	52749.02
612.127	52888.91
612.484	52841.22
612.841	52879.87
613.198	52819.53
613.554	52809.13
613.911	53005.97
614.267	53053.87
614.624	53024.27
614.98	53083.25
615.337	53171.38
615.693	53150.37
616.05	53111.72
616.406	53322.11
616.762	53125.96
617.118	53218.16
617.475	53175.45
617.831	53217.26
618.187	53265.85
618.543	53384.71
618.899	53542.45
619.255	53389.23
619.611	53368.89
619.967	53508.32
620.323	53547.42
620.678	53422.45
621.034	53406.18
621.39	53331.83
621.746	53326.86
622.101	53738.83
622.457	53491.38
622.812	53479.62
623.168	53557.36
623.523	53602.56
623.879	53682.11
624.234	53456.8
624.589	53495.44
624.945	53602.79
625.3	53701.31
625.655	53572.28
626.01	53555.78
626.365	53558.27
626.72	53522.34
627.075	53528.89
627.43	53517.14
627.785	53430.59
628.14	53534.31
628.495	53573.86
628.85	53503.13
629.205	53373.86
629.559	53531.37
629.914	53405.95
630.269	53357.59
630.623	53311.95
630.978	53285.51
631.332	53386.07
631.687	53470.13
632.041	53335.22
632.396	53378.84
632.75	53256.13
633.104	53171.84
633.459	53071.5
633.813	53129.8
634.167	53103.82
634.521	53099.75
634.875	53133.19
635.229	53104.95
635.583	52887.1
635.937	52862.69
636.291	52889.13
636.645	52892.3
636.999	52815.24
637.352	52835.57
637.706	52553.55
638.06	52773.2
638.413	52697.95
638.767	52656.82
639.121	52691.4
639.474	52475.81
639.828	52554.9
640.181	52506.54
640.534	52505.87
640.888	52346.32
641.241	52327.56
641.594	52381.12
641.947	52343.61
642.301	52345.87
642.654	52289.37
643.007	52355.36
643.36	52241.01
643.713	52145.65
644.066	52253.67
644.419	52041.24
644.771	51836.73
645.124	51560.81
645.477	51584.76
645.83	51261.83
646.182	51106.58
646.535	51006.24
646.888	51039.46
647.24	50925.34
647.593	51017.09
647.945	50998.79
648.298	50897.32
648.65	50917.21
649.002	50667.95
649.355	50781.84
649.707	50693.71
650.059	50907.72
650.411	51155.17
650.763	51233.81
651.115	51592.22
651.467	51520.81
651.819	51403.75
652.171	51304.77
652.523	51292.34
652.875	51289.4
653.227	51030.42
653.578	51336.86
653.93	51211.66
654.282	51041.27
654.633	51063.87
654.985	50995.62
655.337	51072.46
655.688	50980.71
656.039	51175.5
656.391	50831.56
656.742	50869.98
657.094	50882.86
657.445	50991.78
657.796	51005.79
658.147	50879.92
658.498	50837.89
658.849	50994.94
659.2	50773.71
659.551	50718.12
659.902	50823.42
660.253	50810.99
660.604	50788.17
660.955	50623.2
661.306	50903.2
661.656	50659.81
662.007	50729.41
662.358	50769.64
662.708	50702.75
663.059	50585.69
663.409	50415.3
663.76	50660.72
664.11	50652.58
664.461	50694.61
664.811	50552.92
665.161	50445.35
665.511	50476.99
665.862	50533.04
666.212	50651.45
666.562	50563.54
666.912	50479.03
667.262	50391.34
667.612	50497.33
667.962	50420.5
668.312	50404
668.662	50535.52
669.011	50470.89
669.361	50319.03
669.711	50371.01
670.06	50359.03
670.41	50242.2
670.76	50300.95
671.109	50468.63
671.459	50329.43
671.808	50195.64
672.157	50258.01
672.507	50047.17
672.856	49898.02
673.205	50183.21
673.554	50197
673.904	50084.01
674.253	50254.62
674.602	50020.05
674.951	49505.72
675.3	49325.84
675.649	49925.14
675.998	49813.28
676.346	49777.8
676.695	49924.24
677.044	49756.33
677.393	49687.63
677.741	49880.4
678.09	49673.62
678.438	49612.61
678.787	49746.62
679.135	49557.02
679.484	49428.66
679.832	49499.16
680.181	49428.88
680.529	49527.86
680.877	49465.95
681.225	49263.01
681.573	49610.57
681.922	49151.6
682.27	49195.67
682.618	49207.42
682.966	49086.07
683.314	49106.86
683.661	49031.15
684.009	48867.32
684.357	48804.04
684.705	48726.76
685.053	48698.51
685.4	48508
685.748	48375.58
686.095	48483.6
686.443	48348.01
686.79	48267.56
687.138	48322.25
687.485	48246.54
687.832	48199.54
688.18	48212.19
688.527	47980.79
688.874	47995.02
689.221	47895.59
689.568	47768.36
689.915	47605.43
690.262	47668.25
690.609	47615.37
690.956	47463.29
691.303	47413.8
691.65	47205.44
691.997	47214.48
692.344	46883.87
692.69	46927.71
693.037	46936.52
693.383	46499.47
693.73	46837.77
694.077	46512.58
694.423	46489.07
694.769	46478.23
695.116	46166.14
695.462	46169.31
695.808	46150.33
696.155	46096.32
696.501	45835.31
696.847	45786.95
697.193	45425.15
697.539	45735.2
697.885	45383.57
698.231	45193.97
698.577	45179.96
698.923	45203.23
699.269	44924.82
699.614	44811.15
699.96	44749.23
700.306	44680.08
700.651	44584.94
700.997	44463.14
701.342	44373.88
701.688	44251.39
702.033	44158.74
702.379	44193.77
702.724	43911.74
703.069	44069.93
703.415	43589.49
703.76	43533.9
704.105	43591.98
704.45	43524.18
704.795	43238.09
705.14	43096.4
705.485	43141.59
705.83	42987.02
706.175	43032.22
706.52	42790.19
706.865	42699.12
707.209	42689.85
707.554	42516.07
707.899	42590.19
708.243	42391.33
708.588	42380.71
708.932	41936.2
709.277	42007.38
709.621	42045.58
709.966	41881.51
710.31	41738.69
710.654	41571.92
710.998	41661.18
711.342	41697.79
711.687	41467.96
712.031	41287.63
712.375	41135.32
712.719	41142.1
713.063	41121.31
713.407	41206.28
713.75	40879.28
714.094	40840.18
714.438	40678.15
714.782	40776
715.125	40589.34
715.469	40602.22
715.812	40446.97
716.156	40253.08
716.499	40223.93
716.843	40227.77
717.186	40051.5
717.53	40187.32
717.873	40188.9
718.216	40133.08
718.559	39802.92
718.902	39718.4
719.246	39806.76
719.589	39527.22
719.932	39343.73
720.275	39465.98
720.617	39499.43
720.96	39335.36
721.303	39364.06
721.646	39344.4
721.989	39050.85
722.331	39209.94
722.674	39005.88
723.016	39093.11
723.359	38811.54
723.701	38940.35
724.044	38637.53
724.386	38502.84
724.729	38609.96
725.071	38478.89
725.413	38503.75
725.755	38480.47
726.097	38264.43
726.439	38014.27
726.782	38032.8
727.124	38284.09
727.465	37878.68
727.807	37951.9
728.149	37912.35
728.491	37728.85
728.833	37823.31
729.175	37701.96
729.516	37634.39
729.858	37677.1
730.199	37519.82
730.541	37485.24
730.882	37300.39
731.224	37561.85
731.565	37172.71
731.906	37320.5
732.248	37244.12
732.589	37205.25
732.93	37000.96
733.271	36885.03
733.612	37045.93
733.953	36948.08
734.294	37005.71
734.635	36711.48
734.976	36881.64
735.317	36609.11
735.658	36678.48
735.999	36611.14
736.339	36546.06
736.68	36509.9
737.021	36476.23
737.361	36303.81
737.702	36511.48
738.042	36224.49
738.383	36227.88
738.723	36321.66
739.063	36094.55
739.404	36151.04
739.744	36010.71
740.084	35950.59
740.424	35969.12
740.764	35985.17
741.104	36015.45
741.444	35617.5
741.784	35531.62
742.124	35657.27
742.464	35505.86
742.804	35438.29
743.143	35396.94
743.483	35435.13
743.823	35211.86
744.162	35097.28
744.502	35169.82
744.841	35024.52
745.181	35226.32
745.52	34949.94
745.86	34955.82
746.199	34881.7
746.538	34842.15
746.877	35045.76
747.216	34818.42
747.556	34848.48
747.895	34776.61
748.234	34516.73
748.573	34514.47
748.911	34402.16
749.25	34357.19
749.589	34141.15
749.928	34258.44
750.267	34231.54
750.605	34198.32
750.944	34067.93
751.283	33928.5
751.621	33875.17
751.96	33780.71
752.298	33753.82
752.636	33763.31
752.975	33576.19
753.313	33309.76
753.651	33528.74
753.989	33375.07
754.327	33346.82
754.666	33173.27
755.004	33164.23
755.342	33207.39
755.679	32944.35
756.017	32837.46
756.355	32968.75
756.693	32826.61
757.031	32810.79
757.368	32600.63
757.706	32492.61
758.044	32512.27
758.381	32403.34
758.719	32235.66
759.056	32246.74
759.394	32156.12
759.731	31979.85
760.068	31990.7
760.405	31842.45
760.743	31688.33
761.08	31750.93
761.417	31600.43
761.754	31542.12
762.091	31401.79
762.428	31396.82
762.765	31160.44
763.102	31280.66
763.438	31044.51
763.775	30854.68
764.112	30872.54
764.449	30942.82
764.785	30693.56
765.122	30409.05
765.458	30450.85
765.795	30398.88
766.131	30285.43
766.467	30187.36
766.804	30035.27
767.14	29955.72
767.476	29929.74
767.812	29755.05
768.148	29704.88
768.485	29619.69
768.821	29421.27
769.157	29399.13
769.492	29326.81
769.828	29113.03
770.164	29025.35
770.5	28971.79
770.836	28979.25
771.171	28699.94
771.507	28731.35
771.842	28457.01
772.178	28363.22
772.513	28446.38
772.849	28306.73
773.184	28153.74
773.519	28160.74
773.855	27971.14
774.19	27886.85
774.525	27846.17
774.86	27702.22
775.195	27727.53
775.53	27552.17
775.865	27369.12
776.2	27341.78
776.535	26965.29
776.87	27143.59
777.205	27019.3
777.539	26890.95
777.874	26967.55
778.209	26631.52
778.543	26612.08
778.878	26471.97
779.212	26366.89
779.547	26244.63
779.881	26311.3
780.215	26149.04
780.55	26269.27
780.884	25902.5
781.218	25921.71
781.552	25849.39
781.886	25756.06
782.22	25579.79
782.554	25401.04
782.888	25240.59
783.222	25215.96
783.556	25113.14
783.889	25100.03
784.223	24886.03
784.557	24863.2
784.89	24913.37
785.224	24619.14
785.557	24480.61
785.891	24478.35
786.224	24389.09
786.558	24336.66
786.891	24190.9
787.224	24089.44
787.557	24014.64
787.891	23980.97
788.224	23965.6
788.557	23824.81
788.89	23827.07
789.223	23808.54
789.556	23671.37
789.888	23517.47
790.221	23499.17
790.554	23308.21
790.887	23324.49
791.219	23169.46
791.552	23012.18
791.884	22970.6
792.217	22894.67
792.549	22852.41
792.882	22679.3
793.214	22550.49
793.546	22661.9
793.879	22531.96
794.211	22361.8
794.543	22455.36
794.875	22290.61
795.207	22385.08
795.539	22186.89
795.871	22233.44
796.203	22051.07
796.535	21881.59
796.867	21890.62
797.198	21757.97
797.53	21788.48
797.862	21616.73
798.193	21695.15
798.525	21530.41
798.856	21546.91
799.188	21268.95
799.519	21267.14
799.85	21101.95
800.182	21175.16
800.513	21161.15
800.844	20925.23
801.175	20988.73
801.506	20949.18
801.837	20877.54
802.168	20826.92
802.499	20649.53
802.83	20623.54
803.161	20528.85
803.491	20506.03
803.822	20496.31
804.153	20324.56
804.483	20214.28
804.814	20166.6
805.145	20084.8
805.475	20094.29
805.805	20130.45
806.136	20055.64
806.466	20002.54
806.796	19911.02
807.126	19836.44
807.457	19835.54
807.787	19727.07
808.117	19649.55
808.447	19587.41
808.777	19551.03
809.107	19463.12
809.436	19501.76
809.766	19416.34
810.096	19320.07
810.426	19172.5
810.755	19363.23
811.085	19257.47
811.414	19177.7
811.744	18962.79
812.073	19012.06
812.403	18971.38
812.732	18854.77
813.061	18916.92
813.39	18759.41
813.719	18741.1
814.049	18814.55
814.378	18689.58
814.707	18696.58
815.036	18587.89
815.365	18509.47
815.693	18365.52
816.022	18455.24
816.351	18372.53
816.68	18281.23
817.008	18222.25
817.337	18156.94
817.665	18063.83
817.994	18165.53
818.322	18110.39
818.651	17937.28
818.979	17864.29
819.307	18022.48
819.636	17896.15
819.964	17892.76
820.292	17878.08
820.62	17814.57
820.948	17783.61
821.276	17934.12
821.604	17825.2
821.932	17806.66
822.259	17787.68
822.587	17725.76
822.915	17704.07
823.243	17773.67
823.57	17730.06
823.898	17679.66
824.225	17604.18
824.553	17701.58
824.88	17649.61
825.207	17753.78
825.535	17564.64
825.862	17698.87
826.189	17655.71
826.516	17723.05
826.843	17688.93
827.17	17724.63
827.497	17704.07
827.824	17686.89
828.151	17715.82
828.478	17614.35
828.805	17759.21
829.131	17622.49
829.458	17622.94
829.785	17526.67
830.111	17603.05
830.438	17774.8
830.764	17625.88
831.09	17568.25
831.417	17598.53
831.743	17655.03
832.069	17709.04
832.395	17471.98
832.722	17485.54
833.048	17486
833.374	17484.64
833.7	17374.13
834.026	17488.71
834.351	17434.24
834.677	17435.83
835.003	17394.47
835.329	17395.38
835.654	17344.76
835.98	17337.3
836.306	17242.61
836.631	17266.79
836.956	17225.89
837.282	17336.39
837.607	17217.98
837.932	17130.07
838.258	17130.75
838.583	17161.94
838.908	17047.81
839.233	16963.3
839.558	17047.59
839.883	16939.12
840.208	16833.13
840.533	16893.02
840.858	16804.21
841.182	16822.96
841.507	16848.5
841.832	16724.21
842.156	16677.2
842.481	16663.87
842.805	16519.01
843.13	16626.58
843.454	16418.45
843.778	16370.77
844.103	16388.85
844.427	16441.73
844.751	16407.61
845.075	16362.41
845.399	16285.57
845.723	16099.82
846.047	16217.33
846.371	16119.48
846.695	16181.17
847.019	15921.06
847.343	15976.43
847.666	15778.02
847.99	15863.21
848.313	15786.83
848.637	15728.98
848.96	15687.17
849.284	15603.78
849.607	15481.3
849.931	15422.77
850.254	15402.89
850.577	15252.38
850.9	15166.51
851.223	15095.1
851.546	15054.65
851.869	14966.97
852.192	14993.18
852.515	14817.82
852.838	14746.63
853.161	14800.87
853.483	14780.3
853.806	14698.72
854.129	14640.65
854.451	14600.42
854.774	14551.83
855.096	14467.77
855.419	14492.85
855.741	14469.35
856.063	14375.34
856.385	14369.69
856.708	14272.07
857.03	14145.52
857.352	14184.16
857.674	14099.64
857.996	14121.11
858.318	14022.58
858.64	14052.19
858.961	13902.59
859.283	13941.46
859.605	13881.57
859.926	13912.53
860.248	13848.35
860.57	13744.17
860.891	13793.89
861.212	13763.38
861.534	13695.36
861.855	13677.28
862.176	13691.52
862.498	13651.97
862.819	13662.59
863.14	13511.64
863.461	13526.55
863.782	13554.57
864.103	13459.21
864.424	13439.32
864.745	13480
865.065	13299.44
865.386	13312.32
865.707	13226.22
866.027	13212.44
866.348	13210.18
866.668	13184.87
866.989	13187.8
867.309	13029.16
867.63	13057.18
867.95	13076.39
868.27	13058.99
868.59	13066.68
868.91	12997.98
869.23	12906.68
869.55	12862.84
869.87	13007.24
870.19	12932.44
870.51	12914.14
870.83	12949.17
871.15	12771.09
871.469	12814.48
871.789	12787.81
872.109	12831.43
872.428	12724.09
872.748	12806.57
873.067	12698.55
873.386	12770.19
873.706	12736.97
874.025	12736.06
874.344	12618.55
874.663	12603.19
874.982	12653.81
875.301	12607.03
875.62	12570.42
875.939	12502.85
876.258	12544.66
876.577	12444.32
876.896	12415.17
877.214	12411.33
877.533	12433.25
877.852	12425.56
878.17	12445.68
878.489	12391.67
878.807	12401.83
879.125	12317.54
879.444	12309.63
879.762	12248.39
880.08	12306.92
880.398	12176.3
880.716	12208.85
881.034	12301.5
881.352	12221.27
881.67	12079.13
881.988	12131.11
882.306	12164.78
882.624	12087.49
882.941	11976.54
883.259	11954.39
883.577	11965.69
883.894	11950.77
884.212	11938.12
884.529	11918.46
884.846	11805.24
885.164	11829.65
885.481	11839.14
885.798	11912.13
886.115	11745.36
886.432	11747.61
886.75	11716.88
887.067	11665.36
887.383	11656.09
887.7	11660.39
888.017	11572.93
888.334	11582.65
888.651	11542.65
888.967	11539.48
889.284	11451.35
889.6	11419.49
889.917	11405.25
890.233	11411.8
890.55	11284.35
890.866	11379.49
891.182	11318.47
891.498	11287.51
891.815	11196.89
892.131	11170.23
892.447	11113.96
892.763	11132.94
893.079	11038.48
893.395	11072.83
893.71	10993.06
894.026	11012.49
894.342	10868.54
894.657	10895.43
894.973	10836.45
895.289	10840.52
895.604	10781.31
895.92	10732.73
896.235	10742.9
896.55	10719.39
896.865	10631.94
897.181	10639.4
897.496	10657.25
897.811	10517.59
898.126	10567.98
898.441	10491.83
898.756	10466.07
899.071	10421.32
899.386	10429.91
899.7	10338.39
900.015	10265.17
900.33	10248.67
900.644	10211.84
900.959	10208.67
901.273	10118.96
901.588	10104.04
901.902	10109.24
902.216	10024.5
902.531	10040.54
902.845	9942.46
903.159	9933.2
903.473	9931.84
903.787	9895.23
904.101	9815.69
904.415	9768.01
904.729	9802.13
905.042	9636.71
905.356	9710.38
905.67	9696.82
905.984	9643.72
906.297	9550.84
906.611	9470.16
906.924	9428.58
907.237	9495.7
907.551	9493.89
907.864	9433.78
908.177	9346.55
908.491	9322.82
908.804	9276.04
909.117	9289.6
909.43	9208.47
909.743	9195.14
910.056	9142.26
910.368	9054.8
910.681	9024.07
910.994	8996.73
911.307	9022.71
911.619	8956.95
911.932	8891.87
912.244	8807.58
912.557	8810.52
912.869	8742.95
913.181	8763.06
913.494	8718.54
913.806	8639.22
914.118	8672.22
914.43	8560.81
914.742	8632.67
915.054	8582.73
915.366	8560.35
915.678	8443.97
915.99	8383.41
916.302	8394.26
916.613	8373.47
916.925	8394.71
917.236	8281.27
917.548	8192.91
917.859	8223.41
918.171	8220.25
918.482	8185.67
918.794	8155.17
919.105	8084.21
919.416	8026.81
919.727	8032.46
920.038	7994.95
920.349	7974.15
920.66	7961.5
920.971	7866.36
921.282	7894.83
921.593	7825.91
921.903	7748.4
922.214	7681.06
922.525	7718.34
922.835	7618.23
923.146	7611.23
923.456	7613.71
923.767	7537.78
924.077	7549.99
924.387	7528.97
924.697	7538.23
925.008	7431.12
925.318	7418.46
925.628	7408.97
925.938	7385.47
926.248	7342.76
926.558	7269.99
926.867	7250.56
927.177	7215.76
927.487	7187.06
927.796	7088.3
928.106	7157
928.416	7032.94
928.725	7049.21
929.034	7014.86
929.344	7051.02
929.653	7008.53
929.962	6934.18
930.271	6916.56
930.581	6839.5
930.89	6840.17
931.199	6744.81
931.508	6810.12
931.817	6785.26
932.125	6729.44
932.434	6764.92
932.743	6651.48
933.051	6631.82
933.36	6624.13
933.669	6559.5
933.977	6579.62
934.286	6509.33
934.594	6471.6
934.902	6457.58
935.21	6416.46
935.519	6392.28
935.827	6404.03
936.135	6343.24
936.443	6312.05
936.751	6291.49
937.059	6329.45
937.367	6258.72
937.674	6237.93
937.982	6229.34
938.29	6207.65
938.597	6157.71
938.905	6091.94
939.213	6081.55
939.52	6089.23
939.827	6017.37
940.135	5991.83
940.442	5937.15
940.749	5917.26
941.056	5989.35
941.363	5849.46
941.67	5877.26
941.977	5871.61
942.284	5860.76
942.591	5792.52
942.898	5770.14
943.205	5744.16
943.511	5686.08
943.818	5711.62
944.125	5639.98
944.431	5617.15
944.738	5642.92
945.044	5581.68
945.35	5586.42
945.657	5570.38
945.963	5526.99
946.269	5507.78
946.575	5474.11
946.881	5491.96
947.187	5470.27
947.493	5423.71
947.799	5421
948.105	5348.46
948.41	5343.26
948.716	5333.32
949.022	5303.26
949.327	5278.63
949.633	5232.98
949.938	5221.91
950.244	5205.41
950.549	5201.8
950.854	5153.44
951.16	5143.95
951.465	5150.5
951.77	5091.29
952.075	5052.42
952.38	5089.71
952.685	5023.5
952.99	4978.75
953.294	4952.54
953.599	4933.33
953.904	4975.14
954.209	4891.3
954.513	4883.84
954.818	4871.41
955.122	4830.96
955.426	4793.9
955.731	4817.85
956.035	4775.82
956.339	4762.26
956.643	4773.11
956.948	4750.51
957.252	4740.12
957.556	4720
957.86	4647.46
958.163	4645.88
958.467	4592.55
958.771	4611.98
959.075	4565.43
959.378	4535.38
959.682	4540.8
959.985	4527.92
960.289	4496.73
960.592	4482.04
960.896	4446.11
961.199	4446.56
961.502	4430.29
961.805	4415.83
962.108	4394.36
962.411	4398.66
962.714	4304.87
963.017	4300.35
963.32	4307.13
963.623	4284.08
963.926	4302.16
964.228	4225.55
964.531	4215.84
964.833	4166.35
965.136	4180.58
965.438	4175.38
965.741	4195.5
966.043	4107.59
966.345	4147.36
966.648	4101.49
966.95	4118.44
967.252	4040.02
967.554	4062.17
967.856	4044.09
968.158	3982.4
968.46	3997.08
968.761	3955.28
969.063	4008.38
969.365	3959.35
969.666	3915.73
969.968	3902.85
970.269	3907.14
970.571	3881.83
970.872	3817.43
971.174	3802.29
971.475	3833.25
971.776	3797.99
972.077	3789.86
972.378	3731.55
972.679	3782.17
972.98	3776.07
973.281	3719.58
973.582	3698.33
973.883	3672.8
974.183	3662.63
974.484	3647.94
974.785	3648.39
975.085	3616.53
975.386	3635.29
975.686	3585.57
975.986	3581.05
976.287	3527.72
976.587	3551.22
976.887	3480.26
977.187	3493.59
977.487	3499.47
977.787	3489.98
978.087	3490.2
978.387	3483.65
978.687	3473.03
978.987	3426.7
979.286	3411.79
979.586	3415.18
979.885	3356.42
980.185	3348.29
980.484	3341.96
980.784	3333.6
981.083	3297.22
981.382	3339.02
981.682	3320.94
981.981	3268.97
982.28	3232.81
982.579	3245.69
982.878	3228.29
983.177	3240.49
983.475	3182.19
983.774	3166.6
984.073	3165.69
984.372	3131.34
984.67	3131.34
984.969	3136.09
985.267	3117.79
985.566	3090.22
985.864	3012.7
986.162	3071.01
986.461	3005.7
986.759	3039.14
987.057	3015.87
987.355	3004.34
987.653	2979.26
987.951	2952.82
988.249	2960.73
988.547	2938.35
988.844	2912.82
989.142	2905.36
989.44	2897
989.737	2904.23
990.035	2899.03
990.332	2860.62
990.63	2862.88
990.927	2840.73
991.224	2843.67
991.521	2797.79
991.819	2753.28
992.116	2757.34
992.413	2807.06
992.71	2758.92
993.006	2723.45
993.303	2747.17
993.6	2741.07
993.897	2739.26
994.193	2738.13
994.49	2707.85
994.787	2669.89
995.083	2659.94
995.379	2643.22
995.676	2630.11
995.972	2606.16
996.268	2623.56
996.565	2608.65
996.861	2571.36
997.157	2548.31
997.453	2535.43
997.749	2552.83
998.044	2521.42
998.34	2498.59
998.636	2493.39
998.932	2497.69
999.227	2484.13
999.523	2451.81
999.818	2419.95
1000.114	2448.42
1000.409	2379.05
1000.704	2371.82
1001	2391.48
1001.295	2363.45
1001.59	2335.21
1001.885	2352.83
1002.18	2302.67
1002.475	2318.94
1002.77	2322.78
1003.065	2273.06
1003.359	2293.17
1003.654	2277.58
1003.949	2258.37
1004.243	2241.2
1004.538	2244.59
1004.832	2230.58
1005.127	2195.32
1005.421	2217.02
1005.715	2187.87
1006.009	2196
1006.304	2153.06
1006.598	2148.09
1006.892	2118.72
1007.186	2111.71
1007.48	2130.47
1007.773	2101.31
1008.067	2073.52
1008.361	2065.16
1008.655	2059.73
1008.948	2030.13
1009.242	2038.94
1009.535	2018.61
1009.829	2016.57
1010.122	2036.46
1010.415	2004.59
1010.708	1959.62
1011.001	1948.32
1011.295	1937.25
1011.588	1920.98
1011.881	1905.39
1012.173	1923.69
1012.466	1914.2
1012.759	1923.24
1013.052	1873.3
1013.344	1873.3
1013.637	1858.61
1013.93	1854.32
1014.222	1826.52
1014.514	1814.77
1014.807	1790.36
1015.099	1803.7
1015.391	1802.34
1015.683	1786.52
1015.976	1795.11
1016.268	1761.66
1016.56	1776.35
1016.851	1767.99
1017.143	1727.77
1017.435	1725.96
1017.727	1706.97
1018.018	1712.17
1018.31	1699.29
1018.602	1686.18
1018.893	1673.98
1019.185	1653.42
1019.476	1623.59
1019.767	1611.38
1020.058	1636.47
1020.35	1606.19
1020.641	1589.24
1020.932	1625.17
1021.223	1588.33
1021.514	1575.23
1021.804	1545.4
1022.095	1519.18
1022.386	1525.74
1022.677	1514.89
1022.967	1535.45
1023.258	1511.27
1023.548	1489.13
1023.839	1493.42
1024.129	1465.17
1024.419	1460.88
1024.709	1429.92
1025	1450.71
1025.29	1388.57
1025.58	1408
1025.87	1411.62
1026.16	1417.94
1026.449	1407.55
1026.739	1375.01
1027.029	1382.46
1027.319	1361.67
1027.608	1337.49
1027.898	1341.33
1028.187	1356.93
1028.477	1318.74
1028.766	1295.46
1029.055	1318.51
1029.344	1310.15
1029.634	1309.25
1029.923	1308.79
1030.212	1272.64
1030.501	1273.09
1030.79	1263.82
1031.078	1248.91
1031.367	1219.76
1031.656	1231.51
1031.945	1225.41
1032.233	1233.54
1032.522	1217.5
1032.81	1191.73
1033.099	1186.76
1033.387	1215.91
1033.675	1170.27
1033.963	1172.75
1034.251	1192.64
1034.54	1157.61
1034.828	1130.49
1035.116	1131.4
1035.403	1138.85
1035.691	1146.99
1035.979	1108.35
1036.267	1131.4
1036.554	1107.67
1036.842	1080.1
1037.129	1103.37
1037.417	1074
1037.704	1051.62
1037.992	1050.95
1038.279	1050.72
1038.566	1077.16
1038.853	1077.16
1039.14	1077.16
