Data from breadboard_white_FLMS001491_00018.txt Node
Date: Wed Feb 08 10:47:21 GMT 2017
User: dcchb
Spectrometer: FLMS00149
Trigger mode: 0
Integration Time (sec): 2.000000E-2
Scans to average: 10
Electric dark correction enabled: true
Nonlinearity correction enabled: false
Boxcar width: 0
XAxis mode: Wavelengths
Number of Pixels in Spectrum: 2048
>>>>>Begin Spectral Data<<<<<
341.393	-1.31
341.776	-1.31
342.16	-1.31
342.543	-55.55
342.927	-56
343.31	-73.4
343.693	-79.28
344.077	-67.3
344.46	-63.68
344.843	-37.02
345.226	-19.84
345.61	-23.69
345.993	-2.67
346.376	-33.4
346.759	2.08
347.142	0.27
347.525	36.2
347.908	69.65
348.291	87.27
348.674	91.34
349.057	113.49
349.44	124.33
349.823	171.34
350.206	161.17
350.588	209.3
350.971	240.49
351.354	241.62
351.737	257.66
352.119	276.87
352.502	277.55
352.884	311.67
353.267	309.41
353.65	292.92
354.032	325.23
354.414	308.28
354.797	342.18
355.179	338.56
355.562	340.6
355.944	371.11
356.326	362.29
356.709	361.84
357.091	346.7
357.473	358.9
357.855	382.41
358.238	356.19
358.62	373.59
359.002	381.5
359.384	376.98
359.766	362.52
360.148	353.48
360.53	377.66
360.912	379.02
361.294	352.8
361.676	356.19
362.057	361.16
362.439	350.77
362.821	374.95
363.203	364.78
363.584	374.04
363.966	368.62
364.348	376.08
364.729	374.5
365.111	363.42
365.493	357.1
365.874	362.74
366.256	341.5
366.637	344.44
367.019	365
367.4	365.23
367.781	341.28
368.163	355.97
368.544	366.13
368.925	354.16
369.306	356.42
369.688	360.94
370.069	358.23
370.45	347.38
370.831	356.42
371.212	382.63
371.593	358.45
371.974	355.97
372.355	382.41
372.736	362.07
373.117	371.11
373.498	353.71
373.879	370.65
374.26	357.55
374.641	362.29
375.021	352.12
375.402	404.1
375.783	388.05
376.163	407.72
376.544	398.68
376.925	382.86
377.305	383.08
377.686	385.57
378.066	398.9
378.447	405
378.827	394.61
379.208	400.94
379.588	406.36
379.968	410.65
380.349	425.79
380.729	406.13
381.109	427.15
381.489	422.86
381.87	440.48
382.25	408.17
382.63	444.78
383.01	422.18
383.39	435.74
383.77	437.54
384.15	437.09
384.53	454.27
384.91	452.91
385.29	445.45
385.67	447.26
386.049	467.83
386.429	488.39
386.809	487.94
387.189	470.99
387.568	484.32
387.948	486.81
388.328	504.21
388.707	492.23
389.087	479.35
389.466	510.09
389.846	502.4
390.225	530.2
390.605	505.34
390.984	534.04
391.363	517.77
391.743	535.62
392.122	545.56
392.501	566.81
392.881	559.58
393.26	560.03
393.639	562.06
394.018	596.86
394.397	580.82
394.776	576.75
395.155	583.08
395.534	601.61
395.913	611.55
396.292	628.5
396.671	616.75
397.05	648.39
397.429	651.55
397.808	643.64
398.186	642.96
398.565	666.92
398.944	666.47
399.323	720.02
399.701	683.19
400.08	699.23
400.458	716.18
400.837	743.75
401.215	748.5
401.594	748.05
401.972	768.61
402.351	773.58
402.729	749.85
403.107	791.66
403.486	810.19
403.864	795.5
404.242	830.75
404.62	814.26
404.999	829.17
405.377	882.51
405.755	866.46
406.133	901.94
406.511	917.53
406.889	937.42
407.267	966.12
407.645	988.72
408.023	998.43
408.401	1009.51
408.779	1039.34
409.156	1028.72
409.534	1077.98
409.912	1094.02
410.29	1090.64
410.667	1132.89
411.045	1148.49
411.422	1191.42
411.8	1181.48
412.178	1226.22
412.555	1253.12
412.933	1275.04
413.31	1281.14
413.687	1306.45
414.065	1329.05
414.442	1340.57
414.819	1389.61
415.197	1391.19
415.574	1440.91
415.951	1472.77
416.328	1456.28
416.705	1470.29
417.082	1468.93
417.46	1508.7
417.837	1545.54
418.214	1553.45
418.591	1593.67
418.967	1610.62
419.344	1651.75
419.721	1645.65
420.098	1654.01
420.475	1700.34
420.852	1725.87
421.228	1737.4
421.605	1745.76
421.982	1778.07
422.358	1819.43
422.735	1844.74
423.111	1829.15
423.488	1847.9
423.864	1915.92
424.241	1936.26
424.617	1918.64
424.994	1929.48
425.37	1989.37
425.746	1998.18
426.123	2009.26
426.499	2023.94
426.875	2083.6
427.251	2089.93
427.627	2175.13
428.003	2182.58
428.379	2201.11
428.756	2223.94
429.132	2276.37
429.507	2336.93
429.883	2352.75
430.259	2391.62
430.635	2377.16
431.011	2409.47
431.387	2466.87
431.763	2507.1
432.138	2491.05
432.514	2542.35
432.89	2574.66
433.265	2685.17
433.641	2695.79
434.016	2704.15
434.392	2745.96
434.767	2804.71
435.143	2804.49
435.518	2849.91
435.894	2901.89
436.269	2959.06
436.644	2998.38
437.02	3005.61
437.395	3008.55
437.77	3018.49
438.145	3101.88
438.52	3119.06
438.895	3166.96
439.271	3194.31
439.646	3269.79
440.021	3302.33
440.395	3320.41
440.77	3303.91
441.145	3319.5
441.52	3385.04
441.895	3415.77
442.27	3457.35
442.645	3482.66
443.019	3523.57
443.394	3488.76
443.769	3561.08
444.143	3548.42
444.518	3623.9
444.892	3578.48
445.267	3653.05
445.641	3648.53
446.016	3723.56
446.39	3671.81
446.764	3761.07
447.139	3724.46
447.513	3811.24
447.887	3818.47
448.262	3808.98
448.636	3836.78
449.01	3918.36
449.384	3960.16
449.758	3980.05
450.132	4034.96
450.506	4065.92
450.88	4108.86
451.254	4071.12
451.628	4146.15
452.002	4211.23
452.376	4226.37
452.75	4277.44
453.123	4334.17
453.497	4387.5
453.871	4462.52
454.244	4531
454.618	4565.12
454.992	4636.3
455.365	4606.02
455.739	4822.29
456.112	4794.94
456.486	4822.06
456.859	4859.35
457.232	4971.21
457.606	4970.08
457.979	5087.37
458.352	5128.95
458.725	5222.05
459.099	5284.88
459.472	5389.73
459.845	5410.3
460.218	5469.96
460.591	5543.63
460.964	5599.67
461.337	5709.27
461.71	5827.46
462.083	5832.43
462.456	5843.28
462.829	5947.91
463.201	6040.34
463.574	6017.06
463.947	6133.67
464.32	6260.22
464.692	6335.24
465.065	6370.04
465.438	6480.32
465.81	6629.7
466.183	6658.62
466.555	6747.89
466.928	6807.32
467.3	6864.49
467.672	6909.24
468.045	7094.32
468.417	7173.41
468.789	7219.51
469.161	7278.95
469.534	7478.94
469.906	7635.55
470.278	7701.53
470.65	7755.54
471.022	7920.96
471.394	8110.56
471.766	8165.03
472.138	8220.84
472.51	8430.78
472.882	8576.99
473.253	8642.98
473.625	8803.88
473.997	8955.51
474.369	8965.46
474.74	9199.8
475.112	9343.53
475.484	9442.28
475.855	9611.99
476.227	9694.7
476.598	10011.3
476.97	10017.63
477.341	10273.9
477.713	10406.55
478.084	10536.94
478.455	10755.01
478.827	10939.87
479.198	11186.87
479.569	11261.22
479.94	11567.65
480.311	11661.88
480.682	11922.67
481.053	12222.77
481.424	12387.06
481.795	12534.63
482.166	12781.4
482.537	12869.08
482.908	13189.75
483.279	13390.2
483.65	13620.93
484.021	13797.65
484.391	13986.57
484.762	14143.85
485.133	14275.6
485.503	14424.3
485.874	14810.73
486.244	14923.49
486.615	15172.75
486.985	15387.66
487.356	15662.91
487.726	15835.56
488.097	16158.26
488.467	16177.7
488.837	16523.22
489.207	16765.48
489.578	17000.05
489.948	17219.02
490.318	17355.97
490.688	17445.23
491.058	17818.56
491.428	17968.38
491.798	18229.85
492.168	18450.18
492.538	18680.91
492.908	18829.83
493.278	19094.46
493.648	19138.75
494.017	19275.69
494.387	19653.54
494.757	19769.92
495.126	20049.91
495.496	19971.04
495.866	20168.33
496.235	20451.03
496.605	20622.78
496.974	20664.58
497.344	21006.72
497.713	21147.28
498.082	21221.86
498.452	21460.95
498.821	21516.31
499.19	21651.22
499.559	21874.72
499.928	22093.92
500.298	22107.26
500.667	22292.56
501.036	22428.15
501.405	22769.84
501.774	22681.93
502.143	22913.11
502.512	23056.16
502.88	23414.34
503.249	23356.72
503.618	23418.41
503.987	23651.17
504.356	23808
504.724	23897.72
505.093	23994.44
505.462	24155.57
505.83	24479.62
506.199	24695.89
506.567	24778.15
506.936	24799.62
507.304	25198.02
507.672	25285.93
508.041	25419.94
508.409	25729.08
508.777	25771.79
509.145	26058.79
509.514	25978.57
509.882	26359.35
510.25	26450.42
510.618	26664.43
510.986	26734.93
511.354	27005.21
511.722	27150.74
512.09	27535.14
512.458	27485.65
512.826	27741.46
513.193	27859.42
513.561	28055.35
513.929	28226.42
514.297	28638.84
514.664	28721.77
515.032	28902.79
515.4	29072.72
515.767	29184.13
516.135	29343.68
516.502	29399.5
516.869	29913.38
517.237	29968.75
517.604	29940.95
517.972	30243.31
518.339	30746.58
518.706	30616.86
519.073	30893.69
519.44	31010.07
519.808	31356.96
520.175	31422.72
520.542	31824.29
520.909	32118.52
521.276	32023.38
521.643	32354.67
522.009	32755.34
522.376	32966.18
522.743	33165.95
523.11	33516.22
523.477	33790.79
523.843	34019.49
524.21	34296.77
524.577	34423.54
524.943	34733.82
525.31	34941.5
525.676	35187.82
526.043	35361.82
526.409	35578.77
526.776	35946.89
527.142	36173.1
527.508	36318.18
527.874	36731.05
528.241	36902.8
528.607	36902.8
528.973	37172.85
529.339	37348.66
529.705	37727.64
530.071	37988.65
530.437	38064.13
530.803	38299.15
531.169	38595.86
531.535	38577.33
531.901	38806.93
532.267	39016.87
532.632	39160.14
532.998	39385.45
533.364	39573.47
533.73	39598.55
534.095	39980.69
534.461	40200.57
534.826	40432.2
535.192	40461.8
535.557	40795.81
535.923	40743.83
536.288	41078.51
536.653	41066.31
537.019	41068.12
537.384	41291.39
537.749	41631.49
538.114	41654.99
538.479	41690.25
538.845	42079.16
539.21	42099.5
539.575	42033.97
539.94	42160.52
540.305	42503.56
540.67	42460.17
541.034	42612.26
541.399	42902.19
541.764	42935.86
542.129	43009.98
542.494	43142.64
542.858	43371.33
543.223	43411.56
543.587	43647.71
543.952	43800.25
544.316	43976.97
544.681	43953.46
545.045	44151.42
545.41	44261.48
545.774	44442.04
546.138	44377.41
546.503	44603.39
546.867	44653.56
547.231	44989.37
547.595	44947.79
547.959	45179.42
548.324	45195.69
548.688	45324.5
549.052	45456.25
549.416	45548.68
549.779	45677.26
550.143	45750.25
550.507	45935.11
550.871	46092.62
551.235	46090.81
551.599	46500.29
551.962	46409.22
552.326	46722.43
552.689	46838.36
553.053	46705.71
553.417	46921.52
553.78	47345.24
554.143	47290.55
554.507	47363.54
554.87	47686.92
555.234	47991.1
555.597	47787.26
555.96	48002.17
556.323	48215.05
556.686	48167.59
557.05	48427.02
557.413	48594.02
557.776	48737.52
558.139	48884.86
558.502	48982.26
558.865	49137.73
559.228	49474.67
559.59	49548.8
559.953	49631.51
560.316	49919.41
560.679	49916.47
561.041	50241.89
561.404	50307.19
561.767	50530.01
562.129	50385.16
562.492	50801.87
562.854	50809.1
563.217	50786.5
563.579	50986.95
563.941	51208.87
564.304	51356.66
564.666	51607.95
565.028	51661.96
565.39	51717.78
565.753	51838.23
566.115	52122.06
566.477	52257.2
566.839	52260.14
567.201	52501.71
567.563	52457.65
567.925	52731.09
568.287	52715.04
568.648	52767.24
569.01	53039.78
569.372	53077.52
569.734	53056.05
570.095	53157.51
570.457	53437.96
570.819	53429.37
571.18	53425.98
571.542	53602.47
571.903	53724.51
572.265	53858.29
572.626	53841.34
572.987	53950.94
573.349	54028.9
573.71	54080.2
574.071	54171.27
574.432	54233.87
574.794	54407.43
575.155	54416.69
575.516	54317.48
575.877	54488.1
576.238	54482.23
576.599	54649
576.96	54702.78
577.32	54620.08
577.681	54752.5
578.042	54852.16
578.403	54879.73
578.763	54950.91
579.124	54949.11
579.485	55034.53
579.845	55056.67
580.206	55055.09
580.566	55005.83
580.927	55106.84
581.287	55211.92
581.648	55127.41
582.008	55280.62
582.368	55128.31
582.728	55267.74
583.089	55170.12
583.449	55140.29
583.809	55271.13
584.169	55292.6
584.529	55242.66
584.889	55411.01
585.249	55189.55
585.609	55161.98
585.969	55355.65
586.329	55248.08
586.688	55298.48
587.048	55262.54
587.408	55255.31
587.768	55225.26
588.127	55290.57
588.487	55230
588.846	55350
589.206	55203.11
589.565	55307.97
589.925	55371.02
590.284	55259.61
590.643	55240.4
591.003	55384.12
591.362	55461.41
591.721	55422.09
592.08	55354.07
592.44	55455.53
592.799	55396.33
593.158	55391.58
593.517	55385.93
593.876	55418.47
594.235	55365.59
594.593	55300.74
594.952	55408.3
595.311	55425.48
595.67	55467.96
596.029	55581.86
596.387	55603.55
596.746	55590.9
597.104	55495.76
597.463	55464.57
597.822	55493.5
598.18	55411.92
598.538	55599.26
598.897	55700.27
599.255	55375.54
599.613	55833.6
599.972	55650.33
600.33	55726.49
600.688	55589.99
601.046	55766.71
601.404	55789.31
601.762	55703.89
602.12	55820.27
602.478	55814.85
602.836	55874.05
603.194	55753.83
603.552	55836.31
603.91	55822.3
604.268	55811.91
604.625	55730.55
604.983	55871.79
605.341	55853.26
605.698	55954.5
606.056	56011
606.413	55962.41
606.771	56060.72
607.128	56103.65
607.485	56000.6
607.843	56071.11
608.2	56179.13
608.557	56225.46
608.914	56115.86
609.272	56220.94
609.629	56294.16
609.986	56360.37
610.343	56187.27
610.7	56412.8
611.057	56344.32
611.414	56326.92
611.771	56390.2
612.127	56451.21
612.484	56469.97
612.841	56482.4
613.198	56434.04
613.554	56462.06
613.911	56581.61
614.267	56558.78
614.624	56514.26
614.98	56491.66
615.337	56713.81
615.693	56622.28
616.05	56609.18
616.406	56765.78
616.762	56687.82
617.118	56667.7
617.475	56724.43
617.831	56778.66
618.187	56816.85
618.543	56832.67
618.899	56897.76
619.255	56904.76
619.611	56841.49
619.967	56900.47
620.323	56979.56
620.678	56878.55
621.034	56831.99
621.39	56882.84
621.746	56803.29
622.101	57059.33
622.457	56827.25
622.812	56890.3
623.168	56963.97
623.523	56994.7
623.879	57004.65
624.234	56837.87
624.589	56986.57
624.945	56997.64
625.3	57049.62
625.655	56926.91
626.01	56924.65
626.365	56981.82
626.72	56956.96
627.075	56895.04
627.43	56940.69
627.785	56847.36
628.14	56894.14
628.495	56931.88
628.85	56889.62
629.205	56707.7
629.559	56904.53
629.914	56768.72
630.269	56786.8
630.623	56700.7
630.978	56648.95
631.332	56765.78
631.687	56746.57
632.041	56628.16
632.396	56660.7
632.75	56585
633.104	56579.12
633.459	56477.2
633.813	56488.27
634.167	56449.18
634.521	56389.29
634.875	56446.69
635.229	56418.45
635.583	56260.03
635.937	56281.05
636.291	56266.36
636.645	56238.79
636.999	56162.41
637.352	56249.64
637.706	56063.43
638.06	56153.59
638.413	56054.61
638.767	55985.91
639.121	56043.99
639.474	55884
639.828	55965.12
640.181	55952.7
640.534	55875.86
640.888	55844.68
641.241	55624.79
641.594	55770.78
641.947	55815.75
642.301	55745.24
642.654	55780.72
643.007	55706.6
643.36	55651.91
643.713	55533.72
644.066	55662.99
644.419	55503.67
644.771	55304.12
645.124	55125.37
645.477	55076.56
645.83	54843.12
646.182	54666.85
646.535	54611.26
646.888	54685.38
647.24	54417.37
647.593	54547.76
647.945	54473.64
648.298	54321.33
648.65	54366.3
649.002	54181.89
649.355	54295.79
649.707	54303.25
650.059	54411.49
650.411	54794.99
650.763	54730.13
651.115	55097.58
651.467	54983.68
651.819	54938.94
652.171	54869.11
652.523	54801.31
652.875	54788.88
653.227	54705.5
653.578	54865.94
653.93	54796.57
654.282	54697.14
654.633	54587.99
654.985	54608.78
655.337	54609.45
655.688	54672.73
656.039	54693.52
656.391	54415.11
656.742	54560.64
657.094	54501.89
657.445	54520.87
657.796	54418.95
658.147	54409.69
658.498	54431.83
658.849	54374.66
659.2	54457.14
659.551	54314.09
659.902	54449.46
660.253	54375.79
660.604	54387.76
660.955	54274.32
661.306	54284.26
661.656	54235.9
662.007	54231.16
662.358	54192.97
662.708	54202.23
663.059	54108.9
663.409	53969.47
663.76	54137.15
664.11	54098.96
664.461	54093.99
664.811	54120.65
665.161	54128.34
665.511	54002.92
665.862	54024.38
666.212	54058.28
666.562	54089.02
666.912	53929.47
667.262	53979.87
667.612	53981.22
667.962	53939.42
668.312	53929.02
668.662	54038.17
669.011	53908
669.361	53898.74
669.711	53910.72
670.06	53789.81
670.41	53766.09
670.76	53646.77
671.109	53768.35
671.459	53714.34
671.808	53695.35
672.157	53690.61
672.507	53541.91
672.856	53487.9
673.205	53566.77
673.554	53623.49
673.904	53476.15
674.253	53657.16
674.602	53429.6
674.951	53105.76
675.3	52943.06
675.649	53446.32
675.998	53338.98
676.346	53402.03
676.695	53367.9
677.044	53234.8
677.393	53334.23
677.741	53430.28
678.09	53303.73
678.438	53203.16
678.787	53232.32
679.135	53290.62
679.484	53078.19
679.832	53144.41
680.181	52945.77
680.529	53011.08
680.877	52964.53
681.225	52871.19
681.573	53082.49
681.922	52781.03
682.27	52776.06
682.618	52808.82
682.966	52663.06
683.314	52640.92
683.661	52584.42
684.009	52464.88
684.357	52427.82
684.705	52346.46
685.053	52367.93
685.4	52333.58
685.748	52121.38
686.095	52076.87
686.443	51990.54
686.79	51910.54
687.138	51998
687.485	52045.91
687.832	51798.91
688.18	51981.73
688.527	51742.41
688.874	51680.94
689.221	51503.32
689.568	51411.12
689.915	51489.99
690.262	51367.05
690.609	51252.93
690.956	51158.92
691.303	51087.74
691.65	50894.75
691.997	50910.12
692.344	50755.54
692.69	50670.57
693.037	50702.66
693.383	50444.82
693.73	50415.89
694.077	50258.16
694.423	50281.43
694.769	50150.81
695.116	50170.25
695.462	50029.46
695.808	49970.71
696.155	50024.72
696.501	49697.72
696.847	49663.14
697.193	49394
697.539	49480.1
697.885	49188.13
698.231	49099.77
698.577	49136.15
698.923	49106.1
699.269	48959.88
699.614	48708.14
699.96	48734.58
700.306	48578.2
700.651	48541.59
700.997	48407.13
701.342	48472.21
701.688	48266.57
702.033	48137.76
702.379	48116.97
702.724	48066.8
703.069	47952.91
703.415	47573.71
703.76	47534.61
704.105	47455.97
704.45	47524.44
704.795	47177.33
705.14	46968.52
705.485	47109.76
705.83	46745.48
706.175	46984.12
706.52	46742.09
706.865	46614.18
707.209	46626.61
707.554	46496.45
707.899	46374.19
708.243	46182.1
708.588	46244.02
708.932	45981.88
709.277	45996.8
709.621	46042.22
709.966	45669.8
710.31	45878.16
710.654	45431.62
710.998	45501.22
711.342	45496.47
711.687	45260.55
712.031	45121.12
712.375	45078.41
712.719	44945.08
713.063	44922.48
713.407	45095.13
713.75	44845.19
714.094	44790.96
714.438	44526.1
714.782	44532.66
715.125	44406.33
715.469	44410.17
715.812	44201.14
716.156	44067.36
716.499	44058.54
716.843	44169.73
717.186	43804.31
717.53	44032.56
717.873	43968.38
718.216	43847.03
718.559	43716.86
718.902	43501.05
719.246	43415.62
719.589	43244.56
719.932	43189.42
720.275	43333.14
720.617	43133.6
720.96	43118.46
721.303	43039.36
721.646	43038.91
721.989	42841.4
722.331	42927.5
722.674	42634.4
723.016	42602.09
723.359	42661.29
723.701	42578.81
724.044	42205.94
724.386	42262.21
724.729	42346.05
725.071	42212.49
725.413	42152.38
725.755	42087.3
726.097	41849.56
726.439	41776.12
726.782	41846.4
727.124	41914.42
727.465	41590.14
727.807	41693.18
728.149	41445.96
728.491	41363.47
728.833	41325.06
729.175	41131.39
729.516	41285.74
729.858	41136.81
730.199	41236.92
730.541	41043.71
730.882	41066.08
731.224	41143.37
731.565	40789.7
731.906	40766.88
732.248	40758.74
732.589	40641.01
732.93	40343.39
733.271	40384.29
733.612	40627.67
733.953	40467
734.294	40333.9
734.635	40134.81
734.976	40131.64
735.317	40033.79
735.658	39885.77
735.999	40013.68
736.339	39921.48
736.68	39815.04
737.021	39727.36
737.361	39554.48
737.702	39811.2
738.042	39660.24
738.383	39579.34
738.723	39457.99
739.063	39345.9
739.404	39540.7
739.744	39316.52
740.084	39227.03
740.424	39205.79
740.764	39248.95
741.104	39284.21
741.444	38949.3
741.784	38810.55
742.124	38864.78
742.464	38836.08
742.804	38729.87
743.143	38641.74
743.483	38606.03
743.823	38569.2
744.162	38312.48
744.502	38513.15
744.841	38228.64
745.181	38470.22
745.52	38178.7
745.86	38240.84
746.199	38110
746.538	38010.12
746.877	38128.98
747.216	38050.12
747.556	37839.05
747.895	37924.92
748.234	37672.5
748.573	37644.48
748.911	37512.05
749.25	37606.74
749.589	37288.55
749.928	37371.94
750.267	37468.66
750.605	37260.76
750.944	37186.41
751.283	36977.38
751.621	37021.22
751.96	36728.34
752.298	36779.87
752.636	36768.79
752.975	36527.44
753.313	36338.07
753.651	36616.93
753.989	36329.48
754.327	36277.28
754.666	36190.05
755.004	36137.17
755.342	36094.69
755.679	36087.91
756.017	35757.07
756.355	35924.75
756.693	35667.58
757.031	35709.61
757.368	35617.18
757.706	35518.43
758.044	35328.15
758.381	35257.65
758.719	35197.76
759.056	35177.42
759.394	34954.83
759.731	34703.31
760.068	34669.19
760.405	34664.67
760.743	34446.82
761.08	34696.53
761.417	34382.87
761.754	34323.89
762.091	34195.08
762.428	34029.66
762.765	33892.48
763.102	33985.59
763.438	33780.4
763.775	33594.19
764.112	33680.51
764.449	33579.72
764.785	33396
765.122	33239.39
765.458	33004.37
765.795	33014.54
766.131	32897.48
766.467	32782.68
766.804	32784.27
767.14	32574.1
767.476	32655.23
767.812	32302.47
768.148	32305.86
768.485	32158.07
768.821	32060.44
769.157	32008.24
769.492	31897.28
769.828	31746.33
770.164	31406.9
770.5	31538.42
770.836	31382.49
771.171	31284.19
771.507	31150.86
771.842	30965.1
772.178	30948.61
772.513	30960.13
772.849	30752.68
773.184	30655.51
773.519	30605.57
773.855	30468.62
774.19	30361.5
774.525	30221.39
774.86	30162.41
775.195	30101.4
775.53	30055.07
775.865	29837.45
776.2	29637.46
776.535	29411.92
776.87	29428.42
777.205	29247.18
777.539	29156.11
777.874	29252.15
778.209	28960.64
778.543	28737.14
778.878	28768.78
779.212	28659.4
779.547	28588.44
779.881	28453.08
780.215	28313.42
780.55	28394.1
780.884	28223.71
781.218	28145.97
781.552	28089.47
781.886	27877.73
782.22	27744.17
782.554	27702.59
782.888	27391.41
783.222	27319.1
783.556	27132.21
783.889	27164.07
784.223	26993.68
784.557	26999.78
784.89	26902.39
785.224	26804.76
785.557	26752.33
785.891	26696.29
786.224	26611.09
786.558	26563.64
786.891	26270.99
787.224	26179.47
787.557	26171.33
787.891	26062.63
788.224	26004.56
788.557	25960.72
788.89	25744.45
789.223	25817.89
789.556	25600.73
789.888	25529.31
790.221	25517.11
790.554	25257.01
790.887	25195.31
791.219	25195.31
791.552	25069.67
791.884	24925.49
792.217	24886.62
792.549	24736.57
792.882	24642.78
793.214	24564.37
793.546	24578.15
793.879	24396.92
794.211	24191.04
794.543	24327.54
794.875	24260.65
795.207	24197.82
795.539	23997.6
795.871	23987.66
796.203	23783.82
796.535	23583.15
796.867	23657.05
797.198	23560.55
797.53	23523.72
797.862	23485.3
798.193	23414.12
798.525	23245.08
798.856	23275.59
799.188	23096.84
799.519	22908.37
799.85	22839.67
800.182	22868.37
800.513	22879.44
800.844	22598.09
801.175	22802.15
801.506	22696.85
801.837	22490.98
802.168	22482.39
802.499	22502.05
802.83	22301.38
803.161	22257.99
803.491	22184.32
803.822	22208.27
804.153	22062.06
804.483	21911.33
804.814	21850.09
805.145	21739.58
805.475	21749.08
805.805	21672.92
806.136	21639.25
806.466	21642.41
806.796	21699.81
807.126	21347.5
807.457	21387.73
807.787	21371.23
808.117	21221.86
808.447	21164.01
808.777	21081.52
809.107	21074.74
809.436	20964.69
809.766	20908.42
810.096	20913.62
810.426	20890.57
810.755	20894.86
811.085	20775.09
811.414	20764.02
811.744	20508.88
812.073	20637.01
812.403	20423.23
812.732	20512.05
813.061	20344.37
813.39	20165.84
813.719	20159.96
814.049	20240.64
814.378	20245.16
814.707	20070.7
815.036	20090.36
815.365	19962.46
815.693	19926.3
816.022	19973.3
816.351	19759.75
816.68	19666.87
817.008	19766.3
817.337	19630.94
817.665	19545.74
817.994	19592.75
818.322	19502.58
818.651	19477.5
818.979	19288.57
819.307	19452.41
819.636	19381.23
819.964	19308.01
820.292	19327.67
820.62	19270.27
820.948	19165.19
821.276	19301.91
821.604	19226.43
821.932	19246.32
822.259	19234.56
822.587	18985.53
822.915	19123.83
823.243	19132.19
823.57	19120.67
823.898	19063.04
824.225	19025.53
824.553	19059.88
824.88	18945.08
825.207	19062.14
825.535	19079.31
825.862	19144.4
826.189	19101.46
826.516	19043.16
826.843	19103.72
827.17	19120.44
827.497	19080.67
827.824	19058.3
828.151	19048.58
828.478	19005.19
828.805	19167
829.131	19051.97
829.458	18944.63
829.785	18889.04
830.111	19020.56
830.438	19027.56
830.764	18849.72
831.09	18924.06
831.417	18891.75
831.743	18940.79
832.069	18902.6
832.395	18753
832.722	18876.38
833.048	18815.82
833.374	18858.76
833.7	18757.52
834.026	18827.57
834.351	18811.75
834.677	18690.17
835.003	18749.15
835.329	18732.66
835.654	18686.56
835.98	18591.42
836.306	18655.15
836.631	18629.61
836.956	18609.27
837.282	18580.12
837.607	18483.4
837.932	18445.21
838.258	18465.77
838.583	18487.47
838.908	18349.62
839.233	18213.57
839.558	18265.32
839.883	18204.99
840.208	18108.49
840.533	18193.91
840.858	18129.28
841.182	18163.18
841.507	18014.94
841.832	17937.2
842.156	18003.86
842.481	17974.71
842.805	17926.35
843.13	17861.27
843.454	17828.95
843.778	17760.93
844.103	17719.58
844.427	17702.18
844.751	17668.96
845.075	17595.06
845.399	17580.15
845.723	17515.06
846.047	17530.2
846.371	17286.37
846.695	17390.09
847.019	17216.76
847.343	17222.41
847.666	16968.64
847.99	17024
848.313	16913.5
848.637	16900.84
848.96	16797.34
849.284	16761.86
849.607	16598.02
849.931	16638.7
850.254	16473.51
850.577	16365.94
850.9	16253.17
851.223	16224.47
851.546	16194.19
851.869	16111.48
852.192	16160.75
852.515	15963.01
852.838	15876.46
853.161	15950.13
853.483	15716.24
853.806	15666.75
854.129	15648.22
854.451	15652.29
854.774	15595.79
855.096	15518.96
855.419	15547.43
855.741	15527.77
856.063	15357.15
856.385	15330.94
856.708	15228.12
857.03	15227.66
857.352	15255.23
857.674	15204.39
857.996	15097.05
858.318	15022.92
858.64	15069.02
858.961	15053.43
859.283	14937.95
859.605	14878.97
859.926	14919.88
860.248	14853.44
860.57	14791.97
860.891	14733.21
861.212	14668.13
861.534	14615.48
861.855	14628.81
862.176	14642.82
862.498	14619.77
862.819	14575.7
863.14	14490.06
863.461	14444.86
863.782	14443.96
864.103	14438.76
864.424	14394.92
864.745	14442.83
865.065	14286.22
865.386	14250.97
865.707	14205.09
866.027	14263.85
866.348	14204.41
866.668	14220.46
866.989	14101.14
867.309	14003.74
867.63	14014.82
867.95	14114.93
868.27	13856.85
868.59	13930.75
868.91	13913.35
869.23	13898.43
869.55	13895.5
869.87	13917.19
870.19	13783.63
870.51	13808.04
870.83	13729.17
871.15	13701.6
871.469	13785.67
871.789	13721.49
872.109	13727.37
872.428	13661.38
872.748	13595.62
873.067	13576.41
873.386	13622.28
873.706	13539.57
874.025	13530.99
874.344	13492.57
874.663	13470.87
874.982	13382.52
875.301	13474.49
875.62	13398.11
875.939	13297.77
876.258	13357.88
876.577	13287.83
876.896	13318.34
877.214	13276.08
877.533	13269.07
877.852	13165.8
878.17	13297.09
878.489	13310.2
878.807	13223.65
879.125	13099.81
879.444	13149.98
879.762	13121.73
880.08	13135.97
880.398	13004.67
880.716	13039.25
881.034	13004.67
881.352	12990.44
881.67	12969.19
881.988	12985.69
882.306	12893.71
882.624	12863.43
882.941	12839.25
883.259	12805.58
883.577	12754.96
883.894	12794.06
884.212	12680.84
884.529	12670.67
884.846	12578.47
885.164	12626.38
885.481	12597.68
885.798	12532.14
886.115	12498.92
886.432	12604.68
886.75	12483.56
887.067	12478.36
887.383	12478.13
887.7	12428.42
888.017	12341.19
888.334	12418.92
888.651	12299.38
888.967	12300.74
889.284	12208.53
889.6	12280.85
889.917	12133.51
890.233	12047.18
890.55	12112.72
890.866	12084.24
891.182	12085.15
891.498	12057.35
891.815	11905.27
892.131	11893.29
892.447	11872.05
892.763	11781.2
893.079	11783.69
893.395	11730.58
893.71	11732.84
894.026	11689.45
894.342	11658.49
894.657	11557.7
894.973	11613.97
895.289	11553.64
895.604	11617.14
895.92	11458.95
896.235	11460.76
896.55	11385.05
896.865	11357.48
897.181	11359.74
897.496	11332.17
897.811	11270.25
898.126	11246.75
898.441	11116.81
898.756	11056.93
899.071	11028.68
899.386	11054.67
899.7	10992.07
900.015	10955.91
900.33	10892.86
900.644	10902.81
900.959	10870.49
901.273	10843.83
901.588	10744.39
901.902	10700.78
902.216	10626.66
902.531	10583.49
902.845	10607.22
903.159	10494
903.473	10481.35
903.787	10465.98
904.101	10479.09
904.415	10412.88
904.729	10388.02
905.042	10364.06
905.356	10260.34
905.67	10216.27
905.984	10236.84
906.297	10183.5
906.611	10131.53
906.924	10092.43
907.237	10031.42
907.551	10006.33
907.864	9977.18
908.177	9858.99
908.491	9847.69
908.804	9874.81
909.117	9821.48
909.43	9759.79
909.743	9723.63
910.056	9692.67
910.368	9621.48
910.681	9544.42
910.994	9572.22
911.307	9562.05
911.619	9523.63
911.932	9405.22
912.244	9392.56
912.557	9395.5
912.869	9306.24
913.181	9234.15
913.494	9289.06
913.806	9116.41
914.118	9139.01
914.43	9089.07
914.742	9057.88
915.054	9017.88
915.366	9014.04
915.678	8990.77
915.99	8940.37
916.302	8878.23
916.613	8854.27
916.925	8846.36
917.236	8801.17
917.548	8720.49
917.859	8755.74
918.171	8663.54
918.482	8636.2
918.794	8538.8
919.105	8508.29
919.416	8457.45
919.727	8444.57
920.038	8412.25
920.349	8399.14
920.66	8362.76
920.971	8313.72
921.282	8235.98
921.593	8198.92
921.903	8187.4
922.214	8104.24
922.525	8082.32
922.835	8098.13
923.146	8045.71
923.456	8040.51
923.767	7973.62
924.077	7969.78
924.387	7928.42
924.697	7812.04
925.008	7842.32
925.318	7831.02
925.628	7828.99
925.938	7731.14
926.248	7690.01
926.558	7672.83
926.867	7661.54
927.177	7565.49
927.487	7615.66
927.796	7576.79
928.106	7526.62
928.416	7561.2
928.725	7482.11
929.034	7374.54
929.344	7450.69
929.653	7370.47
929.962	7286.86
930.271	7296.35
930.581	7208.21
930.89	7240.08
931.199	7172.28
931.508	7124.6
931.817	7133.87
932.125	7038.73
932.434	7120.53
932.743	7109.91
933.051	6972.06
933.36	6985.4
933.669	6984.72
933.977	6873.76
934.286	6922.57
934.594	6845.74
934.902	6800.77
935.21	6806.42
935.519	6734.1
935.827	6796.47
936.135	6683.03
936.443	6653.88
936.751	6626.31
937.059	6608
937.367	6591.96
937.674	6582.24
937.982	6556.03
938.29	6478.52
938.597	6507.89
938.905	6403.26
939.213	6397.61
939.52	6384.51
939.827	6354.9
940.135	6363.26
940.442	6334.34
940.749	6284.4
941.056	6223.61
941.363	6227
941.67	6182.25
941.977	6139.09
942.284	6138.64
942.591	6132.08
942.898	6063.61
943.205	6062.93
943.511	6044.4
943.818	5980.9
944.125	5974.12
944.431	5925.08
944.738	5916.72
945.044	5920.79
945.35	5881.7
945.657	5828.14
945.963	5838.53
946.269	5802.38
946.575	5798.31
946.881	5727.8
947.187	5694.36
947.493	5683.51
947.799	5654.13
948.105	5581.14
948.41	5632.44
948.716	5621.14
949.022	5519.22
949.327	5579.1
949.633	5522.16
949.938	5508.82
950.244	5447.58
950.549	5419.11
950.854	5452.33
951.16	5425.89
951.465	5320.58
951.77	5313.8
952.075	5293.46
952.38	5293.91
952.685	5246.01
952.99	5255.72
953.294	5219.34
953.599	5180.47
953.904	5177.31
954.209	5133.47
954.513	5140.25
954.818	5072.23
955.122	5072.45
955.426	5084.2
955.731	5019.57
956.035	5012.34
956.339	4973.92
956.643	4982.06
956.948	4921.04
957.252	4918.78
957.556	4854.6
957.86	4869.52
958.163	4858.67
958.467	4824.55
958.771	4795.4
959.075	4801.27
959.378	4772.35
959.682	4739.58
959.985	4755.62
960.289	4728.96
960.592	4682.63
960.896	4705
961.199	4622.75
961.502	4610.32
961.805	4583.88
962.108	4617.77
962.411	4573.71
962.714	4507.49
963.017	4536.87
963.32	4537.32
963.623	4495.74
963.926	4460.94
964.228	4465.91
964.531	4417.55
964.833	4430.21
965.136	4367.16
965.438	4403.09
965.741	4355.63
966.043	4340.49
966.345	4295.3
966.648	4315.86
966.95	4281.06
967.252	4212.36
967.554	4243.55
967.856	4185.24
968.158	4146.37
968.46	4170.33
968.761	4149.09
969.063	4095.75
969.365	4104.79
969.666	4079.03
969.968	4043.1
970.269	4071.8
970.571	4029.31
970.872	4024.8
971.174	3959.71
971.475	3991.35
971.776	3956.32
972.077	3952.03
972.378	3914.97
972.679	3884.23
972.98	3874.06
973.281	3855.31
973.582	3863.22
973.883	3816.67
974.183	3853.95
974.484	3835.87
974.785	3788.87
975.085	3805.59
975.386	3817.34
975.686	3751.81
975.986	3701.64
976.287	3698.93
976.587	3657.12
976.887	3685.37
977.187	3700.28
977.487	3661.64
977.787	3585.94
978.087	3590.91
978.387	3592.04
978.687	3549.33
978.987	3542.55
979.286	3516.11
979.586	3553.62
979.885	3522.21
980.185	3479.05
980.484	3478.82
980.784	3446.28
981.083	3424.36
981.382	3408.54
981.682	3394.76
981.981	3387.98
982.28	3380.29
982.579	3359.05
982.878	3363.57
983.177	3339.39
983.475	3322.44
983.774	3303.46
984.073	3312.5
984.372	3246.96
984.67	3321.54
984.969	3267.75
985.267	3264.59
985.566	3220.3
985.864	3226.62
986.162	3166.74
986.461	3153.41
986.759	3218.49
987.057	3133.75
987.355	3113.18
987.653	3129.9
987.951	3090.81
988.249	3080.19
988.547	3102.11
988.844	3070.02
989.142	3060.3
989.44	3006.07
989.737	3019.85
990.035	2961.32
990.332	3005.61
990.63	2966.52
990.927	2926.97
991.224	2933.75
991.521	2939.63
991.819	2893.53
992.116	2897.59
992.413	2888.55
992.71	2824.6
993.006	2845.17
993.303	2814.88
993.6	2819.4
993.897	2821.66
994.193	2810.82
994.49	2807.65
994.787	2780.08
995.083	2728.78
995.379	2748.9
995.676	2724.94
995.972	2728.33
996.268	2682.91
996.565	2694.66
996.861	2685.17
997.157	2691.05
997.453	2603.36
997.749	2651.27
998.044	2640.2
998.34	2610.14
998.636	2593.87
998.932	2555
999.227	2547.09
999.523	2559.98
999.818	2554.1
1000.114	2506.87
1000.409	2508
1000.704	2509.35
1001	2462.35
1001.295	2457.38
1001.59	2449.92
1001.885	2473.65
1002.18	2450.15
1002.475	2417.15
1002.77	2388.68
1003.065	2369.25
1003.359	2354.1
1003.654	2346.2
1003.949	2349.81
1004.243	2335.35
1004.538	2344.16
1004.832	2286.99
1005.127	2294.22
1005.421	2273.2
1005.715	2266.42
1006.009	2238.63
1006.304	2253.09
1006.598	2216.93
1006.892	2207.44
1007.186	2196.59
1007.48	2196.37
1007.773	2178.06
1008.067	2150.27
1008.361	2158.63
1008.655	2124.28
1008.948	2114.11
1009.242	2116.6
1009.535	2057.84
1009.829	2080.21
1010.122	2054.68
1010.415	2078.63
1010.708	2052.64
1011.001	2020.1
1011.295	2005.41
1011.588	2065.52
1011.881	2038.41
1012.173	2011.97
1012.466	1984.17
1012.759	1963.61
1013.052	1959.09
1013.344	1958.86
1013.637	1928.58
1013.93	1950.5
1014.222	1887.45
1014.514	1929.71
1014.807	1871.41
1015.099	1877.96
1015.391	1862.59
1015.683	1851.29
1015.976	1846.77
1016.268	1816.94
1016.56	1799.77
1016.851	1808.36
1017.143	1806.55
1017.435	1771.52
1017.727	1761.8
1018.018	1733.1
1018.31	1734.91
1018.602	1707.34
1018.893	1719.32
1019.185	1694.69
1019.476	1720.68
1019.767	1688.59
1020.058	1701.92
1020.35	1683.61
1020.641	1615.37
1020.932	1648.13
1021.223	1662.37
1021.514	1613.56
1021.804	1631.86
1022.095	1594.35
1022.386	1586.44
1022.677	1562.49
1022.967	1543.5
1023.258	1564.3
1023.548	1537.63
1023.839	1519.32
1024.129	1534.92
1024.419	1537.86
1024.709	1488.36
1025	1522.94
1025.29	1494.47
1025.58	1477.52
1025.87	1459.67
1026.16	1430.97
1026.449	1491.53
1026.739	1444.52
1027.029	1438.2
1027.319	1412.43
1027.608	1420.12
1027.898	1381.25
1028.187	1391.19
1028.477	1387.35
1028.766	1379.89
1029.055	1356.62
1029.344	1358.88
1029.634	1324.3
1029.923	1327.47
1030.212	1324.98
1030.501	1316.62
1030.79	1282.95
1031.078	1308.26
1031.367	1253.12
1031.656	1283.17
1031.945	1283.17
1032.233	1289.5
1032.522	1275.26
1032.81	1246.56
1033.099	1217.86
1033.387	1205.89
1033.675	1234.36
1033.963	1202.27
1034.251	1200.46
1034.54	1188.26
1034.828	1154.59
1035.116	1166.57
1035.403	1155.94
1035.691	1157.07
1035.979	1158.43
1036.267	1162.27
1036.554	1137.19
1036.842	1137.64
1037.129	1108.94
1037.417	1120.92
1037.704	1096.74
1037.992	1075.95
1038.279	1074.14
1038.566	1087.25
1038.853	1087.25
1039.14	1087.25
