Data from breadboard_black_back_FLMS001491_00072.txt Node
Date: Wed Feb 08 10:50:53 GMT 2017
User: dcchb
Spectrometer: FLMS00149
Trigger mode: 0
Integration Time (sec): 2.000000E-2
Scans to average: 10
Electric dark correction enabled: true
Nonlinearity correction enabled: false
Boxcar width: 0
XAxis mode: Wavelengths
Number of Pixels in Spectrum: 2048
>>>>>Begin Spectral Data<<<<<
341.393	-23.52
341.776	-23.52
342.16	-23.52
342.543	-59
342.927	-68.94
343.31	-60.58
343.693	-66.68
344.077	-55.61
344.46	-65.55
344.843	-55.38
345.226	-51.54
345.61	-39.11
345.993	-14.25
346.376	-25.78
346.759	1.57
347.142	41.79
347.525	43.15
347.908	48.8
348.291	72.75
348.674	107.33
349.057	119.08
349.44	129.93
349.823	148
350.206	164.73
350.588	180.32
350.971	212.41
351.354	224.39
351.737	235.69
352.119	255.57
352.502	259.87
352.884	284.5
353.267	290.37
353.65	294.44
354.032	296.93
354.414	312.07
354.797	319.3
355.179	317.49
355.562	338.73
355.944	338.06
356.326	335.34
356.709	349.81
357.091	324.72
357.473	340.32
357.855	329.47
358.238	351.39
358.62	360.43
359.002	343.03
359.384	327.21
359.766	317.04
360.148	334.89
360.53	348.45
360.912	344.84
361.294	341.9
361.676	319.3
362.057	339.41
362.439	329.47
362.821	337.38
363.203	349.13
363.584	335.34
363.966	324.27
364.348	348.45
364.729	326.3
365.111	329.02
365.493	359.3
365.874	335.12
366.256	357.72
366.637	341.45
367.019	356.13
367.4	343.25
367.781	359.3
368.163	349.13
368.544	327.43
368.925	333.31
369.306	330.37
369.688	335.8
370.069	340.32
370.45	348.23
370.831	350.26
371.212	343.25
371.593	346.64
371.974	340.99
372.355	360.88
372.736	347.1
373.117	358.17
373.498	374.21
373.879	346.87
374.26	318.62
374.641	350.71
375.021	361.56
375.402	356.13
375.783	363.59
376.163	376.02
376.544	361.11
376.925	375.34
377.305	373.31
377.686	378.28
378.066	352.52
378.447	380.99
378.827	389.58
379.208	388
379.588	375.57
379.968	383.25
380.349	390.94
380.729	402.46
381.109	398.85
381.489	365.85
381.87	387.32
382.25	395.91
382.63	395.91
383.01	378.51
383.39	401.78
383.77	401.11
384.15	417.15
384.53	405.62
384.91	406.98
385.29	414.66
385.67	426.42
386.049	429.58
386.429	437.94
386.809	420.09
387.189	436.36
387.568	425.74
387.948	444.95
388.328	465.74
388.707	432.52
389.087	437.94
389.466	458.73
389.846	463.7
390.225	436.58
390.605	468.22
390.984	494.44
391.363	467.32
391.743	462.12
392.122	489.92
392.501	457.37
392.881	530.59
393.26	493.31
393.639	495.79
394.018	492.85
394.397	484.27
394.776	498.5
395.155	513.64
395.534	511.84
395.913	509.13
396.292	519.52
396.671	536.69
397.05	531.72
397.429	544.6
397.808	511.16
398.186	545.28
398.565	546.19
398.944	548.45
399.323	565.62
399.701	552.06
400.08	582.12
400.458	576.92
400.837	566.98
401.215	558.16
401.594	569.01
401.972	576.92
402.351	584.38
402.729	598.61
403.107	591.83
403.486	604.94
403.864	618.5
404.242	607.43
404.62	635.68
404.999	619.4
405.377	623.47
405.755	642.23
406.133	638.61
406.511	636.58
406.889	658.5
407.267	657.14
407.645	660.99
408.023	691.27
408.401	696.01
408.779	699.4
409.156	689.46
409.534	700.31
409.912	719.51
410.29	707.54
410.667	744.6
411.045	728.55
411.422	719.29
411.8	777.37
412.178	760.87
412.555	762.45
412.933	794.32
413.31	792.96
413.687	813.98
414.065	830.25
414.442	832.51
414.819	862.11
415.197	828.21
415.574	845.39
415.951	849.91
416.328	855.1
416.705	834.54
417.082	868.44
417.46	886.06
417.837	902.56
418.214	910.7
418.591	902.79
418.967	910.47
419.344	913.18
419.721	942.11
420.098	941.43
420.475	952.28
420.852	950.02
421.228	980.3
421.605	952.5
421.982	990.47
422.358	978.94
422.735	981.2
423.111	1006.97
423.488	1023.24
423.864	1024.59
424.241	1032.95
424.617	1034.53
424.994	1044.25
425.37	1056.46
425.746	1061.65
426.123	1070.69
426.499	1107.75
426.875	1124.7
427.251	1140.29
427.627	1151.59
428.003	1143.23
428.379	1170.12
428.756	1194.53
429.132	1180.52
429.507	1196.56
429.883	1235.66
430.259	1238.82
430.635	1255.77
431.011	1273.62
431.387	1269.56
431.763	1288.77
432.138	1277.47
432.514	1334.19
432.89	1347.07
433.265	1379.84
433.641	1371.02
434.016	1376.9
434.392	1397.92
434.767	1426.39
435.143	1436.33
435.518	1454.18
435.894	1462.32
436.269	1503.45
436.644	1493.51
437.02	1494.41
437.395	1530.79
437.77	1555.65
438.145	1583.9
438.52	1576.22
438.895	1588.42
439.271	1599.27
439.646	1613.28
440.021	1661.64
440.395	1646.5
440.77	1672.03
441.145	1686.95
441.52	1702.99
441.895	1695.31
442.27	1726.72
442.645	1710
443.019	1752.26
443.394	1755.87
443.769	1772.14
444.143	1768.07
444.518	1764.46
444.892	1787.74
445.267	1776.44
445.641	1852.59
446.016	1813.72
446.39	1863.21
446.764	1852.59
447.139	1848.52
447.513	1887.17
447.887	1882.2
448.262	1911.57
448.636	1906.83
449.01	1946.83
449.384	1958.58
449.758	1997.9
450.132	1971.46
450.506	1974.4
450.88	2016.66
451.254	2036.77
451.628	2049.2
452.002	2109.31
452.376	2107.28
452.75	2093.26
453.123	2116.54
453.497	2127.39
453.871	2181.85
454.244	2199.25
454.618	2192.24
454.992	2281.73
455.365	2267.72
455.739	2326.48
456.112	2366.93
456.486	2375.97
456.859	2385.01
457.232	2460.26
457.606	2428.62
457.979	2439.24
458.352	2513.37
458.725	2532.12
459.099	2553.14
459.472	2595.17
459.845	2637.66
460.218	2680.37
460.591	2693.93
460.964	2734.83
461.337	2815.05
461.71	2826.13
462.083	2848.95
462.456	2860.7
462.829	2860.48
463.201	2947.48
463.574	2927.82
463.947	2979.12
464.32	3062.5
464.692	3091.88
465.065	3139.34
465.438	3145.67
465.81	3169.17
466.183	3222.27
466.555	3254.59
466.928	3326.68
467.3	3310.41
467.672	3387.24
468.045	3471.98
468.417	3453.45
468.789	3467.47
469.161	3521.48
469.534	3588.82
469.906	3660.45
470.278	3707.91
470.65	3739.77
471.022	3809.83
471.394	3868.58
471.766	3918.98
472.138	3954.68
472.51	3984.97
472.882	4097.73
473.253	4126.43
473.625	4215.69
473.997	4263.15
474.369	4325.3
474.74	4375.69
475.112	4455.91
475.484	4561.9
475.855	4669.69
476.227	4657.04
476.598	4742.46
476.97	4780.88
477.341	4936.35
477.713	5006.41
478.084	4972.74
478.455	5180.41
478.827	5231.71
479.198	5355.33
479.569	5334.99
479.94	5507.64
480.311	5605.71
480.682	5650.91
481.053	5794.18
481.424	5877.12
481.795	5935.65
482.166	6028.08
482.537	6099.94
482.908	6240.5
483.279	6326.15
483.65	6476.65
484.021	6534.96
484.391	6638.23
484.762	6696.31
485.133	6771.11
485.503	6787.83
485.874	7012.91
486.244	7025.34
486.615	7157.09
486.985	7270.76
487.356	7433.91
487.726	7473.91
488.097	7669.39
488.467	7598.66
488.837	7855.37
489.207	7901.47
489.578	8022.83
489.948	8053.79
490.318	8179.21
490.688	8276.15
491.058	8384.85
491.428	8529.03
491.798	8572.87
492.168	8745.52
492.538	8739.19
492.908	8862.8
493.278	8996.36
493.648	8985.29
494.017	9181.21
494.387	9219.63
494.757	9268.22
495.126	9389.12
495.496	9423.69
495.866	9472.96
496.235	9637.92
496.605	9813.06
496.974	9773.97
497.344	9868.2
497.713	9947.75
498.082	10001.76
498.452	10129.89
498.821	10249.66
499.19	10240.62
499.559	10317.68
499.928	10401.97
500.298	10486.26
500.667	10566.71
501.036	10645.58
501.405	10685.13
501.774	10697.56
502.143	10878.8
502.512	10972.58
502.88	11043.54
503.249	11005.12
503.618	11090.77
503.987	11215.74
504.356	11236.75
504.724	11342.51
505.093	11399.69
505.462	11374.6
505.83	11579.12
506.199	11641.49
506.567	11823.18
506.936	11857.08
507.304	11977.98
507.672	11926
508.041	12110.63
508.409	12188.59
508.777	12266.1
509.145	12364.63
509.514	12405.76
509.882	12406.44
510.25	12487.12
510.618	12642.59
510.986	12652.31
511.354	12862.47
511.722	12932.08
512.09	13095.46
512.458	13023.82
512.826	13270.37
513.193	13308.34
513.561	13289.35
513.929	13497.03
514.297	13479.63
514.664	13701.32
515.032	13678.5
515.4	13947.19
515.767	13917.81
516.135	13987.64
516.502	13986.74
516.869	14334.07
517.237	14308.99
517.604	14320.06
517.972	14541.98
518.339	14584.69
518.706	14606.38
519.073	14749.2
519.44	14793.27
519.808	15020.16
520.175	15013.83
520.542	15227.38
520.909	15306.7
521.276	15402.29
521.643	15550.31
522.009	15661.04
522.376	15842.96
522.743	15816.97
523.11	16035.72
523.477	16179
523.843	16272.78
524.21	16413.34
524.577	16548.25
524.943	16697.63
525.31	16835.93
525.676	16997.51
526.043	17090.38
526.409	17192.08
526.776	17298.97
527.142	17412.41
527.508	17528.11
527.874	17675.45
528.241	17714.77
528.607	17907.76
528.973	17995.22
529.339	17921.77
529.705	18269.79
530.071	18342.78
530.437	18501.87
530.803	18548.88
531.169	18687.18
531.535	18683.79
531.901	18677.46
532.267	18896.66
532.632	19032.48
532.998	19074.51
533.364	19165.81
533.73	19195.19
534.095	19426.14
534.461	19464.56
534.826	19585.23
535.192	19630.66
535.557	19749.98
535.923	19764.66
536.288	19914.26
536.653	20067.93
537.019	20017.09
537.384	20067.03
537.749	20122.17
538.114	20224.76
538.479	20326.68
538.845	20410.3
539.21	20392.44
539.575	20574.36
539.94	20553.57
540.305	20701.81
540.67	20629.95
541.034	20936.38
541.399	20827.01
541.764	20977.29
542.129	21092.99
542.494	21195.59
542.858	21263.38
543.223	21279.43
543.587	21409.59
543.952	21412.08
544.316	21461.12
544.681	21559.19
545.045	21646.42
545.41	21738.85
545.774	21776.36
546.138	21798.73
546.503	21979.07
546.867	21965.96
547.231	22137.03
547.595	22133.87
547.959	22276.69
548.324	22370.47
548.688	22372.5
549.052	22438.49
549.416	22452.05
549.779	22555.33
550.143	22610.01
550.507	22857.24
550.871	22787.86
551.235	22863.11
551.599	23143.78
551.962	23113.28
552.326	23216.78
552.689	23342.42
553.053	23325.02
553.417	23451.57
553.78	23666.71
554.143	23611.79
554.507	23691.11
554.87	23748.06
555.234	24079.8
555.597	23864.22
555.96	24022.41
556.323	24167.03
556.686	24188.95
557.05	24313.7
557.413	24398.44
557.776	24511.88
558.139	24698.09
558.502	24711.2
558.865	24769.5
559.228	25065.32
559.59	25218.98
559.953	25198.19
560.316	25441.58
560.679	25389.15
561.041	25550.05
561.404	25667.56
561.767	25757.95
562.129	25779.65
562.492	25985.07
562.854	26061
563.217	26119.07
563.579	26164.5
563.941	26367.43
564.304	26504.83
564.666	26638.83
565.028	26732.84
565.39	26723.13
565.753	27002.21
566.115	26993.63
566.477	27190.46
566.839	27194.98
567.201	27426.61
567.563	27411.69
567.925	27664.8
568.287	27595.64
568.648	27692.82
569.01	27876.77
569.372	27985.01
569.734	27959.7
570.095	28135.52
570.457	28198.57
570.819	28240.6
571.18	28418
571.542	28479.91
571.903	28566.24
572.265	28694.82
572.626	28743.64
572.987	28791.55
573.349	28812.56
573.71	28917.42
574.071	28973.46
574.432	29226.56
574.794	29289.61
575.155	29240.12
575.516	29364.19
575.877	29548.59
576.238	29478.31
576.599	29635.59
576.96	29665.42
577.32	29642.14
577.681	29775.02
578.042	29833.78
578.403	29738.41
578.763	29938.63
579.124	29930.27
579.485	29932.31
579.845	30135.24
580.206	30043.94
580.566	30130.27
580.927	30181.34
581.287	30227.44
581.648	30247.33
582.008	30278.51
582.368	30363.71
582.728	30320.09
583.089	30256.59
583.449	30306.53
583.809	30347.89
584.169	30314.44
584.529	30346.76
584.889	30584.49
585.249	30545.62
585.609	30400.09
585.969	30567.32
586.329	30368.23
586.688	30407.1
587.048	30427.66
587.408	30331.17
587.768	30400.32
588.127	30342.69
588.487	30477.6
588.846	30496.59
589.206	30438.73
589.565	30375.46
589.925	30727.54
590.284	30525.74
590.643	30560.31
591.003	30703.36
591.362	30787.42
591.721	30607.99
592.08	30595.57
592.44	30682.79
592.799	30798.27
593.158	30662.23
593.517	30642.57
593.876	30802.57
594.235	30683.02
594.593	30655.9
594.952	30728.9
595.311	30659.29
595.67	30698.61
596.029	30963.47
596.387	31025.38
596.746	31029.9
597.104	30834.43
597.463	30761.89
597.822	31073.29
598.18	30890.93
598.538	30795.79
598.897	31144.48
599.255	30840.98
599.613	31270.12
599.972	31000.3
600.33	31205.04
600.688	31020.41
601.046	31088.89
601.404	31236.45
601.762	31200.52
602.12	31340.4
602.478	31259.28
602.836	31253.18
603.194	31226.28
603.552	31280.07
603.91	31211.59
604.268	31291.14
604.625	31360.74
604.983	31377.69
605.341	31329.11
605.698	31399.16
606.056	31433.96
606.413	31505.82
606.771	31676.44
607.128	31705.37
607.485	31521.42
607.843	31665.37
608.2	31789.88
608.557	31775.87
608.914	31835.76
609.272	31911.92
609.629	31857.68
609.986	32054.28
610.343	31857.68
610.7	32139.25
611.057	31977
611.414	32050.89
611.771	31856.55
612.127	32246.37
612.484	32068.75
612.841	32189.87
613.198	32078.46
613.554	32073.49
613.911	32481.84
614.267	32298.57
614.624	32356.2
614.98	32412.24
615.337	32579.02
615.693	32506.7
616.05	32460.83
616.406	32562.07
616.762	32479.36
617.118	32535.85
617.475	32466.7
617.831	32527.04
618.187	32718
618.543	32759.58
618.899	32869.4
619.255	32740.37
619.611	32750.76
619.967	32873.02
620.323	32950.98
620.678	32725.91
621.034	32744.44
621.39	32753.93
621.746	32750.09
622.101	33142.39
622.457	32865.56
622.812	32859.01
623.168	33066.69
623.523	33020.81
623.879	33043.18
624.234	32772.91
624.589	33005.22
624.945	32864.88
625.3	32905.11
625.655	32981.27
626.01	32921.83
626.365	32965.22
626.72	32963.64
627.075	32958.22
627.43	32824.89
627.785	32877.54
628.14	32909.18
628.495	32945.79
628.85	32946.46
629.205	32796.19
629.559	32999.8
629.914	32782.85
630.269	32848.61
630.623	32715.74
630.978	32614.72
631.332	32801.84
631.687	32948.72
632.041	32703.98
632.396	32750.31
632.75	32689.75
633.104	32793.7
633.459	32573.37
633.813	32471.22
634.167	32351
634.521	32417.89
634.875	32621.5
635.229	32405.01
635.583	32333.6
635.937	32236.43
636.291	32259.93
636.645	32247.27
636.999	32202.75
637.352	32286.14
637.706	32113.27
638.06	32235.3
638.413	32232.81
638.767	32072.14
639.121	32085.92
639.474	31827.85
639.828	31914.17
640.181	32051.8
640.534	31804.12
640.888	31746.04
641.241	31607.29
641.594	31718.02
641.947	31767.29
642.301	31708.76
642.654	31694.97
643.007	31723.9
643.36	31600.06
643.713	31640.51
644.066	31667.63
644.419	31433.06
644.771	31403.91
645.124	31015.44
645.477	31050.02
645.83	30819.74
646.182	30662.46
646.535	30525.96
646.888	30615.68
647.24	30379.53
647.593	30511.73
647.945	30387.44
648.298	30194.45
648.65	30174.79
649.002	30116.26
649.355	30341.33
649.707	30250.26
650.059	30409.58
650.411	30803.47
650.763	30829.68
651.115	31011.15
651.467	30929.34
651.819	30925.27
652.171	30824.49
652.523	30786.07
652.875	30704.49
653.227	30636.92
653.578	30737.26
653.93	30695.9
654.282	30553.31
654.633	30456.13
654.985	30645.73
655.337	30650.48
655.688	30728.9
656.039	30714.66
656.391	30431.73
656.742	30470.37
657.094	30448.68
657.445	30485.29
657.796	30532.74
658.147	30479.18
658.498	30383.59
658.849	30497.94
659.2	30262.69
659.551	30336.82
659.902	30447.32
660.253	30412.52
660.604	30304.27
660.955	30216.82
661.306	30362.8
661.656	30189.7
662.007	30139.08
662.358	30184.73
662.708	30158.97
663.059	30083.49
663.409	30057.95
663.76	30321.9
664.11	30323.93
664.461	30165.75
664.811	30138.85
665.161	30097.73
665.511	30084.84
665.862	30043.94
666.212	30092.08
666.562	30177.05
666.912	30040.55
667.262	29968.01
667.612	30046.88
667.962	30066.99
668.312	29874.23
668.662	30093.43
669.011	30111.06
669.361	30020.44
669.711	29946.54
670.06	30024.28
670.41	29918.52
670.76	29866.09
671.109	29946.77
671.459	29817.51
671.808	29863.38
672.157	29797.62
672.507	29667.68
672.856	29657.06
673.205	29761.24
673.554	29725.98
673.904	29725.76
674.253	29827.68
674.602	29760.56
674.951	29314.47
675.3	29200.8
675.649	29703.61
675.998	29526.89
676.346	29659.09
676.695	29720.33
677.044	29369.61
677.393	29451.64
677.741	29503.62
678.09	29438.31
678.438	29269.5
678.787	29330.29
679.135	29406.22
679.484	29186.79
679.832	29301.59
680.181	29189.27
680.529	29208.26
680.877	29190.63
681.225	29100.01
681.573	29275.37
681.922	29117.64
682.27	29031.99
682.618	29001.03
682.966	29034.02
683.314	28945.89
683.661	28870.87
684.009	28729.85
684.357	28671.1
684.705	28705.45
685.053	28653.47
685.4	28627.03
685.748	28257.55
686.095	28328.96
686.443	28197.21
686.79	28268.85
687.138	28375.96
687.485	28386.58
687.832	28223.2
688.18	28278.11
688.527	28138
688.874	28010.1
689.221	28034.05
689.568	27942.75
689.915	27934.17
690.262	27858.46
690.609	27852.59
690.956	27676.09
691.303	27647.85
691.65	27558.36
691.997	27425.48
692.344	27471.13
692.69	27392.94
693.037	27417.12
693.383	27290.34
693.73	27244.24
694.077	26993.4
694.423	27105.49
694.769	26952.72
695.116	26911.14
695.462	26850.13
695.808	26826.85
696.155	26766.97
696.501	26591.38
696.847	26585.28
697.193	26403.13
697.539	26449.23
697.885	26265.51
698.231	26281.33
698.577	26292.4
698.923	26087.21
699.269	26104.38
699.614	25852.41
699.96	25868.91
700.306	25851.74
700.651	25749.82
700.997	25759.53
701.342	25640.67
701.688	25604.28
702.033	25506.43
702.379	25551.63
702.724	25406.1
703.069	25553.44
703.415	25140.12
703.76	25179.21
704.105	25178.08
704.45	25186.22
704.795	24953.68
705.14	24968.37
705.485	24949.39
705.83	24728.83
706.175	24851.99
706.52	24748.26
706.865	24723.4
707.209	24718.43
707.554	24580.81
707.899	24479.12
708.243	24471.43
708.588	24369.29
708.932	24180.82
709.277	24230.08
709.621	24284.77
709.966	24120.26
710.31	24191.89
710.654	23935.4
710.998	23970.43
711.342	23944.44
711.687	23856.53
712.031	23773.15
712.375	23788.96
712.719	23755.97
713.063	23716.2
713.407	23650.89
713.75	23594.85
714.094	23633.04
714.438	23514.17
714.782	23514.85
715.125	23444.34
715.469	23365.25
715.812	23202.54
716.156	23174.74
716.499	23137.23
716.843	23238.02
717.186	23077.12
717.53	23140.85
717.873	23037.57
718.216	23051.36
718.559	22920.97
718.902	22898.37
719.246	22921.87
719.589	22839.61
719.932	22649.56
720.275	22797.58
720.617	22699.28
720.96	22641.2
721.303	22624.48
721.646	22602.56
721.989	22364.14
722.331	22525.72
722.674	22539.05
723.016	22469
723.359	22422.67
723.701	22463.58
724.044	22296.8
724.386	22117.82
724.729	22324.6
725.071	22151.04
725.413	22219.51
725.755	22250.02
726.097	22045.51
726.439	21957.15
726.782	21932.97
727.124	22012.29
727.465	21888.22
727.807	21906.98
728.149	21813.65
728.491	21792.86
728.833	21790.83
729.175	21732.52
729.516	21777.72
729.858	21738.17
730.199	21715.12
730.541	21551.74
730.882	21548.12
731.224	21617.27
731.565	21325.3
731.906	21538.4
732.248	21511.74
732.589	21439.87
732.93	21475.81
733.271	21379.54
733.612	21456.14
733.953	21293.44
734.294	21297.96
734.635	21268.13
734.976	21329.14
735.317	21117.62
735.658	21167.79
735.999	21146.32
736.339	21158.53
736.68	21165.08
737.021	21000.11
737.361	20922.83
737.702	21033.56
738.042	20944.75
738.383	20894.8
738.723	20943.62
739.063	20825.88
739.404	20803.05
739.744	20885.31
740.084	20645.77
740.424	20790.85
740.764	20645.32
741.104	20617.52
741.444	20575.72
741.784	20588.82
742.124	20653.23
742.464	20515.83
742.804	20498.2
743.143	20533.46
743.483	20496.17
743.823	20295.5
744.162	20325.1
744.502	20274.71
744.841	20282.84
745.181	20369.85
745.52	20283.29
745.86	20286.23
746.199	20259.57
746.538	20175.05
746.877	20175.5
747.216	20112.68
747.556	20211.88
747.895	20031.78
748.234	19982.06
748.573	19903.19
748.911	19924.66
749.25	19821.61
749.589	19792.23
749.928	19795.62
750.267	19843.53
750.605	19720.82
750.944	19812.8
751.283	19615.29
751.621	19674.27
751.96	19627.72
752.298	19485.35
752.636	19517.44
752.975	19473.6
753.313	19286.26
753.651	19421.62
753.989	19298.91
754.327	19149.54
754.666	19083.55
755.004	19235.64
755.342	19200.16
755.679	19167.17
756.017	19062.76
756.355	19051.01
756.693	18940.28
757.031	18969.88
757.368	18835.65
757.706	18882.2
758.044	18779.83
758.381	18832.26
758.719	18757.68
759.056	18765.37
759.394	18693.28
759.731	18551.81
760.068	18607.63
760.405	18472.04
760.743	18500.74
761.08	18414.64
761.417	18161.32
761.754	18305.49
762.091	18216.23
762.428	18270.92
762.765	18000.64
763.102	18166.06
763.438	18032.51
763.775	17977.59
764.112	17924.26
764.449	17825.96
764.785	17925.39
765.122	17710.25
765.458	17605.4
765.795	17590.48
766.131	17552.52
766.467	17526.08
766.804	17413.77
767.14	17430.04
767.476	17336.71
767.812	17220.32
768.148	17292.86
768.485	17134.68
768.821	17171.06
769.157	17019.88
769.492	16977.84
769.828	17005.19
770.164	16856.49
770.5	16840.9
770.836	16762.48
771.171	16724.29
771.507	16657.4
771.842	16550.74
772.178	16611.07
772.513	16512.55
772.849	16433.23
773.184	16229.84
773.519	16361.36
773.855	16185.77
774.19	16166.11
774.525	16122.73
774.86	16110.97
775.195	16072.56
775.53	16005.89
775.865	15940.13
776.2	15847.03
776.535	15691.1
776.87	15819.91
777.205	15619.24
777.539	15581.95
777.874	15594.83
778.209	15450.65
778.543	15512.35
778.878	15392.8
779.212	15379.02
779.547	15214.95
779.881	15300.83
780.215	15131.11
780.55	15223.54
780.884	15092.47
781.218	15059.48
781.552	15038.46
781.886	14923.66
782.22	14878.69
782.554	14830.1
782.888	14690.67
783.222	14747.85
783.556	14647.06
783.889	14576.33
784.223	14577
784.557	14424.69
784.89	14472.83
785.224	14399.38
785.557	14271.48
785.891	14318.93
786.224	14167.52
786.558	14203.91
786.891	14062.67
787.224	13948.09
787.557	14009.56
787.891	14078.03
788.224	13997.58
788.557	13887.53
788.89	13864.48
789.223	13831.49
789.556	13739.51
789.888	13687.08
790.221	13734.31
790.554	13554.43
790.887	13626.07
791.219	13626.97
791.552	13523.02
791.884	13454.77
792.217	13339.52
792.549	13347.66
792.882	13306.08
793.214	13234.44
793.546	13230.6
793.879	13153.09
794.211	13085.07
794.543	13135.01
794.875	13023.15
795.207	13090.04
795.539	12953.77
795.871	12928.23
796.203	12831.29
796.535	12854.34
796.867	12833.09
797.198	12730.05
797.53	12758.29
797.862	12722.36
798.193	12667.9
798.525	12570.05
798.856	12575.02
799.188	12499.32
799.519	12436.5
799.85	12395.82
800.182	12385.42
800.513	12384.74
800.844	12296.39
801.175	12343.16
801.506	12248.7
801.837	12271.3
802.168	12233.79
802.499	12168.03
802.83	12082.61
803.161	12097.97
803.491	12094.58
803.822	12029.27
804.153	11991.53
804.483	11905.89
804.814	11846.91
805.145	11909.5
805.475	11950.86
805.805	11762.39
806.136	11853.91
806.466	11848.04
806.796	11784.08
807.126	11629.06
807.457	11678.55
807.787	11606.01
808.117	11606.23
808.447	11485.33
808.777	11546.12
809.107	11523.75
809.436	11474.26
809.766	11423.87
810.096	11420.7
810.426	11344.32
810.755	11318.56
811.085	11281.27
811.414	11312.68
811.744	11217.32
812.073	11266.58
812.403	11204.66
812.732	11212.8
813.061	11126.25
813.39	11117.66
813.719	11038.34
814.049	11094.16
814.378	10998.57
814.707	10977.1
815.036	10966.7
815.365	11007.61
815.693	10859.36
816.022	10843.99
816.351	10729.65
816.68	10731.46
817.008	10778.46
817.337	10700.5
817.665	10683.55
817.994	10685.13
818.322	10640.16
818.651	10638.12
818.979	10589.76
819.307	10665.47
819.636	10543.66
819.964	10527.39
820.292	10533.04
820.62	10541.18
820.948	10484.46
821.276	10484.46
821.604	10530.78
821.932	10544.34
822.259	10567.62
822.587	10535.53
822.915	10492.37
823.243	10525.81
823.57	10524.23
823.898	10541.4
824.225	10454.63
824.553	10470.67
824.88	10470.9
825.207	10452.59
825.535	10524
825.862	10509.09
826.189	10412.14
826.516	10465.02
826.843	10517.45
827.17	10453.27
827.497	10427.06
827.824	10511.35
828.151	10558.13
828.478	10491.46
828.805	10452.37
829.131	10539.37
829.458	10465.93
829.785	10366.27
830.111	10448.3
830.438	10453.04
830.764	10439.26
831.09	10496.89
831.417	10361.3
831.743	10452.59
832.069	10408.98
832.395	10340.05
832.722	10481.74
833.048	10361.3
833.374	10357.68
833.7	10368.98
834.026	10410.11
834.351	10407.62
834.677	10361.07
835.003	10361.75
835.329	10301.86
835.654	10200.4
835.98	10298.02
836.306	10282.2
836.631	10263.67
836.956	10293.5
837.282	10235.2
837.607	10236.55
837.932	10157.46
838.258	10233.39
838.583	10133.73
838.908	10116.78
839.233	10142.09
839.558	10133.28
839.883	10127.18
840.208	10070.23
840.533	10092.15
840.858	10118.14
841.182	10047.86
841.507	9988.88
841.832	10018.25
842.156	9964.24
842.481	9901.87
842.805	9908.43
843.13	9866.62
843.454	9850.12
843.778	9883.34
844.103	9812.38
844.427	9852.61
844.751	9802.44
845.075	9793.4
845.399	9684.03
845.723	9761.09
846.047	9641.99
846.371	9650.13
846.695	9667.3
847.019	9560.64
847.343	9577.81
847.666	9428.66
847.99	9453.52
848.313	9385.95
848.637	9362.45
848.96	9376.24
849.284	9304.83
849.607	9248.1
849.931	9226.64
850.254	9167.43
850.577	9094.89
850.9	9098.96
851.223	9050.82
851.546	9015.34
851.869	8998.85
852.192	9020.54
852.515	8991.16
852.838	8872.52
853.161	8894.89
853.483	8867.32
853.806	8820.54
854.129	8781
854.451	8746.65
854.774	8693.77
855.096	8649.02
855.419	8693.99
855.741	8641.57
856.063	8619.65
856.385	8578.29
856.708	8569.03
857.03	8529.25
857.352	8546.43
857.674	8526.54
857.996	8479.31
858.318	8453.32
858.64	8460.55
858.961	8429.59
859.283	8353.44
859.605	8355.47
859.926	8390.73
860.248	8310.05
860.57	8305.98
860.891	8338.07
861.212	8283.84
861.534	8205.19
861.855	8203.16
862.176	8203.84
862.498	8183.73
862.819	8172.88
863.14	8155.93
863.461	8158.19
863.782	8119.09
864.103	8172.2
864.424	8091.98
864.745	8150.96
865.065	8064.41
865.386	8004.07
865.707	7993.67
866.027	8066.89
866.348	8044.75
866.668	7999.78
866.989	8028.48
867.309	7962.94
867.63	8011.07
867.95	7924.75
868.27	7844.53
868.59	7941.25
868.91	7898.08
869.23	7896.95
869.55	7859.67
869.87	7918.2
870.19	7885.65
870.51	7833.45
870.83	7877.07
871.15	7766.34
871.469	7818.54
871.789	7828.48
872.109	7820.8
872.428	7787.8
872.748	7753.23
873.067	7818.54
873.386	7717.52
873.706	7689.28
874.025	7681.82
874.344	7675.04
874.663	7706.22
874.982	7723.17
875.301	7687.69
875.62	7625.55
875.939	7635.72
876.258	7624.42
876.577	7589.84
876.896	7615.15
877.214	7651.08
877.533	7482.5
877.852	7568.37
878.17	7588.26
878.489	7580.58
878.807	7548.26
879.125	7483.63
879.444	7561.59
879.762	7520.69
880.08	7440.92
880.398	7482.73
880.716	7521.14
881.034	7461.03
881.352	7393.92
881.67	7401.83
881.988	7423.52
882.306	7360.92
882.624	7389.17
882.941	7370.19
883.259	7331.09
883.577	7332
883.894	7305.1
884.212	7299
884.529	7287.03
884.846	7252.22
885.164	7215.39
885.481	7209.51
885.798	7228.27
886.115	7139.23
886.432	7201.83
886.75	7198.21
887.067	7120.7
887.383	7192.11
887.7	7131.78
888.017	7119.35
888.334	7043.87
888.651	7039.12
888.967	7044.55
889.284	7038.22
889.6	7037.77
889.917	6944.66
890.233	6986.24
890.55	6937.2
890.866	6965.45
891.182	6906.24
891.498	6949.41
891.815	6870.54
892.131	6868.28
892.447	6821.5
892.763	6771.56
893.079	6790.32
893.395	6802.29
893.71	6773.59
894.026	6744.89
894.342	6727.04
894.657	6696.08
894.973	6673.93
895.289	6671.22
895.604	6669.87
895.92	6595.07
896.235	6639.36
896.55	6560.04
896.865	6522.07
897.181	6568.17
897.496	6578.34
897.811	6518.01
898.126	6516.65
898.441	6426.71
898.756	6448.86
899.071	6407.73
899.386	6415.41
899.7	6329.08
900.015	6374.96
900.33	6280.05
900.644	6331.12
900.959	6299.93
901.273	6304.45
901.588	6271.46
901.902	6187.17
902.216	6183.33
902.531	6146.94
902.845	6149.88
903.159	6141.75
903.473	6108.98
903.787	6124.12
904.101	6039.6
904.415	6066.72
904.729	6065.59
905.042	5978.36
905.356	5983.56
905.67	5964.8
905.984	5929.1
906.297	5942.2
906.611	5929.55
906.924	5914.86
907.237	5842.54
907.551	5825.82
907.864	5810.68
908.177	5806.61
908.491	5848.19
908.804	5765.71
909.117	5730.68
909.43	5730.46
909.743	5661.76
910.056	5723.45
910.368	5677.35
910.681	5624.92
910.994	5630.8
911.307	5603
911.619	5530.24
911.932	5546.96
912.244	5476.68
912.557	5549.44
912.869	5447.3
913.181	5485.49
913.494	5445.94
913.806	5429
914.118	5375.66
914.43	5414.98
914.742	5346.74
915.054	5314.2
915.366	5306.06
915.678	5285.72
915.99	5279.62
916.302	5221.54
916.613	5202.33
916.925	5180.19
917.236	5167.76
917.548	5139.29
917.859	5088.44
918.171	5075.56
918.482	5092.28
918.794	5096.8
919.105	5065.62
919.416	5007.76
919.727	5034.43
920.038	5010.48
920.349	4959.18
920.66	4932.29
920.971	4958.73
921.282	4930.03
921.593	4889.12
921.903	4815.45
922.214	4894.09
922.525	4799.63
922.835	4833.31
923.146	4779.3
923.456	4785.85
923.767	4769.35
924.077	4716.47
924.387	4729.35
924.697	4720.09
925.008	4681.22
925.318	4627.43
925.628	4652.52
925.938	4640.54
926.248	4659.98
926.558	4576.81
926.867	4557.83
927.177	4558.51
927.487	4542.01
927.796	4487.1
928.106	4511.96
928.416	4489.81
928.725	4491.39
929.034	4435.58
929.344	4435.35
929.653	4447.78
929.962	4366.2
930.271	4379.98
930.581	4311.74
930.89	4332.75
931.199	4291.62
931.508	4289.36
931.817	4280.33
932.125	4262.92
932.434	4244.85
932.743	4227.9
933.051	4186.32
933.36	4194.23
933.669	4170.95
933.977	4176.6
934.286	4167.33
934.594	4111.52
934.902	4099.09
935.21	4113.78
935.519	4093.44
935.827	4087.34
936.135	4002.14
936.443	4008.92
936.751	3993.55
937.059	3981.8
937.367	3994.23
937.674	4023.61
937.982	3942.93
938.29	3954.68
938.597	3931.86
938.905	3897.74
939.213	3871.97
939.52	3860.45
939.827	3899.54
940.135	3845.53
940.442	3834.24
940.749	3816.38
941.056	3819.09
941.363	3796.5
941.67	3759.89
941.977	3731.87
942.284	3720.34
942.591	3721.24
942.898	3691.87
943.205	3733.45
943.511	3681.7
943.818	3621.36
944.125	3653.22
944.431	3654.58
944.738	3632.66
945.044	3592.66
945.35	3576.16
945.657	3588.37
945.963	3581.13
946.269	3522.38
946.575	3464.53
946.881	3524.41
947.187	3463.17
947.493	3472.66
947.799	3439.44
948.105	3476.96
948.41	3405.32
948.716	3409.84
949.022	3438.54
949.327	3441.25
949.633	3378.43
949.938	3412.55
950.244	3348.6
950.549	3324.87
950.854	3340.91
951.16	3331.2
951.465	3282.84
951.77	3237.64
952.075	3222.05
952.38	3244.87
952.685	3291.2
952.99	3230.41
953.294	3215.04
953.599	3156.06
953.904	3161.26
954.209	3147.25
954.513	3149.51
954.818	3161.48
955.122	3147.7
955.426	3143.86
955.731	3081.26
956.035	3098.66
956.339	3106.34
956.643	3045.78
956.948	3034.26
957.252	3033.58
957.556	3047.59
957.86	3024.09
958.163	3007.59
958.467	2989.29
958.771	2996.07
959.075	2957.42
959.378	2957.2
959.682	2954.48
959.985	2949.74
960.289	2924.43
960.592	2879.68
960.896	2867.03
961.199	2904.77
961.502	2869.51
961.805	2847.59
962.108	2833.81
962.411	2867.26
962.714	2847.82
963.017	2858.44
963.32	2834.26
963.623	2825.67
963.926	2780.25
964.228	2750.87
964.531	2768.73
964.833	2739.8
965.136	2733.25
965.438	2714.72
965.741	2702.97
966.043	2727.37
966.345	2730.54
966.648	2691.21
966.95	2657.09
967.252	2676.53
967.554	2646.92
967.856	2662.51
968.158	2638.56
968.46	2622.06
968.761	2612.57
969.063	2601.73
969.365	2579.81
969.666	2588.39
969.968	2556.53
970.269	2559.69
970.571	2533.93
970.872	2524.21
971.174	2525.8
971.475	2518.79
971.776	2486.02
972.077	2501.16
972.378	2464.55
972.679	2474.72
972.98	2449.86
973.281	2459.36
973.582	2413.48
973.883	2434.27
974.183	2429.53
974.484	2394.27
974.785	2402.41
975.085	2414.61
975.386	2389.53
975.686	2378.23
975.986	2297.33
976.287	2350.66
976.587	2311.11
976.887	2351.56
977.187	2305.46
977.487	2294.61
977.787	2316.54
978.087	2287.84
978.387	2264.33
978.687	2290.55
978.987	2249.64
979.286	2274.05
979.586	2246.71
979.885	2206.93
980.185	2223.66
980.484	2188.85
980.784	2210.78
981.083	2209.19
981.382	2207.84
981.682	2183.21
981.981	2170.78
982.28	2179.36
982.579	2159.93
982.878	2155.18
983.177	2144.11
983.475	2114.96
983.774	2145.24
984.073	2082.19
984.372	2112.47
984.67	2105.92
984.969	2092.81
985.267	2079.93
985.566	2069.08
985.864	2055.53
986.162	2048.07
986.461	2045.13
986.759	2026.15
987.057	2015.53
987.355	1974.62
987.653	1994.74
987.951	1989.31
988.249	1994.74
988.547	1966.26
988.844	1997.9
989.142	1962.42
989.44	1942.99
989.737	1923.33
990.035	1961.52
990.332	1899.37
990.63	1910.22
990.927	1918.13
991.224	1909.77
991.521	1902.76
991.819	1911.57
992.116	1862.54
992.413	1865.7
992.71	1862.54
993.006	1838.81
993.303	1851.91
993.6	1848.3
993.897	1826.6
994.193	1839.94
994.49	1806.27
994.787	1796.1
995.083	1806.27
995.379	1825.7
995.676	1806.04
995.972	1757.23
996.268	1785.48
996.565	1760.62
996.861	1732.37
997.157	1736.66
997.453	1738.92
997.749	1724.46
998.044	1706.61
998.34	1705.7
998.636	1687.17
998.932	1711.81
999.227	1685.37
999.523	1684.01
999.818	1670.45
1000.114	1669.09
1000.409	1662.54
1000.704	1662.77
1001	1635.88
1001.295	1592.26
1001.59	1616.21
1001.885	1629.1
1002.18	1580.28
1002.475	1607.63
1002.77	1592.03
1003.065	1561.07
1003.359	1576.67
1003.654	1581.64
1003.949	1533.28
1004.243	1547.52
1004.538	1550.68
1004.832	1537.12
1005.127	1495.99
1005.421	1522.21
1005.715	1500.74
1006.009	1527.4
1006.304	1505.48
1006.598	1490.79
1006.892	1485.6
1007.186	1475.43
1007.48	1474.3
1007.773	1446.73
1008.067	1446.05
1008.361	1425.71
1008.655	1432.26
1008.948	1460.06
1009.242	1448.76
1009.535	1418.71
1009.829	1390.23
1010.122	1385.49
1010.415	1410.12
1010.708	1383.45
1011.001	1359.95
1011.295	1364.92
1011.588	1356.56
1011.881	1350.23
1012.173	1373.51
1012.466	1355.88
1012.759	1326.73
1013.052	1328.54
1013.344	1292.61
1013.637	1325.6
1013.93	1316.56
1014.222	1296.45
1014.514	1285.15
1014.807	1286.28
1015.099	1277.01
1015.391	1260.74
1015.683	1281.99
1015.976	1246.73
1016.268	1247.41
1016.56	1234.08
1016.851	1234.08
1017.143	1250.8
1017.435	1231.14
1017.727	1181.2
1018.018	1196.34
1018.31	1223.46
1018.602	1200.63
1018.893	1180.97
1019.185	1192.95
1019.476	1164.25
1019.767	1182.55
1020.058	1163.35
1020.35	1143.01
1020.641	1151.59
1020.932	1157.47
1021.223	1131.48
1021.514	1121.99
1021.804	1121.99
1022.095	1089.22
1022.386	1126.51
1022.677	1085.61
1022.967	1075.89
1023.258	1097.58
1023.548	1098.71
1023.839	1088.32
1024.129	1081.31
1024.419	1087.41
1024.709	1042.44
1025	1051.03
1025.29	1056
1025.58	1025.5
1025.87	1030.47
1026.16	1016.46
1026.449	1028.21
1026.739	987.76
1027.029	1012.84
1027.319	999.06
1027.608	991.15
1027.898	987.53
1028.187	972.16
1028.477	988.89
1028.766	978.27
1029.055	981.2
1029.344	964.03
1029.634	947.98
1029.923	960.19
1030.212	937.81
1030.501	928.1
1030.79	930.81
1031.078	901.66
1031.367	913.18
1031.656	916.57
1031.945	902.11
1032.233	899.4
1032.522	895.78
1032.81	919.96
1033.099	879.96
1033.387	886.97
1033.675	897.14
1033.963	846.97
1034.251	865.73
1034.54	882.67
1034.828	855.33
1035.116	860.53
1035.403	849
1035.691	833.64
1035.979	811.94
1036.267	840.64
1036.554	838.16
1036.842	801.55
1037.129	823.69
1037.417	784.82
1037.704	803.81
1037.992	788.21
1038.279	795.22
1038.566	781.43
1038.853	781.43
1039.14	781.43
