Data from breadboard_black_back_FLMS001491_00070.txt Node
Date: Wed Feb 08 10:50:44 GMT 2017
User: dcchb
Spectrometer: FLMS00149
Trigger mode: 0
Integration Time (sec): 2.000000E-2
Scans to average: 10
Electric dark correction enabled: true
Nonlinearity correction enabled: false
Boxcar width: 0
XAxis mode: Wavelengths
Number of Pixels in Spectrum: 2048
>>>>>Begin Spectral Data<<<<<
341.393	-17.01
341.776	-17.01
342.16	-17.01
342.543	-77.34
342.927	-57.46
343.31	-58.13
343.693	-85.03
344.077	-80.05
344.46	-52.03
344.843	-40.96
345.226	-43.9
345.61	-20.39
345.993	-7.97
346.376	-18.36
346.759	1.3
347.142	29.55
347.525	37.46
347.908	67.74
348.291	57.12
348.674	89.21
349.057	124.46
349.44	119.71
349.823	132.6
350.206	157
350.588	208.3
350.971	220.73
351.354	240.84
351.737	237.68
352.119	232.25
352.502	251.69
352.884	286.26
353.267	280.39
353.65	309.99
354.032	310.9
354.414	304.57
354.797	335.53
355.179	314.51
355.562	329.88
355.944	337.34
356.326	343.44
356.709	352.48
357.091	360.84
357.473	348.63
357.855	334.17
358.238	347.96
358.62	345.25
359.002	345.7
359.384	348.41
359.766	353.61
360.148	340.27
360.53	347.73
360.912	340.73
361.294	353.15
361.676	355.41
362.057	356.09
362.439	340.95
362.821	336.88
363.203	354.96
363.584	342.08
363.966	327.17
364.348	334.4
364.729	337.11
365.111	344.79
365.493	339.37
365.874	337.34
366.256	356.32
366.637	336.43
367.019	337.34
367.4	315.64
367.781	364.68
368.163	347.28
368.544	323.1
368.925	321.97
369.306	354.96
369.688	348.63
370.069	330.78
370.45	351.12
370.831	350.67
371.212	324.45
371.593	346.38
371.974	339.14
372.355	348.63
372.736	357.22
373.117	348.86
373.498	356.54
373.879	327.17
374.26	347.28
374.641	356.77
375.021	340.5
375.402	331.23
375.783	337.56
376.163	392.48
376.544	379.14
376.925	362.65
377.305	345.02
377.686	366.04
378.066	364.91
378.447	376.66
378.827	383.44
379.208	368.97
379.588	372.82
379.968	381.63
380.349	381.18
380.729	389.76
381.109	390.44
381.489	373.94
381.87	379.82
382.25	402.42
382.63	384.34
383.01	403.77
383.39	382.98
383.77	395.19
384.15	425.02
384.53	420.72
384.91	410.33
385.29	418.69
385.67	417.11
386.049	446.94
386.429	425.24
386.809	436.54
387.189	432.7
387.568	429.76
387.948	429.54
388.328	432.47
388.707	438.35
389.087	426.82
389.466	447.62
389.846	485.35
390.225	446.49
390.605	457.11
390.984	474.96
391.363	480.83
391.743	459.59
392.122	481.74
392.501	464.56
392.881	477.45
393.26	479.7
393.639	510.21
394.018	489.87
394.397	497.11
394.776	529.42
395.155	483.55
395.534	487.39
395.913	530.1
396.292	532.13
396.671	511.34
397.05	525.58
397.429	540.95
397.808	525.35
398.186	541.4
398.565	523.55
398.944	546.37
399.323	546.37
399.701	534.62
400.08	546.6
400.458	571.23
400.837	563.54
401.215	565.13
401.594	580.04
401.972	554.96
402.351	556.54
402.729	569.65
403.107	598.57
403.486	597.44
403.864	577.33
404.242	604.9
404.62	612.58
404.999	604.67
405.377	614.16
405.755	638.34
406.133	642.19
406.511	618.68
406.889	644.67
407.267	662.3
407.645	652.13
408.023	665.46
408.401	643.77
408.779	653.94
409.156	689.19
409.534	662.98
409.912	684.9
410.29	721.73
410.667	724.9
411.045	728.51
411.422	715.63
411.8	716.08
412.178	708.63
412.555	757.89
412.933	745.91
413.31	772.58
413.687	783.43
414.065	773.26
414.442	777.78
414.819	791.34
415.197	799.92
415.574	826.36
415.951	805.8
416.328	822.07
416.705	834.27
417.082	836.98
417.46	852.58
417.837	860.71
418.214	858.9
418.591	867.72
418.967	832.01
419.344	891.9
419.721	877.43
420.098	919.02
420.475	924.66
420.852	922.18
421.228	906.13
421.605	904.1
421.982	932.57
422.358	948.39
422.735	963.76
423.111	961.5
423.488	978.9
423.864	990.43
424.241	1004.21
424.617	989.75
424.994	1009.86
425.37	1015.96
425.746	1046.47
426.123	1053.7
426.499	1036.53
426.875	1073.59
427.251	1081.27
427.627	1105.9
428.003	1096.64
428.379	1135.51
428.756	1108.39
429.132	1134.38
429.507	1170.76
429.883	1146.81
430.259	1190.87
430.635	1200.59
431.011	1226.13
431.387	1247.37
431.763	1286.46
432.138	1243.75
432.514	1262.96
432.89	1300.25
433.265	1324.2
433.641	1300.7
434.016	1342.06
434.392	1359.46
434.767	1370.08
435.143	1368.04
435.518	1390.64
435.894	1399.91
436.269	1409.17
436.644	1443.07
437.02	1439.68
437.395	1454.14
437.77	1486.46
438.145	1509.96
438.52	1511.32
438.895	1528.94
439.271	1519.68
439.646	1560.13
440.021	1588.15
440.395	1566.91
440.77	1568.49
441.145	1591.54
441.52	1632.89
441.895	1596.06
442.27	1662.05
442.645	1618.88
443.019	1662.05
443.394	1661.14
443.769	1667.24
444.143	1697.98
444.518	1717.41
444.892	1702.95
445.267	1712.89
445.641	1752.44
446.016	1752.67
446.39	1760.58
446.764	1775.49
447.139	1770.29
447.513	1812.1
447.887	1779.33
448.262	1815.94
448.636	1798.09
449.01	1831.53
449.384	1883.51
449.758	1872.44
450.132	1885.54
450.506	1917.18
450.88	1934.81
451.254	1916.73
451.628	1937.97
452.002	1985.88
452.376	1966.67
452.75	2011.42
453.123	1986.33
453.497	2036.5
453.871	2065.65
454.244	2111.53
454.618	2125.31
454.992	2175.25
455.365	2154.46
455.739	2217.29
456.112	2233.33
456.486	2269.71
456.859	2281.47
457.232	2327.79
457.606	2339.54
457.979	2344.51
458.352	2391.52
458.725	2423.61
459.099	2426.09
459.472	2478.07
459.845	2500.67
460.218	2535.47
460.591	2570.05
460.964	2562.36
461.337	2602.81
461.71	2666.31
462.083	2737.95
462.456	2760.55
462.829	2697.05
463.201	2759.42
463.574	2771.85
463.947	2824.05
464.32	2872.86
464.692	2923.26
465.065	2954.44
465.438	2955.35
465.81	3019.75
466.183	3079.41
466.555	3132.06
466.928	3113.99
467.3	3121.9
467.672	3193.76
468.045	3267.88
468.417	3280.76
468.789	3269.24
469.161	3364.6
469.534	3382.45
469.906	3486.41
470.278	3473.98
470.65	3527.99
471.022	3568.66
471.394	3671.94
471.766	3668.55
472.138	3723.24
472.51	3808.66
472.882	3864.7
473.253	3904.7
473.625	3936.79
473.997	4047.52
474.369	4051.14
474.74	4129.55
475.112	4196.22
475.484	4276.89
475.855	4291.13
476.227	4411.35
476.598	4469.2
476.97	4527.73
477.341	4592.82
477.713	4707.16
478.084	4715.07
478.455	4827.84
478.827	4892.02
479.198	5011.79
479.569	5057.44
479.94	5204.33
480.311	5205.68
480.682	5319.8
481.053	5447.48
481.424	5534.04
481.795	5607.71
482.166	5670.98
482.537	5753.46
482.908	5898.32
483.279	5895.83
483.65	6023.51
484.021	6147.35
484.391	6190.52
484.762	6283.85
485.133	6340.34
485.503	6406.78
485.874	6590.73
486.244	6629.6
486.615	6704.85
486.985	6771.74
487.356	7001.12
487.726	7011.74
488.097	7184.84
488.467	7160.43
488.837	7331.5
489.207	7399.97
489.578	7562.46
489.948	7634.55
490.318	7734.66
490.688	7722.9
491.058	7830.25
491.428	7964.25
491.798	8068.66
492.168	8242.89
492.538	8223.46
492.908	8365.37
493.278	8445.82
493.648	8441.08
494.017	8641.07
494.387	8631.58
494.757	8791.35
495.126	8851.46
495.496	8869.31
495.866	8999.48
496.235	9110.66
496.605	9113.6
496.974	9119.93
497.344	9335.74
497.713	9310.21
498.082	9445.8
498.452	9512.24
498.821	9574.83
499.19	9639.92
499.559	9703.19
499.928	9756.07
500.298	9882.62
500.667	9937.99
501.036	9937.54
501.405	10090.53
501.774	10077.19
502.143	10182.27
502.512	10196.74
502.88	10294.81
503.249	10402.16
503.618	10512.66
503.987	10493.9
504.356	10601.02
504.724	10621.36
505.093	10671.53
505.462	10778.87
505.83	10858.42
506.199	10901.8
506.567	11060.22
506.936	11029.03
507.304	11227.9
507.672	11263.6
508.041	11350.15
508.409	11445.52
508.777	11499.08
509.145	11586.31
509.514	11655.68
509.882	11678.28
510.25	11773.42
510.618	11906.07
510.986	11921.66
511.354	12074.88
511.722	12140.19
512.09	12273.75
512.458	12301.54
512.826	12454.53
513.193	12482.33
513.561	12479.84
513.929	12659.72
514.297	12764.58
514.664	12844.13
515.032	12822.88
515.4	13056.1
515.767	13005.25
516.135	13177.68
516.502	13116.21
516.869	13372.7
517.237	13466.48
517.604	13424.68
517.972	13503.54
518.339	13696.31
518.706	13713.93
519.073	13824.89
519.44	13885.68
519.808	14062.4
520.175	14052.91
520.542	14284.09
520.909	14384.88
521.276	14376.29
521.643	14564.31
522.009	14731.31
522.376	14855.37
522.743	14827.58
523.11	15065.31
523.477	15090.62
523.843	15174.46
524.21	15341.01
524.577	15546.65
524.943	15567.9
525.31	15639.76
525.676	15834.78
526.043	15974.44
526.409	15975.34
526.776	16226.86
527.142	16257.14
527.508	16370.13
527.874	16550.92
528.241	16655.1
528.607	16681.76
528.973	16947.52
529.339	16898.26
529.705	17018.25
530.071	17165.37
530.437	17267.74
530.803	17320.39
531.169	17458.02
531.535	17514.74
531.901	17541.4
532.267	17673.6
532.632	17738.69
532.998	17841.51
533.364	18003.54
533.73	17958.12
534.095	18179.13
534.461	18174.61
534.826	18344.55
535.192	18370.31
535.557	18579.57
535.923	18556.74
536.288	18604.88
536.653	18693.01
537.019	18813.69
537.384	18804.42
537.749	18944.3
538.114	18985.21
538.479	18974.13
538.845	19181.13
539.21	19153.56
539.575	19283.73
539.94	19308.36
540.305	19476.49
540.67	19440.11
541.034	19565.98
541.399	19576.38
541.764	19623.16
542.129	19681.69
542.494	19775.02
542.858	19922.58
543.223	19922.13
543.587	20040.09
543.952	20066.53
544.316	20156.25
544.681	20083.03
545.045	20362.57
545.41	20432.17
545.774	20483.92
546.138	20416.81
546.503	20584.94
546.867	20560.76
547.231	20743.58
547.595	20822.9
547.959	20845.27
548.324	20871.49
548.688	20944.93
549.052	21049.79
549.416	21183.12
549.779	21154.19
550.143	21186.73
550.507	21408.87
550.871	21428.76
551.235	21323.68
551.599	21617.23
551.962	21693.61
552.326	21743.1
552.689	21828.52
553.053	21867.39
553.417	21780.84
553.78	22156.2
554.143	22028.74
554.507	22206.82
554.87	22313.93
555.234	22464.44
555.597	22300.6
555.96	22505.79
556.323	22600.93
556.686	22663.75
557.05	22785.11
557.413	22906.69
557.776	22868.49
558.139	23133.35
558.502	23142.61
558.865	23240.24
559.228	23469.61
559.59	23470.96
559.953	23507.12
560.316	23875.93
560.679	23706.21
561.041	23902.82
561.404	24034.34
561.767	24195.47
562.129	24049.48
562.492	24341.22
562.854	24364.5
563.217	24444.5
563.579	24410.38
563.941	24662.57
564.304	24848.56
564.666	25012.85
565.028	24996.8
565.39	24999.29
565.753	25250.8
566.115	25348.2
566.477	25518.82
566.839	25537.58
567.201	25654.41
567.563	25607.18
567.925	25887.4
568.287	25873.16
568.648	25865.25
569.01	26075.87
569.372	26227.73
569.734	26186.15
570.095	26524.67
570.457	26486.93
570.819	26504.56
571.18	26649.19
571.542	26802.85
571.903	26715.4
572.265	26804.21
572.626	26920.82
572.987	26961.72
573.349	27103.64
573.71	27217.98
574.071	27366.23
574.432	27394.7
574.794	27501.82
575.155	27596.28
575.516	27411.43
575.877	27572.1
576.238	27714.02
576.599	27794.47
576.96	27820.23
577.32	27741.81
577.681	27820.23
578.042	27906.55
578.403	27946.55
578.763	28066.32
579.124	27895.93
579.485	28169.15
579.845	28253.89
580.206	28175.93
580.566	28272.65
580.927	28244.17
581.287	28320.78
581.648	28282.36
582.008	28390.16
582.368	28354.45
582.728	28495.47
583.089	28335.47
583.449	28317.39
583.809	28376.37
584.169	28496.6
584.529	28363.27
584.889	28580.89
585.249	28495.24
585.609	28401.46
585.969	28594.45
586.329	28448.46
586.688	28413.89
587.048	28535.01
587.408	28417.95
587.768	28507.67
588.127	28563.94
588.487	28454.79
588.846	28496.6
589.206	28476.26
589.565	28561.68
589.925	28693.88
590.284	28399.87
590.643	28540.44
591.003	28579.08
591.362	28746.76
591.721	28695.91
592.08	28706.31
592.44	28652.98
592.799	28688.68
593.158	28706.53
593.517	28798.96
593.876	28836.25
594.235	28679.64
594.593	28706.31
594.952	28761.45
595.311	28720.77
595.67	28718.51
596.029	28967.77
596.387	28993.76
596.746	29034.89
597.104	28964.15
597.463	28855
597.822	28935.45
598.18	28824.04
598.538	28852.97
598.897	29017.94
599.255	28777.72
599.613	29317.14
599.972	29053.42
600.33	29220.19
600.688	29114.21
601.046	29032.17
601.404	29195.11
601.762	29218.84
602.12	29398.27
602.478	29379.96
602.836	29275.78
603.194	29225.84
603.552	29396.23
603.91	29127.54
604.268	29424.25
604.625	29252.51
604.983	29419.73
605.341	29219.06
605.698	29483.46
606.056	29480.75
606.413	29476
606.771	29660.41
607.128	29654.53
607.485	29522.78
607.843	29509.9
608.2	29687.75
608.557	29826.5
608.914	29789.89
609.272	29878.25
609.629	29872.38
609.986	29935.43
610.343	29805.71
610.7	30085.48
611.057	29981.3
611.414	30086.84
611.771	30080.51
612.127	30179.94
612.484	30107.17
612.841	30235.76
613.198	30113.5
613.554	30094.52
613.911	30324.57
614.267	30267.4
614.624	30196.89
614.98	30308.07
615.337	30506.03
615.693	30278.02
616.05	30404.79
616.406	30565.02
616.762	30403.89
617.118	30409.77
617.475	30365.92
617.831	30471.91
618.187	30500.61
618.543	30599.14
618.899	30782.18
619.255	30677.1
619.611	30635.52
619.967	30769.53
620.323	30882.3
620.678	30730.66
621.034	30747.16
621.39	30767.5
621.746	30540.84
622.101	30989.19
622.457	30764.11
622.812	30769.08
623.168	30838.91
623.523	30764.11
623.879	30918
624.234	30680.49
624.589	30798.91
624.945	30886.36
625.3	30767.27
625.655	30836.42
626.01	30859.25
626.365	30698.35
626.72	30862.18
627.075	30827.38
627.43	30761.85
627.785	30727.72
628.14	30839.81
628.495	30741.51
628.85	30606.82
629.205	30434.85
629.559	30870.09
629.914	30624.9
630.269	30792.13
630.623	30741.73
630.978	30592.81
631.332	30719.59
631.687	30683.2
632.041	30553.94
632.396	30622.87
632.75	30585.35
633.104	30640.04
633.459	30421.74
633.813	30380.61
634.167	30354.63
634.521	30359.37
634.875	30454.06
635.229	30402.53
635.583	30253.39
635.937	30178.81
636.291	30180.84
636.645	30298.58
636.999	30049.32
637.352	30096.55
637.706	30005.03
638.06	30134.52
638.413	29944.92
638.767	29917.8
639.121	29939.72
639.474	29813.62
639.828	29675.1
640.181	29800.29
640.534	29734.98
640.888	29733.62
641.241	29506.51
641.594	29682.33
641.947	29668.09
642.301	29615.89
642.654	29704.25
643.007	29632.16
643.36	29523.01
643.713	29603.68
644.066	29540.18
644.419	29416.12
644.771	29195.79
645.124	29026.75
645.477	28961.22
645.83	28878.51
646.182	28590.15
646.535	28447.56
646.888	28495.47
647.24	28304.96
647.593	28429.03
647.945	28343.38
648.298	28171.41
648.65	28243.95
649.002	28203.95
649.355	28301.35
649.707	28268.13
650.059	28420.89
650.411	28714.44
650.763	28663.37
651.115	29050.25
651.467	28834.67
651.819	28898.84
652.171	28692.75
652.523	28635.35
652.875	28696.59
653.227	28593.77
653.578	28854.33
653.93	28622.92
654.282	28588.8
654.633	28580.66
654.985	28537.05
655.337	28602.58
655.688	28580.66
656.039	28526.88
656.391	28387.22
656.742	28472.64
657.094	28487.56
657.445	28455.92
657.796	28469.25
658.147	28376.6
658.498	28366.43
658.849	28341.12
659.2	28409.59
659.551	28291.18
659.902	28434.9
660.253	28311.97
660.604	28268.35
660.955	28332.31
661.306	28377.73
661.656	28190.39
662.007	28283.95
662.358	28197.85
662.708	28257.28
663.059	28106.1
663.409	28041.69
663.76	28235.36
664.11	28214.12
664.461	28165.53
664.811	28159.2
665.161	28106.78
665.511	28197.85
665.862	28139.54
666.212	28093.67
666.562	28151.29
666.912	27981.58
667.262	27936.61
667.612	28022.48
667.962	28122.59
668.312	28078.08
668.662	28123.5
669.011	28071.3
669.361	27966.44
669.711	27940.45
670.06	27913.79
670.41	27959.43
670.76	27860.23
671.109	27870.17
671.459	27853
671.808	27839.21
672.157	27781.81
672.507	27646.45
672.856	27631.53
673.205	27675.37
673.554	27689.38
673.904	27737.07
674.253	27793.11
674.602	27671.76
674.951	27309.28
675.3	27220.47
675.649	27610.52
675.998	27463.18
676.346	27583.17
676.695	27603.96
677.044	27487.58
677.393	27549.05
677.741	27557.86
678.09	27384.31
678.438	27403.74
678.787	27391.09
679.135	27377.98
679.484	27176.4
679.832	27297.98
680.181	27154.94
680.529	27146.12
680.877	27164.2
681.225	27093.47
681.573	27281.26
681.922	27027.26
682.27	27061.83
682.618	27010.98
682.966	26887.37
683.314	26965.79
683.661	26899.35
684.009	26729.41
684.357	26743.87
684.705	26804.21
685.053	26758.34
685.4	26692.12
685.748	26474.95
686.095	26517.89
686.443	26359.02
686.79	26346.82
687.138	26336.43
687.485	26324.22
687.832	26244.45
688.18	26158.35
688.527	26095.53
688.874	26097.34
689.221	26032.25
689.568	26036.32
689.915	25958.13
690.262	25981.63
690.609	25856.21
690.956	25811.92
691.303	25766.95
691.65	25654.64
691.997	25630.46
692.344	25393.4
692.69	25394.08
693.037	25465.26
693.383	25294.87
693.73	25369.22
694.077	25145.05
694.423	25120.86
694.769	25027.31
695.116	25102.11
695.462	24988.44
695.808	24898.27
696.155	24942.56
696.501	24743.93
696.847	24662.35
697.193	24604.95
697.539	24566.98
697.885	24385.74
698.231	24482.69
698.577	24484.95
698.923	24355.46
699.269	24304.84
699.614	24183.94
699.96	24126.09
700.306	24163.6
700.651	24085.86
700.997	23951.4
701.342	23933.33
701.688	23877.06
702.033	23776.49
702.379	23738.75
702.724	23551.87
703.069	23701.02
703.415	23375.37
703.76	23530.17
704.105	23449.27
704.45	23299.22
704.795	23275.26
705.14	23125.89
705.485	23112.1
705.83	23037.3
706.175	23112.33
706.52	22975.16
706.865	22844.31
707.209	22864.88
707.554	22836.63
707.899	22833.02
708.243	22835.5
708.588	22689.29
708.932	22601.61
709.277	22657.43
709.621	22552.57
709.966	22454.27
710.31	22442.52
710.654	22318.45
710.998	22344.21
711.342	22439.58
711.687	22177.44
712.031	22132.92
712.375	22056.76
712.719	22107.61
713.063	22114.16
713.407	22076.88
713.75	21999.37
714.094	21951.91
714.438	21829.88
714.782	21871.68
715.125	21769.99
715.469	21854.28
715.812	21644.57
716.156	21461.07
716.499	21522.54
716.843	21628.3
717.186	21509.66
717.53	21546.95
717.873	21563.44
718.216	21564.57
718.559	21321.64
718.902	21221.31
719.246	21236.9
719.589	21235.32
719.932	21266.28
720.275	21079.39
720.617	21124.13
720.96	21212.72
721.303	21075.77
721.646	20961.2
721.989	20858.38
722.331	20947.87
722.674	20842.11
723.016	20953.97
723.359	20918.94
723.701	20851.15
724.044	20653.86
724.386	20700.87
724.729	20689.34
725.071	20594.66
725.413	20636.01
725.755	20645.95
726.097	20462
726.439	20362.8
726.782	20483.02
727.124	20521.89
727.465	20415.9
727.807	20373.87
728.149	20263.82
728.491	20161.9
728.833	20265.17
729.175	20220.2
729.516	20186.98
729.858	20118.74
730.199	20188.57
730.541	20234.67
730.882	20054.56
731.224	20157.61
731.565	19984.5
731.906	20053.43
732.248	19911.28
732.589	19783.38
732.93	19859.99
733.271	19860.66
733.612	19892.98
733.953	19854.11
734.294	19793.55
734.635	19667.9
734.976	19747.45
735.317	19656.15
735.658	19735.92
735.999	19686.66
736.339	19633.1
736.68	19693.66
737.021	19488.02
737.361	19464.74
737.702	19504.06
738.042	19507.91
738.383	19464.74
738.723	19352.43
739.063	19396.27
739.404	19337.97
739.744	19368.47
740.084	19233.34
740.424	19212.55
740.764	19263.17
741.104	19221.36
741.444	19081.93
741.784	19109.72
742.124	19207.12
742.464	19084.64
742.804	19067.46
743.143	18957.41
743.483	18945.66
743.823	18938.65
744.162	18904.08
744.502	18844.87
744.841	18815.49
745.181	18958.77
745.52	18814.82
745.86	18896.62
746.199	18741.82
746.538	18746.57
746.877	18804.65
747.216	18783.4
747.556	18666.35
747.895	18671.32
748.234	18612.34
748.573	18597.19
748.911	18516.07
749.25	18385.67
749.589	18380.7
749.928	18432
750.267	18340.48
750.605	18337.77
750.944	18312.46
751.283	18184.78
751.621	18210.99
751.96	18094.38
752.298	18078.79
752.636	18103.42
752.975	18076.08
753.313	17851.9
753.651	18013.03
753.989	17909.08
754.327	17888.06
754.666	17699.82
755.004	17828.4
755.342	17805.58
755.679	17789.98
756.017	17682.19
756.355	17747.95
756.693	17606.94
757.031	17604
757.368	17577.33
757.706	17529.88
758.044	17382.99
758.381	17467.28
758.719	17414.85
759.056	17485.81
759.394	17332.6
759.731	17185.25
760.068	17235.2
760.405	17122.43
760.743	17147.06
761.08	17073.84
761.417	16976.9
761.754	16994.3
762.091	16901.19
762.428	16877.01
762.765	16783.01
763.102	16864.81
763.438	16847.18
763.775	16684.93
764.112	16573.52
764.449	16576.23
764.785	16538.94
765.122	16471.15
765.458	16339.4
765.795	16354.99
766.131	16294.43
766.467	16309.8
766.804	16188.9
767.14	16143.7
767.476	16012.4
767.812	16063.25
768.148	16114.1
768.485	16013.08
768.821	15829.13
769.157	15771.73
769.492	15711.17
769.828	15737.83
770.164	15639.08
770.5	15647.67
770.836	15586.88
771.171	15534
771.507	15484.51
771.842	15364.29
772.178	15333.33
772.513	15327.68
772.849	15249.71
773.184	15149.38
773.519	15228.47
773.855	15089.94
774.19	14992.77
774.525	14940.34
774.86	14981.7
775.195	14885.43
775.53	14887.46
775.865	14773.57
776.2	14645.43
776.535	14607.7
776.87	14663.96
777.205	14500.35
777.539	14497.42
777.874	14473.46
778.209	14334.93
778.543	14340.13
778.878	14226.91
779.212	14205.45
779.547	14152.34
779.881	14264.43
780.215	14102.85
780.55	14092.68
780.884	14037.77
781.218	13926.13
781.552	13980.82
781.886	13836.64
782.22	13815.85
782.554	13724.1
782.888	13639.81
783.222	13610.66
783.556	13529.98
783.889	13583.77
784.223	13424.9
784.557	13415.18
784.89	13394.39
785.224	13347.16
785.557	13242.08
785.891	13252.02
786.224	13155.08
786.558	13241.86
786.891	13030.34
787.224	13018.36
787.557	12956.44
787.891	12934.74
788.224	12917.34
788.557	12908.98
788.89	12937.23
789.223	12890.45
789.556	12730.91
789.888	12735.43
790.221	12732.04
790.554	12644.13
790.887	12591.93
791.219	12538.82
791.552	12568.2
791.884	12405.94
792.217	12495.43
792.549	12423.12
792.882	12306.51
793.214	12282.11
793.546	12250.47
793.879	12285.5
794.211	12139.51
794.543	12188.78
794.875	12051.38
795.207	12139.06
795.539	12061.32
795.871	12089.57
796.203	11860.65
796.535	11877.37
796.867	11813.42
797.198	11847.09
797.53	11782.46
797.862	11696.36
798.193	11789.69
798.525	11659.52
798.856	11638.96
799.188	11511.73
799.519	11561.22
799.85	11443.26
800.182	11462.24
800.513	11398.97
800.844	11418.4
801.175	11375.24
801.506	11435.8
801.837	11266.77
802.168	11286.88
802.499	11236.71
802.83	11183.38
803.161	11161.01
803.491	11126.88
803.822	11143.15
804.153	11041.91
804.483	11001.69
804.814	11006.66
805.145	10950.16
805.475	10962.37
805.805	10925.76
806.136	10899.09
806.466	10871.52
806.796	10863.16
807.126	10807.79
807.457	10780.9
807.787	10760.34
808.117	10685.31
808.447	10669.27
808.777	10717.18
809.107	10607.35
809.436	10607.35
809.766	10596.05
810.096	10621.36
810.426	10485.32
810.755	10477.41
811.085	10490.52
811.414	10464.08
811.744	10361.25
812.073	10314.7
812.403	10360.8
812.732	10321.93
813.061	10288.03
813.39	10292.1
813.719	10187.7
814.049	10279.67
814.378	10194.03
814.707	10171.2
815.036	10156.29
815.365	10165.1
815.693	9992.45
816.022	10001.71
816.351	9982.73
816.68	9906.12
817.008	9982.96
817.337	9852.79
817.665	9919.23
817.994	9946.57
818.322	9905.45
818.651	9811.21
818.979	9824.77
819.307	9896.18
819.636	9828.16
819.964	9724.89
820.292	9744.32
820.62	9732.12
820.948	9732.12
821.276	9693.02
821.604	9760.59
821.932	9744.55
822.259	9752.91
822.587	9700.03
822.915	9650.54
823.243	9764.66
823.57	9659.58
823.898	9728.5
824.225	9633.81
824.553	9622.52
824.88	9668.84
825.207	9713.36
825.535	9682.17
825.862	9749.74
826.189	9652.8
826.516	9680.82
826.843	9675.4
827.17	9737.99
827.497	9674.27
827.824	9717.88
828.151	9757.88
828.478	9650.09
828.805	9755.17
829.131	9679.91
829.458	9660.93
829.785	9692.8
830.111	9719.46
830.438	9722.63
830.764	9656.86
831.09	9689.86
831.417	9586.36
831.743	9657.54
832.069	9649.41
832.395	9601.5
832.722	9661.16
833.048	9615.51
833.374	9667.49
833.7	9567.15
834.026	9638.79
834.351	9575.96
834.677	9548.39
835.003	9542.29
835.329	9557.66
835.654	9577.32
835.98	9506.36
836.306	9534.38
836.631	9493.48
836.956	9566.7
837.282	9515.85
837.607	9459.81
837.932	9409.19
838.258	9392.46
838.583	9385.69
838.908	9377.1
839.233	9437.66
839.558	9330.09
839.883	9340.26
840.208	9256.65
840.533	9273.82
840.858	9274.73
841.182	9318.34
841.507	9239.25
841.832	9225.24
842.156	9200.83
842.481	9206.71
842.805	9151.34
843.13	9220.27
843.454	9157.89
843.778	9125.81
844.103	9091
844.427	9066.82
844.751	9017.33
845.075	9047.16
845.399	9041.06
845.723	8914.96
846.047	8980.5
846.371	8938.92
846.695	8915.42
847.019	8884.46
847.343	8758.81
847.666	8767.85
847.99	8702.54
848.313	8766.49
848.637	8700.05
848.96	8624.12
849.284	8631.58
849.607	8618.47
849.931	8573.05
850.254	8481.53
850.577	8436.33
850.9	8414.86
851.223	8406.95
851.546	8361.08
851.869	8294.87
852.192	8318.82
852.515	8235.21
852.838	8193.85
853.161	8199.73
853.483	8251.93
853.806	8114.98
854.129	8125.61
854.451	8088.09
854.774	8041.99
855.096	8042.44
855.419	7993.86
855.741	7964.93
856.063	7995.89
856.385	7954.31
856.708	7952.5
857.03	7903.01
857.352	7897.14
857.674	7891.71
857.996	7849.23
858.318	7790.02
858.64	7864.37
858.961	7811.49
859.283	7824.37
859.605	7695.33
859.926	7717.03
860.248	7775.78
860.57	7667.09
860.891	7705.28
861.212	7657.14
861.534	7614.88
861.855	7602.68
862.176	7629.12
862.498	7571.95
862.819	7595.45
863.14	7621.89
863.461	7541.21
863.782	7516.36
864.103	7557.94
864.424	7450.82
864.745	7632.51
865.065	7463.7
865.386	7438.39
865.707	7482.46
866.027	7485.17
866.348	7396.81
866.668	7411.73
866.989	7401.33
867.309	7307.1
867.63	7413.31
867.95	7366.98
868.27	7280.43
868.59	7401.56
868.91	7300.54
869.23	7335.34
869.55	7262.58
869.87	7279.3
870.19	7289.7
870.51	7286.08
870.83	7251.28
871.15	7227.55
871.469	7257.61
871.789	7230.94
872.109	7211.28
872.428	7181
872.748	7193.88
873.067	7188.23
873.386	7192.97
873.706	7181
874.025	7096.48
874.344	7111.39
874.663	7102.81
874.982	7085.86
875.301	7053.77
875.62	7081.34
875.939	7017.16
876.258	7075.24
876.577	7030.04
876.896	7023.94
877.214	7024.84
877.533	7076.37
877.852	7036.14
878.17	7024.62
878.489	7027.1
878.807	6935.35
879.125	6903.72
879.444	6977.16
879.762	6935.81
880.08	6936.71
880.398	6848.35
880.716	6917.5
881.034	6856.71
881.352	6823.04
881.67	6830.5
881.988	6788.69
882.306	6872.31
882.624	6808.13
882.941	6789.37
883.259	6753.89
883.577	6720.9
883.894	6779.88
884.212	6718.18
884.529	6677.51
884.846	6666.43
885.164	6719.54
885.481	6643.38
885.798	6720.67
886.115	6656.72
886.432	6638.19
886.75	6616.27
887.067	6588.24
887.383	6582.37
887.7	6635.93
888.017	6531.75
888.334	6548.47
888.651	6551.41
888.967	6557.74
889.284	6480.23
889.6	6499.89
889.917	6381.02
890.233	6397.97
890.55	6447.68
890.866	6443.62
891.182	6415.14
891.498	6323.39
891.815	6380.79
892.131	6343.28
892.447	6341.7
892.763	6265.99
893.079	6282.72
893.395	6251.76
893.71	6236.62
894.026	6183.96
894.342	6233.23
894.657	6187.58
894.973	6113.23
895.289	6170.18
895.604	6151.19
895.92	6105.32
896.235	6095.6
896.55	6082.04
896.865	6071.2
897.181	6063.96
897.496	6032.1
897.811	6023.51
898.126	6001.14
898.441	5999.79
898.756	5962.72
899.071	5866.91
899.386	5928.15
899.7	5888.6
900.015	5865.55
900.33	5789.62
900.644	5815.38
900.959	5854.48
901.273	5830.3
901.588	5766.8
901.902	5754.14
902.216	5750.53
902.531	5685.9
902.845	5650.64
903.159	5626.91
903.473	5633.69
903.787	5625.33
904.101	5611.55
904.415	5581.49
904.729	5583.75
905.042	5573.13
905.356	5517.76
905.67	5477.54
905.984	5499.91
906.297	5467.6
906.611	5391.89
906.924	5442.06
907.237	5437.77
907.551	5429.41
907.864	5351.44
908.177	5349.86
908.491	5373.14
908.804	5284.78
909.117	5306.7
909.43	5297.43
909.743	5233.7
910.056	5227.6
910.368	5184.21
910.681	5219.24
910.994	5174.04
911.307	5148.06
911.619	5117.1
911.932	5153.25
912.244	5101.73
912.557	5088.62
912.869	5066.02
913.181	5038
913.494	5049.08
913.806	4991
914.118	5009.53
914.43	5005.46
914.742	4994.84
915.054	4950.55
915.366	4897.67
915.678	4878.23
915.99	4867.39
916.302	4851.12
916.613	4824.68
916.925	4802.53
917.236	4805.92
917.548	4812.02
917.859	4766.15
918.171	4764.11
918.482	4715.75
918.794	4732.93
919.105	4672.59
919.416	4627.17
919.727	4663.32
920.038	4653.38
920.349	4594.4
920.66	4595.53
920.971	4559.37
921.282	4588.07
921.593	4541.97
921.903	4541.07
922.214	4471.01
922.525	4477.11
922.835	4493.38
923.146	4464.46
923.456	4439.83
923.767	4412.71
924.077	4384.91
924.387	4364.12
924.697	4372.48
925.008	4386.95
925.318	4290.45
925.628	4302.43
925.938	4280.73
926.248	4243
926.558	4259.72
926.867	4240.06
927.177	4284.35
927.487	4220.85
927.796	4178.36
928.106	4167.97
928.416	4132.04
928.725	4108.99
929.034	4122.77
929.344	4126.61
929.653	4055.2
929.962	4051.14
930.271	4035.32
930.581	4028.54
930.89	4027.41
931.199	3986.05
931.508	3965.49
931.817	3965.26
932.125	3945.6
932.434	3945.6
932.743	3941.08
933.051	3913.96
933.36	3847.3
933.669	3888.65
933.977	3871.25
934.286	3862.89
934.594	3850.01
934.902	3808.88
935.21	3785.38
935.519	3751.03
935.827	3780.18
936.135	3748.09
936.443	3734.08
936.751	3690.92
937.059	3703.8
937.367	3664.48
937.674	3694.99
937.982	3669.45
938.29	3623.13
938.597	3633.07
938.905	3632.62
939.213	3554.2
939.52	3579.28
939.827	3598.49
940.135	3554.88
940.442	3555.56
940.749	3539.51
941.056	3522.79
941.363	3489.8
941.67	3495.44
941.977	3445.95
942.284	3430.36
942.591	3392.17
942.898	3410.7
943.205	3413.41
943.511	3403.47
943.818	3399.18
944.125	3363.02
944.431	3370.25
944.738	3324.6
945.044	3367.31
945.35	3316.47
945.657	3270.14
945.963	3299.97
946.269	3286.64
946.575	3272.4
946.881	3245.28
947.187	3223.14
947.493	3201.44
947.799	3228.33
948.105	3182.01
948.41	3139.97
948.716	3204.83
949.022	3166.19
949.327	3135.45
949.633	3102.23
949.938	3106.98
950.244	3163.25
950.549	3094.33
950.854	3095.68
951.16	3113.31
951.465	3050.26
951.77	3037.83
952.075	3005.97
952.38	3036.02
952.685	3009.58
952.99	2964.84
953.294	2999.19
953.599	2952.18
953.904	2946.08
954.209	2917.83
954.513	2911.28
954.818	2914.67
955.122	2904.27
955.426	2925.97
955.731	2864.5
956.035	2883.48
956.339	2844.16
956.643	2835.58
956.948	2863.37
957.252	2830.38
957.556	2822.92
957.86	2842.13
958.163	2796.03
958.467	2780.44
958.771	2753.09
959.075	2782.47
959.378	2738.18
959.682	2740.66
959.985	2728.69
960.289	2685.52
960.592	2711.06
960.896	2685.07
961.199	2675.81
961.502	2668.57
961.805	2655.24
962.108	2637.84
962.411	2645.3
962.714	2588.35
963.017	2605.52
963.32	2630.38
963.623	2621.12
963.926	2584.06
964.228	2561.23
964.531	2598.29
964.833	2552.19
965.136	2540.89
965.438	2566.2
965.741	2535.92
966.043	2515.81
966.345	2519.88
966.648	2497.05
966.95	2471.06
967.252	2488.24
967.554	2419.99
967.856	2446.21
968.158	2427
968.46	2429.26
968.761	2417.06
969.063	2413.67
969.365	2408.02
969.666	2355.36
969.968	2368.69
970.269	2349.03
970.571	2344.51
970.872	2369.15
971.174	2345.42
971.475	2321.01
971.776	2321.24
972.077	2304.52
972.378	2297.28
972.679	2302.48
972.98	2261.8
973.281	2270.17
973.582	2264.29
973.883	2244.86
974.183	2237.85
974.484	2270.17
974.785	2215.25
975.085	2212.09
975.386	2213.44
975.686	2228.81
975.986	2175.25
976.287	2193.11
976.587	2151.98
976.887	2176.38
977.187	2150.4
977.487	2139.1
977.787	2108.81
978.087	2106.55
978.387	2150.4
978.687	2091.87
978.987	2102.71
979.286	2108.14
979.586	2089.15
979.885	2086.67
980.185	2046.22
980.484	2073.34
980.784	2031.3
981.083	2061.36
981.382	2029.49
981.682	2029.27
981.981	2016.39
982.28	2012.09
982.579	2008.7
982.878	2008.48
983.177	2003.05
983.475	2009.61
983.774	1985.2
984.073	1982.49
984.372	1928.71
984.67	1959.67
984.969	1956.05
985.267	1960.8
985.566	1935.03
985.864	1943.17
986.162	1908.59
986.461	1911.98
986.759	1913.11
987.057	1923.51
987.355	1880.35
987.653	1859.1
987.951	1877.86
988.249	1851.87
988.547	1841.03
988.844	1857.3
989.142	1844.64
989.44	1805.77
989.737	1801.48
990.035	1824.08
990.332	1771.42
990.63	1792.66
990.927	1767.58
991.224	1775.49
991.521	1781.37
991.819	1739.56
992.116	1741.14
992.413	1754.7
992.71	1733.91
993.006	1719.67
993.303	1732.1
993.6	1711.54
993.897	1716.51
994.193	1723.06
994.49	1699.33
994.787	1682.16
995.083	1661.37
995.379	1690.07
995.676	1670.86
995.972	1674.48
996.268	1682.84
996.565	1671.54
996.861	1651.88
997.157	1667.02
997.453	1634.7
997.749	1616.17
998.044	1588.15
998.34	1599.9
998.636	1594.03
998.932	1573.69
999.227	1587.47
999.523	1558.55
999.818	1528.94
1000.114	1574.82
1000.409	1534.37
1000.704	1528.49
1001	1531.2
1001.295	1522.16
1001.59	1494.82
1001.885	1509.28
1002.18	1466.12
1002.475	1467.93
1002.77	1482.84
1003.065	1474.93
1003.359	1493.24
1003.654	1457.08
1003.949	1450.98
1004.243	1444.43
1004.538	1466.8
1004.832	1439
1005.127	1448.94
1005.421	1401.04
1005.715	1410.75
1006.009	1418.44
1006.304	1401.04
1006.598	1389.74
1006.892	1404.43
1007.186	1372.56
1007.48	1384.54
1007.773	1354.03
1008.067	1323.98
1008.361	1343.86
1008.655	1340.93
1008.948	1335.28
1009.242	1343.86
1009.535	1318.55
1009.829	1315.62
1010.122	1312
1010.415	1302.06
1010.708	1330.98
1011.001	1336.18
1011.295	1256.18
1011.588	1280.36
1011.881	1267.03
1012.173	1255.73
1012.466	1242.62
1012.759	1270.87
1013.052	1240.81
1013.344	1237.43
1013.637	1250.98
1013.93	1217.76
1014.222	1187.48
1014.514	1213.7
1014.807	1200.82
1015.099	1191.78
1015.391	1177.77
1015.683	1178.67
1015.976	1162.17
1016.268	1181.16
1016.56	1172.12
1016.851	1141.83
1017.143	1145.68
1017.435	1153.59
1017.727	1147.71
1018.018	1127.15
1018.31	1130.31
1018.602	1125.79
1018.893	1118.78
1019.185	1106.58
1019.476	1114.94
1019.767	1104.32
1020.058	1097.77
1020.35	1103.19
1020.641	1087.15
1020.932	1079.46
1021.223	1061.38
1021.514	1046.47
1021.804	1055.51
1022.095	1047.6
1022.386	1039.24
1022.677	1030.65
1022.967	1019.35
1023.258	1036.75
1023.548	1034.72
1023.839	1026.36
1024.129	1029.52
1024.419	1003.76
1024.709	1007.6
1025	970.09
1025.29	968.73
1025.58	988.62
1025.87	981.16
1026.16	978.9
1026.449	960.6
1026.739	957.66
1027.029	955.85
1027.319	925.79
1027.608	954.27
1027.898	934.16
1028.187	937.32
1028.477	910.88
1028.766	897.1
1029.055	926.47
1029.344	898.22
1029.634	886.47
1029.923	914.27
1030.212	900.48
1030.501	883.54
1030.79	875.63
1031.078	878.34
1031.367	880.15
1031.656	869.75
1031.945	869.07
1032.233	869.75
1032.522	850.77
1032.81	874.04
1033.099	831.56
1033.387	841.96
1033.675	824.33
1033.963	844.89
1034.251	824.33
1034.54	793.37
1034.828	810.77
1035.116	783.2
1035.403	814.84
1035.691	793.59
1035.979	815.97
1036.267	789.53
1036.554	797.21
1036.842	751.79
1037.129	788.4
1037.417	780.04
1037.704	775.29
1037.992	760.15
1038.279	770.77
1038.566	745.23
1038.853	745.23
1039.14	745.23
