Data from breadboard_black_back_FLMS001491_00023.txt Node
Date: Wed Feb 08 10:50:09 GMT 2017
User: dcchb
Spectrometer: FLMS00149
Trigger mode: 0
Integration Time (sec): 2.000000E-2
Scans to average: 10
Electric dark correction enabled: true
Nonlinearity correction enabled: false
Boxcar width: 0
XAxis mode: Wavelengths
Number of Pixels in Spectrum: 2048
>>>>>Begin Spectral Data<<<<<
341.393	-16.06
341.776	-16.06
342.16	-16.06
342.543	-48.15
342.927	-69.39
343.31	-63.52
343.693	-81.37
344.077	-49.73
344.46	-73.01
344.843	-60.58
345.226	-40.47
345.61	-36.4
345.993	-21.26
346.376	3.6
346.759	7.22
347.142	18.74
347.525	36.6
347.908	66.65
348.291	68.46
348.674	120.66
349.057	104.39
349.44	138.74
349.823	152.98
350.206	149.13
350.588	184.61
350.971	228.45
351.354	235.46
351.737	238.62
352.119	255.8
352.502	274.78
352.884	274.1
353.267	307.55
353.65	291.05
354.032	312.97
354.414	306.64
354.797	326.3
355.179	335.34
355.562	328.56
355.944	344.16
356.326	339.86
356.709	342.35
357.091	350.94
357.473	327.21
357.855	359.75
358.238	349.81
358.62	367.66
359.002	358.39
359.384	367.66
359.766	362.24
360.148	339.86
360.53	347.1
360.912	359.98
361.294	359.75
361.676	354.78
362.057	341.45
362.439	353.65
362.821	331.05
363.203	342.8
363.584	352.07
363.966	354.33
364.348	348.9
364.729	329.69
365.111	351.62
365.493	336.02
365.874	339.64
366.256	342.58
366.637	356.13
367.019	322.69
367.4	348.68
367.781	334.89
368.163	350.94
368.544	345.06
368.925	324.05
369.306	358.17
369.688	342.8
370.069	356.36
370.45	361.33
370.831	341.22
371.212	335.8
371.593	358.62
371.974	366.08
372.355	367.89
372.736	381.44
373.117	374.67
373.498	382.57
373.879	348
374.26	359.98
374.641	364.5
375.021	353.87
375.402	358.39
375.783	364.27
376.163	384.38
376.544	371.5
376.925	392.07
377.305	356.81
377.686	366.3
378.066	383.93
378.447	379.18
378.827	366.76
379.208	372.86
379.588	385.51
379.968	373.08
380.349	401.11
380.729	376.25
381.109	391.39
381.489	401.56
381.87	399.98
382.25	392.52
382.63	400.43
383.01	415.57
383.39	420.54
383.77	406.3
384.15	424.83
384.53	411.27
384.91	413.31
385.29	435.23
385.67	432.29
386.049	456.02
386.429	444.95
386.809	427.55
387.189	458.96
387.568	467.77
387.948	455.79
388.328	461.22
388.707	439.75
389.087	475.91
389.466	463.7
389.846	464.38
390.225	465.96
390.605	462.35
390.984	474.55
391.363	460.99
391.743	499.63
392.122	494.21
392.501	498.05
392.881	491.72
393.26	511.16
393.639	498.73
394.018	489.01
394.397	510.25
394.776	530.14
395.155	536.92
395.534	515.23
395.913	524.72
396.292	531.95
396.671	551.16
397.05	529.01
397.429	552.74
397.808	567.2
398.186	554.1
398.565	571.04
398.944	529.01
399.323	541.89
399.701	563.81
400.08	559.52
400.458	581.21
400.837	601.33
401.215	591.61
401.594	592.06
401.972	610.14
402.351	596.81
402.729	600.87
403.107	612.4
403.486	609.46
403.864	628.9
404.242	639.29
404.62	614.88
404.999	620.99
405.377	647.65
405.755	635.22
406.133	674.32
406.511	686.97
406.889	667.09
407.267	670.25
407.645	701.21
408.023	704.37
408.401	699.63
408.779	696.69
409.156	700.76
409.534	721.1
409.912	740.98
410.29	754.77
410.667	738.95
411.045	724.03
411.422	763.13
411.8	767.2
412.178	794.32
412.555	781.43
412.933	811.94
413.31	819.85
413.687	799.06
414.065	841.32
414.442	865.27
414.819	845.84
415.197	849.23
415.574	874.77
415.951	841.55
416.328	895.33
416.705	870.7
417.082	882.9
417.46	895.1
417.837	918.83
418.214	931.26
418.591	922.45
418.967	920.64
419.344	928.78
419.721	906.18
420.098	945.95
420.475	973.07
420.852	965.38
421.228	989.11
421.605	966.29
421.982	996.8
422.358	1014.87
422.735	1016.46
423.111	1025.04
423.488	1047.19
423.864	1017.59
424.241	1059.85
424.617	1060.07
424.994	1068.21
425.37	1097.36
425.746	1135.78
426.123	1143.01
426.499	1104.36
426.875	1143.01
427.251	1157.24
427.627	1138.94
428.003	1184.36
428.379	1187.07
428.756	1207.86
429.132	1216
429.507	1218.48
429.883	1236.34
430.259	1251.03
430.635	1269.78
431.011	1272.49
431.387	1280.4
431.763	1309.78
432.138	1334.19
432.514	1378.25
432.89	1370.8
433.265	1385.49
433.641	1384.13
434.016	1422.32
434.392	1449.89
434.767	1441.3
435.143	1460.96
435.518	1469.78
435.894	1480.17
436.269	1532.6
436.644	1541.87
437.02	1538.48
437.395	1562.2
437.77	1586.38
438.145	1614.63
438.52	1620.73
438.895	1632.49
439.271	1637.23
439.646	1674.29
440.021	1660.06
440.395	1684.46
440.77	1643.78
441.145	1694.63
441.52	1732.37
441.895	1710
442.27	1761.07
442.645	1745.02
443.019	1752.71
443.394	1781.63
443.769	1762.88
444.143	1771.46
444.518	1790.22
444.892	1812.82
445.267	1827.96
445.641	1865.7
446.016	1863.44
446.39	1866.15
446.764	1880.61
447.139	1903.89
447.513	1903.89
447.887	1914.06
448.262	1952.7
448.636	1936.66
449.01	1990.89
449.384	1974.17
449.758	2015.98
450.132	2021.18
450.506	2051.23
450.88	2061.63
451.254	2059.14
451.628	2088.97
452.002	2087.16
452.376	2099.37
452.75	2151.57
453.123	2168.52
453.497	2190.89
453.871	2211.23
454.244	2262.75
454.618	2268.4
454.992	2270.89
455.365	2294.16
455.739	2407.15
456.112	2404.22
456.486	2430.43
456.859	2444.22
457.232	2495.51
457.606	2469.98
457.979	2516.08
458.352	2564.21
458.725	2612.8
459.099	2626.13
459.472	2650.09
459.845	2678.33
460.218	2734.83
460.591	2724.66
460.964	2735.73
461.337	2835.39
461.71	2870.42
462.083	2889.63
462.456	2874.49
462.829	2918.33
463.201	2928.5
463.574	2940.93
463.947	3017.99
464.32	3083.97
464.692	3128.94
465.065	3143.18
465.438	3185.66
465.81	3259.56
466.183	3249.84
466.555	3310.41
466.928	3338.43
467.3	3352.21
467.672	3385.89
468.045	3482.61
468.417	3512.66
468.789	3534.13
469.161	3624.52
469.534	3672.21
469.906	3711.98
470.278	3758.53
470.65	3774.8
471.022	3867.68
471.394	3926.44
471.766	3941.35
472.138	3951.07
472.51	4120.78
472.882	4136.6
473.253	4176.37
473.625	4252.3
473.997	4365.75
474.369	4367.55
474.74	4412.3
475.112	4473.54
475.484	4582.46
475.855	4674.89
476.227	4684.38
476.598	4799.63
476.97	4902.68
477.341	4987.2
477.713	5041.44
478.084	5079.17
478.455	5251.83
478.827	5249.79
479.198	5381.54
479.569	5407.75
479.94	5554.19
480.311	5605.26
480.682	5771.36
481.053	5784.01
481.424	5933.39
481.795	6022.65
482.166	6111.69
482.537	6170.9
482.908	6308.75
483.279	6381.74
483.65	6503.77
484.021	6637.78
484.391	6651.56
484.762	6764.55
485.133	6795.51
485.503	6896.3
485.874	7030.99
486.244	7120.25
486.615	7224.65
486.985	7315.27
487.356	7506.46
487.726	7604.98
488.097	7775.15
488.467	7704.87
488.837	7952.77
489.207	7969.04
489.578	8067.34
489.948	8158.19
490.318	8258.07
490.688	8294.91
491.058	8477.28
491.428	8566.99
491.798	8630.27
492.168	8814.9
492.538	8900.77
492.908	8916.59
493.278	9086.07
493.648	9145.51
494.017	9265.28
494.387	9310.02
494.757	9312.28
495.126	9514.09
495.496	9519.28
495.866	9605.16
496.235	9716.34
496.605	9813.29
496.974	9829.78
497.344	9964.24
497.713	10023
498.082	10134.41
498.452	10246.95
498.821	10255.99
499.19	10300.51
499.559	10420.05
499.928	10489.88
500.298	10611.46
500.667	10691.68
501.036	10701.17
501.405	10787.72
501.774	10802.87
502.143	10923.99
502.512	10957.44
502.88	11120.37
503.249	11106.13
503.618	11235.62
503.987	11249.18
504.356	11324.43
504.724	11403.08
505.093	11457.99
505.462	11472.68
505.83	11593.58
506.199	11722.39
506.567	11826.12
506.936	11841.03
507.304	12027.69
507.672	12134.58
508.041	12190.4
508.409	12194.24
508.777	12374.58
509.145	12443.5
509.514	12395.37
509.882	12594.68
510.25	12635.81
510.618	12661.8
510.986	12739.99
511.354	12959.42
511.722	12968.68
512.09	13191.28
512.458	13217.94
512.826	13257.49
513.193	13369.8
513.561	13441.21
513.929	13542.23
514.297	13662.68
514.664	13762.56
515.032	13785.84
515.4	14019.96
515.767	14003.23
516.135	14144.02
516.502	14008.66
516.869	14305.82
517.237	14430.57
517.604	14348.76
517.972	14605.03
518.339	14668.98
518.706	14687.06
519.073	14814.96
519.44	14939.93
519.808	15151.9
520.175	15126.82
520.542	15283.43
520.909	15350.32
521.276	15457.43
521.643	15593.47
522.009	15770.64
522.376	15824.43
522.743	15998.44
523.11	16108.71
523.477	16301.48
523.843	16390.97
524.21	16550.51
524.577	16687.68
524.943	16800.45
525.31	16862.59
525.676	16910.28
526.043	17152.76
526.409	17213.54
526.776	17401.11
527.142	17393.43
527.508	17571.05
527.874	17689.46
528.241	17850.59
528.607	17944.15
528.973	18085.61
529.339	18109.79
529.705	18321.54
530.071	18420.07
530.437	18618.48
530.803	18674.07
531.169	18794.75
531.535	18766.95
531.901	18795.88
532.267	18961.75
532.632	19098.24
532.998	19215.07
533.364	19258.24
533.73	19332.36
534.095	19488.29
534.461	19534.84
534.826	19715.85
535.192	19754.95
535.557	19825.68
535.923	19867.26
536.288	20003.98
536.653	20231.77
537.019	20050.53
537.384	20262.5
537.749	20343.18
538.114	20381.14
538.479	20312.67
538.845	20510.41
539.21	20483.29
539.575	20619.56
539.94	20667.01
540.305	20921.47
540.67	20883.28
541.034	20922.83
541.399	21020.22
541.764	21142.25
542.129	21194
542.494	21241.69
542.858	21360.78
543.223	21424.73
543.587	21487.78
543.952	21426.54
544.316	21683.26
544.681	21697.04
545.045	21718.74
545.41	21889.81
545.774	21884.61
546.138	22012.51
546.503	21962.57
546.867	22100.87
547.231	22305.16
547.595	22338.61
547.959	22402.56
548.324	22395.78
548.688	22403.46
549.052	22513.07
549.416	22624.02
549.779	22735.89
550.143	22762.1
550.507	22900.85
550.871	22887.97
551.235	22929.55
551.599	23208.42
551.962	23219.26
552.326	23299.03
552.689	23413.38
553.053	23366.15
553.417	23513.72
553.78	23725.69
554.143	23694.05
554.507	23862.64
554.87	23926.14
555.234	24207.26
555.597	24000.94
555.96	24172.91
556.323	24285.45
556.686	24374.03
557.05	24454.94
557.413	24541.04
557.776	24581.49
558.139	24730.41
558.502	24836.39
558.865	24907.81
559.228	25096.73
559.59	25053.79
559.953	25108.25
560.316	25466.89
560.679	25493.55
561.041	25578.3
561.404	25828.69
561.767	25869.36
562.129	25824.39
562.492	26142.8
562.854	26123.14
563.217	26141.22
563.579	26436.58
563.941	26564.49
564.304	26681.54
564.666	26748.66
565.028	26811.26
565.39	26848.55
565.753	27077.92
566.115	27278.36
566.477	27281.53
566.839	27399.27
567.201	27510.22
567.563	27519.04
567.925	27697.34
568.287	27686.72
568.648	27740.05
569.01	27898.24
569.372	28098.68
569.734	28044.9
570.095	28255.06
570.457	28336.19
570.819	28406.47
571.18	28583.87
571.542	28746.12
571.903	28779.79
572.265	28688.95
572.626	28928.04
572.987	28958.09
573.349	28872.45
573.71	29205.09
574.071	29223.62
574.432	29290.74
574.794	29513.56
575.155	29504.52
575.516	29423.39
575.877	29489.83
576.238	29603.73
576.599	29740.9
576.96	29760.56
577.32	29775.47
577.681	29854.57
578.042	29841.46
578.403	30009.14
578.763	29947.45
579.124	30031.29
579.485	30236.25
579.845	30195.58
580.206	30141.11
580.566	30164.16
580.927	30323.71
581.287	30323.93
581.648	30168.01
582.008	30285.74
582.368	30396.02
582.728	30483.7
583.089	30424.04
583.449	30438.06
583.809	30375.23
584.169	30577.26
584.529	30477.38
584.889	30679.18
585.249	30514.66
585.609	30487.77
585.969	30654.32
586.329	30392.18
586.688	30626.07
587.048	30593.76
587.408	30527.54
587.768	30428.34
588.127	30592.4
588.487	30429.47
588.846	30655.45
589.206	30564.61
589.565	30516.25
589.925	30746.52
590.284	30581.78
590.643	30648.22
591.003	30773.19
591.362	30847.31
591.721	30695.45
592.08	30631.27
592.44	30881.66
592.799	30775.67
593.158	30713.3
593.517	30766.41
593.876	30778.16
594.235	30767.76
594.593	30713.53
594.952	30927.76
595.311	30741.32
595.67	30856.12
596.029	30954.88
596.387	31028.1
596.746	31041.88
597.104	30902.22
597.463	30862.23
597.822	31087.08
598.18	30937.25
598.538	30991.49
598.897	31158.71
599.255	30947.42
599.613	31335.21
599.972	31179.05
600.33	31153.74
600.688	31079.39
601.046	31233.51
601.404	31382.44
601.762	31282.78
602.12	31415.66
602.478	31379.27
602.836	31486.39
603.194	31355.55
603.552	31517.8
603.91	31391.02
604.268	31436
604.625	31400.06
604.983	31540.85
605.341	31366.17
605.698	31595.77
606.056	31654.29
606.413	31540.63
606.771	31665.14
607.128	31694.07
607.485	31631.7
607.843	31693.39
608.2	31837.79
608.557	31879.15
608.914	31841.41
609.272	31908.98
609.629	32043.21
609.986	32149.87
610.343	31987.17
610.7	32160.95
611.057	32140.38
611.414	32214.28
611.771	32162.98
612.127	32226.26
612.484	32119.37
612.841	32368.4
613.198	32214.73
613.554	32269.65
613.911	32380.83
614.267	32387.16
614.624	32451.11
614.98	32573.37
615.337	32592.58
615.693	32614.72
616.05	32549.41
616.406	32820.82
616.762	32586.25
617.118	32606.13
617.475	32706.24
617.831	32829.86
618.187	32631.67
618.543	32748.05
618.899	33016.29
619.255	32924.32
619.611	32815.39
619.967	32955.73
620.323	32944.43
620.678	32940.59
621.034	32851.55
621.39	32872.79
621.746	32811.33
622.101	33197.31
622.457	32985.33
622.812	32971.1
623.168	32982.17
623.523	32998.21
623.879	33070.98
624.234	33042.96
624.589	32988.27
624.945	33021.49
625.3	32966.35
625.655	32953.92
626.01	33054.03
626.365	32917.54
626.72	32925.67
627.075	32966.35
627.43	32953.92
627.785	32876.64
628.14	32940.14
628.495	32969.29
628.85	32895.39
629.205	32809.97
629.559	32906.01
629.914	32871.21
630.269	32835.96
630.623	32715.06
630.978	32687.71
631.332	32900.82
631.687	32852.23
632.041	32678.45
632.396	32890.19
632.75	32710.54
633.104	32744.44
633.459	32525.91
633.813	32464.89
634.167	32544.89
634.521	32518.9
634.875	32471.22
635.229	32368.85
635.583	32299.7
635.937	32301.28
636.291	32252.47
636.645	32242.3
636.999	32300.83
637.352	32304
637.706	32095.41
638.06	32188.07
638.413	32129.76
638.767	32103.77
639.121	32140.61
639.474	31937.68
639.828	32042.08
640.181	32044.79
640.534	31858.13
640.888	31866.49
641.241	31748.98
641.594	31782.65
641.947	31913.27
642.301	31708.08
642.654	31769.77
643.007	31694.52
643.36	31688.87
643.713	31582.21
644.066	31785.36
644.419	31494.07
644.771	31423.57
645.124	31096.8
645.477	31057.02
645.83	30662.68
646.182	30712.85
646.535	30513.53
646.888	30624.04
647.24	30257.04
647.593	30443.48
647.945	30526.87
648.298	30296.82
648.65	30315.57
649.002	30132.98
649.355	30416.14
649.707	30369.36
650.059	30446.64
650.411	30711.49
650.763	30726.18
651.115	30979.51
651.467	30830.14
651.819	30890.25
652.171	30942.22
652.523	30761.89
652.875	30750.36
653.227	30639.86
653.578	30773.41
653.93	30776.13
654.282	30625.17
654.633	30532.52
654.985	30645.06
655.337	30601.89
655.688	30642.12
656.039	30709.91
656.391	30284.61
656.742	30410.94
657.094	30573.87
657.445	30541.78
657.796	30472.63
658.147	30508.11
658.498	30372.97
658.849	30438.28
659.2	30321
659.551	30396.7
659.902	30462.01
660.253	30459.07
660.604	30295.23
660.955	30271.51
661.306	30422.24
661.656	30205.07
662.007	30189.02
662.358	30199.19
662.708	30227.21
663.059	30129.36
663.409	30128.46
663.76	30172.75
664.11	30203.71
664.461	30239.19
664.811	30046.43
665.161	30139.53
665.511	29983.38
665.862	30070.16
666.212	30233.77
666.562	30231.28
666.912	30177.05
667.262	30079.19
667.612	29978.41
667.962	30080.1
668.312	30043.04
668.662	30192.19
669.011	29982.93
669.361	29851.4
669.711	29932.31
670.06	29953.55
670.41	29843.49
670.76	29849.37
671.109	29943.15
671.459	29939.99
671.808	29750.62
672.157	29872.42
672.507	29525.09
672.856	29596.72
673.205	29681.69
673.554	29865.87
673.904	29747.45
674.253	29875.81
674.602	29845.08
674.951	29285.32
675.3	29130.97
675.649	29596.5
675.998	29575.48
676.346	29568.7
676.695	29568.25
677.044	29389.27
677.393	29616.61
677.741	29514.92
678.09	29473.11
678.438	29338.88
678.787	29434.01
679.135	29346.11
679.484	29083.06
679.832	29363.73
680.181	29082.84
680.529	29255.26
680.877	29154.7
681.225	29073.8
681.573	29219.1
681.922	28977.3
682.27	29022.27
682.618	28965.55
682.966	28874.03
683.314	28888.49
683.661	28885.78
684.009	28712
684.357	28616.63
684.705	28627.71
685.053	28640.36
685.4	28564.43
685.748	28473.81
686.095	28391.56
686.443	28360.14
686.79	28286.47
687.138	28384.55
687.485	28279.47
687.832	27992.92
688.18	28237.66
688.527	27986.14
688.874	27989.53
689.221	27977.78
689.568	27848.75
689.915	27848.07
690.262	27853.49
690.609	27795.41
690.956	27772.14
691.303	27714.06
691.65	27524.69
691.997	27550.9
692.344	27288.53
692.69	27375.09
693.037	27357.91
693.383	27110.23
693.73	27229.55
694.077	26993.4
694.423	27044.7
694.769	26933.51
695.116	26869.34
695.462	26931.71
695.808	26752.05
696.155	26878.6
696.501	26676.35
696.847	26623.24
697.193	26375.56
697.539	26495.33
697.885	26227.32
698.231	26286.07
698.577	26203.82
698.923	26111.84
699.269	26117.94
699.614	25963.6
699.96	25939.19
700.306	25896.03
700.651	25751.85
700.997	25636.83
701.342	25559.31
701.688	25615.58
702.033	25474.8
702.379	25467.56
702.724	25432.54
703.069	25418.75
703.415	25079.1
703.76	25198.42
704.105	25160.23
704.45	25142.15
704.795	24864.19
705.14	24963.4
705.485	24851.54
705.83	24765.21
706.175	24709.62
706.52	24689.96
706.865	24631.43
707.209	24635.72
707.554	24560.47
707.899	24662.61
708.243	24350.08
708.588	24482.73
708.932	24224.66
709.277	24146.24
709.621	24285.45
709.966	24145.57
710.31	24158.67
710.654	23975.63
710.998	23858.79
711.342	24083.19
711.687	23845.46
712.031	23755.75
712.375	23682.08
712.719	23808.17
713.063	23755.07
713.407	23755.52
713.75	23534.73
714.094	23574.51
714.438	23401.63
714.782	23559.59
715.125	23314.18
715.469	23405.25
715.812	23219.49
716.156	23162.99
716.499	23198.7
716.843	23192.37
717.186	23047.06
717.53	23172.03
717.873	23137
718.216	23022.21
718.559	22979.27
718.902	22769.78
719.246	22938.37
719.589	22725.94
719.932	22759.61
720.275	22695.43
720.617	22701.31
720.96	22690.46
721.303	22616.11
721.646	22567.53
721.989	22439.4
722.331	22520.75
722.674	22438.49
723.016	22340.42
723.359	22384.03
723.701	22359.62
724.044	22269.91
724.386	22218.84
724.729	22271.94
725.071	22082.8
725.413	22178.84
725.755	22120.31
726.097	22072.63
726.439	21959.18
726.782	21970.93
727.124	22019.29
727.465	21981.78
727.807	21839.86
728.149	21890.94
728.491	21736.14
728.833	21800.99
729.175	21636.71
729.516	21732.3
729.858	21686.87
730.199	21760.77
730.541	21635.35
730.882	21638.29
731.224	21639.19
731.565	21407.11
731.906	21512.64
732.248	21485.75
732.589	21460.89
732.93	21316.49
733.271	21284.85
733.612	21314.23
733.953	21385.86
734.294	21188.13
734.635	21211.86
734.976	21217.28
735.317	21168.02
735.658	21115.14
735.999	21146.1
736.339	21083.5
736.68	21071.97
737.021	20966.67
737.361	20883.05
737.702	20999.21
738.042	20883.96
738.383	20884.86
738.723	20869.72
739.063	20852.09
739.404	20755.82
739.744	20715.83
740.084	20689.84
740.424	20673.11
740.764	20711.31
741.104	20655.26
741.444	20540.01
741.784	20528.03
742.124	20483.06
742.464	20526.23
742.804	20424.76
743.143	20416.85
743.483	20485.32
743.823	20306.12
744.162	20290.07
744.502	20281.71
744.841	20173.47
745.181	20269.96
745.52	20180.47
745.86	20143.86
746.199	20140.02
746.538	20163.52
746.877	20167.14
747.216	20082.17
747.556	19953.13
747.895	19950.87
748.234	19872.68
748.573	19933.02
748.911	19809.63
749.25	19869.29
749.589	19815.74
749.928	19847.6
750.267	19701.16
750.605	19683.54
750.944	19719.24
751.283	19601.28
751.621	19655.97
751.96	19516.76
752.298	19472.02
752.636	19384.33
752.975	19302.3
753.313	19386.59
753.651	19399.25
753.989	19220.27
754.327	19168.75
754.666	19134.62
755.004	19049.43
755.342	19170.1
755.679	19160.61
756.017	19050.33
756.355	19058.47
756.693	18902.54
757.031	19016.44
757.368	18801.98
757.706	18754.97
758.044	18838.36
758.381	18727.86
758.719	18722.43
759.056	18668.65
759.394	18668.2
759.731	18510.46
760.068	18473.4
760.405	18392.27
760.743	18247.87
761.08	18434.98
761.417	18303.69
761.754	18276.34
762.091	18277.47
762.428	18162.45
762.765	18124.93
763.102	18064.6
763.438	17969
763.775	17911.61
764.112	17962.68
764.449	17936.46
764.785	17783.02
765.122	17604.95
765.458	17577.15
765.795	17580.77
766.131	17483.59
766.467	17492.41
766.804	17431.62
767.14	17241.34
767.476	17386.87
767.812	17176.94
768.148	17239.08
768.485	17072.31
768.821	17063.27
769.157	17000.44
769.492	17047.67
769.828	16940.56
770.164	16844.51
770.5	16731.98
770.836	16706.21
771.171	16635.25
771.507	16545.54
771.842	16435.03
772.178	16462.38
772.513	16410.85
772.849	16315.26
773.184	16308.71
773.519	16312.33
773.855	16200.24
774.19	16211.76
774.525	16035.5
774.86	16120.69
775.195	16024.88
775.53	16026.46
775.865	15892.68
776.2	15692.23
776.535	15630.99
776.87	15694.49
777.205	15610.87
777.539	15600.25
777.874	15535.85
778.209	15455.85
778.543	15410.88
778.878	15337.44
779.212	15370.2
779.547	15200.04
779.881	15306.48
780.215	15295.18
780.55	15157.33
780.884	15061.06
781.218	15045.47
781.552	14988.97
781.886	14894.06
782.22	14887.05
782.554	14795.98
782.888	14557.12
783.222	14649.54
783.556	14553.05
783.889	14504.24
784.223	14511.69
784.557	14405.71
784.89	14424.69
785.224	14317.12
785.557	14315.32
785.891	14209.1
786.224	14231.7
786.558	14250.91
786.891	14069.67
787.224	14029.45
787.557	13920.75
787.891	13912.39
788.224	13934.76
788.557	13877.59
788.89	13782.67
789.223	13780.87
789.556	13674.2
789.888	13733.18
790.221	13589.69
790.554	13502.91
790.887	13539.06
791.219	13485.06
791.552	13468.33
791.884	13399.18
792.217	13341.33
792.549	13291.39
792.882	13173.2
793.214	13120.32
793.546	13186.76
793.879	13050.94
794.211	13000.32
794.543	13075.35
794.875	12997.16
795.207	12969.81
795.539	12915.8
795.871	12883.71
796.203	12801.23
796.535	12748.13
796.867	12710.39
797.198	12633.78
797.53	12700.89
797.862	12595.13
798.193	12581.35
798.525	12589.94
798.856	12582.71
799.188	12427.68
799.519	12417.51
799.85	12335.03
800.182	12439.66
800.513	12330.74
800.844	12271.3
801.175	12264.97
801.506	12267.69
801.837	12184.07
802.168	12256.16
802.499	12095.94
802.83	12045.09
803.161	11996.73
803.491	11951.54
803.822	11978.65
804.153	11948.15
804.483	11869.05
804.814	11827.92
805.145	11817.75
805.475	11787.02
805.805	11803.07
806.136	11716.74
806.466	11697.98
806.796	11679.68
807.126	11640.13
807.457	11573.47
807.787	11545.67
808.117	11545.67
808.447	11494.82
808.777	11484.43
809.107	11495.05
809.436	11375.05
809.766	11317.88
810.096	11297.32
810.426	11293.02
810.755	11324.43
811.085	11243.31
811.414	11226.36
811.744	11142.74
812.073	11135.96
812.403	11117.89
812.732	11128.73
813.061	11070.66
813.39	11055.97
813.719	11038.57
814.049	11021.39
814.378	10974.61
814.707	10998.11
815.036	10926.25
815.365	10842.86
815.693	10738.01
816.022	10829.08
816.351	10750.66
816.68	10755.18
817.008	10765.35
817.337	10605.81
817.665	10606.71
817.994	10694.85
818.322	10678.58
818.651	10575.08
818.979	10537.79
819.307	10620.27
819.636	10562.65
819.964	10498.01
820.292	10474.74
820.62	10403.1
820.948	10448.98
821.276	10480.39
821.604	10427.06
821.932	10448.98
822.259	10466.6
822.587	10492.37
822.915	10439.94
823.243	10472.25
823.57	10417.57
823.898	10430.22
824.225	10422.54
824.553	10396.1
824.88	10406.04
825.207	10411.69
825.535	10427.51
825.862	10420.28
826.189	10382.99
826.516	10392.71
826.843	10442.2
827.17	10387.74
827.497	10415.31
827.824	10415.76
828.151	10434.51
828.478	10453.95
828.805	10513.83
829.131	10479.94
829.458	10415.08
829.785	10302.09
830.111	10341.18
830.438	10529.43
830.764	10416.44
831.09	10394.29
831.417	10350.67
831.743	10301.64
832.069	10373.05
832.395	10310.45
832.722	10351.8
833.048	10331.92
833.374	10379.83
833.7	10255.31
834.026	10299.38
834.351	10351.8
834.677	10296.44
835.003	10294.4
835.329	10291.24
835.654	10207.18
835.98	10325.36
836.306	10191.36
836.631	10171.24
836.956	10153.39
837.282	10214.63
837.607	10122.88
837.932	10075.43
838.258	10141.64
838.583	10127.18
838.908	10058.7
839.233	10079.95
839.558	10104.8
839.883	10014.86
840.208	9904.13
840.533	10021.87
840.858	10009.67
841.182	9931.7
841.507	9938.93
841.832	9917.24
842.156	9908.2
842.481	9839.5
842.805	9838.37
843.13	9799.05
843.454	9823.23
843.778	9802.21
844.103	9766.51
844.427	9700.07
844.751	9786.62
845.075	9699.17
845.399	9696
845.723	9658.94
846.047	9627.53
846.371	9565.38
846.695	9578.94
847.019	9580.07
847.343	9456.69
847.666	9385.05
847.99	9411.72
848.313	9415.56
848.637	9361.1
848.96	9266.63
849.284	9285.39
849.607	9252.85
849.931	9237.71
850.254	9221.44
850.577	9058.05
850.9	9049.01
851.223	9032.74
851.546	8990.94
851.869	8919.53
852.192	8978.51
852.515	8916.59
852.838	8866.65
853.161	8861.22
853.483	8784.16
853.806	8732.19
854.129	8694.67
854.451	8695.8
854.774	8689.7
855.096	8610.38
855.419	8567.67
855.741	8614.67
856.063	8577.61
856.385	8547.33
856.708	8560.21
857.03	8519.31
857.352	8470.27
857.674	8429.82
857.996	8407.45
858.318	8407.45
858.64	8384.85
858.961	8370.84
859.283	8332.2
859.605	8264.18
859.926	8250.84
860.248	8308.02
860.57	8240.9
860.891	8259.2
861.212	8201.8
861.534	8205.42
861.855	8188.02
862.176	8206.32
862.498	8133.56
862.819	8142.82
863.14	8085.2
863.461	8135.59
863.782	8100.11
864.103	8077.74
864.424	8074.35
864.745	8108.25
865.065	8054.46
865.386	8010.4
865.707	8034.58
866.027	7994.58
866.348	7993.9
866.668	8060.56
866.989	8004.3
867.309	7871.87
867.63	7926.56
867.95	7933.34
868.27	7873.45
868.59	7905.31
868.91	7856.5
869.23	7863.06
869.55	7807.92
869.87	7828.71
870.19	7792.55
870.51	7886.33
870.83	7864.64
871.15	7780.57
871.469	7818.09
871.789	7787.13
872.109	7712.33
872.428	7660.8
872.748	7743.74
873.067	7697.41
873.386	7714.13
873.706	7745.32
874.025	7604.31
874.344	7625.32
874.663	7702.38
874.982	7611.31
875.301	7652.21
875.62	7595.94
875.939	7625.32
876.258	7593.23
876.577	7587.13
876.896	7544.19
877.214	7568.83
877.533	7563.18
877.852	7499
878.17	7480.47
878.489	7468.94
878.807	7470.07
879.125	7406.57
879.444	7469.39
879.762	7440.02
880.08	7434.14
880.398	7389.85
880.716	7386.91
881.034	7393.01
881.352	7411.77
881.67	7407.93
881.988	7355.72
882.306	7361.6
882.624	7347.14
882.941	7225.33
883.259	7289.74
883.577	7263.07
883.894	7250.87
884.212	7238.44
884.529	7185.11
884.846	7217.65
885.164	7221.04
885.481	7141.04
885.798	7231.21
886.115	7114.38
886.432	7102.85
886.75	7087.71
887.067	7090.19
887.383	7066.69
887.7	7104.88
888.017	7008.84
888.334	7055.62
888.651	7064.66
888.967	6999.58
889.284	6990.31
889.6	6925.45
889.917	6898.79
890.233	6894.95
890.55	6882.74
890.866	6868.96
891.182	6891.1
891.498	6845.46
891.815	6816.08
892.131	6741.5
892.447	6752.8
892.763	6760.71
893.079	6751.22
893.395	6674.61
893.71	6657.89
894.026	6678.23
894.342	6698.79
894.657	6637.33
894.973	6602.52
895.289	6649.3
895.604	6568.63
895.92	6514.16
896.235	6519.59
896.55	6545.58
896.865	6518.46
897.181	6495.86
897.496	6487.05
897.811	6443.43
898.126	6467.61
898.441	6429.2
898.756	6435.75
899.071	6347.16
899.386	6373.38
899.7	6290.89
900.015	6281.85
900.33	6302.42
900.644	6231.69
900.959	6301.74
901.273	6202.31
901.588	6178.35
901.902	6178.35
902.216	6135.87
902.531	6095.87
902.845	6097.45
903.159	6108.07
903.473	6022.65
903.787	6000.28
904.101	5995.31
904.415	5993.95
904.729	5946.27
905.042	5889.1
905.356	5945.82
905.67	5895.2
905.984	5922.09
906.297	5876.44
906.611	5896.33
906.924	5832.6
907.237	5808.42
907.551	5745.15
907.864	5797.57
908.177	5744.47
908.491	5720.74
908.804	5727.52
909.117	5717.12
909.43	5636
909.743	5619.05
910.056	5643.68
910.368	5614.98
910.681	5614.53
910.994	5549.67
911.307	5501.76
911.619	5511.25
911.932	5493.85
912.244	5472.84
912.557	5473.51
912.869	5371.82
913.181	5424.02
913.494	5374.31
913.806	5353.74
914.118	5323.24
914.43	5295.21
914.742	5304.25
915.054	5248.66
915.366	5270.13
915.678	5227.65
915.99	5205.72
916.302	5182.67
916.613	5213.18
916.925	5179.96
917.236	5144.71
917.548	5098.83
917.859	5100.64
918.171	5132.96
918.482	5057.93
918.794	5043.47
919.105	4981.32
919.416	4994.2
919.727	4992.62
920.038	4942.45
920.349	4959.86
920.66	4944.71
920.971	4914.88
921.282	4879.18
921.593	4851.38
921.903	4875.11
922.214	4776.81
922.525	4801.22
922.835	4786.53
923.146	4744.72
923.456	4747.66
923.767	4683.03
924.077	4695.68
924.387	4669.47
924.697	4678.73
925.008	4629.24
925.318	4662.01
925.628	4604.16
925.938	4616.36
926.248	4578.17
926.558	4503.37
926.867	4487.78
927.177	4519.42
927.487	4492.75
927.796	4467.89
928.106	4423.37
928.416	4442.81
928.725	4473.77
929.034	4412.53
929.344	4378.85
929.653	4363.03
929.962	4356.26
930.271	4356.03
930.581	4290.27
930.89	4293.21
931.199	4260.89
931.508	4271.06
931.817	4270.38
932.125	4262.02
932.434	4229.25
932.743	4150.84
933.051	4137.73
933.36	4157.84
933.669	4161.68
933.977	4130.27
934.286	4119.2
934.594	4108.58
934.902	4048.24
935.21	4064.06
935.519	4055.25
935.827	4043.95
936.135	3999.43
936.443	3971.18
936.751	3968.7
937.059	3932.99
937.367	3991.07
937.674	3897.28
937.982	3933.89
938.29	3951.52
938.597	3918.07
938.905	3845.31
939.213	3845.76
939.52	3823.61
939.827	3862.71
940.135	3814.35
940.442	3784.52
940.749	3731.41
941.056	3788.36
941.363	3746.33
941.67	3731.87
941.977	3725.31
942.284	3680.12
942.591	3670.4
942.898	3660.23
943.205	3655.71
943.511	3627.91
943.818	3596.95
944.125	3583.39
944.431	3573.45
944.738	3547.24
945.044	3556.5
945.35	3528.71
945.657	3534.58
945.963	3507.46
946.269	3488.03
946.575	3500.46
946.881	3489.16
947.187	3405.09
947.493	3463.85
947.799	3417.75
948.105	3417.3
948.41	3403.51
948.716	3410.97
949.022	3370.29
949.327	3347.92
949.633	3338.43
949.938	3321.25
950.244	3318.99
950.549	3309.96
950.854	3317.64
951.16	3250.97
951.465	3239.9
951.77	3276.28
952.075	3219.56
952.38	3208.72
952.685	3220.24
952.99	3171.2
953.294	3192.67
953.599	3168.72
953.904	3157.87
954.209	3141.37
954.513	3151.77
954.818	3133.69
955.122	3155.16
955.426	3117.87
955.731	3055.95
956.035	3090.75
956.339	3050.3
956.643	3017.76
956.948	3014.37
957.252	2965.11
957.556	3035.16
957.86	2973.92
958.163	2968.72
958.467	2936.41
958.771	2983.86
959.075	2957.87
959.378	2933.92
959.682	2933.92
959.985	2911.55
960.289	2909.06
960.592	2883.07
960.896	2845.11
961.199	2865
961.502	2853.7
961.805	2796.75
962.108	2828.61
962.411	2816.41
962.714	2781.83
963.017	2796.3
963.32	2766.47
963.623	2792
963.926	2789.97
964.228	2757.88
964.531	2708.16
964.833	2740.03
965.136	2714.49
965.438	2707.49
965.741	2689.86
966.043	2678.79
966.345	2662.97
966.648	2677.43
966.95	2689.41
967.252	2626.81
967.554	2607.6
967.856	2616.87
968.158	2589.97
968.46	2585
968.761	2564.44
969.063	2557.21
969.365	2544.33
969.666	2565.79
969.968	2555.4
970.269	2525.57
970.571	2478.79
970.872	2509.52
971.174	2492.58
971.475	2510.65
971.776	2453.93
972.077	2452.35
972.378	2454.84
972.679	2436.76
972.98	2430.2
973.281	2438.79
973.582	2391.34
973.883	2409.19
974.183	2393.6
974.484	2356.53
974.785	2390.88
975.085	2370.32
975.386	2387.95
975.686	2356.08
975.986	2321.96
976.287	2344.56
976.587	2308.4
976.887	2329.87
977.187	2333.03
977.487	2268.85
977.787	2293.48
978.087	2240.83
978.387	2266.37
978.687	2253.26
978.987	2282.41
979.286	2214.39
979.586	2219.81
979.885	2226.82
980.185	2213.71
980.484	2170.78
980.784	2177.78
981.083	2154.28
981.382	2197.44
981.682	2209.19
981.981	2148.18
982.28	2147.95
982.579	2163.32
982.878	2127.16
983.177	2142.75
983.475	2122.42
983.774	2110.66
984.073	2102.08
984.372	2088.07
984.67	2066.6
984.969	2069.99
985.267	2057.11
985.566	2033.6
985.864	2046.71
986.162	2029.99
986.461	2020.05
986.759	2000.39
987.057	1978.69
987.355	1978.24
987.653	2013.94
987.951	1977.11
988.249	1970.1
988.547	1972.36
988.844	1961.97
989.142	1965.13
989.44	1922.65
989.737	1904.57
990.035	1951.57
990.332	1882.87
990.63	1914.74
990.927	1890.33
991.224	1898.24
991.521	1858.69
991.819	1867.96
992.116	1846.94
992.413	1843.55
992.71	1856.43
993.006	1831.12
993.303	1842.65
993.6	1862.54
993.897	1825.47
994.193	1825.25
994.49	1791.13
994.787	1767.4
995.083	1742.99
995.379	1796.1
995.676	1761.97
995.972	1757.45
996.268	1745.7
996.565	1757
996.861	1733.5
997.157	1746.83
997.453	1740.51
997.749	1747.51
998.044	1705.48
998.34	1687.17
998.636	1679.49
998.932	1710.68
999.227	1671.35
999.523	1685.59
999.818	1669.32
1000.114	1620.73
1000.409	1671.35
1000.704	1611.69
1001	1644.01
1001.295	1625.71
1001.59	1603.33
1001.885	1627.74
1002.18	1552.26
1002.475	1567.18
1002.77	1577.35
1003.065	1545.48
1003.359	1555.88
1003.654	1519.95
1003.949	1558.36
1004.243	1515.65
1004.538	1541.64
1004.832	1502.55
1005.127	1531.25
1005.421	1535.31
1005.715	1500.74
1006.009	1486.05
1006.304	1468.87
1006.598	1478.14
1006.892	1474.75
1007.186	1445.82
1007.48	1451.25
1007.773	1448.31
1008.067	1431.81
1008.361	1436.56
1008.655	1442.21
1008.948	1436.11
1009.242	1383.45
1009.535	1398.59
1009.829	1374.64
1010.122	1389.1
1010.415	1405.6
1010.708	1366.05
1011.001	1373.74
1011.295	1333.28
1011.588	1340.97
1011.881	1341.19
1012.173	1335.32
1012.466	1315.88
1012.759	1313.62
1013.052	1326.73
1013.344	1287.41
1013.637	1300.97
1013.93	1289.44
1014.222	1277.69
1014.514	1308.2
1014.807	1273.17
1015.099	1273.17
1015.391	1275.88
1015.683	1268.65
1015.976	1263.68
1016.268	1250.8
1016.56	1212.61
1016.851	1242.89
1017.143	1238.15
1017.435	1214.64
1017.727	1185.27
1018.018	1202.21
1018.31	1187.53
1018.602	1197.69
1018.893	1153.85
1019.185	1181.65
1019.476	1146.85
1019.767	1151.82
1020.058	1154.98
1020.35	1118.6
1020.641	1146.62
1020.932	1128.77
1021.223	1110.24
1021.514	1128.77
1021.804	1104.14
1022.095	1107.08
1022.386	1113.4
1022.677	1105.04
1022.967	1113.85
1023.258	1088.09
1023.548	1074.99
1023.839	1067.98
1024.129	1077.92
1024.419	1077.02
1024.709	1041.09
1025	1057.13
1025.29	1026.63
1025.58	1032.05
1025.87	1040.41
1026.16	1025.04
1026.449	1021.2
1026.739	994.31
1027.029	990.24
1027.319	990.92
1027.608	979.4
1027.898	983.46
1028.187	969
1028.477	962.45
1028.766	976.46
1029.055	959.73
1029.344	951.6
1029.634	942.56
1029.923	959.06
1030.212	946.4
1030.501	949.57
1030.79	922
1031.078	918.38
1031.367	902.34
1031.656	891.71
1031.945	911.83
1032.233	886.06
1032.522	896.23
1032.81	889.68
1033.099	906.85
1033.387	882.45
1033.675	863.47
1033.963	849.46
1034.251	900.53
1034.54	848.78
1034.828	833.41
1035.116	854.65
1035.403	859.62
1035.691	836.8
1035.979	814.2
1036.267	838.83
1036.554	815.78
1036.842	792.73
1037.129	797.48
1037.417	815.56
1037.704	811.72
1037.992	791.6
1038.279	792.73
1038.566	801.55
1038.853	801.55
1039.14	801.55
