Data from breadboard_black_back_FLMS001491_00071.txt Node
Date: Wed Feb 08 10:50:52 GMT 2017
User: dcchb
Spectrometer: FLMS00149
Trigger mode: 0
Integration Time (sec): 2.000000E-2
Scans to average: 10
Electric dark correction enabled: true
Nonlinearity correction enabled: false
Boxcar width: 0
XAxis mode: Wavelengths
Number of Pixels in Spectrum: 2048
>>>>>Begin Spectral Data<<<<<
341.393	-7.7
341.776	-7.7
342.16	-7.7
342.543	-67.36
342.927	-55.61
343.31	-56.96
343.693	-85.44
344.077	-61.03
344.46	-70.97
344.843	-65.32
345.226	-32.1
345.61	-21.93
345.993	1.12
346.376	-13.12
346.759	8.57
347.142	33.43
347.525	43.37
347.908	45.63
348.291	76.82
348.674	96.03
349.057	101.9
349.44	109.59
349.823	135.58
350.206	143.71
350.588	196.36
350.971	208.79
351.354	230.49
351.737	243.37
352.119	254.44
352.502	287.44
352.884	291.5
353.267	295.8
353.65	309.13
354.032	307.1
354.414	329.92
354.797	342.12
355.179	339.64
355.562	336.02
355.944	326.76
356.326	338.06
356.709	342.12
357.091	328.34
357.473	346.87
357.855	329.69
358.238	339.64
358.62	345.06
359.002	340.77
359.384	357.49
359.766	350.26
360.148	348.9
360.53	335.34
360.912	325.4
361.294	346.42
361.676	344.16
362.057	350.71
362.439	351.39
362.821	339.19
363.203	327.21
363.584	355.23
363.966	340.99
364.348	324.95
364.729	342.8
365.111	340.99
365.493	341.45
365.874	333.31
366.256	335.12
366.637	333.08
367.019	324.05
367.4	330.15
367.781	340.99
368.163	333.31
368.544	313.2
368.925	359.75
369.306	331.73
369.688	348.68
370.069	336.02
370.45	346.64
370.831	315.46
371.212	340.32
371.593	346.19
371.974	354.55
372.355	348.9
372.736	340.77
373.117	345.97
373.498	348.45
373.879	348.68
374.26	329.47
374.641	358.85
375.021	358.17
375.402	360.88
375.783	349.36
376.163	370.37
376.544	364.5
376.925	387.55
377.305	383.03
377.686	369.02
378.066	376.25
378.447	367.66
378.827	389.13
379.208	365.4
379.588	391.61
379.968	379.64
380.349	392.97
380.729	388.68
381.109	388.68
381.489	408.11
381.87	393.2
382.25	403.37
382.63	402.01
383.01	399.52
383.39	393.2
383.77	409.24
384.15	404.95
384.53	404.04
384.91	409.92
385.29	409.69
385.67	429.81
386.049	423.03
386.429	417.15
386.809	422.12
387.189	435.45
387.568	436.13
387.948	443.82
388.328	447.43
388.707	442.01
389.087	451.27
389.466	439.75
389.846	463.02
390.225	468.22
390.605	456.7
390.984	479.3
391.363	469.13
391.743	456.7
392.122	505.74
392.501	512.06
392.881	480.43
393.26	472.52
393.639	493.76
394.018	491.27
394.397	485.4
394.776	513.64
395.155	525.62
395.534	515.9
395.913	515.23
396.292	530.14
396.671	524.49
397.05	519.75
397.429	554.32
397.808	532.85
398.186	530.37
398.565	541.21
398.944	553.87
399.323	535.57
399.701	584.83
400.08	576.24
400.458	561.1
400.837	597.48
401.215	591.83
401.594	583.25
401.972	589.12
402.351	596.13
402.729	608.56
403.107	604.72
403.486	593.87
403.864	603.59
404.242	600.87
404.62	632.74
404.999	647.2
405.377	625.51
405.755	634.77
406.133	623.92
406.511	643.36
406.889	648.1
407.267	665.05
407.645	687.2
408.023	675
408.401	673.64
408.779	693.07
409.156	713.19
409.534	724.26
409.912	702.34
410.29	749.57
410.667	708.44
411.045	743.47
411.422	783.47
411.8	759.29
412.178	776.46
412.555	798.83
412.933	778.27
413.31	776.69
413.687	802
414.065	812.85
414.442	815.56
414.819	797.93
415.197	852.62
415.574	834.31
415.951	862.79
416.328	850.81
416.705	873.18
417.082	888.1
417.46	882.9
417.837	890.81
418.214	889.23
418.591	890.13
418.967	925.16
419.344	889
419.721	918.38
420.098	917.25
420.475	942.79
420.852	967.19
421.228	969.45
421.605	995.44
421.982	972.16
422.358	976.91
422.735	979.4
423.111	1002.9
423.488	1047.19
423.864	1024.82
424.241	1041.09
424.617	1058.04
424.994	1058.49
425.37	1073.4
425.746	1064.82
426.123	1078.83
426.499	1074.53
426.875	1104.59
427.251	1116.79
427.627	1131.03
428.003	1163.57
428.379	1174.42
428.756	1180.07
429.132	1201.31
429.507	1174.42
429.883	1230.46
430.259	1259.61
430.635	1248.09
431.011	1289.22
431.387	1308.88
431.763	1302.32
432.138	1321.31
432.514	1335.32
432.89	1333.74
433.265	1338.03
433.641	1394.98
434.016	1390.68
434.392	1416.9
434.767	1437.46
435.143	1446.28
435.518	1470.68
435.894	1477.46
436.269	1489.44
436.644	1482.66
437.02	1512.94
437.395	1517.91
437.77	1552.04
438.145	1603.33
438.52	1595.88
438.895	1619.38
439.271	1612.15
439.646	1651.92
440.021	1630.68
440.395	1615.76
440.77	1625.48
441.145	1657.12
441.52	1695.76
441.895	1707.51
442.27	1725.59
442.645	1700.51
443.019	1735.99
443.394	1773.5
443.769	1766.72
444.143	1768.3
444.518	1779.15
444.892	1813.05
445.267	1794.51
445.641	1810.11
446.016	1855.53
446.39	1849.88
446.764	1855.53
447.139	1851.24
447.513	1882.65
447.887	1896.89
448.262	1916.77
448.636	1914.96
449.01	1909.31
449.384	1956.32
449.758	1947.96
450.132	2006.94
450.506	2032.7
450.88	2023.66
451.254	2041.97
451.628	2063.21
452.002	2087.84
452.376	2100.95
452.75	2112.7
453.123	2127.16
453.497	2177.56
453.871	2194.5
454.244	2197.44
454.618	2235.18
454.992	2255.97
455.365	2259.59
455.739	2322.86
456.112	2348.17
456.486	2379.58
456.859	2434.95
457.232	2435.4
457.606	2459.81
457.979	2468.17
458.352	2525.57
458.725	2560.37
459.099	2578.22
459.472	2601.27
459.845	2660.03
460.218	2687.37
460.591	2661.38
460.964	2690.31
461.337	2754.26
461.71	2838.1
462.083	2834.71
462.456	2848.95
462.829	2858.44
463.201	2940.93
463.574	2947.93
463.947	2988.38
464.32	3036.74
464.692	3065.44
465.065	3089.62
465.438	3172.78
465.81	3191.99
466.183	3235.83
466.555	3308.6
466.928	3305.89
467.3	3318.09
467.672	3375.49
468.045	3460.01
468.417	3460.01
468.789	3467.01
469.161	3537.07
469.534	3635.6
469.906	3662.71
470.278	3676.95
470.65	3724.41
471.022	3808.25
471.394	3875.59
471.766	3900.45
472.138	3939.54
472.51	4007.56
472.882	4089.82
473.253	4082.14
473.625	4195.13
473.997	4299.99
474.369	4278.52
474.74	4346.31
475.112	4438.74
475.484	4530.94
475.855	4551.73
476.227	4651.61
476.598	4730.26
476.97	4780.2
477.341	4932.96
477.713	4979.52
478.084	5022.23
478.455	5147.2
478.827	5155.78
479.198	5342.67
479.569	5395.78
479.94	5506.96
480.311	5540.41
480.682	5674.86
481.053	5818.59
481.424	5833.73
481.795	5979.04
482.166	6017.45
482.537	6125.7
482.908	6265.36
483.279	6340.61
483.65	6348.97
484.021	6607.95
484.391	6593.26
484.762	6703.99
485.133	6734.95
485.503	6763.42
485.874	7004.32
486.244	6984.43
486.615	7152.79
486.985	7258.1
487.356	7417.19
487.726	7460.13
488.097	7606.11
488.467	7677.75
488.837	7790.29
489.207	7887.46
489.578	8015.14
489.948	8091.07
490.318	8201.8
490.688	8217.17
491.058	8384.62
491.428	8518.63
491.798	8595.92
492.168	8783.94
492.538	8802.47
492.908	8930.6
493.278	8965.63
493.648	9005.62
494.017	9116.81
494.387	9198.84
494.757	9365.39
495.126	9441.32
495.496	9414.65
495.866	9554.99
496.235	9632.27
496.605	9748.2
496.974	9770.8
497.344	9866.62
497.713	9934.87
498.082	10036.11
498.452	10198.36
498.821	10209.43
499.19	10254.41
499.559	10346.38
499.928	10400.62
500.298	10463.67
500.667	10652.36
501.036	10578.46
501.405	10751.79
501.774	10674.73
502.143	10796.99
502.512	10887.38
502.88	11030.2
503.249	11063.2
503.618	11052.58
503.987	11177.32
504.356	11297.09
504.724	11330.76
505.093	11341.83
505.462	11457.54
505.83	11531.43
506.199	11594.71
506.567	11743.41
506.936	11777.98
507.304	11978.43
507.672	12036.51
508.041	12030.4
508.409	12178.2
508.777	12234.69
509.145	12354.24
509.514	12385.42
509.882	12435.14
510.25	12535.02
510.618	12602.14
510.986	12660.22
511.354	12762.14
511.722	13007.33
512.09	13074.67
512.458	13015.91
512.826	13195.35
513.193	13267.43
513.561	13302.69
513.929	13459.52
514.297	13610.25
514.664	13698.83
515.032	13684.82
515.4	13894.76
515.767	14006.17
516.135	14067.64
516.502	14054.76
516.869	14215.43
517.237	14332.04
517.604	14255.66
517.972	14488.87
518.339	14592.14
518.706	14615.87
519.073	14716.44
519.44	14965.24
519.808	15026.71
520.175	15041.85
520.542	15216.99
520.909	15363.65
521.276	15372.46
521.643	15632.34
522.009	15657.65
522.376	15793.24
522.743	15880.47
523.11	16005.21
523.477	16205.89
523.843	16356.62
524.21	16470.97
524.577	16608.81
524.943	16725.87
525.31	16860.11
525.676	16891.07
526.043	17008.35
526.409	17111.17
526.776	17346.87
527.142	17318.63
527.508	17469.13
527.874	17628.45
528.241	17720.65
528.607	17802.91
528.973	18002.45
529.339	17998.83
529.705	18208.32
530.071	18374.87
530.437	18476.34
530.803	18540.52
531.169	18600.63
531.535	18679.27
531.901	18776.22
532.267	18884.24
532.632	18957.45
532.998	19058.47
533.364	19149.31
533.73	19265.24
534.095	19391.11
534.461	19479.93
534.826	19582.52
535.192	19660.71
535.557	19698.45
535.923	19861.16
536.288	19875.85
536.653	20070.64
537.019	20086.92
537.384	20041.27
537.749	20154.94
538.114	20363.29
538.479	20256.4
538.845	20461.37
539.21	20498.66
539.575	20568.48
539.94	20657.75
540.305	20782.49
540.67	20704.75
541.034	20853
541.399	20971.86
541.764	21048.47
542.129	21043.05
542.494	21222.25
542.858	21220.22
543.223	21230.84
543.587	21409.82
543.952	21351.06
544.316	21539.31
544.681	21451.85
545.045	21634.9
545.41	21650.94
545.774	21853.2
546.138	21791.73
546.503	21928
546.867	21933.42
547.231	22046.19
547.595	22171.83
547.959	22281.66
548.324	22317.14
548.688	22349.91
549.052	22469.9
549.416	22497.93
549.779	22565.49
550.143	22525.72
550.507	22746.96
550.871	22798.93
551.235	22894.53
551.599	23002.32
551.962	23109.21
552.326	23219.94
552.689	23423.55
553.053	23255.42
553.417	23361.63
553.78	23665.35
554.143	23594.85
554.507	23741.28
554.87	23804.33
555.234	23987.15
555.597	23950.77
555.96	24074.16
556.323	24138.33
556.686	24251.55
557.05	24444.77
557.413	24444.99
557.776	24535.84
558.139	24610.19
558.502	24657.42
558.865	24755.72
559.228	24961.59
559.59	25094.02
559.953	25101.92
560.316	25377.85
560.679	25509.37
561.041	25589.6
561.404	25620.78
561.767	25859.64
562.129	25785.07
562.492	26107.32
562.854	26118.4
563.217	26082.92
563.579	26148.68
563.941	26496.46
564.304	26430.25
564.666	26638.61
565.028	26689
565.39	26734.88
565.753	26877.92
566.115	27016.68
566.477	27113.85
566.839	27228.42
567.201	27443.56
567.563	27390.9
567.925	27522.88
568.287	27607.85
568.648	27682.42
569.01	27926.03
569.372	28039.25
569.734	27921.51
570.095	28142.75
570.457	28312.24
570.819	28382.29
571.18	28372.57
571.542	28487.15
571.903	28596.97
572.265	28655.28
572.626	28714.71
572.987	28792.45
573.349	28920.36
573.71	29002.84
574.071	29080.8
574.432	29165.09
574.794	29364.41
575.155	29376.61
575.516	29302.72
575.877	29443.05
576.238	29479.21
576.599	29600.11
576.96	29647.57
577.32	29593.56
577.681	29794
578.042	29776.6
578.403	29856.38
578.763	29847.11
579.124	29948.8
579.485	30097.27
579.845	30079.65
580.206	30040.55
580.566	30075.35
580.927	30215.01
581.287	30230.38
581.648	30226.76
582.008	30335.46
582.368	30187.89
582.728	30342.69
583.089	30330.71
583.449	30329.81
583.809	30335.91
584.169	30387.44
584.529	30348.11
584.889	30651.61
585.249	30361.67
585.609	30463.82
585.969	30504.72
586.329	30434.67
586.688	30468.11
587.048	30349.92
587.408	30400.99
587.768	30345.18
588.127	30481.44
588.487	30465.4
588.846	30705.85
589.206	30410.49
589.565	30405.97
589.925	30586.53
590.284	30497.26
590.643	30547.66
591.003	30598.73
591.362	30741.32
591.721	30542.01
592.08	30518.28
592.44	30516.47
592.799	30661.1
593.158	30634.21
593.517	30643.7
593.876	30705.17
594.235	30636.24
594.593	30659.29
594.952	30732.96
595.311	30661.1
595.67	30776.13
596.029	30882.79
596.387	30934.99
596.746	31035.55
597.104	30767.54
597.463	30743.81
597.822	31018.83
598.18	30904.94
598.538	30903.81
598.897	31122.78
599.255	30710.14
599.613	31278.94
599.972	31089.34
600.33	31067.87
600.688	30971.6
601.046	31109.45
601.404	31139.28
601.762	31227.41
602.12	31463.79
602.478	31253.18
602.836	31349.9
603.194	31176.12
603.552	31334.53
603.91	31264.02
604.268	31413.85
604.625	31281.88
604.983	31313.96
605.341	31348.77
605.698	31454.53
606.056	31455.88
606.413	31426.5
606.771	31598.7
607.128	31664.69
607.485	31533.17
607.843	31593.73
608.2	31876.44
608.557	31864.46
608.914	31685.71
609.272	31923.21
609.629	31879.37
609.986	31947.62
610.343	31795.31
610.7	32135.19
611.057	32084.79
611.414	32031.23
611.771	32082.76
612.127	32165.02
612.484	32069.43
612.841	32280.49
613.198	32137.9
613.554	32103.1
613.911	32427.16
614.267	32357.55
614.624	32275.3
614.98	32367.5
615.337	32534.27
615.693	32400.49
616.05	32470.32
616.406	32689.3
616.762	32515.52
617.118	32577.89
617.475	32558.23
617.831	32714.83
618.187	32743.53
618.543	32651.78
618.899	32873.02
619.255	32775.62
619.611	32917.54
619.967	32746.92
620.323	32837.31
620.678	32766.36
621.034	32768.39
621.39	32767.26
621.746	32697.66
622.101	33116.86
622.457	32863.3
622.812	32893.58
623.168	33083.41
623.523	33018.78
623.879	33136.97
624.234	32749.86
624.589	32859.91
624.945	32993.92
625.3	32975.84
625.655	33001.15
626.01	33026.24
626.365	32946.01
626.72	32940.59
627.075	32888.61
627.43	32879.12
627.785	32952.34
628.14	32907.37
628.495	32836.86
628.85	33004.54
629.205	32692.46
629.559	32993.02
629.914	32731.33
630.269	32942.17
630.623	32849.07
630.978	32704.66
631.332	32868.27
631.687	32876.18
632.041	32593.93
632.396	32783.98
632.75	32568.4
633.104	32632.8
633.459	32542.63
633.813	32468.06
634.167	32500.37
634.521	32465.57
634.875	32478.45
635.229	32402.3
635.583	32329.08
635.937	32183.32
636.291	32232.58
636.645	32273.26
636.999	32130.44
637.352	32341.96
637.706	32012.93
638.06	32276.43
638.413	32279.59
638.767	32146.94
639.121	32042.31
639.474	31979.71
639.828	31898.81
640.181	31900.39
640.534	31903.33
640.888	31722.54
641.241	31626.27
641.594	31855.87
641.947	31865.81
642.301	31684.35
642.654	31742.88
643.007	31664.24
643.36	31737
643.713	31570.23
644.066	31687.51
644.419	31498.59
644.771	31392.15
645.124	30978.15
645.477	30960.08
645.83	30774.32
646.182	30660.42
646.535	30428.34
646.888	30457.49
647.24	30282.81
647.593	30526.19
647.945	30278.51
648.298	30237.83
648.65	30198.97
649.002	30168.46
649.355	30313.77
649.707	30114.9
650.059	30371.84
650.411	30749.91
650.763	30746.3
651.115	31114.42
651.467	30900.42
651.819	30862.68
652.171	30680.08
652.523	30923.01
652.875	30778.16
653.227	30629.46
653.578	30956.46
653.93	30740.87
654.282	30585.62
654.633	30469.24
654.985	30673.76
655.337	30590.59
655.688	30609.8
656.039	30594.66
656.391	30467.43
656.742	30545.85
657.094	30397.83
657.445	30562.35
657.796	30520.31
658.147	30300.66
658.498	30363.93
658.849	30510.37
659.2	30431.28
659.551	30169.36
659.902	30416.81
660.253	30306.53
660.604	30424.5
660.955	30203.03
661.306	30285.74
661.656	30201.45
662.007	30260.43
662.358	30241
662.708	30172.07
663.059	30165.07
663.409	29927.79
663.76	30197.61
664.11	30252.98
664.461	30181.57
664.811	30099.76
665.161	30084.17
665.511	30097.5
665.862	30015.92
666.212	30188.12
666.562	30096.37
666.912	30081.91
667.262	29975.02
667.612	30017.28
667.962	30068.8
668.312	29994
668.662	30172.3
669.011	29993.77
669.361	29912.65
669.711	29954.45
670.06	29899.76
670.41	29880.33
670.76	29932.31
671.109	29873.1
671.459	29881.46
671.808	29772.99
672.157	29832.65
672.507	29681.24
672.856	29601.69
673.205	29803.04
673.554	29856.6
673.904	29703.16
674.253	29825.42
674.602	29773.67
674.951	29321.02
675.3	29178.43
675.649	29616.38
675.998	29497.52
676.346	29548.14
676.695	29512.43
677.044	29428.82
677.393	29382.72
677.741	29408.93
678.09	29420.91
678.438	29295.49
678.787	29400.34
679.135	29436.73
679.484	29177.75
679.832	29223.4
680.181	29077.64
680.529	29152.21
680.877	29188.6
681.225	29056.85
681.573	29244.19
681.922	29044.42
682.27	29026.79
682.618	28995.16
682.966	29000.13
683.314	28796.06
683.661	28850.07
684.009	28765.78
684.357	28628.39
684.705	28683.98
685.053	28582.29
685.4	28527.15
685.748	28535.51
686.095	28419.13
686.443	28356.75
686.79	28290.32
687.138	28401.72
687.485	28413.02
687.832	28139.58
688.18	28188.85
688.527	28047.61
688.874	28073.37
689.221	27953.83
689.568	27925.13
689.915	27903.21
690.262	27825.24
690.609	27816.2
690.956	27757.67
691.303	27712.7
691.65	27495.53
691.997	27545.93
692.344	27381.64
692.69	27416.67
693.037	27246.73
693.383	27077.47
693.73	27274.75
694.077	26993.17
694.423	27020.52
694.769	26924.7
695.116	26874.53
695.462	26858.26
695.808	26713.41
696.155	26879.51
696.501	26630.02
696.847	26616.24
697.193	26317.03
697.539	26585.73
697.885	26293.31
698.231	26270.48
698.577	26182.8
698.923	26246.98
699.269	26033.43
699.614	25982.35
699.96	25884.73
700.306	25971.05
700.651	25767.44
700.997	25658.52
701.342	25707.33
701.688	25644.96
702.033	25651.74
702.379	25493.33
702.724	25405.65
703.069	25395.93
703.415	25154.8
703.76	25216.95
704.105	25209.27
704.45	25058.76
704.795	24983.96
705.14	25010.85
705.485	24829.84
705.83	24888.37
706.175	24851.99
706.52	24725.44
706.865	24570.41
707.209	24611.09
707.554	24611.09
707.899	24543.07
708.243	24432.11
708.588	24414.03
708.932	24230.99
709.277	24242.06
709.621	24256.52
709.966	24105.34
710.31	24134.27
710.654	23936.98
710.998	24010.2
711.342	24010.43
711.687	23903.54
712.031	23769.08
712.375	23659.25
712.719	23758.46
713.063	23671.45
713.407	23712.13
713.75	23558.91
714.094	23565.47
714.438	23483.44
714.782	23479.59
715.125	23322.76
715.469	23383.1
715.812	23330.9
716.156	23213.84
716.499	23265.59
716.843	23220.84
717.186	23072.6
717.53	23082.32
717.873	23197.79
718.216	23093.16
718.559	23023.34
718.902	22897.46
719.246	22917.8
719.589	22796
719.932	22749.22
720.275	22644.81
720.617	22645.72
720.96	22637.58
721.303	22614.76
721.646	22624.7
721.989	22417.48
722.331	22462.45
722.674	22497.93
723.016	22515.55
723.359	22436.46
723.701	22438.72
724.044	22345.16
724.386	22227.42
724.729	22313.75
725.071	22186.75
725.413	22166.18
725.755	22179.52
726.097	22085.51
726.439	21999.63
726.782	21995.34
727.124	22064.04
727.465	21963.7
727.807	21835.8
728.149	21842.8
728.491	21773.88
728.833	21919.64
729.175	21727.1
729.516	21756.7
729.858	21655.01
730.199	21676.48
730.541	21648.68
730.882	21579.31
731.224	21594.45
731.565	21532.53
731.906	21515.58
732.248	21565.29
732.589	21378.63
732.93	21479.42
733.271	21392.42
733.612	21415.02
733.953	21410.27
734.294	21236.26
734.635	21204.17
734.976	21261.12
735.317	21062.03
735.658	21139.99
735.999	21089.15
736.339	21017.51
736.68	21072.43
737.021	20965.76
737.361	20932.09
737.702	20945.88
738.042	20827.46
738.383	20862.49
738.723	20953.79
739.063	20734.81
739.404	20775.03
739.744	20772.1
740.084	20660.91
740.424	20794.02
740.764	20665.43
741.104	20730.51
741.444	20606.45
741.784	20551.08
742.124	20567.81
742.464	20540.01
742.804	20578.2
743.143	20443.29
743.483	20490.52
743.823	20415.95
744.162	20317.87
744.502	20376.4
744.841	20321.71
745.181	20345.21
745.52	20238.1
745.86	20319.9
746.199	20167.82
746.538	20189.29
746.877	20251.88
747.216	20115.16
747.556	20079.23
747.895	20115.16
748.234	19991.32
748.573	19933.47
748.911	19938.44
749.25	19928.05
749.589	19833.14
749.928	19848.05
750.267	19827.26
750.605	19734.38
750.944	19678.79
751.283	19679.02
751.621	19686.47
751.96	19592.92
752.298	19509.76
752.636	19563.09
752.975	19368.52
753.313	19281.74
753.651	19482.19
753.989	19231.57
754.327	19237.67
754.666	19125.58
755.004	19150.44
755.342	19280.16
755.679	19206.26
756.017	19022.54
756.355	19155.64
756.693	18956.32
757.031	19039.49
757.368	18824.8
757.706	18952.26
758.044	18750.91
758.381	18829.1
758.719	18773.73
759.056	18751.13
759.394	18614.64
759.731	18581.87
760.068	18611.02
760.405	18444.47
760.743	18396.56
761.08	18362.89
761.417	18316.34
761.754	18289.45
762.091	18253.52
762.428	18171.49
762.765	18072.73
763.102	18096.91
763.438	18077.25
763.775	17941.44
764.112	17894.66
764.449	17884.04
764.785	17797.94
765.122	17706.64
765.458	17671.61
765.795	17633.65
766.131	17644.27
766.467	17478.17
766.804	17490.83
767.14	17399.53
767.476	17409.25
767.812	17231.4
768.148	17330.6
768.485	17133.55
768.821	17029.82
769.157	17104.62
769.492	17025.53
769.828	17032.98
770.164	16851.29
770.5	16715.25
770.836	16783.95
771.171	16627.57
771.507	16736.95
771.842	16559.78
772.178	16597.74
772.513	16454.24
772.849	16411.76
773.184	16333.79
773.519	16307.81
773.855	16212.44
774.19	16246.34
774.525	16096.51
774.86	16188.71
775.195	16202.05
775.53	15991.2
775.865	15954.82
776.2	15936.74
776.535	15714.37
776.87	15724.32
777.205	15660.14
777.539	15629.63
777.874	15602.51
778.209	15438.68
778.543	15465.79
778.878	15312.58
779.212	15358.23
779.547	15275.06
779.881	15335.85
780.215	15127.95
780.55	15325.23
780.884	15085.24
781.218	15069.87
781.552	15068.74
781.886	15042.08
782.22	14898.35
782.554	14818.13
782.888	14664.01
783.222	14776.77
783.556	14681.18
783.889	14612.26
784.223	14494.97
784.557	14560.51
784.89	14499.72
785.224	14445.93
785.557	14306.5
785.891	14265.15
786.224	14246.62
786.558	14250.91
786.891	14141.99
787.224	14078.94
787.557	14099.28
787.891	14019.05
788.224	13990.35
788.557	13969.11
788.89	13889.56
789.223	13880.98
789.556	13780.64
789.888	13808.21
790.221	13713.75
790.554	13567.99
790.887	13593.75
791.219	13567.76
791.552	13476.92
791.884	13458.62
792.217	13357.37
792.549	13331.84
792.882	13332.52
793.214	13220.43
793.546	13268.79
793.879	13143.6
794.211	13065.63
794.543	13144.95
794.875	13043.48
795.207	13033.77
795.539	13038.29
795.871	12991.28
796.203	12831.06
796.535	12721.01
796.867	12789.25
797.198	12730.95
797.53	12681.23
797.862	12697.73
798.193	12724.85
798.525	12678.07
798.856	12607.34
799.188	12458.42
799.519	12523.27
799.85	12410.06
800.182	12448.92
800.513	12481.92
800.844	12282.83
801.175	12365.31
801.506	12356.5
801.837	12217.52
802.168	12163.06
802.499	12110.18
802.83	12123.51
803.161	12013
803.491	12021.59
803.822	11972.55
804.153	11990.18
804.483	11874.25
804.814	11830.18
805.145	11887.36
805.475	11799.22
805.805	11837.41
806.136	11784.53
806.466	11790.64
806.796	11714.71
807.126	11702.95
807.457	11714.03
807.787	11596.74
808.117	11544.32
808.447	11592.45
808.777	11554.71
809.107	11500.93
809.436	11419.57
809.766	11488.5
810.096	11358.33
810.426	11370.08
810.755	11331.21
811.085	11345.68
811.414	11298.45
811.744	11249.41
812.073	11192.46
812.403	11164.66
812.732	11155.4
813.061	11149.07
813.39	11065.68
813.719	11006.7
814.049	11092.35
814.378	11004.67
814.707	11053.93
815.036	11031.56
815.365	10935.74
815.693	10839.02
816.022	10884.67
816.351	10776.65
816.68	10762.41
817.008	10718.12
817.337	10705.92
817.665	10697.78
817.994	10714.28
818.322	10660.5
818.651	10628.63
818.979	10654.17
819.307	10693.04
819.636	10614.4
819.964	10473.38
820.292	10562.87
820.62	10568.3
820.948	10538.47
821.276	10580.72
821.604	10572.36
821.932	10558.58
822.259	10498.47
822.587	10524.23
822.915	10495.76
823.243	10580.95
823.57	10494.63
823.898	10513.38
824.225	10426.6
824.553	10476.32
824.88	10450.33
825.207	10486.72
825.535	10461.86
825.862	10545.7
826.189	10447.17
826.516	10515.42
826.843	10516.09
827.17	10525.81
827.497	10498.69
827.824	10466.15
828.151	10566.94
828.478	10467.73
828.805	10524.45
829.131	10376.44
829.458	10418.24
829.785	10322.65
830.111	10392.03
830.438	10444.68
830.764	10462.76
831.09	10453.04
831.417	10373.27
831.743	10434.74
832.069	10456.43
832.395	10403.78
832.722	10378.02
833.048	10375.31
833.374	10408.53
833.7	10311.81
834.026	10353.84
834.351	10399.71
834.677	10332.82
835.003	10401.29
835.329	10394.29
835.654	10363.78
835.98	10305.7
836.306	10291.92
836.631	10301.86
836.956	10309.09
837.282	10284.69
837.607	10259.83
837.932	10232.94
838.258	10166.95
838.583	10194.97
838.908	10086.5
839.233	10190.23
839.558	10119.27
839.883	10101.19
840.208	10133.28
840.533	10038.37
840.858	10043.79
841.182	9998.59
841.507	10021.64
841.832	9951.14
842.156	9936.9
842.481	9932.38
842.805	9915.43
843.13	9869.33
843.454	9905.04
843.778	9867.3
844.103	9820.97
844.427	9777.36
844.751	9823.46
845.075	9788.43
845.399	9742.78
845.723	9711.14
846.047	9718.6
846.371	9615.78
846.695	9574.2
847.019	9564.71
847.343	9522.45
847.666	9463.24
847.99	9470.02
848.313	9481.77
848.637	9315
848.96	9362
849.284	9321.1
849.607	9288.1
849.931	9302.34
850.254	9260.99
850.577	9153.87
850.9	9080.2
851.223	9031.16
851.546	9020.99
851.869	8974.21
852.192	9020.77
852.515	8937.83
852.838	8872.75
853.161	8898.51
853.483	8848.57
853.806	8812.86
854.129	8823.48
854.451	8728.12
854.774	8741.22
855.096	8695.12
855.419	8666.42
855.741	8609.93
856.063	8571.96
856.385	8600.21
856.708	8563.6
857.03	8545.75
857.352	8518.63
857.674	8510.04
857.996	8494.45
858.318	8428.92
858.64	8409.26
858.961	8432.98
859.283	8403.83
859.605	8294.01
859.926	8313.21
860.248	8328.58
860.57	8263.95
860.891	8288.81
861.212	8224.85
861.534	8176.72
861.855	8185.31
862.176	8248.36
862.498	8161.35
862.819	8154.57
863.14	8156.38
863.461	8196.15
863.782	8140.56
864.103	8122.71
864.424	8106.67
864.745	8091.75
865.065	8067.34
865.386	8028.02
865.707	8058.08
866.027	8149.83
866.348	7964.75
866.668	8061.69
866.989	7995.71
867.309	7955.26
867.63	7885.2
867.95	7953.68
868.27	7954.8
868.59	7954.58
868.91	7929.27
869.23	7856.5
869.55	7890.4
869.87	7869.16
870.19	7873.9
870.51	7852.89
870.83	7837.07
871.15	7814.24
871.469	7783.74
871.789	7830.29
872.109	7757.75
872.428	7777.41
872.748	7729.27
873.067	7750.06
873.386	7793.23
873.706	7708.71
874.025	7732.21
874.344	7686.11
874.663	7750.52
874.982	7641.82
875.301	7603.4
875.62	7676.85
875.939	7628.26
876.258	7612.67
876.577	7671.2
876.896	7603.85
877.214	7557.08
877.533	7596.17
877.852	7638.2
878.17	7588.94
878.489	7521.6
878.807	7568.15
879.125	7568.15
879.444	7517.53
879.762	7444.08
880.08	7504.87
880.398	7531.09
880.716	7435.95
881.034	7475.72
881.352	7422.16
881.67	7385.78
881.988	7417.64
882.306	7417.64
882.624	7446.12
882.941	7346.23
883.259	7336.97
883.577	7338.78
883.894	7292.9
884.212	7277.53
884.529	7312.79
884.846	7266.69
885.164	7232.11
885.481	7209.74
885.798	7170.87
886.115	7161.83
886.432	7222.39
886.75	7079.35
887.067	7237.76
887.383	7095.84
887.7	7083.19
888.017	7108.73
888.334	7094.49
888.651	7048.84
888.967	7102.85
889.284	6967.94
889.6	7033.25
889.917	6986.02
890.233	6981.72
890.55	6969.07
890.866	6948.96
891.182	6863.31
891.498	6941.05
891.815	6945.79
892.131	6856.98
892.447	6803.42
892.763	6837.77
893.079	6790.54
893.395	6779.02
893.71	6739.02
894.026	6744.22
894.342	6707.61
894.657	6747.61
894.973	6685.69
895.289	6639.81
895.604	6619.47
895.92	6590.1
896.235	6607.72
896.55	6585.8
896.865	6548.29
897.181	6530.66
897.496	6601.85
897.811	6537.67
898.126	6465.35
898.441	6425.13
898.756	6446.37
899.071	6368.63
899.386	6437.56
899.7	6369.08
900.015	6370.89
900.33	6309.42
900.644	6317.33
900.959	6314.17
901.273	6300.84
901.588	6257.9
901.902	6213.38
902.216	6171.58
902.531	6196.66
902.845	6230.56
903.159	6109.66
903.473	6100.39
903.787	6106.27
904.101	6050.22
904.415	6088.64
904.729	6057.45
905.042	5973.84
905.356	5977.23
905.67	5967.29
905.984	6000.28
906.297	5928.19
906.611	5910.34
906.924	5860.17
907.237	5887.97
907.551	5890.68
907.864	5843.22
908.177	5784.24
908.491	5837.35
908.804	5747.63
909.117	5761.64
909.43	5757.8
909.743	5687.07
910.056	5701.98
910.368	5643.68
910.681	5622.44
910.994	5593.74
911.307	5589.9
911.619	5515.77
911.932	5514.87
912.244	5481.2
912.557	5516.45
912.869	5443.68
913.181	5471.25
913.494	5452.95
913.806	5373.86
914.118	5345.38
914.43	5371.82
914.742	5358.72
915.054	5390.8
915.366	5354.87
915.678	5290.02
915.99	5290.24
916.302	5204.37
916.613	5199.85
916.925	5178.15
917.236	5212.28
917.548	5163.24
917.859	5176.57
918.171	5170.92
918.482	5082.79
918.794	5043.24
919.105	5038.27
919.416	5022.45
919.727	4999.4
920.038	4991.95
920.349	4980.87
920.66	4950.14
920.971	4979.52
921.282	4947.88
921.593	4919.86
921.903	4865.17
922.214	4837.6
922.525	4822.91
922.835	4842.12
923.146	4744.72
923.456	4763.93
923.767	4803.02
924.077	4776.13
924.387	4748.34
924.697	4698.39
925.008	4703.37
925.318	4649.36
925.628	4642.58
925.938	4686.19
926.248	4608.9
926.558	4580.66
926.867	4560.54
927.177	4576.14
927.487	4562.13
927.796	4522.58
928.106	4528.23
928.416	4513.77
928.725	4446.42
929.034	4389.47
929.344	4452.07
929.653	4389.93
929.962	4368.01
930.271	4391.96
930.581	4366.2
930.89	4310.61
931.199	4300.66
931.508	4292.08
931.817	4317.61
932.125	4265.64
932.434	4324.62
932.743	4232.19
933.051	4242.81
933.36	4224.96
933.669	4141.35
933.977	4150.16
934.286	4160.33
934.594	4107.45
934.902	4089.82
935.21	4098.41
935.519	4080.1
935.827	4059.99
936.135	4016.38
936.443	4010.73
936.751	4020.9
937.059	4034.23
937.367	3959.88
937.674	3974.57
937.982	3968.24
938.29	3932.99
938.597	3947.68
938.905	3895.25
939.213	3891.41
939.52	3838.08
939.827	3864.97
940.135	3859.55
940.442	3803.73
940.749	3818.19
941.056	3816.83
941.363	3749.49
941.67	3758.76
941.977	3764.41
942.284	3769.6
942.591	3700.68
942.898	3711.3
943.205	3698.19
943.511	3685.99
943.818	3662.04
944.125	3629.95
944.431	3625.43
944.738	3623.85
945.044	3594.24
945.35	3601.93
945.657	3541.81
945.963	3533
946.269	3498.42
946.575	3548.82
946.881	3528.71
947.187	3478.76
947.493	3431.53
947.799	3476.73
948.105	3443.06
948.41	3383.17
948.716	3414.59
949.022	3379.56
949.327	3397.64
949.633	3385.89
949.938	3331.88
950.244	3343.85
950.549	3342.72
950.854	3330.52
951.16	3309.73
951.465	3326.23
951.77	3267.24
952.075	3307.92
952.38	3269.73
952.685	3250.75
952.99	3255.49
953.294	3255.72
953.599	3173.91
953.904	3196.06
954.209	3147.7
954.513	3133.46
954.818	3121.71
955.122	3168.26
955.426	3126.01
955.731	3069.06
956.035	3119.45
956.339	3054.14
956.643	3055.05
956.948	3012.34
957.252	3036.97
957.556	3053.01
957.86	2995.84
958.163	3014.37
958.467	2951.77
958.771	2963.07
959.075	3010.98
959.378	2942.51
959.682	2980.7
959.985	2901.6
960.289	2932.79
960.592	2900.02
960.896	2904.77
961.199	2878.33
961.502	2885.56
961.805	2874.26
962.108	2828.16
962.411	2833.13
962.714	2826.13
963.017	2802.62
963.32	2832
963.623	2772.34
963.926	2761.5
964.228	2787.48
964.531	2740.93
964.833	2747.03
965.136	2738.9
965.438	2713.36
965.741	2731.89
966.043	2705.68
966.345	2729.41
966.648	2695.06
966.95	2650.54
967.252	2639.24
967.554	2621.39
967.856	2643.31
968.158	2621.84
968.46	2583.65
968.761	2600.14
969.063	2606.02
969.365	2570.09
969.666	2548.85
969.968	2554.27
970.269	2520.15
970.571	2540.03
970.872	2522.18
971.174	2539.81
971.475	2515.17
971.776	2518.56
972.077	2482.18
972.378	2454.38
972.679	2464.78
972.98	2456.19
973.281	2425.01
973.582	2426.14
973.883	2425.46
974.183	2441.05
974.484	2421.62
974.785	2417.78
975.085	2379.81
975.386	2361.73
975.686	2342.98
975.986	2335.29
976.287	2377.1
976.587	2339.59
976.887	2353.14
977.187	2313.82
977.487	2320.83
977.787	2315.63
978.087	2264.33
978.387	2282.86
978.687	2279.47
978.987	2246.93
979.286	2253.94
979.586	2218.46
979.885	2228.18
980.185	2194.96
980.484	2218.68
980.784	2212.58
981.083	2187.5
981.382	2201.96
981.682	2170.55
981.981	2195.41
982.28	2161.06
982.579	2121.29
982.878	2149.08
983.177	2180.49
983.475	2128.07
983.774	2116.09
984.073	2085.58
984.372	2132.81
984.67	2084.68
984.969	2089.87
985.267	2072.25
985.566	2044
985.864	2059.59
986.162	2074.06
986.461	2060.72
986.759	2035.41
987.057	2017.79
987.355	2014.62
987.653	1983.44
987.951	1981.85
988.249	1987.28
988.547	1995.19
988.844	1981.63
989.142	1970.56
989.44	1928.75
989.737	1938.92
990.035	1947.51
990.332	1915.87
990.63	1914.06
990.927	1945.47
991.224	1920.16
991.521	1908.86
991.819	1886.49
992.116	1836.77
992.413	1854.4
992.71	1849.88
993.006	1860.73
993.303	1854.17
993.6	1837.45
993.897	1835.42
994.193	1811.01
994.49	1807.62
994.787	1816.66
995.083	1784.8
995.379	1799.94
995.676	1761.3
995.972	1801.52
996.268	1753.39
996.565	1758.13
996.861	1757.91
997.157	1749.54
997.453	1758.36
997.749	1718.58
998.044	1708.64
998.34	1722.65
998.636	1706.83
998.932	1676.55
999.227	1680.85
999.523	1702.54
999.818	1651.24
1000.114	1648.98
1000.409	1674.52
1000.704	1624.12
1001	1610.34
1001.295	1633.16
1001.59	1646.04
1001.885	1589.1
1002.18	1587.97
1002.475	1592.26
1002.77	1607.18
1003.065	1580.06
1003.359	1571.24
1003.654	1559.49
1003.949	1544.58
1004.243	1549.32
1004.538	1510.23
1004.832	1563.33
1005.127	1532.6
1005.421	1516.78
1005.715	1485.82
1006.009	1482.21
1006.304	1481.08
1006.598	1459.61
1006.892	1474.3
1007.186	1467.07
1007.48	1472.72
1007.773	1424.36
1008.067	1463.22
1008.361	1435.88
1008.655	1460.29
1008.948	1401.98
1009.242	1433.17
1009.535	1394.98
1009.829	1370.57
1010.122	1415.32
1010.415	1421.19
1010.708	1365.15
1011.001	1365.37
1011.295	1336.22
1011.588	1330.12
1011.881	1359.72
1012.173	1329.44
1012.466	1327.63
1012.759	1350.46
1013.052	1351.36
1013.344	1327.63
1013.637	1302.1
1013.93	1288.09
1014.222	1317.69
1014.514	1292.83
1014.807	1267.07
1015.099	1267.07
1015.391	1296
1015.683	1274.08
1015.976	1263.91
1016.268	1244.92
1016.56	1237.69
1016.851	1221.65
1017.143	1228.43
1017.435	1231.82
1017.727	1214.87
1018.018	1213.74
1018.31	1193.4
1018.602	1194.98
1018.893	1189.33
1019.185	1200.63
1019.476	1166.73
1019.767	1171.03
1020.058	1187.75
1020.35	1170.12
1020.641	1151.59
1020.932	1149.56
1021.223	1129.22
1021.514	1127.64
1021.804	1129.9
1022.095	1103.46
1022.386	1115.89
1022.677	1096.91
1022.967	1088.54
1023.258	1093.52
1023.548	1084.03
1023.839	1088.32
1024.129	1061.2
1024.419	1059.62
1024.709	1033.63
1025	1055.33
1025.29	1039.51
1025.58	1047.64
1025.87	1007.19
1026.16	1008.55
1026.449	1049.68
1026.739	1019.85
1027.029	1020.07
1027.319	994.08
1027.608	993.18
1027.898	979.4
1028.187	966.06
1028.477	995.21
1028.766	970.36
1029.055	972.16
1029.344	956.8
1029.634	950.24
1029.923	961.09
1030.212	958.83
1030.501	954.76
1030.79	920.19
1031.078	917.93
1031.367	911.15
1031.656	924.93
1031.945	901.66
1032.233	920.87
1032.522	894.2
1032.81	901.43
1033.099	908.44
1033.387	886.06
1033.675	867.76
1033.963	868.21
1034.251	874.99
1034.54	865.95
1034.828	858.95
1035.116	868.66
1035.403	870.25
1035.691	852.39
1035.979	862.56
1036.267	820.53
1036.554	847.65
1036.842	856.01
1037.129	840.42
1037.417	816.01
1037.704	806.07
1037.992	819.17
1038.279	828.44
1038.566	811.94
1038.853	811.94
1039.14	811.94
