Data from breadboard_white_FLMS001491_00099.txt Node
Date: Wed Feb 08 10:48:34 GMT 2017
User: dcchb
Spectrometer: FLMS00149
Trigger mode: 0
Integration Time (sec): 2.000000E-2
Scans to average: 10
Electric dark correction enabled: true
Nonlinearity correction enabled: false
Boxcar width: 0
XAxis mode: Wavelengths
Number of Pixels in Spectrum: 2048
>>>>>Begin Spectral Data<<<<<
341.393	-0.06
341.776	-0.06
342.16	-0.06
342.543	-48.42
342.927	-60.85
343.31	-61.3
343.693	-67.17
344.077	-61.52
344.46	-50
344.843	-48.42
345.226	-56.78
345.61	-34.86
345.993	-25.82
346.376	-5.93
346.759	5.82
347.142	27.29
347.525	48.76
347.908	50.11
348.291	79.26
348.674	88.3
349.057	112.26
349.44	144.12
349.823	126.72
350.206	195.19
350.588	212.14
350.971	219.82
351.354	242.65
351.737	250.78
352.119	280.61
352.502	284.23
352.884	270.9
353.267	274.29
353.65	295.98
354.032	305.47
354.414	321.07
354.797	301.4
355.179	335.08
355.562	319.94
355.944	335.53
356.326	349.99
356.709	325.13
357.091	364.23
357.473	354.28
357.855	356.09
358.238	359.03
358.62	355.19
359.002	348.41
359.384	359.03
359.766	373.94
360.148	359.26
360.53	356.54
360.912	373.94
361.294	343.44
361.676	366.26
362.057	366.71
362.439	362.42
362.821	360.16
363.203	335.08
363.584	336.21
363.966	334.4
364.348	340.27
364.729	343.66
365.111	345.7
365.493	353.83
365.874	333.49
366.256	346.6
366.637	331.69
367.019	341.86
367.4	326.49
367.781	338.69
368.163	315.42
368.544	357.22
368.925	338.01
369.306	342.31
369.688	342.31
370.069	350.67
370.45	340.95
370.831	334.62
371.212	355.64
371.593	323.78
371.974	330.1
372.355	326.49
372.736	335.75
373.117	338.01
373.498	346.83
373.879	337.79
374.26	341.18
374.641	357.22
375.021	347.73
375.402	357
375.783	352.48
376.163	378.69
376.544	361.97
376.925	362.19
377.305	366.49
377.686	352.93
378.066	366.71
378.447	352.25
378.827	340.05
379.208	355.41
379.588	367.17
379.968	374.4
380.349	351.35
380.729	363.32
381.109	378.24
381.489	392.25
381.87	374.85
382.25	394.96
382.63	404.23
383.01	399.71
383.39	398.8
383.77	399.71
384.15	403.55
384.53	405.81
384.91	401.97
385.29	423.89
385.67	407.84
386.049	414.62
386.429	423.66
386.809	428.86
387.189	415.75
387.568	409.65
387.948	428.18
388.328	448.52
388.707	438.58
389.087	447.84
389.466	427.05
389.846	427.95
390.225	459.14
390.605	452.59
390.984	457.33
391.363	456.65
391.743	454.62
392.122	467.95
392.501	509.31
392.881	487.61
393.26	468.86
393.639	478.8
394.018	486.26
394.397	491
394.776	507.95
395.155	499.82
395.534	526.03
395.913	528.97
396.292	516.54
396.671	534.17
397.05	525.81
397.429	575.75
397.808	560.38
398.186	566.71
398.565	571.45
398.944	560.38
399.323	572.81
399.701	602.41
400.08	584.79
400.458	604.22
400.837	594.73
401.215	612.58
401.594	614.84
401.972	653.94
402.351	662.3
402.729	649.64
403.107	660.72
403.486	669.53
403.864	678.34
404.242	693.71
404.62	698.46
404.999	714.28
405.377	722.86
405.755	754.95
406.133	767.61
406.511	739.36
406.889	761.51
407.267	805.12
407.645	808.96
408.023	795.4
408.401	832.24
408.779	837.89
409.156	860.26
409.534	857.77
409.912	887.15
410.29	889.19
410.667	906.36
411.045	938.45
411.422	938
411.8	959.69
412.178	992.01
412.555	996.75
412.933	1010.31
413.31	1015.96
413.687	1044.89
414.065	1054.61
414.442	1078.56
414.819	1105
415.197	1112.68
415.574	1153.59
415.951	1170.76
416.328	1165.79
416.705	1195.62
417.082	1172.57
417.46	1214.37
417.837	1214.37
418.214	1233.58
418.591	1260.25
418.967	1290.76
419.344	1279.01
419.721	1303.19
420.098	1326.24
420.475	1371.66
420.852	1366.01
421.228	1356.97
421.605	1367.82
421.982	1417.76
422.358	1410.3
422.735	1448.94
423.111	1441.49
423.488	1492.79
423.864	1449.62
424.241	1505.44
424.617	1523.97
424.994	1559.45
425.37	1557.64
425.746	1555.16
426.123	1579.56
426.499	1599.22
426.875	1652.78
427.251	1642.16
427.627	1687.13
428.003	1689.62
428.379	1769.39
428.756	1783.17
429.132	1802.16
429.507	1825.21
429.883	1829.95
430.259	1852.1
430.635	1876.28
431.011	1872.44
431.387	1933
431.763	1970.97
432.138	1972.32
432.514	2020.68
432.89	2061.13
433.265	2050.29
433.641	2099.78
434.016	2128.48
434.392	2122.83
434.767	2220.68
435.143	2193.56
435.518	2244.86
435.894	2259.32
436.269	2300.9
436.644	2290.05
437.02	2337.51
437.395	2344.97
437.77	2397.62
438.145	2459.09
438.52	2432.87
438.895	2469.71
439.271	2462.93
439.646	2565.07
440.021	2556.26
440.395	2562.36
440.77	2525.3
441.145	2577.95
441.52	2636.71
441.895	2685.75
442.27	2648.69
442.645	2653.89
443.019	2710.83
443.394	2720.55
443.769	2762.58
444.143	2717.61
444.518	2808.01
444.892	2819.98
445.267	2806.88
445.641	2886.2
446.016	2898.17
446.39	2885.97
446.764	2910.6
447.139	2927.32
447.513	2977.94
447.887	3005.97
448.262	3025.85
448.636	3018.4
449.01	3017.94
449.384	3067.21
449.758	3108.56
450.132	3181.55
450.506	3178.17
450.88	3200.99
451.254	3179.97
451.628	3213.64
452.002	3288.44
452.376	3323.02
452.75	3340.87
453.123	3352.85
453.497	3415.9
453.871	3442.34
454.244	3555.78
454.618	3535.44
454.992	3649.79
455.365	3590.81
455.739	3695.67
456.112	3725.72
456.486	3755.1
456.859	3820.86
457.232	3849.33
457.606	3861.54
457.979	3951.93
458.352	4044.81
458.725	4050.46
459.099	4132.72
459.472	4186.95
459.845	4192.38
460.218	4230.34
460.591	4308.98
460.964	4323.45
461.337	4448.19
461.71	4437.79
462.083	4580.61
462.456	4589.88
462.829	4591.46
463.201	4703.32
463.574	4678.69
463.947	4793.49
464.32	4875.52
464.692	4928.18
465.065	4919.81
465.438	5031.22
465.81	5056.08
466.183	5123.2
466.555	5305.11
466.928	5349.63
467.3	5300.82
467.672	5386.02
468.045	5534.94
468.417	5567.03
468.789	5589.63
469.161	5659.68
469.534	5751.43
469.906	5895.16
470.278	5941.26
470.65	6044.98
471.022	6159.1
471.394	6233.45
471.766	6319.78
472.138	6371.53
472.51	6498.53
472.882	6592.99
473.253	6668.24
473.625	6811.97
473.997	6943.26
474.369	6999.76
474.74	7028.23
475.112	7149.59
475.484	7369.47
475.855	7429.58
476.227	7517.71
476.598	7712.51
476.97	7821.21
477.341	8006.29
477.713	8043.8
478.084	8173.51
478.455	8401.76
478.827	8442.66
479.198	8644.46
479.569	8687.62
479.94	8897.56
480.311	9044.45
480.682	9273.82
481.053	9471.33
481.424	9555.85
481.795	9752.91
482.166	9880.14
482.537	10033.13
482.908	10177.3
483.279	10290.75
483.65	10472.66
484.021	10792.65
484.391	10797.85
484.762	10892.99
485.133	11003.95
485.503	11184.06
485.874	11498.62
486.244	11549.47
486.615	11817.26
486.985	11908.78
487.356	12143.58
487.726	12210.7
488.097	12467.86
488.467	12585.15
488.837	12849.55
489.207	12967.29
489.578	13179.26
489.948	13271.68
490.318	13489.76
490.688	13462.87
491.058	13714.16
491.428	14006.35
491.798	14108.05
492.168	14401.82
492.538	14352.79
492.908	14629.39
493.278	14851.98
493.648	14832.55
494.017	15047.01
494.387	15215.59
494.757	15313.67
495.126	15496.49
495.496	15578.29
495.866	15665.97
496.235	15845.18
496.605	16001.1
496.974	16004.49
497.344	16235.22
497.713	16441.55
498.082	16472.05
498.452	16696.23
498.821	16776
499.19	16860.74
499.559	17079.95
499.928	17153.84
500.298	17246.5
500.667	17413.27
501.036	17472.03
501.405	17719.48
501.774	17769.87
502.143	17898.91
502.512	17923.09
502.88	18151.78
503.249	18196.53
503.618	18263.42
503.987	18389.06
504.356	18473.13
504.724	18747.93
505.093	18746.34
505.462	18989.5
505.83	19004.64
506.199	19209.38
506.567	19461.35
506.936	19431.52
507.304	19689.6
507.672	19817.05
508.041	19866.31
508.409	20077.61
508.777	20253.42
509.145	20343.59
509.514	20395.79
509.882	20577.26
510.25	20676.01
510.618	20749.68
510.986	20908.09
511.354	21170.91
511.722	21266.05
512.09	21564.35
512.458	21444.58
512.826	21826.04
513.193	21969.54
513.561	21948.74
513.929	22156.42
514.297	22377.21
514.664	22545.57
515.032	22644.77
515.4	22778.1
515.767	22999.79
516.135	23153.91
516.502	23069.17
516.869	23454.24
517.237	23622.15
517.604	23543.05
517.972	23819.88
518.339	24065.75
518.706	24082.7
519.073	24257.16
519.44	24402.69
519.808	24792.51
520.175	24708.67
520.542	25022.11
520.909	25172.84
521.276	25267.53
521.643	25535.09
522.009	25737.8
522.376	25917.23
522.743	26172.36
523.11	26415.97
523.477	26741.16
523.843	26792.23
524.21	27052.79
524.577	27300.24
524.943	27453.23
525.31	27508.6
525.676	27836.5
526.043	27980.9
526.409	28274.45
526.776	28502.47
527.142	28504.5
527.508	28760.32
527.874	28976.81
528.241	29137.03
528.607	29267.87
528.973	29576.11
529.339	29604.59
529.705	29927.52
530.071	30238.02
530.437	30243.22
530.803	30335.19
531.169	30678.01
531.535	30697.22
531.901	30824.44
532.267	31035.74
532.632	31170.88
532.998	31337.42
533.364	31433.24
533.73	31673.69
534.095	31793.01
534.461	31901.48
534.826	32270.73
535.192	32333.1
535.557	32336.95
535.923	32440.67
536.288	32658.52
536.653	32874.33
537.019	32830.94
537.384	33095.57
537.749	33218.51
538.114	33125.4
538.479	33249.46
538.845	33536.01
539.21	33405.17
539.575	33597.25
539.94	33682.22
540.305	33938.03
540.67	33944.14
541.034	34091.02
541.399	34290.57
541.764	34409.89
542.129	34532.14
542.494	34508.19
542.858	34755.87
543.223	34878.8
543.587	35110.88
543.952	34875.64
544.316	35173.93
544.681	35200.6
545.045	35398.79
545.41	35573.02
545.774	35609.4
546.138	35689.4
546.503	35919.45
546.867	35781.6
547.231	36178.65
547.595	36183.85
547.959	36329.84
548.324	36427.69
548.688	36502.03
549.052	36605.99
549.416	36639.66
549.779	36765.53
550.143	36782.93
550.507	37083.26
550.871	37119.87
551.235	37323.03
551.599	37528.45
551.962	37626.75
552.326	37800.31
552.689	37927.53
553.053	37856.58
553.417	38070.58
553.78	38651.58
554.143	38466.5
554.507	38668.76
554.87	38688.87
555.234	39030.33
555.597	38971.8
555.96	39159.82
556.323	39218.12
556.686	39363.2
557.05	39527.27
557.413	39716.19
557.776	39846.35
558.139	40111.88
558.502	40182.84
558.865	40135.16
559.228	40609.27
559.59	40705.54
559.953	40755.93
560.316	41101.46
560.679	41144.85
561.041	41443.37
561.404	41576.93
561.767	41728.34
562.129	41650.83
562.492	42019.18
562.854	42155.22
563.217	42061.21
563.579	42320.64
563.941	42652.16
564.304	42723.79
564.666	43064.8
565.028	43043.11
565.39	43191.35
565.753	43441.74
566.115	43593.37
566.477	43691
566.839	43909.98
567.201	44111.33
567.563	44191.78
567.925	44441.26
568.287	44393.13
568.648	44507.93
569.01	44802.61
569.372	45034.01
569.734	44977.52
570.095	45234.23
570.457	45379.09
570.819	45455.02
571.18	45518.52
571.542	45739.98
571.903	45776.37
572.265	45945.18
572.626	46056.13
572.987	46052.74
573.349	46255.9
573.71	46350.14
574.071	46462
574.432	46641.88
574.794	46932.27
575.155	46805.72
575.516	46677.36
575.877	46960.97
576.238	46930.69
576.599	47092.94
576.96	47106.05
577.32	47095.43
577.681	47317.34
578.042	47409.54
578.403	47356.89
578.763	47353.73
579.124	47463.78
579.485	47561.18
579.845	47570.9
580.206	47607.96
580.566	47744.68
580.927	47743.32
581.287	47938.57
581.648	47837.33
582.008	47866.26
582.368	47923.43
582.728	47955.52
583.089	47852.24
583.449	47917.78
583.809	48007.27
584.169	47942.64
584.529	47999.59
584.889	48150.77
585.249	47908.29
585.609	47916.88
585.969	48150.54
586.329	48065.57
586.688	48109.86
587.048	47965.46
587.408	48032.35
587.768	48080.94
588.127	47991.22
588.487	48002.98
588.846	48202.97
589.206	48057.44
589.565	48074.84
589.925	48170.2
590.284	48045.23
590.643	48122.97
591.003	48165.68
591.362	48421.27
591.721	48238.68
592.08	48231.67
592.44	48419.24
592.799	48352.57
593.158	48285.45
593.517	48282.29
593.876	48368.84
594.235	48253.82
594.593	48269.63
594.952	48423.98
595.311	48312.8
595.67	48358.67
596.029	48557.54
596.387	48553.02
596.746	48669.17
597.104	48535.62
597.463	48526.35
597.822	48585.33
598.18	48567.48
598.538	48549.18
598.897	48659.23
599.255	48446.81
599.613	48928.15
599.972	48607.25
600.33	48645.44
600.688	48705.78
601.046	48751.88
601.404	48849.05
601.762	48826.91
602.12	48912.78
602.478	49013.57
602.836	49062.38
603.194	48841.6
603.552	48918.66
603.91	48869.17
604.268	49160.23
604.625	48886.57
604.983	49121.36
605.341	48933.12
605.698	49150.29
606.056	49180.12
606.413	49132.21
606.771	49400.23
607.128	49341.25
607.485	49276.84
607.843	49079.56
608.2	49494.24
608.557	49632.31
608.914	49458.3
609.272	49602.26
609.629	49683.83
609.986	49756.6
610.343	49498.08
610.7	49868.24
611.057	49803.38
611.414	49655.36
611.771	49740.56
612.127	49861.01
612.484	49828.46
612.841	49960.44
613.198	49837.73
613.554	49915.47
613.911	50015.13
614.267	50131.05
614.624	50061.68
614.98	50199.75
615.337	50295.8
615.693	50223.71
616.05	50126.99
616.406	50356.13
616.762	50156.14
617.118	50331.05
617.475	50284.95
617.831	50370.82
618.187	50355.68
618.543	50487.88
618.899	50621.44
619.255	50519.07
619.611	50440.2
619.967	50581.66
620.323	50607.2
620.678	50574.88
621.034	50554.55
621.39	50450.14
621.746	50493.76
622.101	50878.83
622.457	50504.38
622.812	50634.54
623.168	50685.62
623.523	50666.63
623.879	50811.49
624.234	50615.11
624.589	50720.42
624.945	50690.14
625.3	50694.2
625.655	50705.73
626.01	50696.92
626.365	50692.17
626.72	50631.83
627.075	50574.88
627.43	50568.56
627.785	50498.73
628.14	50597.71
628.495	50635.22
628.85	50482.01
629.205	50414.89
629.559	50671.61
629.914	50462.8
630.269	50409.24
630.623	50390.93
630.978	50370.14
631.332	50550.7
631.687	50508.45
632.041	50386.64
632.396	50361.78
632.75	50269.36
633.104	50326.08
633.459	50108
633.813	50180.09
634.167	50100.32
634.521	50013.09
634.875	50101.45
635.229	50087.21
635.583	49912.76
635.937	49950.72
636.291	49840.44
636.645	49846.99
636.999	49784.4
637.352	49870.27
637.706	49707.56
638.06	49851.74
638.413	49620.56
638.767	49569.94
639.121	49588.02
639.474	49503.95
639.828	49418.31
640.181	49561.8
640.534	49440.68
640.888	49202.49
641.241	49162.04
641.594	49274.58
641.947	49219.44
642.301	49295.6
642.654	49237.29
643.007	49106.67
643.36	49155.94
643.713	48934.7
644.066	49146
644.419	48918.88
644.771	48765.89
645.124	48481.15
645.477	48326.36
645.83	48078.91
646.182	47825.13
646.535	47680.95
646.888	47736.54
647.24	47504.46
647.593	47667.39
647.945	47588.97
648.298	47404.12
648.65	47366.83
649.002	47320.28
649.355	47404.35
649.707	47350.11
650.059	47545.36
650.411	47992.81
650.763	48014.05
651.115	48370.42
651.467	48151.45
651.819	48094.27
652.171	48060.15
652.523	47918.68
652.875	48047.72
653.227	47773.38
653.578	48036.87
653.93	47950.77
654.282	47692.47
654.633	47679.59
654.985	47838.69
655.337	47718.24
655.688	47913.26
656.039	47922.07
656.391	47497.68
656.742	47569.31
657.094	47518.24
657.445	47572.7
657.796	47575.87
658.147	47501.29
658.498	47513.04
658.849	47564.79
659.2	47541.52
659.551	47491.12
659.902	47515.53
660.253	47408.19
660.604	47476.89
660.955	47234.86
661.306	47409.32
661.656	47144.01
662.007	47240.06
662.358	47162.55
662.708	47231.02
663.059	47166.84
663.409	46989.67
663.76	47339.26
664.11	47224.69
664.461	47333.61
664.811	47228.98
665.161	47177.23
665.511	47115.09
665.862	47023.79
666.212	47193.96
666.562	47284.12
666.912	47108.99
667.262	46988.09
667.612	47020.4
667.962	47019.95
668.312	47087.07
668.662	47218.81
669.011	46971.36
669.361	46958.26
669.711	47022.44
670.06	46887.52
670.41	46964.58
670.76	46929.11
671.109	46906.28
671.459	46871.93
671.808	46724.36
672.157	46812.95
672.507	46517.36
672.856	46509.68
673.205	46692.05
673.554	46740.18
673.904	46498.83
674.253	46638.94
674.602	46536.12
674.951	46012.74
675.3	45791.28
675.649	46422.45
675.998	46310.82
676.346	46401.21
676.695	46518.49
677.044	46189.24
677.393	46271.27
677.741	46276.69
678.09	46222.23
678.438	46018.17
678.787	46240.99
679.135	46082.57
679.484	45904.05
679.832	45931.84
680.181	45786.31
680.529	46045.51
680.877	45775.01
681.225	45619.76
681.573	46049.58
681.922	45654.34
682.27	45638.52
682.618	45568.46
682.966	45465.41
683.314	45631.74
683.661	45302.26
684.009	45235.82
684.357	45186.1
684.705	45017.29
685.053	45058.65
685.4	45090.51
685.748	44756.96
686.095	44724.87
686.443	44465.44
686.79	44584.31
687.138	44800.57
687.485	44594.7
687.832	44342.28
688.18	44625.89
688.527	44258.89
688.874	44310.19
689.221	44091.67
689.568	44063.19
689.915	43907.04
690.262	43973.48
690.609	43680.38
690.956	43711.11
691.303	43720.6
691.65	43477.9
691.997	43308.41
692.344	43211.46
692.69	43034.52
693.037	43145.48
693.383	42818.48
693.73	42875.2
694.077	42615.09
694.423	42628.65
694.769	42702.1
695.116	42511.14
695.462	42528.99
695.808	42383.01
696.155	42307.76
696.501	42117.03
696.847	42028.89
697.193	41859.41
697.539	41839.07
697.885	41606.53
698.231	41441.79
698.577	41609.7
698.923	41395.47
699.269	41255.58
699.614	41073.89
699.96	41028.47
700.306	41018.75
700.651	40950.73
700.997	40734.69
701.342	40674.58
701.688	40788.93
702.033	40431.2
702.379	40459.22
702.724	40247.7
703.069	40420.12
703.415	39910.08
703.76	39908.27
704.105	39828.5
704.45	39798.22
704.795	39512.8
705.14	39543.99
705.485	39489.07
705.83	39266.48
706.175	39451.56
706.52	39149.42
706.865	39073.04
707.209	39083.66
707.554	38960.5
707.899	38961.4
708.243	38751.47
708.588	38577.23
708.932	38431.48
709.277	38461.53
709.621	38473.06
709.966	38122.33
710.31	38260.63
710.654	37810.93
710.998	37972.96
711.342	37960.75
711.687	37818.38
712.031	37671.72
712.375	37527.32
712.719	37589.46
713.063	37475.34
713.407	37541.78
713.75	37384.72
714.094	37245.97
714.438	37058.63
714.782	37119.65
715.125	37101.11
715.469	36986.32
715.812	36848.01
716.156	36854.34
716.499	36633.1
716.843	36765.08
717.186	36595.14
717.53	36700.67
717.873	36615.93
718.216	36460.68
718.559	36393.11
718.902	36159.44
719.246	36339.33
719.589	36064.08
719.932	35942.73
720.275	35898.21
720.617	35907.25
720.96	35863.63
721.303	35863.18
721.646	35747.25
721.989	35599.23
722.331	35810.98
722.674	35476.98
723.016	35676.97
723.359	35393.14
723.701	35443.31
724.044	35212.58
724.386	35087.38
724.729	35272.69
725.071	34945.01
725.413	35120.6
725.755	35030.89
726.097	34851
726.439	34556.55
726.782	34641.29
727.124	34891.46
727.465	34720.39
727.807	34654.63
728.149	34458.02
728.491	34412.37
728.833	34545.48
729.175	34397.46
729.516	34281.3
729.858	34286.05
730.199	34152.94
730.541	34120.85
730.882	34062.32
731.224	34115.2
731.565	33853.06
731.906	33913.63
732.248	33933.06
732.589	33764.25
732.93	33613.07
733.271	33655.78
733.612	33662.11
733.953	33657.14
734.294	33564.94
734.635	33362.23
734.976	33568.33
735.317	33329.69
735.658	33360.65
735.999	33361.78
736.339	33207.66
736.68	33257.6
737.021	32996.82
737.361	33051.5
737.702	33142.35
738.042	32932.18
738.383	33023.93
738.723	32966.31
739.063	32789.14
739.404	32891.51
739.744	32815.58
740.084	32649.48
740.424	32647.45
740.764	32495.81
741.104	32658.75
741.444	32394.12
741.784	32298.08
742.124	32401.35
742.464	32228.7
742.804	32249.49
743.143	32265.31
743.483	32209.04
743.823	32003.85
744.162	32011.53
744.502	31985.09
744.841	31944.87
745.181	32124.07
745.52	31775.15
745.86	31888.14
746.199	31675.95
746.538	31530.41
746.877	31678.88
747.216	31671.43
747.556	31510.75
747.895	31471.88
748.234	31555.72
748.573	31339.68
748.911	31247.94
749.25	31313.92
749.589	31014.72
749.928	31198.45
750.267	31110.54
750.605	30920.49
750.944	30913.93
751.283	30731.34
751.621	30917.1
751.96	30805.46
752.298	30606.14
752.636	30609.08
752.975	30549.2
753.313	30433.95
753.651	30487.73
753.989	30282.09
754.327	30206.38
754.666	30059.94
755.004	29934.98
755.342	30091.13
755.679	30010.23
756.017	29808.43
756.355	29900.17
756.693	29812.72
757.031	29758.94
757.368	29531.37
757.706	29448.89
758.044	29388.55
758.381	29464.03
758.719	29393.29
759.056	29303.58
759.394	29268.55
759.731	29029.91
760.068	28907.21
760.405	28908.79
760.743	28781.33
761.08	28816.36
761.417	28661.56
761.754	28660.43
762.091	28495.92
762.428	28434.22
762.765	28170.73
763.102	28399.87
763.438	28126.44
763.775	28048.47
764.112	28083.5
764.449	28066.55
764.785	27903.62
765.122	27715.15
765.458	27652.1
765.795	27670.85
766.131	27490.07
766.467	27429.05
766.804	27342.5
767.14	27184.54
767.476	27226.12
767.812	27027.71
768.148	26977.54
768.485	26814.38
768.821	26700.03
769.157	26688.06
769.492	26626.81
769.828	26570.77
770.164	26222.98
770.5	26177.79
770.836	26253.49
771.171	26028.64
771.507	26035.19
771.842	25852.82
772.178	25762.43
772.513	25726.5
772.849	25651.92
773.184	25519.05
773.519	25538.48
773.855	25424.36
774.19	25305.04
774.525	25223.01
774.86	25132.62
775.195	25043.8
775.53	24962.68
775.865	24855.56
776.2	24662.12
776.535	24481.56
776.87	24385.07
777.205	24412.18
777.539	24303.26
777.874	24265.07
778.209	24103.04
778.543	24055.13
778.878	23874.12
779.212	23998.86
779.547	23879.32
779.881	23941.23
780.215	23654.91
780.55	23684.29
780.884	23560.68
781.218	23447.91
781.552	23500.79
781.886	23404.3
782.22	23160.92
782.554	23218.09
782.888	22935.61
783.222	22800.93
783.556	22650.2
783.889	22730.19
784.223	22610.2
784.557	22435.29
784.89	22516.87
785.224	22343.31
785.557	22335.4
785.891	22256.31
786.224	22217.89
786.558	22098.8
786.891	21910.1
787.224	21787.39
787.557	21793.95
787.891	21736.77
788.224	21680.96
788.557	21695.42
788.89	21552.15
789.223	21454.52
789.556	21428.31
789.888	21374.75
790.221	21298.59
790.554	21111.7
790.887	21027.64
791.219	21083.68
791.552	20953.29
791.884	20820.19
792.217	20802.79
792.549	20742
792.882	20637.37
793.214	20479.41
793.546	20561.66
793.879	20456.35
794.211	20317.83
794.543	20328
794.875	20203.71
795.207	20275.57
795.539	20123.26
795.871	20117.15
796.203	19889.14
796.535	19887.56
796.867	19765.07
797.198	19796.49
797.53	19601.91
797.862	19568.24
798.193	19610.05
798.525	19455.25
798.856	19543.84
799.188	19318.98
799.519	19240.57
799.85	19118.08
800.182	19145.2
800.513	19122.15
800.844	19021.59
801.175	18966.68
801.506	18998.77
801.837	18933.01
802.168	18815.04
802.499	18728.04
802.83	18605.33
803.161	18682.39
803.491	18641.04
803.822	18510.19
804.153	18485.11
804.483	18259.58
804.814	18315.62
805.145	18353.36
805.475	18243.53
805.805	18229.52
806.136	18246.02
806.466	18093.71
806.796	18126.25
807.126	17899.81
807.457	17886.03
807.787	17921.51
808.117	17829.53
808.447	17811.68
808.777	17864.56
809.107	17691.46
809.436	17593.61
809.766	17565.81
810.096	17539.14
810.426	17493.27
810.755	17411.92
811.085	17489.2
811.414	17368.53
811.744	17251.69
812.073	17164.69
812.403	17270
812.732	17115.88
813.061	17128.08
813.39	17068.87
813.719	16939.61
814.049	17064.35
814.378	16988.65
814.707	16988.88
815.036	16919.05
815.365	16713.63
815.693	16591.15
816.022	16681.76
816.351	16587.53
816.68	16488.1
817.008	16564.25
817.337	16518.15
817.665	16323.81
817.994	16366.07
818.322	16401.77
818.651	16298.5
818.979	16227.77
819.307	16279.52
819.636	16161.55
819.964	16141.89
820.292	16217.14
820.62	16228.9
820.948	16094.21
821.276	16068.45
821.604	16085.85
821.932	16105.96
822.259	16031.61
822.587	16019.86
822.915	16030.48
823.243	16113.19
823.57	15987.55
823.898	15989.81
824.225	15891.28
824.553	15908.23
824.88	15948.45
825.207	16023.93
825.535	15915.01
825.862	15928.34
826.189	15938.28
826.516	16037.04
826.843	16019.18
827.17	16005.17
827.497	16043.59
827.824	15923.82
828.151	15981.9
828.478	16002.46
828.805	16045.62
829.131	15885.85
829.458	15890.6
829.785	15904.84
830.111	15927.89
830.438	15971.5
830.764	15917.27
831.09	15989.81
831.417	15865.52
831.743	15969.24
832.069	15828.23
832.395	15825.52
832.722	15887.21
833.048	15810.15
833.374	15743.26
833.7	15716.37
834.026	15774.22
834.351	15756.59
834.677	15738.74
835.003	15739.87
835.329	15648.35
835.654	15698.29
835.98	15683.15
836.306	15669.59
836.631	15712.52
836.956	15616.71
837.282	15627.78
837.607	15577.16
837.932	15465.3
838.258	15528.8
838.583	15431.4
838.908	15353.44
839.233	15355.92
839.558	15335.13
839.883	15278.19
840.208	15318.64
840.533	15221.01
840.858	15285.19
841.182	15243.84
841.507	15265.98
841.832	15123.61
842.156	15101.69
842.481	15063.5
842.805	15052.2
843.13	15019.21
843.454	14929.49
843.778	14899.89
844.103	14896.05
844.427	14839.78
844.751	14815.37
845.075	14771.76
845.399	14738.31
845.723	14655.38
846.047	14700.57
846.371	14528.83
846.695	14575.61
847.019	14418.55
847.343	14471.43
847.666	14321.83
847.99	14254.03
848.313	14176.29
848.637	14136.52
848.96	14122.96
849.284	14113.02
849.607	13915.74
849.931	13963.64
850.254	13871.22
850.577	13763.65
850.9	13793.25
851.223	13767.27
851.546	13655.63
851.869	13443.88
852.192	13591.22
852.515	13452.7
852.838	13327.73
853.161	13394.85
853.483	13308.97
853.806	13230.33
854.129	13316.88
854.451	13208.41
854.774	13139.49
855.096	13083.22
855.419	13092.71
855.741	12986.04
856.063	12960.28
856.385	12919.15
856.708	12893.16
857.03	12843.9
857.352	12836.89
857.674	12747.18
857.996	12722.09
858.318	12738.82
858.64	12681.42
858.961	12589.67
859.283	12612.04
859.605	12485.26
859.926	12571.14
860.248	12531.14
860.57	12517.81
860.891	12470.12
861.212	12388.32
861.534	12300.64
861.855	12262.9
862.176	12317.13
862.498	12364.59
862.819	12343.12
863.14	12181.09
863.461	12196.46
863.782	12141.09
864.103	12066.97
864.424	12096.57
864.745	12161.66
865.065	12042.11
865.386	12014.77
865.707	12082.34
866.027	11978.16
866.348	11969.8
866.668	11993.53
866.989	11840.31
867.309	11775.23
867.63	11778.84
867.95	11794.89
868.27	11782.91
868.59	11789.46
868.91	11769.58
869.23	11766.87
869.55	11698.62
869.87	11756.47
870.19	11716.47
870.51	11711.95
870.83	11689.35
871.15	11613.2
871.469	11582.24
871.789	11650.26
872.109	11561.45
872.428	11504.05
872.748	11575.68
873.067	11524.16
873.386	11529.13
873.706	11542.24
874.025	11382.02
874.344	11331.17
874.663	11460.21
874.982	11304.96
875.301	11381.11
875.62	11370.49
875.939	11258.18
876.258	11258.86
876.577	11301.57
876.896	11259.08
877.214	11247.11
877.533	11165.3
877.852	11216.37
878.17	11208.69
878.489	11123.49
878.807	11208.24
879.125	11159.42
879.444	11153.32
879.762	11176.37
880.08	11109.26
880.398	11063.16
880.716	11114
881.034	11003.04
881.352	11029.94
881.67	11047.79
881.988	10993.55
882.306	11009.82
882.624	10903.16
882.941	10904.06
883.259	10766.21
883.577	10785.65
883.894	10782.71
884.212	10843.27
884.529	10765.31
884.846	10736.84
885.164	10749.27
885.481	10659.1
885.798	10643.51
886.115	10638.99
886.432	10609.16
886.75	10620.68
887.067	10629.49
887.383	10565.09
887.7	10535.03
888.017	10496.62
888.334	10517.63
888.651	10403.74
888.967	10432.44
889.284	10385.21
889.6	10389.05
889.917	10190.18
890.233	10262.95
890.55	10212.78
890.866	10236.06
891.182	10158.32
891.498	10168.04
891.815	10088.72
892.131	10013.47
892.447	10097.08
892.763	10052.11
893.079	10020.25
893.395	9994.26
893.71	9909.74
894.026	9880.14
894.342	9942.73
894.657	9862.28
894.973	9825.45
895.289	9778.9
895.604	9780.03
895.92	9683.98
896.235	9727.37
896.55	9686.47
896.865	9675.85
897.181	9570.31
897.496	9629.29
897.811	9548.62
898.126	9524.21
898.441	9509.07
898.756	9453.48
899.071	9387.72
899.386	9353.14
899.7	9267.27
900.015	9379.36
900.33	9213.26
900.644	9224.79
900.959	9213.03
901.273	9241.06
901.588	9141.62
901.902	9131.68
902.216	9097.56
902.531	9057.11
902.845	9062.53
903.159	8981.63
903.473	8882.2
903.787	8892.59
904.101	8832.71
904.415	8834.06
904.729	8867.96
905.042	8733.95
905.356	8761.97
905.67	8747.74
905.984	8751.58
906.297	8674.74
906.611	8593.39
906.924	8602.2
907.237	8606.27
907.551	8513.84
907.864	8446.05
908.177	8433.62
908.491	8356.56
908.804	8369.67
909.117	8367.18
909.43	8247.64
909.743	8233.17
910.056	8260.97
910.368	8176.68
910.681	8113.4
910.994	8146.17
911.307	8152.95
911.619	8053.97
911.932	7990.69
912.244	7994.31
912.557	7974.2
912.869	7862.11
913.181	7900.07
913.494	7904.37
913.806	7844.26
914.118	7874.09
914.43	7816.91
914.742	7770.13
915.054	7701.21
915.366	7660.99
915.678	7656.92
915.99	7585.05
916.302	7556.13
916.613	7479.75
916.925	7536.24
917.236	7464.83
917.548	7506.41
917.859	7365.4
918.171	7357.94
918.482	7387.32
918.794	7319.3
919.105	7331.05
919.416	7263.03
919.727	7220.09
920.038	7220.54
920.349	7181.68
920.66	7128.8
920.971	7073.66
921.282	7110.27
921.593	7049.02
921.903	6983.71
922.214	6992.53
922.525	6981.91
922.835	6969.93
923.146	6935.13
923.456	6863.27
923.767	6879.99
924.077	6912.53
924.387	6726.77
924.697	6768.81
925.008	6684.06
925.318	6704.4
925.628	6665.3
925.938	6656.94
926.248	6619.2
926.558	6622.14
926.867	6598.64
927.177	6557.29
927.487	6500.79
927.796	6420.34
928.106	6437.97
928.416	6400.68
928.725	6411.75
929.034	6382.15
929.344	6323.39
929.653	6374.01
929.962	6264.41
930.271	6254.24
930.581	6237.75
930.89	6217.86
931.199	6122.04
931.508	6172.66
931.817	6144.87
932.125	6110.07
932.434	6033.46
932.743	6065.09
933.051	6026.9
933.36	6021.48
933.669	5973.8
933.977	5945.32
934.286	5914.36
934.594	5907.13
934.902	5846.8
935.21	5852.9
935.519	5829.17
935.827	5797.76
936.135	5755.05
936.443	5728.15
936.751	5684.31
937.059	5670.98
937.367	5666.24
937.674	5660.13
937.982	5648.61
938.29	5600.47
938.597	5624.2
938.905	5530.65
939.213	5549.4
939.52	5508.95
939.827	5487.03
940.135	5419.91
940.442	5380.82
940.749	5457.88
941.056	5442.74
941.363	5357.54
941.67	5361.84
941.977	5336.07
942.284	5296.53
942.591	5263.08
942.898	5271.22
943.205	5217.89
943.511	5239.81
943.818	5133.59
944.125	5135.4
944.431	5126.59
944.738	5141.05
945.044	5067.83
945.35	5033.03
945.657	5071.67
945.963	5035.52
946.269	4993.03
946.575	5019.47
946.881	4953.94
947.187	4966.14
947.493	4876.2
947.799	4897.89
948.105	4931.34
948.41	4848.18
948.716	4828.07
949.022	4847.5
949.327	4793.04
949.633	4793.49
949.938	4798.24
950.244	4821.96
950.549	4771.34
950.854	4722.53
951.16	4674.62
951.465	4681.4
951.77	4666.04
952.075	4616.55
952.38	4570.67
952.685	4576.09
952.99	4567.96
953.294	4524.12
953.599	4515.98
953.904	4489.32
954.209	4459.71
954.513	4466.49
954.818	4414.52
955.122	4425.36
955.426	4374.07
955.731	4367.29
956.035	4363.44
956.339	4331.13
956.643	4329.55
956.948	4292.94
957.252	4277.12
957.556	4273.28
957.86	4260.4
958.163	4227.4
958.467	4210.23
958.771	4194.64
959.075	4165.94
959.378	4161.42
959.682	4148.99
959.985	4106.73
960.289	4114.86
960.592	4071.93
960.896	4050.91
961.199	4008.43
961.502	3978.14
961.805	4000.06
962.108	3956.45
962.411	3970.46
962.714	3930.46
963.017	3915.09
963.32	3938.82
963.623	3905.6
963.926	3907.64
964.228	3881.42
964.531	3844.14
964.833	3836.9
965.136	3817.24
965.438	3808.2
965.741	3798.04
966.043	3755.1
966.345	3730.69
966.648	3698.6
966.95	3748.32
967.252	3687.53
967.554	3657.7
967.856	3651.37
968.158	3638.72
968.46	3672.16
968.761	3605.05
969.063	3587.42
969.365	3582
969.666	3564.14
969.968	3550.81
970.269	3514.65
970.571	3524.37
970.872	3511.04
971.174	3505.61
971.475	3479.63
971.776	3494.77
972.077	3455.22
972.378	3468.55
972.679	3421.77
972.98	3418.61
973.281	3408.44
973.582	3373.19
973.883	3370.25
974.183	3356.69
974.484	3339.97
974.785	3353.3
975.085	3281.44
975.386	3333.64
975.686	3268.56
975.986	3241.44
976.287	3251.84
976.587	3204.61
976.887	3182.01
977.187	3173.87
977.487	3184.72
977.787	3201.44
978.087	3195.57
978.387	3153.98
978.687	3152.85
978.987	3134.32
979.286	3086.87
979.586	3105.62
979.885	3096.13
980.185	3063.82
980.484	3017.94
980.784	3043.93
981.083	3031.28
981.382	2982.92
981.682	2990.6
981.981	2946.53
982.28	2983.82
982.579	2958.06
982.878	2954.22
983.177	2897.04
983.475	2922.35
983.774	2916.03
984.073	2876.93
984.372	2841.68
984.67	2857.5
984.969	2863.37
985.267	2845.97
985.566	2824.28
985.864	2789.02
986.162	2793.09
986.461	2778.63
986.759	2804.62
987.057	2756.26
987.355	2729.36
987.653	2755.8
987.951	2749.25
988.249	2736.82
988.547	2697.73
988.844	2646.43
989.142	2672.19
989.44	2681.23
989.737	2648.69
990.035	2631.96
990.332	2606.88
990.63	2600.1
990.927	2588.35
991.224	2579.31
991.521	2583.6
991.819	2567.11
992.116	2551.74
992.413	2538.63
992.71	2509.93
993.006	2570.5
993.303	2486.66
993.6	2507.45
993.897	2463.38
994.193	2462.93
994.49	2454.12
994.787	2447.79
995.083	2434.23
995.379	2416.6
995.676	2393.33
995.972	2386.77
996.268	2411.86
996.565	2380.22
996.861	2380.9
997.157	2327.57
997.453	2344.74
997.749	2321.92
998.044	2345.19
998.34	2322.82
998.636	2286.66
998.932	2277.4
999.227	2263.39
999.523	2267
999.818	2227.46
1000.114	2239.88
1000.409	2218.87
1000.704	2200.56
1001	2212.09
1001.295	2167.57
1001.59	2176.16
1001.885	2161.92
1002.18	2158.08
1002.475	2133.9
1002.77	2133.22
1003.065	2103.62
1003.359	2103.62
1003.654	2089.83
1003.949	2032.88
1004.243	2053.67
1004.538	2033.11
1004.832	2051.41
1005.127	2042.6
1005.421	2029.95
1005.715	2018.42
1006.009	2021.59
1006.304	2016.16
1006.598	1969.84
1006.892	1971.87
1007.186	1952.43
1007.48	1914.02
1007.773	1950.17
1008.067	1925.99
1008.361	1894.81
1008.655	1897.07
1008.948	1890.97
1009.242	1869.72
1009.535	1839.44
1009.829	1839.22
1010.122	1842.83
1010.415	1860.69
1010.708	1817.3
1011.001	1808.71
1011.295	1825.66
1011.588	1795.6
1011.881	1778.65
1012.173	1768.71
1012.466	1752.67
1012.759	1756.73
1013.052	1768.48
1013.344	1761.03
1013.637	1731.65
1013.93	1719.22
1014.222	1703.18
1014.514	1711.99
1014.807	1691.2
1015.099	1697.53
1015.391	1675.38
1015.683	1637.87
1015.976	1602.16
1016.268	1650.97
1016.56	1603.07
1016.851	1622.27
1017.143	1609.84
1017.435	1595.38
1017.727	1594.93
1018.018	1576.17
1018.31	1562.39
1018.602	1557.64
1018.893	1561.71
1019.185	1541.6
1019.476	1542.5
1019.767	1511.32
1020.058	1505.44
1020.35	1473.13
1020.641	1495.72
1020.932	1486.46
1021.223	1459.57
1021.514	1492.79
1021.804	1435.16
1022.095	1448.27
1022.386	1433.35
1022.677	1417.53
1022.967	1392.22
1023.258	1434.03
1023.548	1412.11
1023.839	1375.95
1024.129	1374.37
1024.419	1349.51
1024.709	1331.21
1025	1356.74
1025.29	1363.3
1025.58	1346.57
1025.87	1330.98
1026.16	1332.79
1026.449	1327.14
1026.739	1304.32
1027.029	1275.84
1027.319	1293.69
1027.608	1269.74
1027.898	1267.71
1028.187	1244.2
1028.477	1267.93
1028.766	1232.45
1029.055	1243.98
1029.344	1218.22
1029.634	1222.96
1029.923	1211.89
1030.212	1193.36
1030.501	1192.91
1030.79	1191.32
1031.078	1182.06
1031.367	1144.55
1031.656	1154.26
1031.945	1163.98
1032.233	1146.81
1032.522	1137.99
1032.81	1095.28
1033.099	1130.08
1033.387	1100.71
1033.675	1112.91
1033.963	1094.15
1034.251	1074.49
1034.54	1095.51
1034.828	1075.85
1035.116	1084.43
1035.403	1115.39
1035.691	1058.67
1035.979	1049.63
1036.267	1058.22
1036.554	1060.03
1036.842	1017.32
1037.129	1038.11
1037.417	1019.35
1037.704	1014.38
1037.992	1021.16
1038.279	993.14
1038.566	999.01
1038.853	999.01
1039.14	999.01
