Data from breadboard_white_FLMS001491_00015.txt Node
Date: Wed Feb 08 10:47:20 GMT 2017
User: dcchb
Spectrometer: FLMS00149
Trigger mode: 0
Integration Time (sec): 2.000000E-2
Scans to average: 10
Electric dark correction enabled: true
Nonlinearity correction enabled: false
Boxcar width: 0
XAxis mode: Wavelengths
Number of Pixels in Spectrum: 2048
>>>>>Begin Spectral Data<<<<<
341.393	-9.15
341.776	-9.15
342.16	-9.15
342.543	-79.21
342.927	-64.52
343.31	-69.94
343.693	-62.94
344.077	-54.12
344.46	-62.26
344.843	-60
345.226	-54.35
345.61	-34.69
345.993	-16.84
346.376	-17.06
346.759	15.71
347.142	25.2
347.525	29.72
347.908	60.68
348.291	67.68
348.674	113.56
349.057	119.66
349.44	131.63
349.823	125.99
350.206	163.27
350.588	202.14
350.971	221.58
351.354	260.22
351.737	271.29
352.119	267.22
352.502	274.91
352.884	296.15
353.267	289.14
353.65	308.58
354.032	315.13
354.414	330.27
354.797	335.25
355.179	351.97
355.562	333.21
355.944	345.19
356.326	359.65
356.709	357.17
357.091	361.01
357.473	375.02
357.855	379.99
358.238	353.32
358.62	375.02
359.002	372.08
359.384	382.25
359.766	350.61
360.148	377.5
360.53	366.66
360.912	392.19
361.294	371.18
361.676	365.53
362.057	359.2
362.439	360.78
362.821	355.81
363.203	352.19
363.584	361.46
363.966	379.09
364.348	354.45
364.729	345.41
365.111	337.73
365.493	344.51
365.874	357.17
366.256	346.09
366.637	351.74
367.019	350.39
367.4	344.74
367.781	364.4
368.163	332.31
368.544	370.72
368.925	351.97
369.306	351.74
369.688	372.53
370.069	369.59
370.45	359.43
370.831	348.58
371.212	366.88
371.593	367.33
371.974	351.97
372.355	347
372.736	361.69
373.117	364.17
373.498	351.06
373.879	368.92
374.26	361.69
374.641	392.19
375.021	364.4
375.402	375.7
375.783	371.63
376.163	385.64
376.544	405.07
376.925	381.8
377.305	398.07
377.686	403.72
378.066	415.02
378.447	390.16
378.827	387.9
379.208	401.91
379.588	399.2
379.968	409.82
380.349	414.79
380.729	416.83
381.109	426.09
381.489	412.76
381.87	430.84
382.25	418.63
382.63	408.01
383.01	448.91
383.39	449.37
383.77	433.1
384.15	450.5
384.53	434.9
384.91	452.08
385.29	464.96
385.67	451.85
386.049	448.91
386.429	466.77
386.809	484.85
387.189	475.13
387.568	488.24
387.948	460.67
388.328	487.11
388.707	482.13
389.087	492.76
389.466	501.79
389.846	503.83
390.225	526.2
390.605	521.91
390.984	546.77
391.363	530.27
391.743	546.99
392.122	544.05
392.501	540.44
392.881	552.87
393.26	551.51
393.639	572.75
394.018	572.98
394.397	580.44
394.776	582.24
395.155	599.42
395.534	608.46
395.913	609.14
396.292	606.42
396.671	633.99
397.05	627.67
397.429	633.77
397.808	660.21
398.186	645.07
398.565	660.43
398.944	680.1
399.323	659.98
399.701	725.52
400.08	702.24
400.458	711.96
400.837	735.69
401.215	729.59
401.594	737.95
401.972	775.91
402.351	780.43
402.729	782.92
403.107	786.08
403.486	833.76
403.864	818.62
404.242	811.62
404.62	843.25
404.999	863.14
405.377	884.16
405.755	886.19
406.133	899.07
406.511	909.24
406.889	944.72
407.267	979.97
407.645	998.05
408.023	983.14
408.401	1027.88
408.779	1030.14
409.156	1072.85
409.534	1028.11
409.912	1071.5
410.29	1124.15
410.667	1123.47
411.045	1176.81
411.422	1171.83
411.8	1200.99
412.178	1229.46
412.555	1244.6
412.933	1280.98
413.31	1297.03
413.687	1287.99
414.065	1332.96
414.442	1379.29
414.819	1365.73
415.197	1393.75
415.574	1439.17
415.951	1425.39
416.328	1489.34
416.705	1474.42
417.082	1522.78
417.46	1527.08
417.837	1538.38
418.214	1565.5
418.591	1590.35
418.967	1604.59
419.344	1598.72
419.721	1667.19
420.098	1662.22
420.475	1694.31
420.852	1729.33
421.228	1726.17
421.605	1770.24
421.982	1784.92
422.358	1776.34
422.735	1807.52
423.111	1818.37
423.488	1863.34
423.864	1883.23
424.241	1914.64
424.617	1914.86
424.994	1958.93
425.37	1957.8
425.746	1964.13
426.123	2022.88
426.499	2012.49
426.875	2044.35
427.251	2111.02
427.627	2167.97
428.003	2188.08
428.379	2203.67
428.756	2189.21
429.132	2254.29
429.507	2283.22
429.883	2287.06
430.259	2336.77
430.635	2362.99
431.011	2384.46
431.387	2493.61
431.763	2497
432.138	2532.7
432.514	2578.58
432.89	2583.55
433.265	2642.53
433.641	2672.36
434.016	2673.49
434.392	2759.59
434.767	2801.85
435.143	2790.77
435.518	2826.71
435.894	2893.6
436.269	2961.84
436.644	2969.98
437.02	2967.72
437.395	3033.48
437.77	3067.6
438.145	3076.87
438.52	3091.78
438.895	3159.58
439.271	3190.31
439.646	3239.8
440.021	3301.04
440.395	3281.83
440.77	3312.12
441.145	3285.68
441.52	3361.83
441.895	3415.84
442.27	3420.14
442.645	3433.7
443.019	3488.16
443.394	3482.28
443.769	3546.46
444.143	3488.83
444.518	3608.83
444.892	3595.95
445.267	3656.51
445.641	3654.93
446.016	3702.16
446.39	3696.96
446.764	3737.87
447.139	3728.6
447.513	3780.8
447.887	3820.35
448.262	3848.6
448.636	3858.77
449.01	3905.55
449.384	3965.21
449.758	4005.88
450.132	4016.05
450.506	4105.09
450.88	4086.79
451.254	4085.43
451.628	4185.09
452.002	4194.58
452.376	4261.02
452.75	4272.99
453.123	4324.29
453.497	4415.82
453.871	4397.29
454.244	4541.46
454.618	4536.26
454.992	4612.2
455.365	4583.27
455.739	4742.81
456.112	4833.21
456.486	4832.75
456.859	4882.47
457.232	4982.81
457.606	4980.32
457.979	5018.51
458.352	5160.43
458.725	5222.8
459.099	5273.65
459.472	5359.75
459.845	5437.71
460.218	5448.78
460.591	5504.83
460.964	5567.2
461.337	5670.47
461.71	5754.76
462.083	5854.87
462.456	5842.9
462.829	5870.47
463.201	5975.78
463.574	6067.52
463.947	6164.02
464.32	6288.31
464.692	6361.08
465.065	6364.69
465.438	6405.82
465.81	6546.16
466.183	6615.08
466.555	6776.43
466.928	6842.64
467.3	6791.12
467.672	6947.73
468.045	7127.38
468.417	7135.07
468.789	7255.97
469.161	7367.38
469.534	7376.42
469.906	7592.68
470.278	7633.13
470.65	7803.98
471.022	7951.99
471.394	8104.08
471.766	8135.04
472.138	8216.62
472.51	8371.64
472.882	8534.8
473.253	8593.79
473.625	8731.18
473.997	8982.25
474.369	9004.17
474.74	9140.21
475.112	9295.69
475.484	9420.66
475.855	9609.8
476.227	9729.12
476.598	9997.14
476.97	10093.86
477.341	10256.57
477.713	10386.28
478.084	10549.44
478.455	10845.93
478.827	10935.42
479.198	11221.96
479.569	11238.69
479.94	11563.42
480.311	11674.16
480.682	11967.26
481.053	12292.45
481.424	12413.57
481.795	12493.12
482.166	12707.12
482.537	12921.81
482.908	13208.81
483.279	13280.44
483.65	13610.83
484.021	13798.62
484.391	13950.48
484.762	14054.66
485.133	14272.73
485.503	14392.5
485.874	14750.01
486.244	14918.14
486.615	15143.22
486.985	15432.48
487.356	15651.68
487.726	15820.26
488.097	16033.82
488.467	16186.58
488.837	16486.01
489.207	16678.09
489.578	16949.72
489.948	17129.83
490.318	17443.5
490.688	17467
491.058	17771.17
491.428	17871.06
491.798	18141.78
492.168	18489.12
492.538	18548.1
492.908	18779.73
493.278	19073.06
493.648	19125.49
494.017	19340.4
494.387	19594.17
494.757	19681.86
495.126	19962.07
495.496	20094.05
495.866	20273.93
496.235	20410.2
496.605	20503.75
496.974	20722.73
497.344	21056.96
497.713	21070.07
498.082	21212.89
498.452	21433.45
498.821	21524.29
499.19	21610.84
499.559	21822.82
499.928	21998.63
500.298	22133.54
500.667	22366.08
501.036	22420.99
501.405	22663.92
501.774	22788.44
502.143	22924.48
502.512	23023.24
502.88	23188.66
503.249	23266.17
503.618	23512.72
503.987	23740.05
504.356	23676.1
504.724	24025.47
505.093	24038.35
505.462	24152.25
505.83	24371.45
506.199	24529.86
506.567	24838.78
506.936	24786.35
507.304	25213.24
507.672	25301.82
508.041	25442.38
508.409	25634.47
508.777	25825.87
509.145	26060.22
509.514	26129.82
509.882	26200.33
510.25	26342.92
510.618	26665.17
510.986	26773.87
511.354	27041.66
511.722	27214.31
512.09	27342.22
512.458	27382.44
512.826	27686.39
513.193	27995.76
513.561	28027.17
513.929	28225.59
514.297	28391.46
514.664	28744.67
515.032	28849.07
515.4	29041.61
515.767	29323.41
516.135	29363.18
516.502	29325.44
516.869	29962.49
517.237	29900.34
517.604	29978.53
517.972	30280.67
518.339	30501.23
518.706	30593.88
519.073	30819.64
519.44	31033.42
519.808	31372.4
520.175	31425.05
520.542	31842.44
520.909	31968.76
521.276	32018.25
521.643	32535.98
522.009	32689.42
522.376	32885.8
522.743	33094.16
523.11	33300.71
523.477	33692.56
523.843	34050.97
524.21	34288.7
524.577	34534.8
524.943	34732.76
525.31	34819.31
525.676	35330.71
526.043	35462.23
526.409	35594.43
526.776	36014.76
527.142	36060.86
527.508	36244.81
527.874	36680.05
528.241	36794.85
528.607	36988.52
528.973	37175.41
529.339	37184.45
529.705	37694.72
530.071	37926.57
530.437	38081.15
530.803	38308.26
531.169	38613.11
531.535	38529.72
531.901	38639.1
532.267	38928.81
532.632	39258.52
532.998	39255.35
533.364	39585.51
533.73	39684.04
534.095	39911.83
534.461	40054.2
534.826	40304.82
535.192	40464.81
535.557	40601.53
535.923	40676.11
536.288	40900.28
536.653	41137.34
537.019	41051.69
537.384	41287.16
537.749	41400.83
538.114	41636.08
538.479	41689.86
538.845	41866.81
539.21	41800.6
539.575	42039.91
539.94	42189.29
540.305	42476.51
540.67	42437.64
541.034	42685.77
541.399	42893.45
541.764	42798.31
542.129	43018.42
542.494	43114.46
542.858	43285.98
543.223	43390.38
543.587	43631.96
543.952	43529.14
544.316	43830.15
544.681	43908.79
545.045	44076.24
545.41	44252.06
545.774	44377.7
546.138	44388.1
546.503	44461.32
546.867	44514.2
547.231	45015.43
547.595	44974.07
547.959	45090.23
548.324	45101.07
548.688	45232.82
549.052	45448.64
549.416	45493.83
549.779	45520.27
550.143	45750.77
550.507	46023.31
550.871	46012.46
551.235	46141.27
551.599	46393.92
551.962	46525.9
552.326	46674.14
552.689	46868.71
553.053	46768.37
553.417	46861.93
553.78	47432.31
554.143	47201.58
554.507	47405.87
554.87	47503.95
555.234	47820.78
555.597	47729.25
555.96	48011.28
556.323	48114.33
556.686	48267.09
557.05	48449.91
557.413	48487.43
557.776	48669.12
558.139	48836.12
558.502	49038.6
558.865	49070.46
559.228	49362.88
559.59	49521.97
559.953	49478.13
560.316	49931.91
560.679	49907.73
561.041	50177.55
561.404	50238.57
561.767	50467.49
562.129	50253.48
562.492	50820.25
562.854	50855.95
563.217	50788.83
563.579	51083.29
563.941	51185.43
564.304	51351.76
564.666	51554.46
565.028	51561.92
565.39	51673.56
565.753	51853.44
566.115	51983.15
566.477	52055.02
566.839	52167.78
567.201	52393.09
567.563	52470.37
567.925	52640.54
568.287	52630.14
568.648	52710.37
569.01	52860.87
569.372	53201.2
569.734	52875.33
570.095	53234.42
570.457	53379.5
570.819	53409.56
571.18	53345.83
571.542	53624.47
571.903	53673.73
572.265	53794.63
572.626	53799.6
572.987	53879.37
573.349	53974.74
573.71	54048.64
574.071	54179.03
574.432	54193.04
574.794	54468.06
575.155	54395.52
575.516	54371.11
575.877	54477.78
576.238	54496.53
576.599	54620.6
576.96	54689.07
577.32	54596.42
577.681	54796.86
578.042	54816.98
578.403	54774.94
578.763	54847.03
579.124	54889.74
579.485	55030.08
579.845	55005.9
580.206	55050.87
580.566	55011.32
580.927	55016.97
581.287	55132.9
581.648	55114.14
582.008	55270.52
582.368	55102.39
582.728	55232.56
583.089	55172.9
583.449	55165.67
583.809	55255.84
584.169	55279.79
584.529	55223.07
584.889	55318.66
585.249	55196.85
585.609	55153.92
585.969	55330.18
586.329	55228.94
586.688	55327.92
587.048	55281.82
587.408	55184.42
587.768	55227.81
588.127	55161.83
588.487	55143.75
588.846	55320.01
589.206	55189.4
589.565	55202.5
589.925	55397.07
590.284	55276.63
590.643	55280.47
591.003	55308.49
591.362	55377.19
591.721	55345.78
592.08	55333.57
592.44	55411.99
592.799	55411.09
593.158	55310.52
593.517	55266.46
593.876	55421.71
594.235	55358.66
594.593	55415.61
594.952	55371.31
595.311	55301.03
595.67	55337.64
596.029	55534.7
596.387	55550.29
596.746	55585.09
597.104	55499.22
597.463	55514.59
597.822	55574.02
598.18	55453.12
598.538	55498.99
598.897	55593.68
599.255	55401.82
599.613	55761.13
599.972	55532.44
600.33	55617.18
600.688	55515.72
601.046	55605.88
601.404	55802.49
601.762	55652.66
602.12	55770.62
602.478	55868.93
602.836	55758.42
603.194	55675.26
603.552	55785.54
603.91	55660.34
604.268	55865.54
604.625	55804.52
604.983	55894.01
605.341	55809.72
605.698	55928.36
606.056	55981.92
606.413	55979.88
606.771	56008.81
607.128	56052.2
607.485	55937.63
607.843	56019.21
608.2	56170.61
608.557	56243.15
608.914	56176.94
609.272	56187.56
609.629	56266.66
609.986	56382.59
610.343	56220.56
610.7	56406.77
611.057	56348.46
611.414	56263.27
611.771	56259.88
612.127	56391.85
612.484	56420.32
612.841	56473.66
613.198	56364.96
613.554	56423.49
613.911	56593.65
614.267	56515.01
614.624	56591.62
614.98	56567.44
615.337	56629.36
615.693	56608.79
616.05	56538.74
616.406	56711.84
616.762	56607.89
617.118	56627.1
617.475	56649.92
617.831	56758.85
618.187	56760.2
618.543	56842.46
618.899	56896.02
619.255	56812.4
619.611	56832.06
619.967	56904.38
620.323	56952.51
620.678	56876.81
621.034	56804.72
621.39	56835.68
621.746	56827.77
622.101	57083.81
622.457	56809.01
622.812	56898.5
623.168	57015.56
623.523	57012.85
623.879	57027.99
624.234	56792.97
624.589	56917.94
624.945	57031.16
625.3	57056.69
625.655	56883.14
626.01	56932.18
626.365	56969.01
626.72	56915.9
627.075	56896.02
627.43	56904.83
627.785	56875.68
628.14	56819.41
628.495	56939.18
628.85	56853.08
629.205	56781.22
629.559	56847.21
629.914	56753.2
630.269	56749.81
630.623	56682.24
630.978	56591.62
631.332	56720.88
631.687	56716.14
632.041	56585.07
632.396	56621.9
632.75	56483.15
633.104	56496.48
633.459	56396.37
633.813	56391.4
634.167	56423.49
634.521	56420.1
634.875	56460.1
635.229	56376.48
635.583	56230.5
635.937	56232.08
636.291	56195.25
636.645	56205.19
636.999	56206.77
637.352	56211.29
637.706	55994.57
638.06	56140.33
638.413	56061.92
638.767	56003.84
639.121	55986.89
639.474	55864.86
639.828	55874.58
640.181	55889.72
640.534	55839.32
640.888	55771.3
641.241	55649.72
641.594	55747.8
641.947	55848.81
642.301	55638.65
642.654	55720.68
643.007	55685.88
643.36	55649.05
643.713	55583.51
644.066	55577.86
644.419	55533.12
644.771	55307.59
645.124	55073.69
645.477	55043.19
645.83	54769.75
646.182	54725.23
646.535	54535.85
646.888	54617.66
647.24	54381.06
647.593	54613.82
647.945	54517.55
648.298	54376.31
648.65	54350.1
649.002	54253.6
649.355	54337.89
649.707	54301.28
650.059	54374.95
650.411	54713.25
650.763	54847.26
651.115	55019.23
651.467	54977.42
651.819	54858.78
652.171	54759.58
652.523	54764.55
652.875	54686.36
653.227	54628.28
653.578	54809.97
653.93	54746.7
654.282	54701.73
654.633	54516.42
654.985	54644.78
655.337	54620.37
655.688	54574.27
656.039	54685.45
656.391	54350.55
656.742	54455.18
657.094	54358.01
657.445	54552.8
657.796	54443.65
658.147	54359.14
658.498	54354.39
658.849	54392.58
659.2	54383.09
659.551	54243.88
659.902	54442.3
660.253	54347.16
660.604	54366.82
660.955	54212.7
661.306	54334.28
661.656	54262.42
662.007	54263.77
662.358	54118.69
662.708	54187.84
663.059	54178.58
663.409	53978.81
663.76	54043.89
664.11	54087.28
664.461	54119.59
664.811	54081.18
665.161	54085.7
665.511	53988.52
665.862	53895.87
666.212	54038.92
666.562	54037.11
666.912	53942.2
667.262	53992.59
667.612	53985.59
667.962	53899.49
668.312	53824.23
668.662	53997.79
669.011	53915.76
669.361	53879.37
669.711	53802.09
670.06	53750.56
670.41	53710.79
670.76	53715.99
671.109	53823.1
671.459	53806.83
671.808	53571.59
672.157	53759.83
672.507	53542.89
672.856	53503.11
673.205	53594.64
673.554	53611.36
673.904	53434.87
674.253	53585.82
674.602	53472.83
674.951	53090.92
675.3	52907.2
675.649	53490.91
675.998	53417.24
676.346	53342.89
676.695	53452.27
677.044	53087.53
677.393	53206.85
677.741	53372.95
678.09	53185.61
678.438	53171.82
678.787	53226.96
679.135	53201.65
679.484	53001.88
679.832	53204.59
680.181	52890.47
680.529	52991.04
680.877	52911.94
681.225	52959.4
681.573	53081.66
681.922	52696.35
682.27	52743.36
682.618	52709.69
682.966	52626.3
683.314	52693.87
683.661	52580.88
684.009	52376.14
684.357	52374.56
684.705	52331.62
685.053	52303.37
685.4	52295.91
685.748	52066.54
686.095	52108.8
686.443	51960.78
686.79	51824.51
687.138	51954.91
687.485	51955.58
687.832	51801.01
688.18	51893.44
688.527	51673.56
688.874	51589.49
689.221	51496.39
689.568	51437.86
689.915	51382.72
690.262	51390.4
690.609	51219.11
690.956	51069.28
691.303	51050.07
691.65	50855.95
691.997	50860.02
692.344	50700.02
692.69	50645.56
693.037	50636.52
693.383	50334.83
693.73	50518.33
694.077	50217.78
694.423	50304.55
694.769	50063.66
695.116	50105.24
695.462	49967.16
695.808	49895.3
696.155	49987.05
696.501	49707.73
696.847	49751.35
697.193	49338.7
697.539	49479.72
697.885	49344.58
698.231	49093.96
698.577	49075.66
698.923	48975.1
699.269	48920.18
699.614	48661.43
699.96	48698.72
700.306	48710.47
700.651	48456.01
700.997	48390.25
701.342	48340.76
701.688	48166.76
702.033	48090.15
702.379	47984.84
702.724	47952.3
703.069	48046.99
703.415	47531.29
703.76	47459.88
704.105	47456.49
704.45	47463.5
704.795	47158.42
705.14	47054.02
705.485	47033.9
705.83	46783.29
706.175	46945.77
706.52	46688.83
706.865	46512.56
707.209	46562.73
707.554	46407.71
707.899	46458.55
708.243	46151.89
708.588	46185.34
708.932	45796.87
709.277	45848.85
709.621	46054.5
709.966	45510.55
710.31	45707.61
710.654	45500.61
710.998	45391.24
711.342	45310.33
711.687	45195.08
712.031	45075.54
712.375	45086.84
712.719	45158.02
713.063	44942.89
713.407	45008.65
713.75	44814.53
714.094	44748.99
714.438	44426.06
714.782	44554.2
715.125	44429.68
715.469	44377.93
715.812	44192.4
716.156	44016.13
716.499	44080.31
716.843	44127.99
717.186	43745.18
717.53	43917.38
717.873	43952.18
718.216	43836.93
718.559	43575.92
718.902	43483.26
719.246	43469.7
719.589	43305.42
719.932	43170.28
720.275	43192.2
720.617	43101.13
720.96	42935.48
721.303	43013.67
721.646	43129.37
721.989	42772.77
722.331	42871.75
722.674	42627.01
723.016	42567.36
723.359	42665.88
723.701	42581.14
724.044	42254.6
724.386	42134.37
724.729	42387.93
725.071	42156.97
725.413	42137.31
725.755	41968.73
726.097	41724.89
726.439	41672.01
726.782	41712.24
727.124	41890.76
727.465	41623.2
727.807	41548.85
728.149	41387.95
728.491	41291
728.833	41304.34
729.175	41206.49
729.516	41065.7
729.858	41079.26
730.199	41225.47
730.541	40934.86
730.882	40791.58
731.224	40862.09
731.565	40681.98
731.906	40781.87
732.248	40818.25
732.589	40493.96
732.93	40438.15
733.271	40444.47
733.612	40433.85
733.953	40506.39
734.294	40141.2
734.635	39959.74
734.976	40233.18
735.317	40010.13
735.658	39988.44
735.999	39850.82
736.339	39792.51
736.68	39880.87
737.021	39642.23
737.361	39602.24
737.702	39840.87
738.042	39502.13
738.383	39432.07
738.723	39591.84
739.063	39378.29
739.404	39498.96
739.744	39286.76
740.084	39209.93
740.424	39305.07
740.764	39018.75
741.104	39205.41
741.444	38873.67
741.784	38882.71
742.124	38814.01
742.464	38822.82
742.804	38741.24
743.143	38563.39
743.483	38744.86
743.823	38382.15
744.162	38452.44
744.502	38419.67
744.841	38254.47
745.181	38396.62
745.52	38226.9
745.86	38200.92
746.199	38079.11
746.538	37970.19
746.877	38060.58
747.216	38002.73
747.556	37891.77
747.895	37910.98
748.234	37651.1
748.573	37447.72
748.911	37566.81
749.25	37476.64
749.589	37407.49
749.928	37390.99
750.267	37265.12
750.605	37241.39
750.944	37193.94
751.283	36899.71
751.621	37148.29
751.96	36808.41
752.298	36812.03
752.636	36751.92
752.975	36500.62
753.313	36485.71
753.651	36585.14
753.989	36250.01
754.327	36236.22
754.666	36042.1
755.004	36004.82
755.342	36118.49
755.679	35966.17
756.017	35844.37
756.355	35890.92
756.693	35618.16
757.031	35750.59
757.368	35501.1
757.706	35575.67
758.044	35216.59
758.381	35397.6
758.719	35184.95
759.056	35102.01
759.394	34913.09
759.731	34844.39
760.068	34676.26
760.405	34629.71
760.743	34491.86
761.08	34439.43
761.417	34225.43
761.754	34166.9
762.091	34067.24
762.428	34090.74
762.765	33920.35
763.102	33858.66
763.438	33728.49
763.775	33643.75
764.112	33652.11
764.449	33615.73
764.785	33359.01
765.122	33125.12
765.458	33051.22
765.795	33135.51
766.131	32953.14
766.467	32875.86
766.804	32727.84
767.14	32532.82
767.476	32407.85
767.812	32434.51
768.148	32410.11
768.485	32211.24
768.821	31936.22
769.157	31862.78
769.492	31816.45
769.828	31841.54
770.164	31621.65
770.5	31465.27
770.836	31407.42
771.171	31216.92
771.507	31203.81
771.842	30909.81
772.178	30927.21
772.513	30825.52
772.849	30809.25
773.184	30611.51
773.519	30620.1
773.855	30337.85
774.19	30289.03
774.525	30297.62
774.86	30261.24
775.195	30173.78
775.53	29774.92
775.865	29770.63
776.2	29484.31
776.535	29459.23
776.87	29275.05
777.205	29251.55
777.539	29121.83
777.874	29112.57
778.209	28821.28
778.543	28988.5
778.878	28711
779.212	28616.76
779.547	28519.14
779.881	28478.91
780.215	28328.18
780.55	28384.68
780.884	28119.83
781.218	28103.78
781.552	28075.08
781.886	27766.84
782.22	27715.77
782.554	27645.49
782.888	27405.27
783.222	27296.8
783.556	27272.39
783.889	27095.22
784.223	27036.92
784.557	26937.71
784.89	26899.97
785.224	26715.12
785.557	26594.67
785.891	26520.55
786.224	26532.07
786.558	26420.44
786.891	26297.05
787.224	26133.89
787.557	26101.8
787.891	26145.19
788.224	25929.15
788.557	25879.43
788.89	25743.16
789.223	25613
789.556	25539.55
789.888	25488.93
790.221	25352.67
790.554	25205.33
790.887	25249.84
791.219	25176.4
791.552	25047.14
791.884	24939.34
792.217	24860.02
792.549	24662.97
792.882	24592.46
793.214	24473.37
793.546	24561.28
793.879	24387.49
794.211	24259.14
794.543	24332.13
794.875	24121.96
795.207	24347.5
795.539	23941.18
795.871	23996.32
796.203	23798.13
796.535	23656.67
796.867	23602.2
797.198	23501.64
797.53	23632.94
797.862	23336.67
798.193	23381.19
798.525	23221.2
798.856	23300.74
799.188	23004.71
799.519	22879.06
799.85	22719.06
800.182	22960.19
800.513	22833.18
800.844	22660.76
801.175	22733.75
801.506	22686.52
801.837	22532.4
802.168	22438.62
802.499	22498.73
802.83	22196.59
803.161	22258.06
803.491	22199.98
803.822	22142.58
804.153	21907.79
804.483	21796.15
804.814	21818.07
805.145	21775.59
805.475	21826.66
805.805	21671.86
806.136	21671.63
806.466	21589.15
806.796	21586.89
807.126	21488.36
807.457	21390.96
807.787	21354.81
808.117	21230.29
808.447	21183.28
808.777	21111.65
809.107	21057.64
809.436	20954.14
809.766	20924.53
810.096	20877.3
810.426	20859.45
810.755	20855.16
811.085	20654.26
811.414	20741.71
811.744	20562.96
812.073	20463.76
812.403	20496.52
812.732	20366.36
813.061	20389.41
813.39	20247.26
813.719	20090.21
814.049	20262.63
814.378	20181.05
814.707	20137.66
815.036	20103.77
815.365	19908.74
815.693	19860.16
816.022	19854.96
816.351	19742.87
816.68	19727.96
817.008	19701.74
817.337	19503.33
817.665	19403.22
817.994	19525.25
818.322	19573.16
818.651	19372.03
818.979	19224.24
819.307	19417.68
819.636	19316.89
819.964	19199.16
820.292	19277.57
820.62	19177.69
820.948	19209.1
821.276	19277.57
821.604	19077.8
821.932	19154.41
822.259	19209.33
822.587	19109.89
822.915	19121.42
823.243	19146.95
823.57	19064.02
823.898	19079.61
824.225	19017.01
824.553	19029.22
824.88	19000.97
825.207	18993.29
825.535	18962.1
825.862	19035.09
826.189	18912.61
826.516	18969.11
826.843	19136.78
827.17	19047.07
827.497	19078.48
827.824	19011.14
828.151	19115.99
828.478	18990.35
828.805	19086.62
829.131	19036.9
829.458	18939.73
829.785	18808.21
830.111	18915.32
830.438	18988.09
830.764	18871.26
831.09	18937.69
831.417	18774.99
831.743	18934.3
832.069	18892.27
832.395	18806.62
832.722	18841.43
833.048	18718.49
833.374	18746.51
833.7	18812.05
834.026	18695.67
834.351	18803.91
834.677	18683.01
835.003	18770.69
835.329	18638.49
835.654	18688.89
835.98	18597.14
836.306	18631.04
836.631	18475.11
836.956	18627.87
837.282	18561.88
837.607	18372.96
837.932	18448.67
838.258	18466.75
838.583	18392.62
838.908	18381.32
839.233	18339.29
839.558	18259.07
839.883	18196.02
840.208	18158.05
840.533	18185.85
840.858	18125.74
841.182	18098.85
841.507	18133.42
841.832	17959.19
842.156	17957.61
842.481	17928.23
842.805	17893.43
843.13	17826.54
843.454	17827.21
843.778	17719.42
844.103	17766.43
844.427	17732.98
844.751	17680.55
845.075	17628.8
845.399	17499.54
845.723	17452.08
846.047	17492.08
846.371	17306.32
846.695	17336.38
847.019	17170.73
847.343	17061.81
847.666	17011.64
847.99	16872.66
848.313	16962.83
848.637	16804.19
848.96	16809.39
849.284	16731.2
849.607	16573.69
849.931	16521.94
850.254	16339.12
850.577	16314.03
850.9	16211.66
851.223	16189.52
851.546	16055.06
851.869	16016.42
852.192	16104.32
852.515	15922.18
852.838	15813.26
853.161	15825.91
853.483	15780.72
853.806	15666.14
854.129	15615.97
854.451	15570.78
854.774	15579.59
855.096	15500.95
855.419	15375.98
855.741	15405.81
856.063	15329.43
856.385	15307.96
856.708	15246.72
857.03	15205.59
857.352	15271.8
857.674	15147.96
857.996	15061.64
858.318	14983.67
858.64	15043.79
858.961	14963.79
859.283	14982.09
859.605	14834.07
859.926	14951.36
860.248	14895.99
860.57	14740.52
860.891	14785.03
861.212	14651.71
861.534	14591.59
861.855	14659.84
862.176	14654.87
862.498	14536.68
862.819	14477.25
863.14	14472.27
863.461	14425.27
863.782	14467.08
864.103	14411.03
864.424	14356.8
864.745	14413.52
865.065	14306.4
865.386	14209.68
865.707	14267.53
866.027	14268.44
866.348	14188.89
866.668	14215.33
866.989	14098.95
867.309	14018.05
867.63	14099.18
867.95	14119.52
868.27	13908.67
868.59	13960.2
868.91	13925.62
869.23	14027.31
869.55	13826.87
869.87	13891.27
870.19	13832.52
870.51	13854.89
870.83	13758.62
871.15	13710.26
871.469	13656.93
871.789	13798.39
872.109	13697.61
872.428	13639.75
872.748	13651.73
873.067	13690.6
873.386	13578.06
873.706	13637.49
874.025	13551.85
874.344	13433.43
874.663	13506.2
874.982	13408.8
875.301	13411.74
875.62	13306.2
875.939	13325.41
876.258	13375.81
876.577	13284.28
876.896	13301.46
877.214	13213.78
877.533	13318.18
877.852	13228.47
878.17	13192.76
878.489	13246.77
878.807	13187.11
879.125	13079.09
879.444	13098.53
879.762	13015.14
880.08	13084.74
880.398	12980.79
880.716	13021.01
881.034	13060.11
881.352	12932.65
881.67	12961.35
881.988	12962.26
882.306	12847.68
882.624	12841.13
882.941	12801.36
883.259	12842.04
883.577	12825.76
883.894	12749.16
884.212	12764.75
884.529	12662.38
884.846	12664.41
885.164	12635.04
885.481	12572.44
885.798	12640.91
886.115	12521.59
886.432	12466.23
886.75	12478.65
887.067	12466.45
887.383	12381.03
887.7	12458.09
888.017	12343.97
888.334	12336.74
888.651	12313.91
888.967	12308.26
889.284	12234.37
889.6	12148.95
889.917	12040.47
890.233	12165.89
890.55	12035.05
890.866	12052.45
891.182	12047.71
891.498	11942.17
891.815	11981.49
892.131	11866.47
892.447	11856.52
892.763	11777.88
893.079	11747.15
893.395	11745.79
893.71	11720.93
894.026	11661.73
894.342	11659.24
894.657	11589.19
894.973	11598
895.289	11557.78
895.604	11463.31
895.92	11425.8
896.235	11274.17
896.55	11377.44
896.865	11355.52
897.181	11319.82
897.496	11379.25
897.811	11200.95
898.126	11165.24
898.441	11134.51
898.756	11157.33
899.071	11050.22
899.386	11109.65
899.7	10975.42
900.015	10862.65
900.33	10886.61
900.644	10805.7
900.959	10847.74
901.273	10768.42
901.588	10781.98
901.902	10698.14
902.216	10659.04
902.531	10585.82
902.845	10582.89
903.159	10546.05
903.473	10523.68
903.787	10511.25
904.101	10421.08
904.415	10392.16
904.729	10327.98
905.042	10347.86
905.356	10288.88
905.67	10223.8
905.984	10206.62
906.297	10173.4
906.611	10086.85
906.924	10083.92
907.237	10086.85
907.551	10024.48
907.864	9934.32
908.177	9910.59
908.491	9885.28
908.804	9812.74
909.117	9813.19
909.43	9768.44
909.743	9689.8
910.056	9687.99
910.368	9642.12
910.681	9567.55
910.994	9513.76
911.307	9499.98
911.619	9377.27
911.932	9426.76
912.244	9322.58
912.557	9382.24
912.869	9237.16
913.181	9278.29
913.494	9216.14
913.806	9190.15
914.118	9152.19
914.43	9050.72
914.742	9124.84
915.054	8989.26
915.366	8973.44
915.678	8976.15
915.99	8893.66
916.302	8825.87
916.613	8833.33
916.925	8839.2
917.236	8749.49
917.548	8712.88
917.859	8808.24
918.171	8689.38
918.482	8587.01
918.794	8579.1
919.105	8548.81
919.416	8446.44
919.727	8490.96
920.038	8405.77
920.349	8373.9
920.66	8372.77
920.971	8305.43
921.282	8278.77
921.593	8200.8
921.903	8116.28
922.214	8140.92
922.525	8129.16
922.835	8100.01
923.146	8060.24
923.456	7996.74
923.767	7946.34
924.077	7969.17
924.387	7916.52
924.697	7883.97
925.008	7824.99
925.318	7873.13
925.628	7820.92
925.938	7759.01
926.248	7732.79
926.558	7702.51
926.867	7633.13
927.177	7634.94
927.487	7629.06
927.796	7532.12
928.106	7524.66
928.416	7477.66
928.725	7503.87
929.034	7356.76
929.344	7392.69
929.653	7340.03
929.962	7342.52
930.271	7271.79
930.581	7243.76
930.89	7158.12
931.199	7143.2
931.508	7073.83
931.817	7052.13
932.125	7095.07
932.434	7069.08
932.743	7051.68
933.051	6985.01
933.36	6968.52
933.669	6858.92
933.977	6883.32
934.286	6860.72
934.594	6851.23
934.902	6783.66
935.21	6744.34
935.519	6777.56
935.827	6735.53
936.135	6693.27
936.443	6643.78
936.751	6583.67
937.059	6585.93
937.367	6611.01
937.674	6502.54
937.982	6518.13
938.29	6472.71
938.597	6468.42
938.905	6398.81
939.213	6365.37
939.52	6403.11
939.827	6275.88
940.135	6292.6
940.442	6276.78
940.749	6290.12
941.056	6285.37
941.363	6183.91
941.67	6230.23
941.977	6145.71
942.284	6126.05
942.591	6100.97
942.898	6114.75
943.205	6043.34
943.511	5988.2
943.818	6003.34
944.125	5945.04
944.431	5916.12
944.738	5924.03
945.044	5873.4
945.35	5858.72
945.657	5867.08
945.963	5778.72
946.269	5776.01
946.575	5737.82
946.881	5795.67
947.187	5762.45
947.493	5649.91
947.799	5683.58
948.105	5619.17
948.41	5637.7
948.716	5553.41
949.022	5604.03
949.327	5544.83
949.633	5526.07
949.938	5477.03
950.244	5505.28
950.549	5409.46
950.854	5363.81
951.16	5402.68
951.465	5352.51
951.77	5320.43
952.075	5298.5
952.38	5332.85
952.685	5264.38
952.99	5232.52
953.294	5217.6
953.599	5176.25
953.904	5116.36
954.209	5100.32
954.513	5143.93
954.818	5135.35
955.122	5074.33
955.426	5067.1
955.731	5010.83
956.035	5037.49
956.339	4974.67
956.643	4980.32
956.948	4923.15
957.252	4929.7
957.556	4894.22
957.86	4812.19
958.163	4860.55
958.467	4791.85
958.771	4789.82
959.075	4786.65
959.378	4761.57
959.682	4766.99
959.985	4711.4
960.289	4746.2
960.592	4689.71
960.896	4679.54
961.199	4609.03
961.502	4642.25
961.805	4593.21
962.108	4596.6
962.411	4567.45
962.714	4510.5
963.017	4491.07
963.32	4513.21
963.623	4515.7
963.926	4475.7
964.228	4429.15
964.531	4397.96
964.833	4400.9
965.136	4355.48
965.438	4359.55
965.741	4385.76
966.043	4305.08
966.345	4307.57
966.648	4289.94
966.95	4269.38
967.252	4214.69
967.554	4224.41
967.856	4171.98
968.158	4204.3
968.46	4133.34
968.761	4106.45
969.063	4110.06
969.365	4072.77
969.666	4112.32
969.968	4057.86
970.269	4028.26
970.571	4039.78
970.872	3982.38
971.174	3980.8
971.475	3973.57
971.776	3950.74
972.077	3956.17
972.378	3890.86
972.679	3907.58
972.98	3885.21
973.281	3855.38
973.582	3875.27
973.883	3834.36
974.183	3805.66
974.484	3832.1
974.785	3783.52
975.085	3814.02
975.386	3707.13
975.686	3707.36
975.986	3741.03
976.287	3693.12
976.587	3709.62
976.887	3601.15
977.187	3637.76
977.487	3685.44
977.787	3584.2
978.087	3603.41
978.387	3563.86
978.687	3591.66
978.987	3554.37
979.286	3528.38
979.586	3524.09
979.885	3509.85
980.185	3467.37
980.484	3443.86
980.784	3445.45
981.083	3455.62
981.382	3415.84
981.682	3440.25
981.981	3449.29
982.28	3368.84
982.579	3357.09
982.878	3341.95
983.177	3335.17
983.475	3303.75
983.774	3304.21
984.073	3311.89
984.372	3257.2
984.67	3279.57
984.969	3276.41
985.267	3281.61
985.566	3231.89
985.864	3200.25
986.162	3174.49
986.461	3172.68
986.759	3153.02
987.057	3136.53
987.355	3079.58
987.653	3110.54
987.951	3088.85
988.249	3084.1
988.547	3061.73
988.844	3040.94
989.142	3082.97
989.44	3045.68
989.737	3001.84
990.035	2983.99
990.332	2953.93
990.63	2939.02
990.927	2929.75
991.224	2916.42
991.521	2977.44
991.819	2894.05
992.116	2911.45
992.413	2891.11
992.71	2857.89
993.006	2855.18
993.303	2828.74
993.6	2827.16
993.897	2818.12
994.193	2797.78
994.49	2792.58
994.787	2767.05
995.083	2774.28
995.379	2769.76
995.676	2761.85
995.972	2710.32
996.268	2706.71
996.565	2669.87
996.861	2674.39
997.157	2674.39
997.453	2652.25
997.749	2628.29
998.044	2604.79
998.34	2578.12
998.636	2565.47
998.932	2579.93
999.227	2578.58
999.523	2552.59
999.818	2539.26
1000.114	2507.17
1000.409	2504.91
1000.704	2503.78
1001	2492.93
1001.295	2452.93
1001.59	2461.52
1001.885	2431.46
1002.18	2411.12
1002.475	2412.48
1002.77	2402.99
1003.065	2384.91
1003.359	2388.52
1003.654	2366.38
1003.949	2353.95
1004.243	2326.83
1004.538	2306.49
1004.832	2299.26
1005.127	2291.13
1005.421	2266.72
1005.715	2246.38
1006.009	2242.99
1006.304	2225.59
1006.598	2206.16
1006.892	2228.53
1007.186	2226.27
1007.48	2181.52
1007.773	2176.33
1008.067	2192.37
1008.361	2124.8
1008.655	2115.54
1008.948	2116.89
1009.242	2094.52
1009.535	2082.32
1009.829	2071.02
1010.122	2046.16
1010.415	2071.24
1010.708	2031.02
1011.001	2023.34
1011.295	2030.34
1011.588	2018.59
1011.881	2024.01
1012.173	1987.41
1012.466	1978.14
1012.759	1980.63
1013.052	1962.1
1013.344	1949.44
1013.637	1926.62
1013.93	1915.77
1014.222	1896.33
1014.514	1879.39
1014.807	1878.26
1015.099	1889.1
1015.391	1846.84
1015.683	1845.49
1015.976	1854.75
1016.268	1824.92
1016.56	1798.48
1016.851	1800.07
1017.143	1795.55
1017.435	1758.94
1017.727	1768.43
1018.018	1739.05
1018.31	1721.88
1018.602	1743.8
1018.893	1727.75
1019.185	1742.44
1019.476	1725.27
1019.767	1678.03
1020.058	1642.33
1020.35	1648.66
1020.641	1667.19
1020.932	1644.59
1021.223	1626.74
1021.514	1648.88
1021.804	1607.3
1022.095	1600.3
1022.386	1600.52
1022.677	1594.87
1022.967	1577.92
1023.258	1558.04
1023.548	1578.83
1023.839	1526.63
1024.129	1538.15
1024.419	1520.07
1024.709	1491.15
1025	1519.4
1025.29	1493.41
1025.58	1482.33
1025.87	1481.2
1026.16	1467.19
1026.449	1445.72
1026.739	1404.6
1027.029	1451.37
1027.319	1424.71
1027.608	1389.23
1027.898	1395.1
1028.187	1390.58
1028.477	1399.17
1028.766	1387.65
1029.055	1367.99
1029.344	1348.55
1029.634	1350.59
1029.923	1334.54
1030.212	1332.73
1030.501	1331.6
1030.79	1311.26
1031.078	1302.9
1031.367	1299.74
1031.656	1283.7
1031.945	1253.64
1032.233	1250.93
1032.522	1245.73
1032.81	1259.74
1033.099	1219.29
1033.387	1238.5
1033.675	1228.33
1033.963	1208.67
1034.251	1207.99
1034.54	1205.73
1034.828	1184.71
1035.116	1169.12
1035.403	1170.7
1035.691	1156.69
1035.979	1169.35
1036.267	1130.48
1036.554	1133.19
1036.842	1149.91
1037.129	1101.78
1037.417	1129.12
1037.704	1122.12
1037.992	1106.07
1038.279	1071.72
1038.566	1090.25
1038.853	1090.25
1039.14	1090.25
