Data from breadboard_black_back_FLMS001491_00053.txt Node
Date: Wed Feb 08 10:50:34 GMT 2017
User: dcchb
Spectrometer: FLMS00149
Trigger mode: 0
Integration Time (sec): 2.000000E-2
Scans to average: 10
Electric dark correction enabled: true
Nonlinearity correction enabled: false
Boxcar width: 0
XAxis mode: Wavelengths
Number of Pixels in Spectrum: 2048
>>>>>Begin Spectral Data<<<<<
341.393	-32.74
341.776	-32.74
342.16	-32.74
342.543	-54.66
342.927	-62.57
343.31	-80.87
343.693	-67.77
344.077	-90.59
344.46	-56.24
344.843	-53.08
345.226	-23.25
345.61	-25.51
345.993	-5.62
346.376	-18.73
346.759	5.45
347.142	31.44
347.525	27.82
347.908	81.61
348.291	77.99
348.674	94.26
349.057	103.08
349.44	128.39
349.823	159.57
350.206	158.67
350.588	196.41
350.971	226.69
351.354	232.34
351.737	239.34
352.119	249.51
352.502	269.4
352.884	265.11
353.267	274.15
353.65	306.91
354.032	301.94
354.414	324.99
354.797	319.57
355.179	316.18
355.562	332.22
355.944	332.67
356.326	341.49
356.709	333.58
357.091	344.43
357.473	361.37
357.855	361.83
358.238	351.88
358.62	353.01
359.002	341.49
359.384	359.57
359.766	373.35
360.148	348.95
360.53	340.58
360.912	352.56
361.294	353.92
361.676	339.68
362.057	354.82
362.439	349.62
362.821	332.9
363.203	347.14
363.584	339.23
363.966	323.64
364.348	324.99
364.729	327.25
365.111	333.13
365.493	357.98
365.874	321.38
366.256	328.83
366.637	348.27
367.019	338.32
367.4	334.93
367.781	334.48
368.163	341.71
368.544	334.26
368.925	337.65
369.306	353.01
369.688	344.43
370.069	357.98
370.45	349.4
370.831	341.04
371.212	343.97
371.593	344.43
371.974	342.17
372.355	369.96
372.736	334.03
373.117	347.82
373.498	342.62
373.879	353.01
374.26	343.52
374.641	338.32
375.021	346.01
375.402	358.66
375.783	367.25
376.163	372.67
376.544	374.93
376.925	368.15
377.305	348.95
377.686	365.22
378.066	374.48
378.447	355.27
378.827	374.26
379.208	381.71
379.588	373.35
379.968	383.3
380.349	380.36
380.729	396.63
381.109	405.89
381.489	401.15
381.87	380.81
382.25	383.75
382.63	391.2
383.01	388.94
383.39	398.44
383.77	416.51
384.15	414.48
384.53	421.71
384.91	402.73
385.29	427.14
385.67	410.19
386.049	436.85
386.429	423.52
386.809	424.88
387.189	443.41
387.568	438.89
387.948	424.88
388.328	432.56
388.707	441.15
389.087	430.07
389.466	457.42
389.846	457.42
390.225	445.21
390.605	456.06
390.984	458.77
391.363	451.09
391.743	468.04
392.122	476.4
392.501	454.48
392.881	486.57
393.26	492.44
393.639	482.73
394.018	513.24
394.397	512.78
394.776	514.82
395.155	478.43
395.534	510.07
395.913	511.65
396.292	514.37
396.671	531.09
397.05	533.8
397.429	522.73
397.808	535.61
398.186	527.47
398.565	546.23
398.944	552.33
399.323	569.05
399.701	541.93
400.08	553.01
400.458	561.37
400.837	565.21
401.215	570.86
401.594	605.89
401.972	565.21
402.351	577.64
402.729	569.05
403.107	568.6
403.486	586.68
403.864	590.3
404.242	619.67
404.62	628.94
404.999	613.12
405.377	614.7
405.755	630.75
406.133	621.93
406.511	659.45
406.889	658.54
407.267	642.72
407.645	646.34
408.023	655.15
408.401	647.47
408.779	664.42
409.156	667.81
409.534	686.79
409.912	694.02
410.29	703.29
410.667	719.56
411.045	728.82
411.422	737.86
411.8	764.3
412.178	758.43
412.555	757.97
412.933	773.57
413.31	772.21
413.687	775.6
414.065	795.94
414.442	783.51
414.819	793.68
415.197	809.72
415.574	830.74
415.951	804.53
416.328	830.06
416.705	847.69
417.082	838.42
417.46	832.1
417.837	848.82
418.214	875.26
418.591	878.42
418.967	847.69
419.344	872.32
419.721	905.99
420.098	904.41
420.475	931.3
420.852	903.28
421.228	935.37
421.605	924.98
421.982	934.24
422.358	966.56
422.735	969.95
423.111	978.08
423.488	970.62
423.864	967.01
424.241	992.09
424.617	996.61
424.994	1004.52
425.37	1010.62
425.746	1024.86
426.123	1073.67
426.499	1075.93
426.875	1063.28
427.251	1088.14
427.627	1096.72
428.003	1126.78
428.379	1135.14
428.756	1126.55
429.132	1150.28
429.507	1168.13
429.883	1193.67
430.259	1185.31
430.635	1180.56
431.011	1201.58
431.387	1221.69
431.763	1263.27
432.138	1237.28
432.514	1265.08
432.89	1283.38
433.265	1319.32
433.641	1325.19
434.016	1322.25
434.392	1368.13
434.767	1385.08
435.143	1389.82
435.518	1392.53
435.894	1396.6
436.269	1419.88
436.644	1402.93
437.02	1453.55
437.395	1457.17
437.77	1463.49
438.145	1512.08
438.52	1498.52
438.895	1505.3
439.271	1500.33
439.646	1557.28
440.021	1588.69
440.395	1585.07
440.77	1562.47
441.145	1579.87
441.52	1632.75
441.895	1613.55
442.27	1641.57
442.645	1654.67
443.019	1672.53
443.394	1635.47
443.769	1682.24
444.143	1672.07
444.518	1712.3
444.892	1720.66
445.267	1729.7
445.641	1743.03
446.016	1736.03
446.39	1762.02
446.764	1776.03
447.139	1781.9
447.513	1795.24
447.887	1801.11
448.262	1820.32
448.636	1818.96
449.01	1844.73
449.384	1851.96
449.758	1871.84
450.132	1906.42
450.506	1931.5
450.88	1893.09
451.254	1945.51
451.628	1953.65
452.002	1982.8
452.376	1975.57
452.75	2014.89
453.123	2029.81
453.497	2054.89
453.871	2075
454.244	2141.89
454.618	2169.69
454.992	2159.07
455.365	2197.71
455.739	2230.7
456.112	2259.18
456.486	2259.86
456.859	2309.35
457.232	2344.15
457.606	2344.83
457.979	2369.23
458.352	2410.59
458.725	2420.3
459.099	2460.98
459.472	2486.06
459.845	2506.63
460.218	2529.45
460.591	2599.51
460.964	2571.03
461.337	2636.8
461.71	2684.03
462.083	2697.81
462.456	2734.42
462.829	2796.34
463.201	2795.89
463.574	2803.8
463.947	2847.41
464.32	2927.63
464.692	2950.69
465.065	2955.43
465.438	2989.78
465.81	3031.36
466.183	3025.71
466.555	3132.15
466.928	3125.82
467.3	3083.79
467.672	3194.52
468.045	3296.21
468.417	3306.38
468.789	3329.66
469.161	3368.75
469.534	3447.85
469.906	3503.66
470.278	3571.69
470.65	3576.43
471.022	3623.66
471.394	3669.54
471.766	3695.98
472.138	3789.31
472.51	3815.3
472.882	3886.48
473.253	3946.59
473.625	3974.39
473.997	4097.32
474.369	4095.51
474.74	4140.03
475.112	4172.12
475.484	4328.28
475.855	4361.95
476.227	4413.47
476.598	4513.13
476.97	4581.6
477.341	4618.44
477.713	4703.63
478.084	4751.54
478.455	4894.81
478.827	4923.97
479.198	5068.14
479.569	5090.29
479.94	5208.25
480.311	5277.86
480.682	5368.25
481.053	5467.68
481.424	5587.68
481.795	5695.25
482.166	5719.88
482.537	5847.33
482.908	5935.92
483.279	5996.93
483.65	6100.66
484.021	6202.8
484.391	6319.41
484.762	6367.32
485.133	6401.67
485.503	6451.16
485.874	6603.92
486.244	6659.74
486.615	6814.09
486.985	6910.36
487.356	6943.8
487.726	7125.04
488.097	7244.58
488.467	7244.58
488.837	7399.61
489.207	7466.05
489.578	7543.56
489.948	7670.56
490.318	7774.74
490.688	7857.67
491.058	7930.44
491.428	8000.27
491.798	8151
492.168	8307.83
492.538	8358
492.908	8392.58
493.278	8543.98
493.648	8502.63
494.017	8687.03
494.387	8779.91
494.757	8830.53
495.126	8915.05
495.496	8922.51
495.866	9034.82
496.235	9191.88
496.605	9216.28
496.974	9292.67
497.344	9371.99
497.713	9419.67
498.082	9514.58
498.452	9602.04
498.821	9637.29
499.19	9655.37
499.559	9805.42
499.928	9918.41
500.298	9951.86
500.667	10076.37
501.036	9978.3
501.405	10150.5
501.774	10169.7
502.143	10309.14
502.512	10421
502.88	10391.85
503.249	10474.56
503.618	10487.21
503.987	10589.58
504.356	10695.57
504.724	10764.94
505.093	10818.5
505.462	10788.67
505.83	10960.64
506.199	10971.04
506.567	11140.98
506.936	11188.66
507.304	11309.79
507.672	11345.27
508.041	11429.78
508.409	11534.64
508.777	11692.15
509.145	11740.06
509.514	11778.48
509.882	11817.8
510.25	11867.74
510.618	11956.55
510.986	12021.63
511.354	12166.94
511.722	12185.7
512.09	12383.21
512.458	12343.21
512.826	12445.58
513.193	12629.07
513.561	12667.72
513.929	12770.31
514.297	12936.41
514.664	12959.91
515.032	13063.41
515.4	13133.47
515.767	13164.43
516.135	13248.72
516.502	13276.74
516.869	13483.74
517.237	13559.67
517.604	13598.54
517.972	13797.18
518.339	13843.96
518.706	13903.84
519.073	13950.4
519.44	14050.28
519.808	14287.56
520.175	14339.54
520.542	14452.53
520.909	14589.48
521.276	14614.79
521.643	14697.49
522.009	14850.49
522.376	14969.58
522.743	15075.56
523.11	15275.78
523.477	15390.36
523.843	15471.49
524.21	15635.78
524.577	15807.07
524.943	15762.1
525.31	15877.12
525.676	15950.8
526.043	16264.69
526.409	16280.28
526.776	16497.9
527.142	16466.04
527.508	16588.74
527.874	16715.52
528.241	16852.92
528.607	16923.88
528.973	17053.14
529.339	17110.09
529.705	17203.64
530.071	17485.9
530.437	17571.09
530.803	17637.3
531.169	17770.41
531.535	17797.53
531.901	17859.45
532.267	17930.63
532.632	18026.67
532.998	18123.85
533.364	18184.41
533.73	18296.95
534.095	18538.3
534.461	18588.47
534.826	18596.83
535.192	18734.22
535.557	18809.25
535.923	18771.74
536.288	18878.18
536.653	19005.86
537.019	18997.95
537.384	19151.16
537.749	19155.23
538.114	19227.77
538.479	19362.68
538.845	19426.18
539.21	19469.57
539.575	19517.26
539.94	19563.58
540.305	19665.73
540.67	19740.53
541.034	19809.68
541.399	19909.79
541.764	20057.35
542.129	20096.67
542.494	20208.76
542.858	20201.76
543.223	20235.65
543.587	20351.36
543.952	20332.15
544.316	20544.8
544.681	20430.23
545.045	20565.14
545.41	20769.65
545.774	20800.16
546.138	20754.06
546.503	20977.56
546.867	20852.14
547.231	21132.13
547.595	21113.15
547.959	21180.49
548.324	21328.28
548.688	21352.24
549.052	21437.43
549.416	21467.03
549.779	21493.25
550.143	21531.67
550.507	21698.67
550.871	21834.26
551.235	21737.99
551.599	22012.33
551.962	22039
552.326	22039.22
552.689	22252.78
553.053	22172.33
553.417	22252.32
553.78	22532.09
554.143	22582.03
554.507	22549.49
554.87	22615.48
555.234	22857.96
555.597	22806.21
555.96	22949.26
556.323	22989.71
556.686	23054.79
557.05	23299.53
557.413	23292.98
557.776	23459.75
558.139	23589.24
558.502	23521.9
558.865	23723.92
559.228	23874.43
559.59	23918.95
559.953	24020.19
560.316	24186.28
560.679	24243.91
561.041	24373.17
561.404	24527.07
561.767	24622.66
562.129	24491.36
562.492	24928.41
562.854	24889.54
563.217	24986.72
563.579	24897.45
563.941	25259.25
564.304	25330.21
564.666	25422.18
565.028	25480.49
565.39	25560.03
565.753	25710.09
566.115	25804.1
566.477	25920.48
566.839	25992.79
567.201	26234.37
567.563	26172.22
567.925	26417.19
568.287	26424.64
568.648	26592.78
569.01	26634.81
569.372	26735.6
569.734	26673.23
570.095	26886.33
570.457	27048.81
570.819	27094.23
571.18	27110.28
571.542	27223.49
571.903	27238.18
572.265	27403.6
572.626	27541
572.987	27477.5
573.349	27632.07
573.71	27771.5
574.071	27891.72
574.432	27936.69
574.794	28143.24
575.155	28030.48
575.516	27980.76
575.877	28171.04
576.238	28213.07
576.599	28269.79
576.96	28463.69
577.32	28465.72
577.681	28472.05
578.042	28591.14
578.403	28529
578.763	28554.98
579.124	28649.9
579.485	28723.11
579.845	28788.65
580.206	28780.29
580.566	28838.37
580.927	28926.95
581.287	29014.63
581.648	28813.73
582.008	29138.02
582.368	29055.54
582.728	29083.33
583.089	28927.63
583.449	29020.96
583.809	29078.36
584.169	29003.56
584.529	29035.87
584.889	29252.82
585.249	29154.06
585.609	28996.1
585.969	29269.77
586.329	29156.32
586.688	29294.85
587.048	29060.96
587.408	29166.94
587.768	29207.85
588.127	29180.05
588.487	29030.68
588.846	29284.68
589.206	29148.87
589.565	29089.66
589.925	29262.54
590.284	29100.05
590.643	29208.98
591.003	29356.32
591.362	29443.1
591.721	29380.05
592.08	29418.92
592.44	29405.81
592.799	29382.31
593.158	29405.81
593.517	29410.78
593.876	29454.85
594.235	29344.79
594.593	29364.68
594.952	29517.9
595.311	29338.24
595.67	29458.46
596.029	29641.51
596.387	29676.76
596.746	29763.31
597.104	29597.89
597.463	29558.35
597.822	29742.52
598.18	29549.08
598.538	29626.37
598.897	29798.34
599.255	29447.39
599.613	29939.35
599.972	29731.45
600.33	29811.45
600.688	29677.44
601.046	29826.14
601.404	29957.66
601.762	29821.39
602.12	29979.35
602.478	30074.72
602.836	30070.88
603.194	29950.65
603.552	29944.33
603.91	29867.04
604.268	30127.6
604.625	29904.55
604.983	30232.68
605.341	30146.13
605.698	30222.06
606.056	30344.54
606.413	30158.11
606.771	30362.39
607.128	30344.54
607.485	30180.25
607.843	30323.75
608.2	30350.64
608.557	30599.22
608.914	30485.33
609.272	30565.33
609.629	30580.24
609.986	30652.78
610.343	30519
610.7	30816.39
611.057	30841.03
611.414	30589.28
611.771	30818.65
612.127	30847.35
612.484	30863.4
612.841	30941.14
613.198	30869.27
613.554	30897.07
613.911	31103.62
614.267	31142.49
614.624	31010.06
614.98	31156.72
615.337	31240.34
615.693	31183.62
616.05	31035.37
616.406	31318.98
616.762	31257.29
617.118	31203.73
617.475	31214.12
617.831	31381.12
618.187	31378.41
618.543	31442.14
618.899	31603.49
619.255	31577.73
619.611	31494.34
619.967	31599.2
620.323	31655.47
620.678	31524.17
621.034	31477.39
621.39	31527.56
621.746	31464.29
622.101	31724.17
622.457	31635.35
622.812	31593.55
623.168	31640.55
623.523	31718.06
623.879	31706.54
624.234	31524.17
624.589	31758.74
624.945	31665.86
625.3	31598.75
625.655	31669.25
626.01	31697.95
626.365	31848.46
626.72	31715.35
627.075	31703.15
627.43	31668.12
627.785	31606.65
628.14	31647.11
628.495	31688.23
628.85	31619.31
629.205	31535.47
629.559	31735.92
629.914	31549.03
630.269	31565.98
630.623	31509.71
630.978	31417.06
631.332	31446.43
631.687	31535.47
632.041	31429.94
632.396	31467.22
632.75	31424.74
633.104	31444.17
633.459	31303.16
633.813	31305.87
634.167	31312.88
634.521	31252.09
634.875	31222.94
635.229	31190.62
635.583	31091.41
635.937	31116.95
636.291	31068.36
636.645	31122.83
636.999	30939.78
637.352	31019.1
637.706	30811.65
638.06	30922.38
638.413	30979.78
638.767	30896.39
639.121	31054.8
639.474	30744.53
639.828	30785.89
640.181	30717.41
640.534	30704.76
640.888	30617.75
641.241	30461.6
641.594	30551.99
641.947	30707.24
642.301	30492.33
642.654	30517.87
643.007	30520.13
643.36	30474.48
643.713	30419.34
644.066	30516.06
644.419	30314.49
644.771	30146.13
645.124	29957.21
645.477	29749.08
645.83	29603.09
646.182	29328.07
646.535	29415.53
646.888	29451.91
647.24	29220.28
647.593	29442.64
647.945	29314.29
648.298	29220.95
648.65	29092.6
649.002	29078.59
649.355	29211.46
649.707	29139.15
650.059	29278.35
650.411	29541.62
650.763	29526.48
651.115	30016.64
651.467	29780.49
651.819	29846.48
652.171	29761.05
652.523	29618.01
652.875	29659.59
653.227	29508.4
653.578	29744.1
653.93	29632.24
654.282	29375.98
654.633	29498.24
654.985	29531.23
655.337	29391.8
655.688	29548.86
656.039	29499.59
656.391	29268.64
656.742	29452.14
657.094	29375.53
657.445	29484.45
657.796	29500.72
658.147	29301.63
658.498	29272.03
658.849	29235.64
659.2	29333.27
659.551	29212.82
659.902	29293.04
660.253	29288.98
660.604	29269.99
660.955	29085.82
661.306	29320.39
661.656	29145.7
662.007	29153.61
662.358	29035.65
662.708	29109.09
663.059	29120.62
663.409	28861.19
663.76	29111.13
664.11	29081.98
664.461	29056.44
664.811	29089.21
665.161	29011.02
665.511	28926.05
665.862	29034.07
666.212	29072.26
666.562	29075.65
666.912	28983.67
667.262	28993.62
667.612	28974.63
667.962	28917.69
668.312	28897.12
668.662	29084.24
669.011	28970.34
669.361	28936.22
669.711	28905.93
670.06	28962.88
670.41	28725.6
670.76	28773.96
671.109	28866.61
671.459	28796.79
671.808	28583.46
672.157	28817.35
672.507	28512.95
672.856	28709.78
673.205	28633.17
673.554	28715.21
673.904	28650.8
674.253	28703.45
674.602	28718.6
674.951	28164.71
675.3	27986.41
675.649	28580.07
675.998	28383.69
676.346	28452.39
676.695	28503.46
677.044	28347.98
677.393	28446.96
677.741	28367.42
678.09	28222.56
678.438	28285.39
678.787	28382.56
679.135	28344.37
679.484	28135.11
679.832	28263.24
680.181	28108.22
680.529	28146.41
680.877	28107.09
681.225	28014.43
681.573	28165.84
681.922	28091.27
682.27	27985.51
682.618	28065.96
682.966	27878.39
683.314	27948.9
683.661	27679.53
684.009	27703.71
684.357	27684.95
684.705	27703.25
685.053	27657.61
685.4	27627.78
685.748	27596.82
686.095	27356.37
686.443	27305.75
686.79	27240.22
687.138	27294
687.485	27404.05
687.832	27256.49
688.18	27208.35
688.527	27127.22
688.874	27042.71
689.221	27004.97
689.568	26885.2
689.915	26931.75
690.262	26901.02
690.609	26887
690.956	26686.78
691.303	26647.01
691.65	26498.54
691.997	26555.26
692.344	26415.83
692.69	26323.86
693.037	26260.81
693.383	26128.38
693.73	26248.6
694.077	25992.79
694.423	26098.33
694.769	25944.2
695.116	25886.58
695.462	25884.55
695.808	25772.68
696.155	25797.54
696.501	25682.06
696.847	25664.44
697.193	25389.42
697.539	25529.07
697.885	25255.41
698.231	25326.37
698.577	25356.65
698.923	25274.84
699.269	25148.97
699.614	25031.23
699.96	24920.73
700.306	25022.87
700.651	24861.07
700.997	24826.49
701.342	24820.84
701.688	24761.41
702.033	24635.09
702.379	24552.38
702.724	24561.64
703.069	24586.5
703.415	24302.89
703.76	24235.32
704.105	24294.08
704.45	24156.46
704.795	24088.89
705.14	23999.17
705.485	24058.15
705.83	23925.05
706.175	23915.56
706.52	23962.34
706.865	23811.15
707.209	23781.55
707.554	23649.8
707.899	23786.52
708.243	23565.74
708.588	23635.34
708.932	23361.67
709.277	23481.67
709.621	23395.8
709.966	23232.86
710.31	23323.26
710.654	23062.25
710.998	23170.04
711.342	23143.37
711.687	23149.25
712.031	23006.43
712.375	22846.43
712.719	22888.69
713.063	22872.42
713.407	22867.9
713.75	22860.9
714.094	22770.05
714.438	22648.02
714.782	22661.81
715.125	22544.75
715.469	22705.19
715.812	22528.93
716.156	22374.58
716.499	22409.38
716.843	22429.72
717.186	22348.82
717.53	22330.29
717.873	22449.83
718.216	22394.92
718.559	22193.79
718.902	22059.11
719.246	22192.21
719.589	21949.73
719.932	21996.74
720.275	21974.37
720.617	21969.39
720.96	22038.09
721.303	21821.15
721.646	21963.97
721.989	21751.55
722.331	21876.74
722.674	21759.68
723.016	21794.48
723.359	21722.39
723.701	21720.81
724.044	21473.59
724.386	21413.48
724.729	21503.19
725.071	21505.9
725.413	21476.3
725.755	21382.06
726.097	21297.1
726.439	21202.41
726.782	21310.43
727.124	21307.04
727.465	21293.48
727.807	21114.05
728.149	21119.25
728.491	21057.33
728.833	21116.76
729.175	21030.89
729.516	20997.89
729.858	20911.12
730.199	21086.93
730.541	20862.3
730.882	20863.43
731.224	20955.41
731.565	20775.08
731.906	20911.79
732.248	20797
732.589	20742.76
732.93	20739.82
733.271	20706.83
733.612	20699.15
733.953	20634.06
734.294	20609.43
734.635	20518.36
734.976	20502.77
735.317	20412.82
735.658	20493.73
735.999	20420.51
736.339	20349.32
736.68	20443.56
737.021	20219.38
737.361	20385.03
737.702	20337.12
738.042	20350.23
738.383	20232.04
738.723	20304.13
739.063	20198.37
739.404	20093.51
739.744	20131.25
740.084	20120.4
740.424	20107.75
740.764	19973.06
741.104	20024.59
741.444	19916.34
741.784	19856
742.124	19868.88
742.464	19887.19
742.804	19813.29
743.143	19839.28
743.483	19925.38
743.823	19635.44
744.162	19741.43
744.502	19729.23
744.841	19660.53
745.181	19603.35
745.52	19619.63
745.86	19572.17
746.199	19540.76
746.538	19519.52
746.877	19518.84
747.216	19562.23
747.556	19465.96
747.895	19313.64
748.234	19331.05
748.573	19187.77
748.911	19279.3
749.25	19185.51
749.589	19169.92
749.928	19115.23
750.267	19149.13
750.605	19140.54
750.944	19090.83
751.283	18984.16
751.621	19033.88
751.96	18811.29
752.298	18834.56
752.636	18821.45
752.975	18661.91
753.313	18724.73
753.651	18768.12
753.989	18676.83
754.327	18654
754.666	18459.88
755.004	18660.55
755.342	18600.22
755.679	18533.55
756.017	18474.34
756.355	18484.51
756.693	18389.6
757.031	18384.86
757.368	18238.19
757.706	18329.72
758.044	18135.14
758.381	18210.17
758.719	18175.37
759.056	18164.07
759.394	18054.02
759.731	17923.62
760.068	17913.23
760.405	17779.67
760.743	17777.19
761.08	17849.5
761.417	17714.82
761.754	17770.63
762.091	17713.01
762.428	17651.54
762.765	17533.58
763.102	17508.72
763.438	17460.81
763.775	17371.32
764.112	17325
764.449	17435.95
764.785	17260.59
765.122	17193.02
765.458	17082.74
765.795	17030.99
766.131	17046.13
766.467	16970.43
766.804	16906.02
767.14	16784.67
767.476	16781.96
767.812	16721.85
768.148	16713.26
768.485	16670.78
768.821	16520.5
769.157	16544.9
769.492	16434.4
769.828	16440.27
770.164	16327.06
770.5	16273.95
770.836	16231.47
771.171	16132.49
771.507	16110.11
771.842	15920.06
772.178	15989.66
772.513	15967.52
772.849	15993.05
773.184	15789.9
773.519	15858.59
773.855	15644.14
774.19	15755.77
774.525	15679.84
774.86	15615.44
775.195	15599.84
775.53	15518.26
775.865	15390.81
776.2	15242.34
776.535	15239.18
776.87	15271.49
777.205	15156.92
777.539	15166.18
777.874	15104.72
778.209	14996.24
778.543	15020.88
778.878	14945.85
779.212	14932.52
779.547	14787.44
779.881	14756.93
780.215	14719.42
780.55	14759.41
780.884	14624.28
781.218	14648.68
781.552	14606.88
781.886	14517.39
782.22	14436.48
782.554	14295.25
782.888	14271.52
783.222	14211.63
783.556	14092.31
783.889	14137.74
784.223	13986.1
784.557	14047.12
784.89	14030.62
785.224	13848.25
785.557	13897.74
785.891	13824.07
786.224	13811.42
786.558	13789.5
786.891	13701.59
787.224	13628.6
787.557	13622.49
787.891	13579.78
788.224	13476.96
788.557	13470.18
788.89	13478.32
789.223	13322.84
789.556	13241.49
789.888	13255.95
790.221	13258.44
790.554	13201.72
790.887	13250.3
791.219	13072.68
791.552	13063.64
791.884	12992.68
792.217	13011.66
792.549	12964.66
792.882	12902.51
793.214	12848.96
793.546	12833.82
793.879	12691.45
794.211	12618
794.543	12720.82
794.875	12671.56
795.207	12687.83
795.539	12454.16
795.871	12534.84
796.203	12465.01
796.535	12440.38
796.867	12367.16
797.198	12321.06
797.53	12344.34
797.862	12159.71
798.193	12289.65
798.525	12190.89
798.856	12183.44
799.188	12106.38
799.519	12003.78
799.85	11947.74
800.182	11984.57
800.513	11992.03
800.844	11851.69
801.175	11917
801.506	11890.79
801.837	11786.39
802.168	11822.54
802.499	11727.86
802.83	11745.26
803.161	11669.55
803.491	11673.85
803.822	11627.07
804.153	11604.24
804.483	11500.06
804.814	11495.09
805.145	11470.91
805.475	11471.14
805.805	11408.77
806.136	11369.9
806.466	11397.92
806.796	11379.62
807.126	11330.58
807.457	11249.22
807.787	11262.11
808.117	11199.51
808.447	11178.27
808.777	11206.06
809.107	11138.49
809.436	11107.53
809.766	11051.26
810.096	11024.37
810.426	10990.25
810.755	11039.06
811.085	10939.18
811.414	10915.67
811.744	10877.26
812.073	10851.72
812.403	10841.78
812.732	10844.49
813.061	10768.56
813.39	10732.18
813.719	10726.98
814.049	10773.76
814.378	10696.7
814.707	10665.51
815.036	10650.14
815.365	10660.09
815.693	10493.76
816.022	10542.58
816.351	10501.9
816.68	10375.12
817.008	10479.07
817.337	10319.98
817.665	10362.47
817.994	10361.79
818.322	10377.83
818.651	10329.7
818.979	10207.22
819.307	10298.74
819.636	10319.08
819.964	10145.07
820.292	10246.99
820.62	10206.09
820.948	10144.39
821.276	10183.04
821.604	10192.08
821.932	10189.14
822.259	10250.83
822.587	10233.88
822.915	10185.98
823.243	10182.81
823.57	10091.06
823.898	10148.69
824.225	10109.37
824.553	10146.88
824.88	10200.89
825.207	10131.97
825.535	10115.92
825.862	10126.99
826.189	10077.96
826.516	10218.06
826.843	10237.73
827.17	10164.51
827.497	10217.39
827.824	10218.06
828.151	10163.15
828.478	10202.47
828.805	10226.2
829.131	10164.73
829.458	10204.96
829.785	10103.49
830.111	10164.28
830.438	10167.67
830.764	10145.75
831.09	10146.43
831.417	10127.9
831.743	10195.69
832.069	10132.42
832.395	10090.61
832.722	10128.35
833.048	10114.34
833.374	10041.12
833.7	10016.49
834.026	10049.48
834.351	10076.83
834.677	10042.93
835.003	10059.65
835.329	9983.49
835.654	10006.09
835.98	9904.85
836.306	10007.22
836.631	9939.88
836.956	9997.28
837.282	9954.57
837.607	9881.58
837.932	9923.61
838.258	9851.29
838.583	9906.66
838.908	9805.65
839.233	9855.59
839.558	9886.1
839.883	9754.35
840.208	9786.44
840.533	9757.74
840.858	9818.3
841.182	9747.34
841.507	9702.37
841.832	9642.03
842.156	9696.72
842.481	9689.94
842.805	9674.12
843.13	9669.6
843.454	9568.36
843.778	9550.74
844.103	9518.2
844.427	9467.58
844.751	9525.2
845.075	9518.42
845.399	9455.37
845.723	9351.42
846.047	9424.87
846.371	9336.05
846.695	9348.71
847.019	9247.02
847.343	9219.67
847.666	9178.09
847.99	9127.25
848.313	9166.11
848.637	9088.83
848.96	9080.92
849.284	9033.01
849.607	8952.79
849.931	8951.66
850.254	8930.41
850.577	8859
850.9	8810.64
851.223	8879.34
851.546	8766.8
851.869	8687.03
852.192	8727.26
852.515	8683.19
852.838	8640.03
853.161	8642.96
853.483	8574.27
853.806	8498.79
854.129	8538.79
854.451	8545.11
854.774	8516.19
855.096	8394.38
855.419	8403.65
855.741	8459.24
856.063	8389.19
856.385	8376.98
856.708	8326.59
857.03	8196.87
857.352	8316.65
857.674	8248.17
857.996	8234.39
858.318	8176.08
858.64	8186.93
858.961	8221.96
859.283	8134.28
859.605	8162.07
859.926	8168.85
860.248	8080.04
860.57	8082.08
860.891	8046.6
861.212	8016.31
861.534	7946.26
861.855	7976.09
862.176	7976.54
862.498	7977.22
862.819	7967.28
863.14	7899.71
863.461	7924.79
863.782	7875.75
864.103	7872.14
864.424	7910.1
864.745	7855.41
865.065	7828.97
865.386	7839.37
865.707	7848.18
866.027	7828.3
866.348	7833.27
866.668	7885.02
866.989	7777.68
867.309	7693.39
867.63	7754.4
867.95	7803.89
868.27	7737.23
868.59	7672.82
868.91	7692.93
869.23	7656.78
869.55	7622.2
869.87	7680.5
870.19	7659.04
870.51	7653.16
870.83	7610
871.15	7589.89
871.469	7563.45
871.789	7570.9
872.109	7579.72
872.428	7518.25
872.748	7492.26
873.067	7487.51
873.386	7497.01
873.706	7460.85
874.025	7523.9
874.344	7461.75
874.663	7470.11
874.982	7433.96
875.301	7461.53
875.62	7399.83
875.939	7405.26
876.258	7405.48
876.577	7380.17
876.896	7386.73
877.214	7315.54
877.533	7415.65
877.852	7273.51
878.17	7326.39
878.489	7358.7
878.807	7306.73
879.125	7276.9
879.444	7306.5
879.762	7287.97
880.08	7287.52
880.398	7225.15
880.716	7243.91
881.034	7228.09
881.352	7243.68
881.67	7220.4
881.988	7243.68
882.306	7189.67
882.624	7117.36
882.941	7125.04
883.259	7126.62
883.577	7115.1
883.894	7107.19
884.212	7068.77
884.529	7075.32
884.846	7058.6
885.164	7044.36
885.481	7066.51
885.798	7049.56
886.115	6987.64
886.432	6975.89
886.75	6882.79
887.067	6994.42
887.383	6916.46
887.7	6992.61
888.017	6891.82
888.334	6883.46
888.651	6880.3
888.967	6824.48
889.284	6823.13
889.6	6796.23
889.917	6727.76
890.233	6761.66
890.55	6721.21
890.866	6756.69
891.182	6693.19
891.498	6713.98
891.815	6626.97
892.131	6704.48
892.447	6647.76
892.763	6579.29
893.079	6609.8
893.395	6549.23
893.71	6541.78
894.026	6560.76
894.342	6507.65
894.657	6547.2
894.973	6488.9
895.289	6497.03
895.604	6528.9
895.92	6417.03
896.235	6434.89
896.55	6401.22
896.865	6424.72
897.181	6370.03
897.496	6353.31
897.811	6361.89
898.126	6333.2
898.441	6270.15
898.756	6261.11
899.071	6234.89
899.386	6240.54
899.7	6152.41
900.015	6160.54
900.33	6153.54
900.644	6096.59
900.959	6143.82
901.273	6077.16
901.588	6083.03
901.902	6044.16
902.216	6033.99
902.531	6036.71
902.845	5984.5
903.159	5934.11
903.473	5976.59
903.787	5883.72
904.101	5872.64
904.415	5854.79
904.729	5857.5
905.042	5794.45
905.356	5794.23
905.67	5813.66
905.984	5815.69
906.297	5756.49
906.611	5679.2
906.924	5717.62
907.237	5668.35
907.551	5683.72
907.864	5621.12
908.177	5603.5
908.491	5658.64
908.804	5545.87
909.117	5496.15
909.43	5537.74
909.743	5521.24
910.056	5484.18
910.368	5481.01
910.681	5474.69
910.994	5410.06
911.307	5416.16
911.619	5364.41
911.932	5405.54
912.244	5332.77
912.557	5354.01
912.869	5277.63
913.181	5328.02
913.494	5284.18
913.806	5254.58
914.118	5245.09
914.43	5191.3
914.742	5224.07
915.054	5205.99
915.366	5154.47
915.678	5181.59
915.99	5101.59
916.302	5077.63
916.613	5059.1
916.925	5069.5
917.236	5028.82
917.548	4980.69
917.859	5015.49
918.171	4969.16
918.482	4963.97
918.794	4940.46
919.105	4908.6
919.416	4891.2
919.727	4844.65
920.038	4862.05
920.349	4866.57
920.66	4824.31
920.971	4797.42
921.282	4768.49
921.593	4734.14
921.903	4740.92
922.214	4707.48
922.525	4729.85
922.835	4705.44
923.146	4680.58
923.456	4627.25
923.767	4601.49
924.077	4606.91
924.387	4632
924.697	4588.16
925.008	4567.59
925.318	4506.12
925.628	4537.31
925.938	4550.42
926.248	4486.69
926.558	4471.32
926.867	4493.02
927.177	4397.88
927.487	4394.49
927.796	4387.26
928.106	4379.57
928.416	4365.79
928.725	4348.84
929.034	4331.67
929.344	4320.14
929.653	4352.68
929.962	4269.52
930.271	4269.75
930.581	4208.28
930.89	4218.22
931.199	4193.14
931.508	4215.74
931.817	4180.26
932.125	4172.8
932.434	4151.11
932.743	4111.11
933.051	4079.92
933.36	4091.67
933.669	4020.71
933.977	4072.46
934.286	4040.6
934.594	4074.5
934.902	4001.96
935.21	3987.49
935.519	3966.03
935.827	3957.89
936.135	3976.87
936.443	3946.37
936.751	3899.36
937.059	3925.57
937.367	3887.61
937.674	3862.75
937.982	3865.92
938.29	3814.39
938.597	3793.83
938.905	3803.77
939.213	3750.44
939.52	3768.06
939.827	3762.42
940.135	3732.59
940.442	3712.47
940.749	3751.12
941.056	3698.46
941.363	3697.11
941.67	3661.4
941.977	3635.86
942.284	3632.93
942.591	3652.14
942.898	3635.41
943.205	3614.17
943.511	3582.53
943.818	3548.64
944.125	3549.77
944.431	3551.57
944.738	3498.69
945.044	3509.09
945.35	3498.47
945.657	3474.51
945.963	3446.49
946.269	3398.81
946.575	3453.72
946.881	3409.88
947.187	3379.83
947.493	3399.71
947.799	3411.69
948.105	3379.83
948.41	3377.79
948.716	3325.36
949.022	3350
949.327	3281.98
949.633	3287.63
949.938	3297.34
950.244	3315.65
950.549	3229.77
950.854	3225.48
951.16	3187.97
951.465	3201.53
951.77	3218.02
952.075	3188.87
952.38	3167.18
952.685	3153.17
952.99	3159.04
953.294	3138.02
953.599	3124.01
953.904	3088.76
954.209	3090.79
954.513	3081.08
954.818	3061.19
955.122	3095.31
955.426	3072.49
955.731	3031.36
956.035	3018.25
956.339	3030.68
956.643	2979.61
956.948	3003.57
957.252	2999.27
957.556	2926.96
957.86	2961.98
958.163	2962.44
958.467	2919.5
958.771	2910.69
959.075	2931.93
959.378	2906.84
959.682	2887.64
959.985	2873.85
960.289	2838.15
960.592	2830.01
960.896	2831.37
961.199	2815.77
961.502	2806.28
961.805	2767.41
962.108	2744.36
962.411	2752.5
962.714	2745.94
963.017	2713.86
963.32	2732.39
963.623	2744.14
963.926	2680.41
964.228	2669.11
964.531	2690.58
964.833	2697.13
965.136	2679.96
965.438	2659.17
965.741	2627.98
966.043	2665.72
966.345	2670.24
966.648	2624.82
966.95	2588.89
967.252	2590.92
967.554	2581.2
967.856	2592.73
968.158	2558.83
968.46	2535.78
968.761	2552.73
969.063	2564.03
969.365	2507.76
969.666	2517.7
969.968	2495.56
970.269	2475.9
970.571	2470.02
970.872	2491.71
971.174	2494.65
971.475	2474.54
971.776	2479.96
972.077	2425.05
972.378	2428.89
972.679	2425.95
972.98	2426.41
973.281	2392.28
973.582	2371.04
973.883	2346.41
974.183	2360.42
974.484	2367.2
974.785	2348.44
975.085	2366.29
975.386	2350.93
975.686	2324.26
975.986	2290.59
976.287	2315.22
976.587	2263.7
976.887	2321.55
977.187	2279.52
977.487	2265.51
977.787	2273.19
978.087	2257.6
978.387	2235
978.687	2264.83
978.987	2227.77
979.286	2192.29
979.586	2214.66
979.885	2165.85
980.185	2190.03
980.484	2167.65
980.784	2147.54
981.083	2149.8
981.382	2151.61
981.682	2125.62
981.981	2131.05
982.28	2100.99
982.579	2108.67
982.878	2125.62
983.177	2123.36
983.475	2082.01
983.774	2068.67
984.073	2020.31
984.372	2042.46
984.67	2082.46
984.969	2030.03
985.267	2017.83
985.566	2023.03
985.864	2014.21
986.162	2013.08
986.461	1989.13
986.759	2013.99
987.057	1962.91
987.355	1961.78
987.653	1954.78
987.951	1964.95
988.249	1969.92
988.547	1929.7
988.844	1909.13
989.142	1915.68
989.44	1944.84
989.737	1918.4
990.035	1886.08
990.332	1893.76
990.63	1915.46
990.927	1890.83
991.224	1877.72
991.521	1856.93
991.819	1866.42
992.116	1855.57
992.413	1829.13
992.71	1853.76
993.006	1797.95
993.303	1806.76
993.6	1828.23
993.897	1803.6
994.193	1798.4
994.49	1754.33
994.787	1778.51
995.083	1735.35
995.379	1771.06
995.676	1776.7
995.972	1709.59
996.268	1719.53
996.565	1722.24
996.861	1717.05
997.157	1703.26
997.453	1719.53
997.749	1698.74
998.044	1664.84
998.34	1655.58
998.636	1671.85
998.932	1669.81
999.227	1647.89
999.523	1628.23
999.818	1635.01
1000.114	1621.91
1000.409	1625.97
1000.704	1616.93
1001	1591.17
1001.295	1576.26
1001.59	1572.64
1001.885	1584.62
1002.18	1577.39
1002.475	1577.84
1002.77	1567.9
1003.065	1555.02
1003.359	1564.51
1003.654	1552.53
1003.949	1544.39
1004.243	1546.43
1004.538	1477.5
1004.832	1508.92
1005.127	1476.83
1005.421	1497.84
1005.715	1492.42
1006.009	1489.48
1006.304	1488.8
1006.598	1492.19
1006.892	1447.22
1007.186	1441.35
1007.48	1462.59
1007.773	1421.91
1008.067	1419.65
1008.361	1399.54
1008.655	1392.31
1008.948	1406.77
1009.242	1385.75
1009.535	1386.88
1009.829	1390.5
1010.122	1382.59
1010.415	1390.05
1010.708	1371.29
1011.001	1363.61
1011.295	1327.22
1011.588	1341.01
1011.881	1356.38
1012.173	1310.5
1012.466	1318.41
1012.759	1304.85
1013.052	1305.53
1013.344	1329.48
1013.637	1296.27
1013.93	1277.96
1014.222	1288.13
1014.514	1296.27
1014.807	1274.35
1015.099	1269.83
1015.391	1239.54
1015.683	1256.72
1015.976	1248.81
1016.268	1223.95
1016.56	1220.79
1016.851	1190.96
1017.143	1214.23
1017.435	1204.52
1017.727	1208.58
1018.018	1203.61
1018.31	1195.03
1018.602	1173.33
1018.893	1161.13
1019.185	1175.59
1019.476	1134.46
1019.767	1143.73
1020.058	1137.17
1020.35	1144.4
1020.641	1152.31
1020.932	1118.19
1021.223	1106.89
1021.514	1105.31
1021.804	1083.62
1022.095	1087.46
1022.386	1076.84
1022.677	1080
1022.967	1098.98
1023.258	1058.08
1023.548	1070.06
1023.839	1069.38
1024.129	1035.93
1024.419	1070.51
1024.709	1021.47
1025	1041.36
1025.29	1045.42
1025.58	1035.48
1025.87	1010.17
1026.16	997.74
1026.449	1026.89
1026.739	1001.13
1027.029	1009.27
1027.319	987.57
1027.608	1015.14
1027.898	959.1
1028.187	966.1
1028.477	958.2
1028.766	970.4
1029.055	914.81
1029.344	935.82
1029.634	926.33
1029.923	919.78
1030.212	929.95
1030.501	928.82
1030.79	910.29
1031.078	901.25
1031.367	926.56
1031.656	901.47
1031.945	881.81
1032.233	891.76
1032.522	878.88
1032.81	902.6
1033.099	868.25
1033.387	864.86
1033.675	858.31
1033.963	860.57
1034.251	865.54
1034.54	855.37
1034.828	842.04
1035.116	861.47
1035.403	857.63
1035.691	835.03
1035.979	815.6
1036.267	828.93
1036.554	811.31
1036.842	819.22
1037.129	799.56
1037.417	788.93
1037.704	828.03
1037.992	778.54
1038.279	788.71
1038.566	788.26
1038.853	788.26
1039.14	788.26
