Data from breadboard_white_FLMS001491_00009.txt Node
Date: Wed Feb 08 10:47:10 GMT 2017
User: dcchb
Spectrometer: FLMS00149
Trigger mode: 0
Integration Time (sec): 2.000000E-2
Scans to average: 10
Electric dark correction enabled: true
Nonlinearity correction enabled: false
Boxcar width: 0
XAxis mode: Wavelengths
Number of Pixels in Spectrum: 2048
>>>>>Begin Spectral Data<<<<<
341.393	-19.24
341.776	-19.24
342.16	-19.24
342.543	-57.2
342.927	-75.51
343.31	-85.68
343.693	-60.59
344.077	-65.34
344.46	-56.98
344.843	-52.68
345.226	-49.07
345.61	-38.9
345.993	-21.27
346.376	2.91
346.759	-3.42
347.142	40.87
347.525	39.29
347.908	67.09
348.291	79.97
348.674	83.36
349.057	120.42
349.44	121.55
349.823	145.73
350.206	183.7
350.588	210.59
350.971	235.9
351.354	256.24
351.737	278.83
352.119	270.02
352.502	261.43
352.884	275.44
353.267	290.81
353.65	304.6
354.032	305.5
354.414	324.26
354.797	347.53
355.179	336.46
355.562	350.92
355.944	341.88
356.326	343.92
356.709	345.05
357.091	340.98
357.473	335.33
357.855	364.71
358.238	333.07
358.62	357.48
359.002	384.14
359.384	366.74
359.766	368.1
360.148	364.71
360.53	362.22
360.912	351.83
361.294	359.06
361.676	364.71
362.057	334.65
362.439	356.8
362.821	363.8
363.203	347.99
363.584	348.66
363.966	357.02
364.348	376.23
364.729	353.63
365.111	336.23
365.493	323.58
365.874	352.5
366.256	341.88
366.637	351.37
367.019	343.47
367.4	357.93
367.781	359.96
368.163	325.61
368.544	343.47
368.925	358.38
369.306	350.25
369.688	345.05
370.069	372.17
370.45	342.11
370.831	337.59
371.212	359.74
371.593	344.14
371.974	350.7
372.355	342.56
372.736	352.28
373.117	393.18
373.498	337.14
373.879	359.96
374.26	355.89
374.641	336.46
375.021	345.05
375.402	376.46
375.783	374.43
376.163	384.14
376.544	413.75
376.925	351.6
377.305	369.91
377.686	363.58
378.066	396.12
378.447	390.7
378.827	376.46
379.208	387.08
379.588	390.7
379.968	373.07
380.349	389.11
380.729	383.69
381.109	395.44
381.489	417.14
381.87	421.2
382.25	412.16
382.63	411.94
383.01	412.84
383.39	423.92
383.77	411.94
384.15	418.04
384.53	427.31
384.91	417.81
385.29	433.18
385.67	432.28
386.049	423.46
386.429	405.16
386.809	429.34
387.189	438.15
387.568	453.29
387.948	454.65
388.328	436.8
388.707	452.16
389.087	467.08
389.466	448.55
389.846	477.25
390.225	488.55
390.605	468.21
390.984	495.1
391.363	472.5
391.743	500.75
392.122	494.87
392.501	514.08
392.881	514.99
393.26	521.99
393.639	526.74
394.018	514.76
394.397	541.2
394.776	559.05
395.155	551.14
395.534	564.7
395.913	588.66
396.292	560.86
396.671	582.56
397.05	570.13
397.429	604.93
397.808	621.42
398.186	620.29
398.565	630.69
398.944	611.26
399.323	640.63
399.701	659.16
400.08	639.95
400.458	653.74
400.837	656.68
401.215	694.87
401.594	695.55
401.972	705.94
402.351	701.2
402.729	708.88
403.107	740.97
403.486	744.13
403.864	742.55
404.242	778.93
404.62	777.58
404.999	792.95
405.377	800.4
405.755	826.39
406.133	860.97
406.511	870.91
406.889	865.49
407.267	889.21
407.645	903
408.023	912.04
408.401	936.22
408.779	953.17
409.156	974.18
409.534	1010.34
409.912	1008.53
410.29	1065.25
410.667	1087.85
411.045	1083.56
411.422	1103.9
411.8	1111.81
412.178	1159.49
412.555	1184.12
412.933	1173.27
413.31	1199.26
413.687	1197.91
414.065	1261.86
414.442	1257.11
414.819	1293.05
415.197	1306.83
415.574	1357.9
415.951	1386.15
416.328	1397
416.705	1424.12
417.082	1403.78
417.46	1444.68
417.837	1477.9
418.214	1484
418.591	1491.68
418.967	1527.39
419.344	1563.32
419.721	1592.02
420.098	1549.31
420.475	1611.68
420.852	1603.77
421.228	1624.34
421.605	1671.79
421.982	1684.22
422.358	1712.47
422.735	1738.68
423.111	1750.21
423.488	1787.72
423.864	1777.1
424.241	1804.67
424.617	1833.82
424.994	1859.58
425.37	1894.61
425.746	1874.95
426.123	1926.25
426.499	1905.68
426.875	1969.64
427.251	2005.57
427.627	2040.37
428.003	2059.13
428.379	2086.92
428.756	2102.06
429.132	2131.89
429.507	2157.66
429.883	2215.96
430.259	2248.5
430.635	2281.95
431.011	2262.06
431.387	2322.17
431.763	2395.16
432.138	2378.67
432.514	2458.89
432.89	2437.87
433.265	2500.47
433.641	2541.83
434.016	2581.15
434.392	2594.03
434.767	2655.04
435.143	2655.04
435.518	2693.91
435.894	2747.92
436.269	2763.29
436.644	2759.67
437.02	2839.45
437.395	2850.52
437.77	2891.87
438.145	2915.15
438.52	2938.65
438.895	2988.37
439.271	2994.24
439.646	3044.41
440.021	3102.94
440.395	3099.55
440.77	3126.9
441.145	3115.6
441.52	3203.73
441.895	3185.65
442.27	3210.73
442.645	3241.92
443.019	3287.79
443.394	3243.5
443.769	3307
444.143	3314.01
444.518	3381.8
444.892	3401.69
445.267	3425.64
445.641	3424.51
446.016	3436.94
446.39	3457.28
446.764	3490.5
447.139	3496.15
447.513	3542.48
447.887	3581.8
448.262	3596.94
448.636	3590.39
449.01	3685.52
449.384	3719.65
449.758	3666.54
450.132	3749.48
450.506	3764.62
450.88	3836.93
451.254	3804.62
451.628	3857.72
452.002	3962.35
452.376	3964.61
452.75	4005.29
453.123	4037.61
453.497	4056.36
453.871	4126.64
454.244	4239.86
454.618	4235.34
454.992	4266.98
455.365	4262.46
455.739	4420.87
456.112	4451.38
456.486	4451.38
456.859	4538.16
457.232	4613.86
457.606	4636.91
457.979	4681.66
458.352	4795.1
458.725	4866.96
459.099	4840.52
459.472	4974.76
459.845	5036.68
460.218	5097.92
460.591	5121.64
460.964	5134.53
461.337	5296.78
461.71	5385.14
462.083	5374.52
462.456	5463.56
462.829	5420.39
463.201	5557.11
463.574	5637.34
463.947	5663.33
464.32	5846.15
464.692	5874.62
465.065	5904.22
465.438	5950.78
465.81	6063.32
466.183	6149.19
466.555	6246.59
466.928	6318.9
467.3	6305.12
467.672	6428.96
468.045	6594.83
468.417	6612.45
468.789	6673.24
469.161	6747.59
469.534	6888.38
469.906	6959.79
470.278	7010.41
470.65	7178.99
471.022	7231.87
471.394	7388.25
471.766	7496.95
472.138	7577.4
472.51	7797.51
472.882	7870.95
473.253	7946.43
473.625	8052.42
473.997	8213.77
474.369	8248.34
474.74	8366.98
475.112	8536.02
475.484	8682.23
475.855	8846.97
476.227	8937.82
476.598	9161.31
476.97	9228.88
477.341	9468.2
477.713	9528.08
478.084	9643.56
478.455	9896.43
478.827	10010.56
479.198	10379.81
479.569	10276.31
479.94	10587.49
480.311	10714.49
480.682	10977.54
481.053	11206.23
481.424	11403.74
481.795	11387.24
482.166	11644.64
482.537	11782.26
482.908	12039.88
483.279	12200.33
483.65	12411.4
484.021	12620.66
484.391	12727.77
484.762	12861.1
485.133	13031.95
485.503	13268.55
485.874	13430.81
486.244	13602.1
486.615	13880.96
486.985	14101.97
487.356	14290.67
487.726	14464.9
488.097	14720.71
488.467	14785.35
488.837	15073.7
489.207	15238.89
489.578	15522.73
489.948	15689.73
490.318	15916.84
490.688	15870.97
491.058	16200.68
491.428	16308.02
491.798	16621.91
492.168	16862.81
492.538	16857.83
492.908	17148.9
493.278	17361.32
493.648	17388.67
494.017	17550.92
494.387	17757.47
494.757	17966.96
495.126	18236.33
495.496	18233.84
495.866	18367.4
496.235	18511.12
496.605	18767.61
496.974	18840.15
497.344	18954.73
497.713	19098.9
498.082	19189.07
498.452	19461.15
498.821	19574.82
499.19	19665.67
499.559	19906.12
499.928	19954.93
500.298	20055.04
500.667	20300.23
501.036	20246.67
501.405	20546.32
501.774	20458.42
502.143	20725.98
502.512	20970.49
502.88	20997.16
503.249	21084.39
503.618	21195.8
503.987	21370.26
504.356	21542.91
504.724	21624.71
505.093	21786.52
505.462	21876.23
505.83	22027.42
506.199	22266.5
506.567	22527.97
506.936	22525.93
507.304	22731.8
507.672	22829.88
508.041	23014.51
508.409	23093.83
508.777	23370.2
509.145	23527.26
509.514	23621.05
509.882	23788.72
510.25	23908.27
510.618	24002.28
510.986	24193.23
511.354	24384.87
511.722	24526.56
512.09	24795.03
512.458	24772.43
512.826	25043.83
513.193	25061.91
513.561	25246.09
513.929	25475.46
514.297	25681.56
514.664	25846.98
515.032	26021.89
515.4	26269.79
515.767	26240.64
516.135	26571.02
516.502	26431.37
516.869	26888.98
517.237	27032.26
517.604	27031.35
517.972	27321.74
518.339	27531.45
518.706	27632.47
519.073	27757.43
519.44	28065.45
519.808	28384.31
520.175	28252.56
520.542	28625.89
520.909	28887.57
521.276	28726.22
521.643	29308.58
522.009	29498.86
522.376	29631.73
522.743	29797.83
523.11	30089.12
523.477	30351.04
523.843	30504.03
524.21	30750.35
524.577	31033.05
524.943	31302.43
525.31	31367.96
525.676	31660.83
526.043	31804.11
526.409	32117.32
526.776	32404.09
527.142	32392.79
527.508	32656.51
527.874	32926.34
528.241	33103.51
528.607	33248.36
528.973	33530.16
529.339	33519.99
529.705	33713.21
530.071	34193.2
530.437	34234.78
530.803	34350.03
531.169	34697.82
531.535	34596.35
531.901	34748.66
532.267	35023.68
532.632	35180.06
532.998	35359.72
533.364	35536.44
533.73	35664.57
534.095	35851.23
534.461	35961.06
534.826	36134.39
535.192	36414.61
535.557	36650.31
535.923	36486.02
536.288	36879.23
536.653	36999.9
537.019	36885.78
537.384	37111.54
537.749	37237.64
538.114	37336.84
538.479	37432.43
538.845	37602.15
539.21	37710.39
539.575	37829.03
539.94	37906.77
540.305	38224.96
540.67	38128.46
541.034	38336.14
541.399	38439.86
541.764	38536.36
542.129	38797.82
542.494	38751.27
542.858	38875.56
543.223	38992.62
543.587	39204.36
543.952	39307.86
544.316	39410.91
544.681	39419.73
545.045	39556.22
545.41	39905.36
545.774	39913.05
546.138	39873.27
546.503	40021.07
546.867	40036.21
547.231	40448.4
547.595	40370.66
547.959	40642.07
548.324	40621.95
548.688	40791.89
549.052	40764.55
549.416	41022.4
549.779	41079.34
550.143	41133.13
550.507	41470.07
550.871	41497.86
551.235	41376.06
551.599	41868.02
551.962	41861.7
552.326	42039.77
552.689	42327.67
553.053	42229.6
553.417	42300.78
553.78	42793.65
554.143	42572.64
554.507	42892.86
554.87	43063.02
555.234	43331.49
555.597	43040.42
555.96	43358.61
556.323	43590.24
556.686	43795.43
557.05	44008.31
557.413	44036.78
557.776	44200.84
558.139	44445.58
558.502	44440.16
558.865	44681.73
559.228	44821.62
559.59	45000.6
559.953	45118.33
560.316	45566.46
560.679	45531.43
561.041	45755.15
561.404	45890.06
561.767	46140.68
562.129	46044.86
562.492	46398.3
562.854	46541.12
563.217	46449.37
563.579	46651.17
563.941	46999.41
564.304	47060.2
564.666	47386.52
565.028	47374.32
565.39	47619.51
565.753	47838.26
566.115	47868.77
566.477	48059.5
566.839	48084.58
567.201	48389.21
567.563	48429.43
567.925	48677.11
568.287	48599.37
568.648	48714.4
569.01	48977.67
569.372	49254.27
569.734	49059.92
570.095	49318
570.457	49429.41
570.819	49528.16
571.18	49637.08
571.542	49848.83
571.903	49883.86
572.265	49985.32
572.626	50117.52
572.987	50182.83
573.349	50161.14
573.71	50445.88
574.071	50399.1
574.432	50596.83
574.794	50819.88
575.155	50741.01
575.516	50579.66
575.877	50870.95
576.238	50833.44
576.599	51026.65
576.96	50957.28
577.32	51087.44
577.681	51179.87
578.042	51223.03
578.403	51286.08
578.763	51246.53
579.124	51317.04
579.485	51484.72
579.845	51512.74
580.206	51592.51
580.566	51477.71
580.927	51559.07
581.287	51624.38
581.648	51650.37
582.008	51657.14
582.368	51568.33
582.728	51730.36
583.089	51566.3
583.449	51627.09
583.809	51699.86
584.169	51718.16
584.529	51673.64
584.889	51849
585.249	51697.6
585.609	51646.07
585.969	51765.39
586.329	51701.89
586.688	51651.72
587.048	51825.95
587.408	51700.08
587.768	51750.02
588.127	51688.78
588.487	51527.43
588.846	51855.56
589.206	51704.6
589.565	51722.91
589.925	51768.1
590.284	51772.17
590.643	51736.01
591.003	51821.43
591.362	51947.98
591.721	51783.69
592.08	51792.06
592.44	51901.88
592.799	51842.68
593.158	51826.63
593.517	51860.3
593.876	51912.73
594.235	51787.76
594.593	51897.14
594.952	51872.05
595.311	51777.59
595.67	51874.09
596.029	52127.64
596.387	52112.95
596.746	52011.94
597.104	51891.04
597.463	51944.14
597.822	52039.51
598.18	51931.49
598.538	51932.17
598.897	52099.84
599.255	51857.59
599.613	52257.35
599.972	52109.79
600.33	52153.63
600.688	52072.95
601.046	52194.08
601.404	52196.57
601.762	52139.17
602.12	52355.66
602.478	52319.73
602.836	52212.84
603.194	52256.45
603.552	52237.69
603.91	52174.19
604.268	52314.98
604.625	52211.93
604.983	52442.21
605.341	52258.71
605.698	52432.94
606.056	52454.41
606.413	52440.85
606.771	52561.98
607.128	52493.73
607.485	52437.69
607.843	52474.07
608.2	52652.15
608.557	52738.02
608.914	52607.63
609.272	52800.39
609.629	52768.08
609.986	52859.37
610.343	52650.56
610.7	52990.22
611.057	52933.04
611.414	52869.77
611.771	52913.61
612.127	52966.04
612.484	52961.74
612.841	53108.63
613.198	53013.49
613.554	53015.07
613.911	53073.38
614.267	53090.55
614.624	53095.3
614.98	53097.33
615.337	53326.93
615.693	53265.24
616.05	53207.39
616.406	53375.07
616.762	53265.24
617.118	53246.03
617.475	53299.14
617.831	53340.94
618.187	53414.84
618.543	53441.5
618.899	53514.5
619.255	53471.56
619.611	53463.2
619.967	53502.29
620.323	53543.2
620.678	53427.04
621.034	53297.1
621.39	53296.2
621.746	53289.42
622.101	53652.57
622.457	53425.69
622.812	53478.34
623.168	53585.46
623.523	53540.71
623.879	53582.52
624.234	53441.5
624.589	53525.8
624.945	53526.47
625.3	53566.92
625.655	53545.91
626.01	53514.27
626.365	53552.91
626.72	53427.27
627.075	53493.93
627.43	53406.93
627.785	53386.59
628.14	53468.62
628.495	53511.79
628.85	53363.54
629.205	53217.33
629.559	53462.75
629.914	53281.51
630.269	53291
630.623	53160.61
630.978	53114.73
631.332	53320.83
631.687	53287.38
632.041	53140.04
632.396	53133.49
632.75	52987.05
633.104	53103.89
633.459	52934.4
633.813	52884.91
634.167	52851.01
634.521	52840.39
634.875	52919.71
635.229	52824.35
635.583	52703.22
635.937	52784.12
636.291	52656.67
636.645	52694.18
636.999	52613.73
637.352	52617.12
637.706	52478.37
638.06	52580.28
638.413	52479.27
638.767	52385.94
639.121	52440.17
639.474	52295.77
639.828	52239.5
640.181	52329.67
640.534	52176.9
640.888	52152.72
641.241	52098.26
641.594	52140.97
641.947	52102.78
642.301	51990.92
642.654	51976.46
643.007	52077.7
643.36	51891.26
643.713	51773.98
644.066	52082.67
644.419	51787.99
644.771	51552.06
645.124	51138.29
645.477	51122.92
645.83	50902.59
646.182	50856.04
646.535	50674.12
646.888	50710.5
647.24	50564.07
647.593	50709.6
647.945	50653.33
648.298	50451.98
648.65	50366.11
649.002	50240.01
649.355	50438.19
649.707	50371.3
650.059	50472.09
650.411	50809.48
650.763	50959.76
651.115	51240.88
651.467	51153.43
651.819	51126.31
652.171	50925.41
652.523	50926.09
652.875	50855.36
653.227	50735.13
653.578	51045.41
653.93	50849.93
654.282	50763.38
654.633	50607
654.985	50645.87
655.337	50629.83
655.688	50625.76
656.039	50715.02
656.391	50526.55
656.742	50415.6
657.094	50526.78
657.445	50740.56
657.796	50474.8
658.147	50328.37
658.498	50441.13
658.849	50443.84
659.2	50348.93
659.551	50289.95
659.902	50387.8
660.253	50306.9
660.604	50419.21
660.955	50099.45
661.306	50342.6
661.656	50203.85
662.007	50298.99
662.358	50150.07
662.708	50095.15
663.059	50141.7
663.409	49980.35
663.76	50235.49
664.11	50078.88
664.461	50090.86
664.811	50096.06
665.161	49952.78
665.511	49878.43
665.862	49994.14
666.212	50016.51
666.562	50029.62
666.912	49878.66
667.262	49690.64
667.612	49848.6
667.962	49901.94
668.312	49746.91
668.662	49891.09
669.011	49793.01
669.361	49779.68
669.711	49787.36
670.06	49663.75
670.41	49672.56
670.76	49587.37
671.109	49713.24
671.459	49585.79
671.808	49497.88
672.157	49668.04
672.507	49314.16
672.856	49435.06
673.205	49333.36
673.554	49529.29
673.904	49392.12
674.253	49460.59
674.602	49472.34
674.951	49029.19
675.3	48609.99
675.649	49202.52
675.998	49080.49
676.346	49178.79
676.695	49252.46
677.044	48921.85
677.393	49143.31
677.741	49065.8
678.09	48893.6
678.438	48747.84
678.787	49012.24
679.135	48835.3
679.484	48680.27
679.832	48828.52
680.181	48638.69
680.529	48723.21
680.877	48551.24
681.225	48499.04
681.573	48704.68
681.922	48384.91
682.27	48317.35
682.618	48221.08
682.966	48189.89
683.314	48359.83
683.661	48100.63
684.009	47915.32
684.357	47942.44
684.705	47667.42
685.053	47853.85
685.4	47779.05
685.748	47550.13
686.095	47532.73
686.443	47419.52
686.79	47306.75
687.138	47489.57
687.485	47446.18
687.832	47323.47
688.18	47375
688.527	47131.16
688.874	46977.72
689.221	46962.8
689.568	46824.5
689.915	46735.47
690.262	46649.14
690.609	46667.9
690.956	46439.88
691.303	46353.33
691.65	46196.05
691.997	46099.32
692.344	45688.94
692.69	45974.36
693.037	45894.58
693.383	45534.37
693.73	45777.07
694.077	45391.55
694.423	45600.81
694.769	45239.23
695.116	45107.49
695.462	45205.11
695.808	44963.08
696.155	45007.6
696.501	44635.18
696.847	44565.13
697.193	44325.81
697.539	44566.48
697.885	44110.9
698.231	44115.2
698.577	44064.8
698.923	44127.85
699.269	43697.35
699.614	43566.96
699.96	43429.34
700.306	43499.62
700.651	43266.18
700.997	43234.09
701.342	43220.3
701.688	43125.17
702.033	42967.88
702.379	43006.75
702.724	42763.37
703.069	42878.17
703.415	42316.6
703.76	42510.04
704.105	42308.46
704.45	42306.88
704.795	42025.76
705.14	42056.27
705.485	41932.43
705.83	41718.65
706.175	41846.56
706.52	41568.82
706.865	41468.03
707.209	41458.09
707.554	41309.39
707.899	41375.38
708.243	41009.74
708.588	41132.45
708.932	40757.77
709.277	40646.59
709.621	40852.23
709.966	40466.93
710.31	40553.71
710.654	40171.34
710.998	40239.82
711.342	40336.76
711.687	40191.23
712.031	40080.05
712.375	39873.95
712.719	39742.2
713.063	39654.3
713.407	39948.98
713.75	39645.48
714.094	39541.3
714.438	39425.15
714.782	39440.97
715.125	39183.12
715.469	39284.81
715.812	39170.02
716.156	38793.3
716.499	38787.43
716.843	38951.49
717.186	38816.58
717.53	38914.43
717.873	38835.33
718.216	38523.48
718.559	38503.59
718.902	38314.44
719.246	38387.66
719.589	38277.16
719.932	38134.56
720.275	38173.21
720.617	38144.05
720.96	37951.52
721.303	38018.86
721.646	37905.87
721.989	37669.04
722.331	37872.2
722.674	37666.55
723.016	37569.83
723.359	37412.1
723.701	37515.6
724.044	37329.39
724.386	37037.42
724.729	37310.4
725.071	37039.45
725.413	37071.99
725.755	37130.97
726.097	36881.71
726.439	36710.64
726.782	36685.79
727.124	36903.41
727.465	36585.22
727.807	36458
728.149	36512.23
728.491	36405.79
728.833	36418.68
729.175	36262.97
729.516	36145.01
729.858	36147.5
730.199	36207.61
730.541	36021.85
730.882	36115.63
731.224	36144.56
731.565	35985.47
731.906	35825.02
732.248	35901.4
732.589	35636.32
732.93	35649.88
733.271	35570.56
733.612	35614.4
733.953	35647.62
734.294	35433.16
734.635	35293.06
734.976	35291.02
735.317	35233.85
735.658	35182.55
735.999	35135.32
736.339	35113.17
736.68	35010.8
737.021	35022.78
737.361	34874.99
737.702	34989.56
738.042	34792.05
738.383	34690.36
738.723	34894.2
739.063	34520.87
739.404	34610.59
739.744	34620.53
740.084	34430.48
740.424	34324.27
740.764	34376.02
741.104	34302.57
741.444	34107.1
741.784	34115.23
742.124	34143.71
742.464	34009.47
742.804	33908.68
743.143	33860.1
743.483	33853.77
743.823	33557.06
744.162	33762.7
744.502	33668.24
744.841	33476.15
745.181	33719.76
745.52	33440.67
745.86	33437.06
746.199	33471.63
746.538	33317.51
746.877	33439.77
747.216	33314.58
747.556	33218.99
747.895	33033.91
748.234	33128.14
748.573	32886.79
748.911	32901.93
749.25	32886.34
749.589	32678.66
749.928	32708.26
750.267	32786
750.605	32554.82
750.944	32562.51
751.283	32441.6
751.621	32383.98
751.96	32158.45
752.298	32191.67
752.636	32172.69
752.975	32040.49
753.313	31894.05
753.651	31993.25
753.989	31711.45
754.327	31668.74
754.666	31504
755.004	31620.84
755.342	31520.5
755.679	31508.52
756.017	31305.36
756.355	31418.81
756.693	31240.28
757.031	31250
757.368	30925.49
757.706	31118.7
758.044	30935.66
758.381	30845.49
758.719	30672.61
759.056	30675.32
759.394	30587.64
759.731	30428.1
760.068	30374.54
760.405	30309.68
760.743	30191.95
761.08	30272.62
761.417	30041.22
761.754	30081.21
762.091	29938.39
762.428	29845.29
762.765	29654.79
763.102	29648.46
763.438	29479.87
763.775	29303.61
764.112	29338.18
764.449	29330.95
764.785	29217.96
765.122	28964.18
765.458	28865.43
765.795	28901.36
766.131	28904.07
766.467	28644.19
766.804	28534.14
767.14	28387.02
767.476	28398.55
767.812	28192.68
768.148	28250.75
768.485	28117.88
768.821	27869.52
769.157	27897.09
769.492	27834.04
769.828	27752.24
770.164	27512.69
770.5	27467.5
770.836	27343.66
771.171	27211.91
771.507	27191.8
771.842	27033.61
772.178	26945.03
772.513	26865.48
772.849	26814.18
773.184	26681.53
773.519	26791.13
773.855	26404.93
774.19	26423.46
774.525	26256.46
774.86	26307.75
775.195	26210.58
775.53	26004.03
775.865	25993.86
776.2	25740.76
776.535	25560.2
776.87	25599.75
777.205	25456.25
777.539	25389.36
777.874	25436.14
778.209	25060.1
778.543	25136.26
778.878	24943.95
779.212	24938.53
779.547	24771.98
779.881	24846.32
780.215	24611.08
780.55	24776.72
780.884	24520.68
781.218	24346.68
781.552	24388.03
781.886	24240.69
782.22	24199.11
782.554	23979.91
782.888	23949.4
783.222	23760.93
783.556	23695.39
783.889	23602.51
784.223	23549.64
784.557	23378.57
784.89	23582.63
785.224	23281.17
785.557	23172.92
785.891	23024.9
786.224	23013.15
786.558	23019.48
786.891	22833.27
787.224	22715.76
787.557	22586.27
787.891	22680.73
788.224	22466.05
788.557	22450.45
788.89	22370.01
789.223	22287.97
789.556	22061.54
789.888	22101.99
790.221	21957.59
790.554	21856.35
790.887	21904.25
791.219	21836.46
791.552	21768.66
791.884	21622
792.217	21531.61
792.549	21556.47
792.882	21364.83
793.214	21236.48
793.546	21340.88
793.879	21118.29
794.211	20972.08
794.543	21098.63
794.875	20955.58
795.207	20970.49
795.539	20897.28
795.871	20896.82
796.203	20627
796.535	20535.93
796.867	20598.07
797.198	20476.27
797.53	20439.21
797.862	20273.79
798.193	20222.49
798.525	20295.94
798.856	20172.55
799.188	19945.89
799.519	19960.35
799.85	19821.15
800.182	19777.08
800.513	19904.99
800.844	19617.54
801.175	19657.08
801.506	19495.96
801.837	19458.44
802.168	19450.31
802.499	19463.19
802.83	19270.2
803.161	19144.33
803.491	19199.47
803.822	19253.48
804.153	19182.74
804.483	18947.95
804.814	18872.7
805.145	18861.17
805.475	18866.59
805.805	18734.39
806.136	18699.14
806.466	18686.03
806.796	18669.54
807.126	18528.52
807.457	18479.26
807.787	18478.36
808.117	18369.88
808.447	18294.86
808.777	18384.12
809.107	18234.97
809.436	18171.02
809.766	18159.27
810.096	18071.59
810.426	18150.45
810.755	18060.29
811.085	17985.94
811.414	17931.7
811.744	17754.76
812.073	17790.92
812.403	17775.55
812.732	17709.34
813.061	17685.38
813.39	17544.6
813.719	17509.34
814.049	17510.7
814.378	17470.02
814.707	17376.46
815.036	17401.1
815.365	17267.77
815.693	17100.09
816.022	17195.23
816.351	17047.43
816.68	16959.53
817.008	17056.47
817.337	16802.47
817.665	16808.8
817.994	16921.56
818.322	16867.55
818.651	16818.96
818.979	16630.04
819.307	16750.04
819.636	16633.88
819.964	16616.71
820.292	16607.22
820.62	16592.53
820.948	16507.79
821.276	16642.47
821.604	16565.86
821.932	16577.16
822.259	16487
822.587	16444.51
822.915	16484.74
823.243	16395.7
823.57	16435.92
823.898	16409.48
824.225	16387.79
824.553	16409.03
824.88	16404.74
825.207	16459.43
825.535	16350.73
825.862	16401.12
826.189	16346.66
826.516	16469.14
826.843	16395.7
827.17	16388.47
827.497	16441.57
827.824	16425.53
828.151	16492.65
828.478	16349.37
828.805	16428.92
829.131	16311.18
829.458	16301.01
829.785	16312.99
830.111	16251.97
830.438	16377.39
830.764	16371.97
831.09	16328.36
831.417	16240.22
831.743	16296.72
832.069	16244.74
832.395	16210.84
832.722	16197.96
833.048	16102.6
833.374	16243.84
833.7	16071.87
834.026	16223.27
834.351	16153.45
834.677	16080
835.003	16142.37
835.329	16094.69
835.654	16015.37
835.98	16007.01
836.306	16112.32
836.631	15932.21
836.956	16001.58
837.282	16018.53
837.607	15839.1
837.932	15847.01
838.258	15815.15
838.583	15848.82
838.908	15734.02
839.233	15717.07
839.558	15692.67
839.883	15678.43
840.208	15612.89
840.533	15576.51
840.858	15551.2
841.182	15601.37
841.507	15526.34
841.832	15426.91
842.156	15501.94
842.481	15399.79
842.805	15370.87
843.13	15324.99
843.454	15383.97
843.778	15241.6
844.103	15242.96
844.427	15140.14
844.751	15167.48
845.075	15080.25
845.399	15119.12
845.723	14923.2
846.047	15030.99
846.371	14775.63
846.695	14791.22
847.019	14672.13
847.343	14619.93
847.666	14613.82
847.99	14489.31
848.313	14588.29
848.637	14503.09
848.96	14379.25
849.284	14311.91
849.607	14178.13
849.931	14233.72
850.254	14120.5
850.577	13994.63
850.9	13950.79
851.223	13954.18
851.546	13831.7
851.869	13859.04
852.192	13887.52
852.515	13694.3
852.838	13672.61
853.161	13578.82
853.483	13555.32
853.806	13501.54
854.129	13511.03
854.451	13407.75
854.774	13371.15
855.096	13272.62
855.419	13224.93
855.741	13258.83
856.063	13215.22
856.385	13112.62
856.708	13105.16
857.03	13131.38
857.352	13023.58
857.674	13023.36
857.996	12946.52
858.318	12872.85
858.64	12905.62
858.961	12902.68
859.283	12773.65
859.605	12719.19
859.926	12753.31
860.248	12693.42
860.57	12631.73
860.891	12601.45
861.212	12562.81
861.534	12512.86
861.855	12478.51
862.176	12524.16
862.498	12509.25
862.819	12436.93
863.14	12367.56
863.461	12408.91
863.782	12379.31
864.103	12289.59
864.424	12279.42
864.745	12275.81
865.065	12211.63
865.386	12161.23
865.707	12238.52
866.027	12191.29
866.348	12218.63
866.668	12084.85
866.989	12107.9
867.309	11940.67
867.63	12012.99
867.95	11924.18
868.27	11831.53
868.59	11984.29
868.91	11918.75
869.23	11801.47
869.55	11761.47
869.87	11877.63
870.19	11795.59
870.51	11827.01
870.83	11745.88
871.15	11723.28
871.469	11675.37
871.789	11747.46
872.109	11694.35
872.428	11637.86
872.748	11631.08
873.067	11604.64
873.386	11552.66
873.706	11564.87
874.025	11484.19
874.344	11465.88
874.663	11502.49
874.982	11494.13
875.301	11502.72
875.62	11429.05
875.939	11335.27
876.258	11396.96
876.577	11297.75
876.896	11265.21
877.214	11331.2
877.533	11329.39
877.852	11237.42
878.17	11335.27
878.489	11270.86
878.807	11242.84
879.125	11182.05
879.444	11161.26
879.762	11119.91
880.08	11188.15
880.398	11084.65
880.716	11133.92
881.034	11067.03
881.352	11083.52
881.67	11025.22
881.988	11110.64
882.306	11020.92
882.624	10991.1
882.941	10963.98
883.259	10896.41
883.577	10911.55
883.894	10828.16
884.212	10852.34
884.529	10825.9
884.846	10815.73
885.164	10806.92
885.481	10735.73
885.798	10767.15
886.115	10683.08
886.432	10686.47
886.75	10622.52
887.067	10682.4
887.383	10538.68
887.7	10552.91
888.017	10559.69
888.334	10573.48
888.651	10479.47
888.967	10455.97
889.284	10406.25
889.6	10423.43
889.917	10288.74
890.233	10294.16
890.55	10271.34
890.866	10328.51
891.182	10200.16
891.498	10211.91
891.815	10196.54
892.131	10127.84
892.447	10105.69
892.763	10004
893.079	10035.41
893.395	9981.63
893.71	9962.65
894.026	9972.82
894.342	9911.58
894.657	9821.63
894.973	9806.95
895.289	9841.52
895.604	9797.45
895.92	9719.26
896.235	9630
896.55	9667.51
896.865	9670.68
897.181	9620.06
897.496	9553.39
897.811	9517.91
898.126	9560.4
898.441	9465.26
898.756	9467.75
899.071	9387.75
899.386	9385.49
899.7	9295.09
900.015	9334.19
900.33	9237.92
900.644	9226.62
900.959	9197.7
901.273	9121.09
901.588	9112.05
901.902	9098.49
902.216	9075.89
902.531	9026.4
902.845	9023.01
903.159	8966.97
903.473	8947.31
903.787	8896.24
904.101	8855.33
904.415	8889
904.729	8777.14
905.042	8707.09
905.356	8708.9
905.67	8775.79
905.984	8701.21
906.297	8666.18
906.611	8571.05
906.924	8567.2
907.237	8512.06
907.551	8508.9
907.864	8409.69
908.177	8415.8
908.491	8356.14
908.804	8366.08
909.117	8286.76
909.43	8211.51
909.743	8170.15
910.056	8161.11
910.368	8165.63
910.681	8108.01
910.994	8121.34
911.307	8022.36
911.619	7947.11
911.932	7981.23
912.244	7948.92
912.557	7933.77
912.869	7909.82
913.181	7834.57
913.494	7839.31
913.806	7773.55
914.118	7773.78
914.43	7730.62
914.742	7731.97
915.054	7602.03
915.366	7604.74
915.678	7567.46
915.99	7509.6
916.302	7512.09
916.613	7440.91
916.925	7439.78
917.236	7430.96
917.548	7333.34
917.859	7401.81
918.171	7315.94
918.482	7305.09
918.794	7231.87
919.105	7292.21
919.416	7108.71
919.727	7151.42
920.038	7142.38
920.349	7085.89
920.66	7015.15
920.971	7080.69
921.282	6968.15
921.593	6879.34
921.903	6900.13
922.214	6846.57
922.525	6870.3
922.835	6822.62
923.146	6790.75
923.456	6794.37
923.767	6761.6
924.077	6713.69
924.387	6666.46
924.697	6609.06
925.008	6661.27
925.318	6593.47
925.628	6577.88
925.938	6558.67
926.248	6498.11
926.558	6549.4
926.867	6455.17
927.177	6484.55
927.487	6386.92
927.796	6298.34
928.106	6323.65
928.416	6260.82
928.725	6304.21
929.034	6258.34
929.344	6228.96
929.653	6247.27
929.962	6213.82
930.271	6109.19
930.581	6094.73
930.89	6070.09
931.199	6036.42
931.508	6000.94
931.817	6020.15
932.125	5999.59
932.434	6015.18
932.743	5951.91
933.051	5906.26
933.36	5863.32
933.669	5817.67
933.977	5831.68
934.286	5772.25
934.594	5753.49
934.902	5759.82
935.21	5731.8
935.519	5720.5
935.827	5683.21
936.135	5665.59
936.443	5604.34
936.751	5576.1
937.059	5614.74
937.367	5531.8
937.674	5558.24
937.982	5541.97
938.29	5516.89
938.597	5497.91
938.905	5428.76
939.213	5413.39
939.52	5403.67
939.827	5448.19
940.135	5365.71
940.442	5278.48
940.749	5328.65
941.056	5325.26
941.363	5221.98
941.67	5227.86
941.977	5192.38
942.284	5131.59
942.591	5155.77
942.898	5123.68
943.205	5143.34
943.511	5097.24
943.818	5125.03
944.125	5008.43
944.431	5012.04
944.738	4986.96
945.044	4979.28
945.35	4951.48
945.657	4912.61
945.963	4909.67
946.269	4888.2
946.575	4926.85
946.881	4852.05
947.187	4819.28
947.493	4804.59
947.799	4795.1
948.105	4763.69
948.41	4706.74
948.716	4725.72
949.022	4691.83
949.327	4687.08
949.633	4614.09
949.938	4628.1
950.244	4576.35
950.549	4559.85
950.854	4603.47
951.16	4551.49
951.465	4543.36
951.77	4515.33
952.075	4462.23
952.38	4440.76
952.685	4471.27
952.99	4434.21
953.294	4438.05
953.599	4360.31
953.904	4339.07
954.209	4376.13
954.513	4331.61
954.818	4335.68
955.122	4320.99
955.426	4337.26
955.731	4250.71
956.035	4217.49
956.339	4203.25
956.643	4195.12
956.948	4191.95
957.252	4150.82
957.556	4134.33
957.86	4161.67
958.163	4098.17
958.467	4101.11
958.771	4032.18
959.075	4014.33
959.378	4032.63
959.682	4017.04
959.985	3996.7
960.289	3938.63
960.592	3981.11
960.896	3927.1
961.199	3928.68
961.502	3904.73
961.805	3850.27
962.108	3870.38
962.411	3829.93
962.714	3801.91
963.017	3800.78
963.32	3845.29
963.623	3788.57
963.926	3763.04
964.228	3755.13
964.531	3735.92
964.833	3735.69
965.136	3679.2
965.438	3674.23
965.741	3683.72
966.043	3644.4
966.345	3618.63
966.648	3601.23
966.95	3659.99
967.252	3620.44
967.554	3575.47
967.856	3567.34
968.158	3513.1
968.46	3536.15
968.761	3461.12
969.063	3461.35
969.365	3486.89
969.666	3451.63
969.968	3429.03
970.269	3419.32
970.571	3406.66
970.872	3397.17
971.174	3370.5
971.475	3370.5
971.776	3349.49
972.077	3312.65
972.378	3303.84
972.679	3309.72
972.98	3366.21
973.281	3268.81
973.582	3288.25
973.883	3227.01
974.183	3241.02
974.484	3230.62
974.785	3222.71
975.085	3178.65
975.386	3172.32
975.686	3142.26
975.986	3145.65
976.287	3133
976.587	3105.65
976.887	3088.93
977.187	3093.45
977.487	3085.77
977.787	3056.16
978.087	3026.33
978.387	3029.27
978.687	3005.54
978.987	2978.65
979.286	2996.96
979.586	2980.01
979.885	2982.72
980.185	2944.75
980.484	2934.58
980.784	2923.06
981.083	2919.44
981.382	2914.02
981.682	2882.16
981.981	2868.6
982.28	2864.53
982.579	2834.25
982.878	2860.01
983.177	2854.13
983.475	2811.42
983.774	2787.92
984.073	2804.87
984.372	2730.07
984.67	2754.02
984.969	2750.18
985.267	2728.94
985.566	2739.11
985.864	2694.82
986.162	2674.93
986.461	2674.25
986.759	2713.35
987.057	2624.76
987.355	2633.12
987.653	2630.86
987.951	2586.8
988.249	2600.36
988.547	2576.85
988.844	2589.96
989.142	2544.99
989.44	2552.67
989.737	2519.68
990.035	2524.88
990.332	2537.08
990.63	2510.19
990.927	2478.1
991.224	2489.4
991.521	2479.91
991.819	2444.88
992.116	2435.61
992.413	2436.74
992.71	2438.1
993.006	2409.17
993.303	2399
993.6	2392.23
993.897	2400.81
994.193	2363.53
994.49	2359.68
994.787	2336.41
995.083	2347.71
995.379	2308.61
995.676	2300.25
995.972	2297.54
996.268	2284.88
996.565	2279.46
996.861	2255.96
997.157	2276.52
997.453	2256.86
997.749	2246.47
998.044	2196.52
998.34	2185.9
998.636	2195.17
998.932	2192.68
999.227	2162.63
999.523	2159.69
999.818	2136.64
1000.114	2111.33
1000.409	2124.89
1000.704	2136.19
1001	2112.01
1001.295	2081.95
1001.59	2084.44
1001.885	2076.3
1002.18	2048.73
1002.475	2022.97
1002.77	2045.34
1003.065	2036.08
1003.359	1988.62
1003.654	1966.25
1003.949	2031.1
1004.243	1990.88
1004.538	1941.16
1004.832	1955.63
1005.127	1951.78
1005.421	1915.18
1005.715	1908.4
1006.009	1898.9
1006.304	1905.01
1006.598	1854.16
1006.892	1856.65
1007.186	1864.33
1007.48	1856.87
1007.773	1854.39
1008.067	1821.62
1008.361	1813.71
1008.655	1810.32
1008.948	1791.56
1009.242	1794.5
1009.535	1787.04
1009.829	1752.69
1010.122	1758.12
1010.415	1739.59
1010.708	1723.32
1011.001	1700.94
1011.295	1733.26
1011.588	1730.32
1011.881	1673.37
1012.173	1689.64
1012.466	1682.19
1012.759	1626.82
1013.052	1658.69
1013.344	1655.3
1013.637	1613.94
1013.93	1652.36
1014.222	1609.87
1014.514	1589.76
1014.807	1586.14
1015.099	1567.61
1015.391	1614.62
1015.683	1569.87
1015.976	1572.13
1016.268	1540.27
1016.56	1558.57
1016.851	1539.37
1017.143	1520.84
1017.435	1494.4
1017.727	1512.25
1018.018	1495.75
1018.31	1457.11
1018.602	1482.19
1018.893	1474.96
1019.185	1443.55
1019.476	1446.94
1019.767	1432.48
1020.058	1456.88
1020.35	1433.15
1020.641	1380.05
1020.932	1405.81
1021.223	1412.14
1021.514	1383.21
1021.804	1361.74
1022.095	1343.21
1022.386	1343.67
1022.677	1315.42
1022.967	1322.87
1023.258	1309.09
1023.548	1310.67
1023.839	1283.1
1024.129	1288.53
1024.419	1298.69
1024.709	1273.84
1025	1255.31
1025.29	1270.9
1025.58	1256.89
1025.87	1232.93
1026.16	1223.89
1026.449	1240.84
1026.739	1215.98
1027.029	1204.01
1027.319	1209.88
1027.608	1172.6
1027.898	1182.77
1028.187	1173.05
1028.477	1157.23
1028.766	1188.42
1029.055	1152.71
1029.344	1152.94
1029.634	1131.47
1029.923	1117.91
1030.212	1105.93
1030.501	1132.37
1030.79	1123.33
1031.078	1117.91
1031.367	1077.23
1031.656	1093.05
1031.945	1070
1032.233	1062.32
1032.522	1046.27
1032.81	1056.89
1033.099	1066.38
1033.387	1065.25
1033.675	1053.28
1033.963	1031.81
1034.251	1025.93
1034.54	1026.61
1034.828	1032.26
1035.116	996.33
1035.403	995.2
1035.691	996.78
1035.979	999.72
1036.267	975.31
1036.554	971.25
1036.842	987.06
1037.129	988.42
1037.417	991.36
1037.704	983
1037.992	959.04
1038.279	918.82
1038.566	940.96
1038.853	940.96
1039.14	940.96
