Data from breadboard_white_FLMS001491_00076.txt Node
Date: Wed Feb 08 10:48:15 GMT 2017
User: dcchb
Spectrometer: FLMS00149
Trigger mode: 0
Integration Time (sec): 2.000000E-2
Scans to average: 10
Electric dark correction enabled: true
Nonlinearity correction enabled: false
Boxcar width: 0
XAxis mode: Wavelengths
Number of Pixels in Spectrum: 2048
>>>>>Begin Spectral Data<<<<<
341.393	-19.6
341.776	-19.6
342.16	-19.6
342.543	-69.77
342.927	-70.45
343.31	-64.35
343.693	-76.33
344.077	-48.53
344.46	-57.8
344.843	-44.46
345.226	-36.33
345.61	-18.25
345.993	-8.3
346.376	-29.55
346.759	11.58
347.142	27.4
347.525	37.57
347.908	60.62
348.291	73.27
348.674	77.12
349.057	96.33
349.44	132.71
349.823	139.49
350.206	145.36
350.588	208.86
350.971	222.88
351.354	232.14
351.737	236.66
352.119	270.11
352.502	261.97
352.884	284.57
353.267	289.09
353.65	300.16
354.032	318.01
354.414	318.69
354.797	321.86
355.179	327.73
355.562	326.38
355.944	331.57
356.326	352.82
356.709	354.17
357.091	336.09
357.473	348.52
357.855	361.85
358.238	364.79
358.62	367.28
359.002	355.98
359.384	348.75
359.766	362.08
360.148	347.39
360.53	357.79
360.912	366.6
361.294	357.11
361.676	331.35
362.057	360.05
362.439	317.79
362.821	343.78
363.203	358.47
363.584	344.68
363.966	343.1
364.348	354.62
364.729	335.64
365.111	364.57
365.493	346.26
365.874	349.2
366.256	351.23
366.637	319.82
367.019	337
367.4	341.29
367.781	338.8
368.163	351.91
368.544	338.13
368.925	349.43
369.306	336.32
369.688	339.26
370.069	347.39
370.45	348.3
370.831	338.58
371.212	346.49
371.593	328.41
371.974	348.3
372.355	354.17
372.736	362.76
373.117	333.61
373.498	358.24
373.879	339.71
374.26	340.39
374.641	361.4
375.021	360.95
375.402	335.41
375.783	359.82
376.163	355.3
376.544	373.38
376.925	386.94
377.305	378.58
377.686	381.29
378.066	372.25
378.447	408.86
378.827	379.48
379.208	370.89
379.588	387.84
379.968	390.1
380.349	395.3
380.729	394.17
381.109	385.13
381.489	399.37
381.87	397.79
382.25	388.29
382.63	387.84
383.01	408.18
383.39	413.15
383.77	422.64
384.15	433.72
384.53	434.17
384.91	411.35
385.29	442.53
385.67	402.53
386.049	442.76
386.429	436.43
386.809	430.78
387.189	433.94
387.568	433.04
387.948	421.06
388.328	427.84
388.707	473.26
389.087	455.19
389.466	456.99
389.846	461.97
390.225	490.89
390.605	479.14
390.984	476.65
391.363	485.47
391.743	470.1
392.122	485.92
392.501	519.59
392.881	504.68
393.26	490.44
393.639	511.91
394.018	527.05
394.397	509.65
394.776	544.9
395.155	551.23
395.534	533.15
395.913	550.78
396.292	538.57
396.671	570.66
397.05	564.56
397.429	589.65
397.808	573.37
398.186	561.85
398.565	578.57
398.944	598.91
399.323	592.36
399.701	628.74
400.08	622.41
400.458	641.17
400.837	641.17
401.215	658.8
401.594	649.98
401.972	694.73
402.351	678.68
402.729	656.99
403.107	698.34
403.486	702.64
403.864	671.68
404.242	742.64
404.62	747.61
404.999	768.4
405.377	753.71
405.755	777.89
406.133	764.78
406.511	798.23
406.889	816.53
407.267	834.61
407.645	847.27
408.023	847.94
408.401	880.94
408.779	862.41
409.156	901.05
409.534	886.59
409.912	936.3
410.29	941.73
410.667	986.7
411.045	985.57
411.422	987.6
411.8	982.18
412.178	1062.85
412.555	1028.73
412.933	1066.92
413.31	1076.19
413.687	1105.79
414.065	1104.66
414.442	1134.04
414.819	1162.74
415.197	1173.58
415.574	1211.1
415.951	1199.8
416.328	1205.22
416.705	1237.31
417.082	1265.33
417.46	1250.87
417.837	1285.22
418.214	1320.02
418.591	1316.18
418.967	1301.49
419.344	1350.53
419.721	1379.68
420.098	1386.23
420.475	1414.26
420.852	1433.69
421.228	1437.53
421.605	1463.75
421.982	1474.14
422.358	1489.06
422.735	1507.81
423.111	1503.29
423.488	1563.18
423.864	1537.42
424.241	1578.77
424.617	1618.55
424.994	1630.3
425.37	1610.86
425.746	1641.6
426.123	1670.97
426.499	1696.74
426.875	1708.71
427.251	1739.22
427.627	1779.67
428.003	1799.11
428.379	1830.74
428.756	1822.38
429.132	1860.57
429.507	1873.23
429.883	1889.95
430.259	1960
430.635	1949.38
431.011	1989.83
431.387	2067.57
431.763	2047.01
432.138	2089.27
432.514	2122.03
432.89	2138.08
433.265	2198.64
433.641	2201.13
434.016	2216.95
434.392	2269.38
434.767	2317.74
435.143	2319.77
435.518	2399.09
435.894	2331.07
436.269	2444.29
436.644	2433.21
437.02	2466.21
437.395	2504.85
437.77	2513.89
438.145	2529.48
438.52	2594.34
438.895	2618.07
439.271	2627.33
439.646	2705.52
440.021	2675.24
440.395	2708.23
440.77	2684.96
441.145	2761.79
441.52	2819.42
441.895	2775.12
442.27	2835.01
442.645	2818.29
443.019	2885.4
443.394	2876.59
443.769	2932.86
444.143	2947.55
444.518	2992.29
444.892	2970.6
445.267	3008.79
445.641	3085.17
446.016	3082.69
446.39	3055.8
446.764	3067.55
447.139	3084.04
447.513	3112.07
447.887	3158.39
448.262	3163.14
448.636	3206.75
449.01	3244.94
449.384	3235.9
449.758	3254.66
450.132	3342.12
450.506	3364.04
450.88	3369.23
451.254	3382.57
451.628	3430.93
452.002	3486.29
452.376	3540.08
452.75	3538.49
453.123	3575.78
453.497	3640.41
453.871	3668.89
454.244	3770.8
454.618	3769
454.992	3842.22
455.365	3815.1
455.739	3882.21
456.112	3947.07
456.486	4003.12
456.859	3987.97
457.232	4104.58
457.606	4081.31
457.979	4150.46
458.352	4252.6
458.725	4313.84
459.099	4322.43
459.472	4420.05
459.845	4481.75
460.218	4538.69
460.591	4578.69
460.964	4530.56
461.337	4700.05
461.71	4792.25
462.083	4827.27
462.456	4835.86
462.829	4876.54
463.201	4954.28
463.574	4992.92
463.947	5076.76
464.32	5210.77
464.692	5242.4
465.065	5277.21
465.438	5374.6
465.81	5426.81
466.183	5474.94
466.555	5643.52
466.928	5644.43
467.3	5629.96
467.672	5789.51
468.045	5935.04
468.417	5905.66
468.789	5984.53
469.161	6100.24
469.534	6178.43
469.906	6280.8
470.278	6224.75
470.65	6395.14
471.022	6503.61
471.394	6657.06
471.766	6710.16
472.138	6779.54
472.51	6891.4
472.882	7094.56
473.253	7114.22
473.625	7224.5
473.997	7400.99
474.369	7459.97
474.74	7626.52
475.112	7727.08
475.484	7851.6
475.855	7931.6
476.227	8011.6
476.598	8205.04
476.97	8372.49
477.341	8494.52
477.713	8673.5
478.084	8743.56
478.455	8988.97
478.827	9033.27
479.198	9249.08
479.569	9273.71
479.94	9601.16
480.311	9648.84
480.682	9890.64
481.053	10105.78
481.424	10256.28
481.795	10355.04
482.166	10562.04
482.537	10722.49
482.908	10907.11
483.279	11035.47
483.65	11206.77
484.021	11515.69
484.391	11457.61
484.762	11622.8
485.133	11781.67
485.503	12070.93
485.874	12207.42
486.244	12362.67
486.615	12566.51
486.985	12728.31
487.356	12951.35
487.726	13113.38
488.097	13393.83
488.467	13469.31
488.837	13725.35
489.207	13859.81
489.578	14123.98
489.948	14070.42
490.318	14417.53
490.688	14481.26
491.058	14641.25
491.428	14973.45
491.798	15151.52
492.168	15358.07
492.538	15356.04
492.908	15566.88
493.278	15881.9
493.648	15901.11
494.017	16202.79
494.387	16261.55
494.757	16423.81
495.126	16523.69
495.496	16735.21
495.866	16716
496.235	16991.93
496.605	17202.77
496.974	17255.65
497.344	17448.64
497.713	17586.26
498.082	17628.75
498.452	17965.23
498.821	17959.13
499.19	18030.32
499.559	18311.44
499.928	18402.28
500.298	18537.87
500.667	18707.14
501.036	18658.55
501.405	18879.11
501.774	18950.97
502.143	19166.11
502.512	19256.95
502.88	19470.05
503.249	19538.07
503.618	19640.67
503.987	19739.88
504.356	19869.82
504.724	19989.36
505.093	20117.49
505.462	20289.92
505.83	20356.36
506.199	20587.76
506.567	20785.5
506.936	20820.75
507.304	21047.41
507.672	21244.24
508.041	21302.77
508.409	21528.53
508.777	21624.57
509.145	21796.55
509.514	21920.84
509.882	22101.85
510.25	22239.92
510.618	22461.39
510.986	22492.35
511.354	22574.83
511.722	22940.02
512.09	23142.05
512.458	23095.49
512.826	23434.69
513.193	23522.38
513.561	23525.54
513.929	23721.47
514.297	23963.04
514.664	24185.86
515.032	24242.81
515.4	24478.96
515.767	24581.11
516.135	24735.9
516.502	24706.98
516.869	25204.14
517.237	25260.64
517.604	25193.52
517.972	25558.71
518.339	25812.26
518.706	25935.19
519.073	26106.94
519.44	26239.82
519.808	26499.25
520.175	26564.1
520.542	26918.22
520.909	27018.33
521.276	27141.72
521.643	27390.3
522.009	27700.35
522.376	27750.74
522.743	27922.49
523.11	28212.87
523.477	28614.67
523.843	28808.11
524.21	28961.1
524.577	29199.97
524.943	29505.04
525.31	29577.58
525.676	29853.06
526.043	29933.51
526.409	30188.42
526.776	30498.69
527.142	30610.33
527.508	30848.06
527.874	30965.57
528.241	31100.03
528.607	31304.54
528.973	31598.1
529.339	31608.72
529.705	31927.58
530.071	32205.76
530.437	32369.6
530.803	32526.43
531.169	32667.22
531.535	32712.64
531.901	32945.4
532.267	33060.2
532.632	33384.04
532.998	33448.22
533.364	33727.08
533.73	33798.49
534.095	34029.44
534.461	34212.26
534.826	34414.29
535.192	34482.99
535.557	34706.26
535.923	34565.48
536.288	34953.04
536.653	35099.25
537.019	35045.24
537.384	35210.66
537.749	35447.03
538.114	35501.27
538.479	35660.81
538.845	35693.13
539.21	35759.12
539.575	35841.37
539.94	35956.63
540.305	36256.5
540.67	36109.16
541.034	36478.87
541.399	36600.45
541.764	36750.28
542.129	36787.79
542.494	36975.58
542.858	37073.21
543.223	37107.1
543.587	37335.12
543.952	37330.83
544.316	37598.62
544.681	37482.69
545.045	37739.4
545.41	37918.16
545.774	37950.02
546.138	37913.64
546.503	38192.05
546.867	38188.2
547.231	38574.18
547.595	38644.69
547.959	38755.2
548.324	38833.61
548.688	39002.19
549.052	39144.11
549.416	39123.55
549.779	39248.06
550.143	39382.75
550.507	39662.29
550.871	39752.01
551.235	39718.56
551.599	40010.98
551.962	40074.93
552.326	40289.84
552.689	40437.19
553.053	40312.22
553.417	40431.54
553.78	41007.34
554.143	40823.16
554.507	40958.08
554.87	41121.24
555.234	41375.01
555.597	41369.14
555.96	41567.1
556.323	41688
556.686	41715.57
557.05	41966.64
557.413	42282.11
557.776	42391.71
558.139	42608.2
558.502	42624.02
558.865	42793.51
559.228	43167.28
559.59	43218.58
559.953	43226.72
560.316	43531.12
560.679	43691.56
561.041	43932.91
561.404	44155.05
561.767	44314.6
562.129	44152.79
562.492	44661.93
562.854	44690.41
563.217	44690.41
563.579	44881.36
563.941	45113.67
564.304	45421.46
564.666	45529.93
565.028	45568.12
565.39	45760.89
565.753	45995.68
566.115	46173.98
566.477	46386.41
566.839	46473.86
567.201	46844.02
567.563	46707.75
567.925	47057.12
568.287	46976.45
568.648	47056.67
569.01	47316.55
569.372	47453.95
569.734	47491.92
570.095	47644.68
570.457	47802.87
570.819	47831.79
571.18	47891.9
571.542	48157.66
571.903	48168.51
572.265	48313.14
572.626	48462.96
572.987	48500.7
573.349	48714.26
573.71	48887.58
574.071	48873.57
574.432	48997.19
574.794	49306.33
575.155	49121.7
575.516	49076.28
575.877	49299.78
576.238	49409.38
576.599	49472.65
576.96	49539.54
577.32	49548.36
577.681	49728.01
578.042	49780.89
578.403	49695.47
578.763	49695.02
579.124	49813.44
579.485	50015.92
579.845	50137.95
580.206	50070.15
580.566	49960.1
580.927	50031.28
581.287	50235.8
581.648	50154.9
582.008	50317.83
582.368	50303.82
582.728	50389.92
583.089	50244.16
583.449	50293.88
583.809	50322.58
584.169	50288.68
584.529	50345.85
584.889	50461.78
585.249	50216.36
585.609	50310.6
585.969	50510.82
586.329	50299.52
586.688	50433.53
587.048	50272.63
587.408	50308.79
587.768	50286.64
588.127	50276.25
588.487	50250.71
588.846	50413.65
589.206	50275.57
589.565	50273.99
589.925	50532.06
590.284	50401.22
590.643	50403.25
591.003	50494.1
591.362	50624.26
591.721	50471.95
592.08	50459.52
592.44	50537.48
592.799	50641.89
593.158	50639.18
593.517	50511.72
593.876	50556.24
594.235	50495.9
594.593	50602.12
594.952	50652.28
595.311	50596.01
595.67	50712.85
596.029	50878.72
596.387	50756.46
596.746	50999.39
597.104	50680.08
597.463	50722.56
597.822	50903.58
598.18	50749.46
598.538	50727.31
598.897	51003.01
599.255	50587.88
599.613	51141.76
599.972	50901.99
600.33	50874.2
600.688	50829.45
601.046	50944.48
601.404	51090.24
601.762	51010.92
602.12	51222.21
602.478	51220.86
602.836	51164.59
603.194	51027.19
603.552	51097.02
603.91	51011.14
604.268	51205.04
604.625	51163.46
604.983	51154.64
605.341	51044.14
605.698	51328.42
606.056	51422.21
606.413	51334.07
606.771	51422.43
607.128	51615.65
607.485	51318.48
607.843	51412.26
608.2	51597.12
608.557	51599.6
608.914	51491.58
609.272	51664.23
609.629	51693.84
609.986	51860.61
610.343	51652.48
610.7	52011.34
611.057	51881.86
611.414	51788.98
611.771	51766.15
612.127	52022.87
612.484	51862.2
612.841	52070.78
613.198	51905.58
613.554	51843.67
613.911	52114.39
614.267	52050.89
614.624	52112.58
614.98	52198.91
615.337	52264.67
615.693	52263.32
616.05	52131.57
616.406	52400.94
616.762	52223.09
617.118	52356.42
617.475	52337.89
617.831	52442.29
618.187	52418.57
618.543	52437.32
618.899	52582.18
619.255	52485.46
619.611	52556.19
619.967	52579.01
620.323	52593.02
620.678	52503.99
621.034	52449.98
621.39	52532.91
621.746	52508.28
622.101	52856.75
622.457	52578.11
622.812	52586.7
623.168	52644.55
623.523	52648.84
623.879	52780.59
624.234	52557.54
624.589	52675.28
624.945	52618.11
625.3	52664.66
625.655	52573.59
626.01	52611.78
626.365	52677.09
626.72	52603.65
627.075	52529.75
627.43	52560.48
627.785	52527.04
628.14	52467.38
628.495	52544.44
628.85	52534.49
629.205	52470.99
629.559	52587.83
629.914	52428.51
630.269	52499.02
630.623	52400.71
630.978	52389.41
631.332	52508.28
631.687	52490.88
632.041	52330.21
632.396	52306.7
632.75	52237.1
633.104	52231.9
633.459	52129.76
633.813	52111.23
634.167	52109.19
634.521	52134.5
634.875	52077.56
635.229	52068.74
635.583	51830.33
635.937	51973.38
636.291	51833.04
636.645	51777.45
636.999	51805.7
637.352	51946.26
637.706	51594.86
638.06	51802.08
638.413	51751.46
638.767	51623.33
639.121	51713.72
639.474	51455.2
639.828	51465.37
640.181	51514.18
640.534	51459.27
640.888	51473.73
641.241	51286.17
641.594	51374.75
641.947	51533.84
642.301	51292.04
642.654	51286.17
643.007	51268.09
643.36	51146.73
643.713	51085.49
644.066	51141.54
644.419	50948.32
644.771	50806.86
645.124	50651.61
645.477	50551.95
645.83	50353.08
646.182	50048.01
646.535	49855.02
646.888	49993.54
647.24	49732.31
647.593	49935.69
647.945	49875.58
648.298	49560.79
648.65	49571.86
649.002	49472.88
649.355	49638.98
649.707	49641.24
650.059	49817.5
650.411	50261.79
650.763	50226.08
651.115	50535.45
651.467	50345.85
651.819	50321.9
652.171	50181.79
652.523	50102.02
652.875	50199.87
653.227	50011.85
653.578	50187.21
653.93	50131.85
654.282	49970.72
654.633	49873.77
654.985	49996.26
655.337	49915.81
655.688	49972.08
656.039	50062.24
656.391	49791.74
656.742	49882.59
657.094	49820.67
657.445	49879.2
657.796	49752.65
658.147	49856.82
658.498	49686.43
658.849	49735.92
659.2	49636.27
659.551	49544.06
659.902	49629.71
660.253	49541.13
660.604	49651.63
660.955	49402.15
661.306	49636.94
661.656	49427.23
662.007	49540.45
662.358	49487.79
662.708	49502.94
663.059	49457.51
663.409	49231.08
663.76	49439.21
664.11	49350.85
664.461	49336.16
664.811	49328.7
665.161	49323.28
665.511	49301.13
665.862	49360.11
666.212	49428.14
666.562	49354.24
666.912	49220.01
667.262	49100.69
667.612	49246.67
667.962	49212.55
668.312	49139.56
668.662	49213.9
669.011	49258.87
669.361	49110.4
669.711	49046
670.06	49142.27
670.41	49143.4
670.76	48982.5
671.109	49238.08
671.459	49085.77
671.808	48997.19
672.157	49050.29
672.507	48759.68
672.856	48759.45
673.205	48799.9
673.554	48851.88
673.904	48798.77
674.253	48880.35
674.602	48806
674.951	48300.48
675.3	48112.69
675.649	48681.04
675.998	48557.42
676.346	48649.4
676.695	48718.55
677.044	48327.6
677.393	48574.37
677.741	48579.57
678.09	48450.31
678.438	48368.73
678.787	48398.33
679.135	48427.48
679.484	48178
679.832	48271.1
680.181	48187.04
680.529	48252.8
680.877	48072.01
681.225	48096.87
681.573	48311.1
681.922	47829.76
682.27	47828.18
682.618	47846.71
682.966	47792.47
683.314	47862.53
683.661	47662.31
684.009	47462.09
684.357	47257.57
684.705	47284.46
685.053	47389.54
685.4	47235.65
685.748	47020.52
686.095	47000.85
686.443	46923.57
686.79	46799.96
687.138	46888.77
687.485	46844.7
687.832	46721.54
688.18	46755.66
688.527	46530.13
688.874	46429.8
689.221	46385.73
689.568	46291.27
689.915	46204.72
690.262	46126.53
690.609	45980.54
690.956	45975.34
691.303	45905.29
691.65	45756.14
691.997	45779.87
692.344	45514.79
692.69	45458.97
693.037	45419.65
693.383	45188.02
693.73	45342.59
694.077	45074.8
694.423	45030.28
694.769	44849.05
695.116	44774.7
695.462	44672.55
695.808	44653.57
696.155	44617.64
696.501	44314.15
696.847	44325.9
697.193	43925.46
697.539	44227.14
697.885	43848.17
698.231	43634.39
698.577	43882.97
698.923	43705.35
699.269	43418.8
699.614	43263.33
699.96	43257.22
700.306	43104.23
700.651	43088.19
700.997	42976.1
701.342	42754.86
701.688	42730.68
702.033	42683.23
702.379	42563.91
702.724	42530.46
703.069	42548.77
703.415	42091.83
703.76	42137.48
704.105	42203.69
704.45	41935.23
704.795	41681.45
705.14	41778.17
705.485	41689.36
705.83	41486.42
706.175	41574.78
706.52	41252.31
706.865	41145.19
707.209	41252.31
707.554	41062.25
707.899	41098.18
708.243	40787.46
708.588	40854.58
708.932	40562.61
709.277	40550.85
709.621	40614.13
709.966	40235.16
710.31	40386.34
710.654	39925.11
710.998	40070.64
711.342	40084.65
711.687	39932.79
712.031	39751.55
712.375	39626.13
712.719	39712.23
713.063	39574.61
713.407	39634.95
713.75	39376.2
714.094	39321.06
714.438	39120.84
714.782	39249.42
715.125	39015.75
715.469	39118.58
715.812	39013.95
716.156	38805.59
716.499	38710
716.843	38934.4
717.186	38469.55
717.53	38751.81
717.873	38681.53
718.216	38630.68
718.559	38359.73
718.902	38148.43
719.246	38229.11
719.589	38174.42
719.932	37895.78
720.275	38031.6
720.617	37856.91
720.96	37927.42
721.303	37844.71
721.646	37939.85
721.989	37512.06
722.331	37710.93
722.674	37625.51
723.016	37577.37
723.359	37351.39
723.701	37476.59
724.044	37128.12
724.386	37075.69
724.729	37059.65
725.071	37020.33
725.413	36924.51
725.755	36880.67
726.097	36733.78
726.439	36560.68
726.782	36725.19
727.124	36785.08
727.465	36593.9
727.807	36525.2
728.149	36426.44
728.491	36335.37
728.833	36371.3
729.175	36239.78
729.516	36214.7
729.858	36169.95
730.199	36239.33
730.541	36094.25
730.882	35998.43
731.224	35994.36
731.565	35827.82
731.906	35859.9
732.248	35771.55
732.589	35747.59
732.93	35687.03
733.271	35661.49
733.612	35652
733.953	35716.18
734.294	35444.1
734.635	35354.83
734.976	35496.75
735.317	35301.95
735.658	35252.69
735.999	35247.49
736.339	34976.54
736.68	35153.03
737.021	34901.74
737.361	34797.56
737.702	34998.01
738.042	34841.85
738.383	34806.6
738.723	34888.18
739.063	34542.2
739.404	34819.25
739.744	34728.63
740.084	34558.92
740.424	34533.61
740.764	34481.18
741.104	34495.19
741.444	34332.94
741.784	34154.64
742.124	34313.5
742.464	34162.1
742.804	34173.4
743.143	34128.88
743.483	34101.98
743.823	33901.99
744.162	33977.69
744.502	33874.42
744.841	33758.72
745.181	33899.28
745.52	33730.02
745.86	33811.6
746.199	33444.15
746.538	33510.14
746.877	33534.99
747.216	33299.52
747.556	33285.96
747.895	33407.99
748.234	33192.18
748.573	33167.09
748.911	33146.3
749.25	33177.72
749.589	33002.13
749.928	32969.13
750.267	32970.71
750.605	32803.04
750.944	32677.16
751.283	32595.13
751.621	32597.39
751.96	32449.6
752.298	32404.18
752.636	32412.99
752.975	32187.01
753.313	32096.84
753.651	32235.59
753.989	32162.6
754.327	32004.19
754.666	31772.78
755.004	31923.28
755.342	31818.88
755.679	31728.71
756.017	31587.47
756.355	31736.62
756.693	31521.04
757.031	31436.97
757.368	31312.68
757.706	31386.35
758.044	31179.12
758.381	31233.59
758.719	31078.11
759.056	30961.5
759.394	30851.9
759.731	30730.32
760.068	30645.58
760.405	30689.87
760.743	30417.79
761.08	30578.01
761.417	30251.92
761.754	30268.19
762.091	30154.74
762.428	30081.75
762.765	29978.48
763.102	30020.28
763.438	29696
763.775	29716.34
764.112	29674.53
764.449	29743
764.785	29470.92
765.122	29285.16
765.458	29237.03
765.795	29131.04
766.131	29126.52
766.467	28993.42
766.804	28808.56
767.14	28652.64
767.476	28725.63
767.812	28531.96
768.148	28637.72
768.485	28454.68
768.821	28287.67
769.157	28234.79
769.492	28079.09
769.828	28077.74
770.164	27898.08
770.5	27778.54
770.836	27768.14
771.171	27589.39
771.507	27515.72
771.842	27240.02
772.178	27329.51
772.513	27203.18
772.849	27006.58
773.184	27106.24
773.519	26943.53
773.855	26845.9
774.19	26650.88
774.525	26698.79
774.86	26555.06
775.195	26558.45
775.53	26454.5
775.865	26201.18
776.2	26093.61
776.535	25973.84
776.87	26000.28
777.205	25886.16
777.539	25759.83
777.874	25663.56
778.209	25605.71
778.543	25560.51
778.878	25314.87
779.212	25365.49
779.547	25226.06
779.881	25235.78
780.215	24977.7
780.55	25088.66
780.884	24864.71
781.218	24846.63
781.552	24780.65
781.886	24572.29
782.22	24484.16
782.554	24588.56
782.888	24190.83
783.222	24119.65
783.556	23956.26
783.889	24042.14
784.223	23856.83
784.557	23823.16
784.89	23835.59
785.224	23712.43
785.557	23539.55
785.891	23502.26
786.224	23371.87
786.558	23432.89
786.891	23191.31
787.224	23258.65
787.557	23003.29
787.891	23062.5
788.224	22938.66
788.557	22879
788.89	22957.87
789.223	22785.9
789.556	22630.87
789.888	22588.84
790.221	22419.35
790.554	22353.14
790.887	22316.31
791.219	22169.42
791.552	22216.2
791.884	22012.36
792.217	21989.53
792.549	21879.93
792.882	21673.84
793.214	21657.57
793.546	21715.87
793.879	21557.91
794.211	21486.05
794.543	21494.41
794.875	21460.96
795.207	21476.55
795.539	21332.38
795.871	21244.7
796.203	20982.33
796.535	20994.76
796.867	20906.63
797.198	20945.72
797.53	20857.36
797.862	20721.09
798.193	20816.68
798.525	20666.63
798.856	20666.18
799.188	20430.48
799.519	20430.71
799.85	20207.89
800.182	20374.66
800.513	20221.22
800.844	20142.35
801.175	20100.09
801.506	20154.33
801.837	20093.54
802.168	19992.07
802.499	19909.14
802.83	19847.9
803.161	19704.17
803.491	19715.47
803.822	19660.56
804.153	19518.19
804.483	19435.48
804.814	19377.17
805.145	19309.15
805.475	19330.4
805.805	19141.7
806.136	19216.05
806.466	19258.99
806.796	19079.78
807.126	18990.29
807.457	18877.98
807.787	18970.18
808.117	18916.17
808.447	18805.21
808.777	18842.5
809.107	18634.14
809.436	18610.19
809.766	18699.45
810.096	18609.96
810.426	18475.5
810.755	18494.71
811.085	18484.32
811.414	18403.87
811.744	18303.08
812.073	18146.47
812.403	18264.21
812.732	18094.27
813.061	18144.66
813.39	17945.8
813.719	18031.22
814.049	17923.65
814.378	18046.36
814.707	17844.11
815.036	17825.35
815.365	17691.79
815.693	17607.28
816.022	17566.83
816.351	17491.12
816.68	17474.17
817.008	17414.51
817.337	17333.61
817.665	17399.37
817.994	17435.08
818.322	17398.02
818.651	17226.04
818.979	17172.49
819.307	17306.04
819.636	17186.95
819.964	17086.61
820.292	17162.54
820.62	17086.39
820.948	17085.48
821.276	17131.36
821.604	17040.74
821.932	17145.82
822.259	17054.3
822.587	17064.69
822.915	16918.48
823.243	17098.36
823.57	17008.87
823.898	16927.75
824.225	16910.35
824.553	16919.61
824.88	16983.79
825.207	17124.35
825.535	16938.59
825.862	16981.98
826.189	16941.98
826.516	17041.64
826.843	16937.24
827.17	16984.92
827.497	17066.05
827.824	16979.72
828.151	16969.78
828.478	16964.58
828.805	17093.39
829.131	16951.25
829.458	16833.29
829.785	16861.99
830.111	16893.17
830.438	16886.62
830.764	16906.96
831.09	16835.09
831.417	16791.03
831.743	16859.95
832.069	16822.21
832.395	16765.94
832.722	16838.03
833.048	16728.2
833.374	16701.31
833.7	16631.94
834.026	16739.96
834.351	16757.58
834.677	16702.44
835.003	16721.42
835.329	16686.4
835.654	16729.33
835.98	16548.1
836.306	16531.6
836.631	16525.5
836.956	16556.46
837.282	16527.31
837.607	16423.13
837.932	16426.52
838.258	16438.27
838.583	16400.76
838.908	16263.58
839.233	16337.03
839.558	16218.16
839.883	16125.06
840.208	16212.96
840.533	16194.88
840.858	16283.02
841.182	16055.23
841.507	16093.42
841.832	16050.26
842.156	16020.88
842.481	15960.99
842.805	15920.32
843.13	15877.83
843.454	15844.84
843.778	15770.94
844.103	15729.59
844.427	15749.47
844.751	15696.14
845.075	15695.24
845.399	15618.63
845.723	15640.1
846.047	15548.35
846.371	15498.86
846.695	15419.31
847.019	15264.06
847.343	15292.54
847.666	15139.32
847.99	15106.33
848.313	15031.07
848.637	15047.12
848.96	15020.68
849.284	14975.48
849.607	14770.74
849.931	14808.03
850.254	14732.55
850.577	14674.47
850.9	14582.5
851.223	14590.86
851.546	14406.91
851.869	14331.21
852.192	14338.21
852.515	14219.12
852.838	14142.96
853.161	14199.01
853.483	14030.87
853.806	14006.69
854.129	13994.26
854.451	13987.71
854.774	13901.39
855.096	13784.55
855.419	13833.14
855.741	13774.16
856.063	13710.2
856.385	13780.49
856.708	13686.25
857.03	13654.61
857.352	13633.82
857.674	13572.13
857.996	13532.81
858.318	13422.75
858.64	13533.26
858.961	13357.45
859.283	13400.38
859.605	13362.19
859.926	13387.05
860.248	13323.1
860.57	13212.59
860.891	13166.49
861.212	13169.43
861.534	13125.81
861.855	13075.87
862.176	13074.51
862.498	13059.6
862.819	13011.92
863.14	12913.39
863.461	12896.21
863.782	12906.61
864.103	12911.81
864.424	12927.4
864.745	12945.03
865.065	12799.49
865.386	12778.03
865.707	12731.47
866.027	12772.15
866.348	12715.43
866.668	12700.06
866.989	12631.36
867.309	12562.44
867.63	12561.08
867.95	12540.29
868.27	12387.98
868.59	12497.81
868.91	12438.83
869.23	12426.4
869.55	12289.68
869.87	12409.45
870.19	12445.6
870.51	12411.26
870.83	12381.2
871.15	12257.59
871.469	12333.29
871.789	12304.82
872.109	12286.51
872.428	12175.33
872.748	12297.81
873.067	12300.52
873.386	12239.06
873.706	12234.99
874.025	12134.2
874.344	12132.39
874.663	12149.12
874.982	12070.47
875.301	12120.42
875.62	12070.25
875.939	12039.29
876.258	12054.43
876.577	11882
876.896	11947.31
877.214	11980.08
877.533	11920.2
877.852	11894.21
878.17	11828.9
878.489	11897.37
878.807	11882.23
879.125	11799.07
879.444	11817.82
879.762	11773.53
880.08	11803.59
880.398	11738.05
880.716	11691.5
881.034	11703.7
881.352	11739.86
881.67	11616.47
881.988	11668
882.306	11557.04
882.624	11594.1
882.941	11526.99
883.259	11445.63
883.577	11439.53
883.894	11468.91
884.212	11392.98
884.529	11477.04
884.846	11358.63
885.164	11346.88
885.481	11390.27
885.798	11349.14
886.115	11282.92
886.432	11355.69
886.75	11257.39
887.067	11311.85
887.383	11208.12
887.7	11182.81
888.017	11166.32
888.334	11201.57
888.651	11095.36
888.967	11028.02
889.284	10992.08
889.6	10969.94
889.917	10880.22
890.233	10912.54
890.55	10892.88
890.866	10870.05
891.182	10880.45
891.498	10810.62
891.815	10789.83
892.131	10769.49
892.447	10662.83
892.763	10613.56
893.079	10623.28
893.395	10607.46
893.71	10512.32
894.026	10574.24
894.342	10498.54
894.657	10413.79
894.973	10381.25
895.289	10423.51
895.604	10398.2
895.92	10306.23
896.235	10271.65
896.55	10315.04
896.865	10281.82
897.181	10236.62
897.496	10219.67
897.811	10090.41
898.126	10156.63
898.441	10125.89
898.756	10033.92
899.071	9972
899.386	9979.46
899.7	9892.68
900.015	9882.96
900.33	9726.13
900.644	9819.91
900.959	9794.83
901.273	9748.05
901.588	9790.53
901.902	9638.67
902.216	9571.33
902.531	9572.91
902.845	9687.03
903.159	9553.7
903.473	9518
903.787	9522.97
904.101	9370.88
904.415	9433.48
904.729	9433.71
905.042	9336.76
905.356	9348.29
905.67	9244.56
905.984	9226.25
906.297	9218.8
906.611	9180.15
906.924	9140.61
907.237	9101.96
907.551	9009.99
907.864	9019.93
908.177	8953.27
908.491	8953.95
908.804	8878.24
909.117	8911.01
909.43	8801.41
909.743	8793.05
910.056	8802.99
910.368	8715.08
910.681	8684.57
910.994	8661.3
911.307	8637.57
911.619	8556.44
911.932	8588.08
912.244	8517.57
912.557	8594.86
912.869	8424.47
913.181	8444.35
913.494	8401.87
913.806	8318.26
914.118	8328.65
914.43	8284.81
914.742	8262.44
915.054	8235.32
915.366	8201.42
915.678	8175.43
915.99	8070.58
916.302	8071.48
916.613	8030.81
916.925	8010.24
917.236	7989.9
917.548	7983.12
917.859	7914.65
918.171	7848.66
918.482	7870.36
918.794	7810.92
919.105	7801.21
919.416	7760.76
919.727	7716.01
920.038	7662.23
920.349	7619.29
920.66	7551.04
920.971	7607.09
921.282	7503.59
921.593	7495.23
921.903	7478.96
922.214	7475.34
922.525	7437.83
922.835	7388.11
923.146	7388.11
923.456	7273.09
923.767	7320.77
924.077	7251.17
924.387	7231.73
924.697	7204.61
925.008	7177.49
925.318	7098.85
925.628	7104.28
925.938	7042.58
926.248	6995.35
926.558	7023.15
926.867	6988.57
927.177	6939.99
927.487	6962.59
927.796	6829.26
928.106	6864.96
928.416	6876.49
928.725	6838.97
929.034	6774.79
929.344	6790.84
929.653	6775.47
929.962	6651.18
930.271	6667.68
930.581	6621.8
930.89	6620
931.199	6526.66
931.508	6537.29
931.817	6474.46
932.125	6539.55
932.434	6511.52
932.743	6404.18
933.051	6386.33
933.36	6411.87
933.669	6364.86
933.977	6295.26
934.286	6333
934.594	6292.55
934.902	6276.5
935.21	6216.62
935.519	6217.97
935.827	6186.33
936.135	6109.05
936.443	6139.33
936.751	6072.89
937.059	6085.09
937.367	6025.21
937.674	5992.22
937.982	6031.99
938.29	5918.09
938.597	5967.81
938.905	5831.54
939.213	5879.68
939.52	5841.48
939.827	5857.98
940.135	5777.31
940.442	5759.45
940.749	5752.9
941.056	5799.9
941.363	5657.31
941.67	5682.39
941.977	5645.33
942.284	5569.63
942.591	5606.01
942.898	5610.3
943.205	5549.74
943.511	5515.84
943.818	5517.65
944.125	5467.26
944.431	5424.32
944.738	5465.9
945.044	5369.86
945.35	5367.15
945.657	5325.34
945.963	5343.19
946.269	5291.44
946.575	5306.36
946.881	5267.49
947.187	5275.17
947.493	5184.78
947.799	5212.12
948.105	5183.2
948.41	5146.14
948.716	5187.26
949.022	5122.63
949.327	5082.41
949.633	5055.52
949.938	5063.43
950.244	5048.74
950.549	5050.32
950.854	4977.78
951.16	4932.13
951.465	4947.05
951.77	4892.36
952.075	4934.84
952.38	4878.57
952.685	4816.2
952.99	4821.85
953.294	4811.68
953.599	4825.01
953.904	4803.55
954.209	4753.83
954.513	4724.68
954.818	4718.8
955.122	4715.64
955.426	4674.74
955.731	4643.1
956.035	4625.02
956.339	4638.35
956.643	4604.68
956.948	4534.4
957.252	4509.54
957.556	4531.69
957.86	4526.04
958.163	4506.83
958.467	4489.88
958.771	4478.13
959.075	4391.58
959.378	4423.22
959.682	4395.42
959.985	4363.33
960.289	4347.29
960.592	4330.56
960.896	4327.63
961.199	4315.88
961.502	4311.58
961.805	4257.8
962.108	4194.07
962.411	4234.75
962.714	4187.74
963.017	4185.94
963.32	4159.95
963.623	4143.9
963.926	4160.4
964.228	4119.95
964.531	4083.34
964.833	4084.92
965.136	4048.99
965.438	4013.96
965.741	4043.79
966.043	4037.69
966.345	4015.77
966.648	3992.95
966.95	3966.96
967.252	3964.47
967.554	3943.46
967.856	3908.43
968.158	3901.87
968.46	3864.59
968.761	3871.37
969.063	3788.43
969.365	3792.5
969.666	3778.04
969.968	3752.05
970.269	3733.74
970.571	3743.46
970.872	3724.03
971.174	3753.18
971.475	3691.71
971.776	3678.6
972.077	3699.62
972.378	3660.53
972.679	3659.17
972.98	3639.73
973.281	3600.64
973.582	3578.49
973.883	3551.83
974.183	3527.87
974.484	3592.05
974.785	3531.49
975.085	3575.78
975.386	3524.48
975.686	3507.76
975.986	3489.91
976.287	3481.77
976.587	3432.06
976.887	3450.81
977.187	3419.85
977.487	3395.67
977.787	3367.65
978.087	3375.56
978.387	3373.3
978.687	3336.24
978.987	3297.14
979.286	3324.26
979.586	3310.48
979.885	3251.27
980.185	3269.35
980.484	3213.31
980.784	3257.82
981.083	3207.66
981.382	3221.21
981.682	3168.33
981.981	3191.16
982.28	3167.2
982.579	3127.21
982.878	3140.54
983.177	3137.83
983.475	3084.5
983.774	3055.8
984.073	3055.57
984.372	3055.34
984.67	3025.51
984.969	3054.67
985.267	3063.25
985.566	3016.25
985.864	3015.8
986.162	2997.49
986.461	2989.58
986.759	2956.59
987.057	2900.32
987.355	2882.47
987.653	2910.49
987.951	2908.68
988.249	2868.23
988.547	2895.57
988.844	2839.08
989.142	2861
989.44	2820.77
989.737	2804.5
990.035	2821.9
990.332	2820.55
990.63	2754.79
990.927	2786.2
991.224	2755.24
991.521	2714.11
991.819	2761.79
992.116	2740.1
992.413	2724.96
992.71	2711.62
993.006	2696.93
993.303	2669.36
993.6	2698.74
993.897	2667.11
994.193	2620.1
994.49	2668.69
994.787	2601.34
995.083	2587.56
995.379	2577.62
995.676	2550.05
995.972	2539.42
996.268	2535.81
996.565	2501.01
996.861	2511.85
997.157	2497.17
997.453	2523.83
997.749	2464.4
998.044	2438.86
998.34	2472.31
998.636	2426.89
998.932	2406.77
999.227	2384.17
999.523	2396.6
999.818	2384.17
1000.114	2376.72
1000.409	2358.41
1000.704	2345.76
1001	2345.08
1001.295	2321.58
1001.59	2336.27
1001.885	2280.45
1002.18	2258.3
1002.475	2286.32
1002.77	2294.91
1003.065	2254.69
1003.359	2230.51
1003.654	2239.32
1003.949	2202.26
1004.243	2202.48
1004.538	2201.58
1004.832	2141.47
1005.127	2154.58
1005.421	2132.88
1005.715	2143.73
1006.009	2117.97
1006.304	2112.54
1006.598	2155.71
1006.892	2087.46
1007.186	2081.36
1007.48	2069.15
1007.773	2086.1
1008.067	2042.04
1008.361	2040.68
1008.655	2042.94
1008.948	2048.59
1009.242	1980.57
1009.535	1994.58
1009.829	1974.92
1010.122	1937.63
1010.415	1919.1
1010.708	1917.75
1011.001	1916.62
1011.295	1921.14
1011.588	1893.79
1011.881	1881.59
1012.173	1867.13
1012.466	1873.45
1012.759	1877.07
1013.052	1882.72
1013.344	1832.55
1013.637	1839.1
1013.93	1835.26
1014.222	1815.15
1014.514	1784.42
1014.807	1788.03
1015.099	1775.15
1015.391	1757.52
1015.683	1765.43
1015.976	1718.88
1016.268	1731.99
1016.56	1723.85
1016.851	1748.26
1017.143	1677.53
1017.435	1692.89
1017.727	1674.36
1018.018	1666
1018.31	1665.32
1018.602	1628.71
1018.893	1642.95
1019.185	1609.05
1019.476	1615.16
1019.767	1635.95
1020.058	1579.68
1020.35	1569.28
1020.641	1593.01
1020.932	1543.97
1021.223	1533.35
1021.514	1571.77
1021.804	1527.47
1022.095	1482.05
1022.386	1500.81
1022.677	1528.83
1022.967	1510.53
1023.258	1476.18
1023.548	1467.81
1023.839	1504.88
1024.129	1454.71
1024.419	1447.02
1024.709	1425.1
1025	1429.62
1025.29	1404.77
1025.58	1442.05
1025.87	1371.32
1026.16	1394.14
1026.449	1379
1026.739	1399.57
1027.029	1355.95
1027.319	1333.35
1027.608	1367.03
1027.898	1338.78
1028.187	1327.71
1028.477	1320.02
1028.766	1310.76
1029.055	1294.94
1029.344	1271.89
1029.634	1304.65
1029.923	1285.9
1030.212	1237.76
1030.501	1265.79
1030.79	1264.2
1031.078	1249.06
1031.367	1237.31
1031.656	1226.46
1031.945	1221.49
1032.233	1211.32
1032.522	1218.33
1032.81	1194.83
1033.099	1169.07
1033.387	1175.39
1033.675	1164.32
1033.963	1134.04
1034.251	1148.05
1034.54	1150.08
1034.828	1167.48
1035.116	1144.89
1035.403	1132.46
1035.691	1111.67
1035.979	1084.1
1036.267	1101.5
1036.554	1106.24
1036.842	1082.51
1037.129	1074.83
1037.417	1082.06
1037.704	1065.34
1037.992	1076.41
1038.279	1061.72
1038.566	1023.08
1038.853	1023.08
1039.14	1023.08
