Data from breadboard_black_back_FLMS001491_00054.txt Node
Date: Wed Feb 08 10:50:35 GMT 2017
User: dcchb
Spectrometer: FLMS00149
Trigger mode: 0
Integration Time (sec): 2.000000E-2
Scans to average: 10
Electric dark correction enabled: true
Nonlinearity correction enabled: false
Boxcar width: 0
XAxis mode: Wavelengths
Number of Pixels in Spectrum: 2048
>>>>>Begin Spectral Data<<<<<
341.393	-17.27
341.776	-17.27
342.16	-17.27
342.543	-61.11
342.927	-61.11
343.31	-75.8
343.693	-72.41
344.077	-85.07
344.46	-68.35
344.843	-62.02
345.226	-36.93
345.61	-19.31
345.993	-0.78
346.376	-12.75
346.759	24.53
347.142	38.54
347.525	23.18
347.908	70.41
348.291	90.29
348.674	88.49
349.057	97.98
349.44	119.22
349.823	166.68
350.206	187.01
350.588	200.8
350.971	216.84
351.354	235.15
351.737	238.09
352.119	260.69
352.502	280.57
352.884	284.41
353.267	297.75
353.65	298.88
354.032	312.89
354.414	324.64
354.797	311.98
355.179	339.33
355.562	334.81
355.944	342.72
356.326	335.94
356.709	345.43
357.091	357.18
357.473	341.59
357.855	342.49
358.238	360.12
358.62	350.63
359.002	340.91
359.384	343.85
359.766	359.44
360.148	348.59
360.53	367.35
360.912	353.11
361.294	348.59
361.676	348.37
362.057	355.37
362.439	334.81
362.821	332.77
363.203	358.31
363.584	343.62
363.966	343.17
364.348	326.22
364.729	352.66
365.111	346.33
365.493	351.53
365.874	343.17
366.256	362.15
366.637	349.5
367.019	361.02
367.4	339.55
367.781	345.2
368.163	325.09
368.544	334.36
368.925	331.64
369.306	329.38
369.688	323.06
370.069	335.71
370.45	327.12
370.831	356.28
371.212	368.03
371.593	352.21
371.974	349.5
372.355	353.34
372.736	356.95
373.117	362.38
373.498	347.91
373.879	356.95
374.26	352.43
374.641	333.45
375.021	357.18
375.402	355.82
375.783	348.37
376.163	381.13
376.544	383.39
376.925	375.26
377.305	360.57
377.686	371.64
378.066	378.65
378.447	385.88
378.827	384.07
379.208	380.68
379.588	381.13
379.968	358.54
380.349	380.91
380.729	409.16
381.109	387.46
381.489	411.42
381.87	398.08
382.25	394.02
382.63	403.96
383.01	403.96
383.39	391.53
383.77	425.88
384.15	395.82
384.53	418.87
384.91	432.88
385.29	426.33
385.67	441.25
386.049	434.24
386.429	416.39
386.809	406.22
387.189	452.09
387.568	455.26
387.948	428.59
388.328	433.56
388.707	474.24
389.087	436.95
389.466	448.25
389.846	467.01
390.225	458.42
390.605	469.27
390.984	451.19
391.363	463.17
391.743	490.51
392.122	477.4
392.501	489.83
392.881	487.35
393.26	481.92
393.639	481.92
394.018	495.48
394.397	500.68
394.776	514.24
395.155	501.81
395.534	509.49
395.913	516.95
396.292	512.66
396.671	502.03
397.05	526.44
397.429	523.05
397.808	521.24
398.186	535.03
398.565	539.77
398.944	521.7
399.323	570.73
399.701	522.6
400.08	549.94
400.458	560.34
400.837	552.65
401.215	554.01
401.594	544.52
401.972	592.2
402.351	582.48
402.729	577.74
403.107	584.52
403.486	608.25
403.864	576.84
404.242	602.37
404.62	610.96
404.999	615.25
405.377	622.71
405.755	623.16
406.133	615.7
406.511	632.2
406.889	638.53
407.267	659.32
407.645	664.74
408.023	663.84
408.401	656.83
408.779	656.16
409.156	689.37
409.534	703.16
409.912	716.72
410.29	713.33
410.667	705.87
411.045	707.45
411.422	727.57
411.8	718.07
412.178	754.68
412.555	758.53
412.933	766.43
413.31	787.68
413.687	772.31
414.065	783.61
414.442	817.05
414.819	805.3
415.197	806.66
415.574	837.17
415.951	833.33
416.328	834.23
416.705	836.26
417.082	865.87
417.46	851.63
417.837	866.09
418.214	896.15
418.591	881.23
418.967	908.8
419.344	912.65
419.721	924.85
420.098	904.28
420.475	923.04
420.852	937.96
421.228	935.92
421.605	952.19
421.982	958.29
422.358	961.68
422.735	963.49
423.111	953.1
423.488	1008.69
423.864	1012.08
424.241	1006.88
424.617	987.45
424.994	1040.78
425.37	1015.47
425.746	1036.03
426.123	1036.26
426.499	1074.68
426.875	1082.58
427.251	1081.23
427.627	1106.99
428.003	1128.69
428.379	1123.94
428.756	1154.67
429.132	1144.28
429.507	1180.44
429.883	1183.37
430.259	1220.21
430.635	1205.75
431.011	1204.84
431.387	1194.67
431.763	1256.37
432.138	1271.05
432.514	1288.91
432.89	1290.26
433.265	1319.41
433.641	1329.13
434.016	1363.26
434.392	1351.73
434.767	1384.27
435.143	1386.53
435.518	1399.41
435.894	1431.5
436.269	1429.92
436.644	1448.68
437.02	1467.66
437.395	1462.69
437.77	1477.38
438.145	1511.05
438.52	1506.3
438.895	1536.13
439.271	1540.43
439.646	1591.05
440.021	1574.55
440.395	1588.33
440.77	1587.88
441.145	1598.05
441.52	1639.63
441.895	1617.49
442.27	1652.06
442.645	1671.5
443.019	1673.53
443.394	1677.82
443.769	1688.67
444.143	1678.73
444.518	1735
444.892	1718.73
445.267	1726.41
445.641	1760.98
446.016	1757.37
446.39	1759.85
446.764	1792.62
447.139	1769.8
447.513	1787.88
447.887	1800.31
448.262	1824.03
448.636	1836.69
449.01	1859.74
449.384	1876.01
449.758	1867.2
450.132	1916.01
450.506	1924.6
450.88	1937.25
451.254	1942.45
451.628	1951.04
452.002	1980.41
452.376	2003.69
452.75	2013.63
453.123	2020.86
453.497	2109.9
453.871	2084.14
454.244	2123.01
454.618	2126.85
454.992	2145.83
455.365	2170.92
455.739	2256.11
456.112	2255.66
456.486	2274.64
456.859	2299.95
457.232	2365.26
457.606	2313.51
457.979	2367.97
458.352	2371.14
458.725	2406.84
459.099	2444.13
459.472	2496.78
459.845	2514.41
460.218	2550.12
460.591	2561.42
460.964	2555.54
461.337	2654.97
461.71	2704.01
462.083	2723.45
462.456	2750.11
462.829	2767.96
463.201	2766.16
463.574	2792.14
463.947	2825.14
464.32	2931.8
464.692	2955.08
465.065	2943.55
465.438	2987.17
465.81	3057.45
466.183	3032.36
466.555	3151.91
466.928	3150.78
467.3	3158.46
467.672	3222.42
468.045	3302.41
468.417	3286.82
468.789	3338.12
469.161	3394.61
469.534	3438.91
469.906	3486.59
470.278	3477.55
470.65	3545.8
471.022	3623.53
471.394	3688.17
471.766	3746.7
472.138	3760.93
472.51	3804.32
472.882	3949.4
473.253	3945.56
473.625	4032.11
473.997	4086.8
474.369	4147.81
474.74	4175.84
475.112	4216.51
475.484	4285.44
475.855	4365.44
476.227	4392.33
476.598	4528.6
476.97	4560.23
477.341	4670.96
477.713	4706.9
478.084	4715.94
478.455	4903.5
478.827	4927
479.198	5076.83
479.569	5113.44
479.94	5207.22
480.311	5277.05
480.682	5369.7
481.053	5485.63
481.424	5609.02
481.795	5673.88
482.166	5745.74
482.537	5821.89
482.908	5934.21
483.279	5986.18
483.65	6036.58
484.021	6200.64
484.391	6256.01
484.762	6339.17
485.133	6349.11
485.503	6506.62
485.874	6645.83
486.244	6672.49
486.615	6831.59
486.985	6855.31
487.356	7053.05
487.726	7114.52
488.097	7195.64
488.467	7225.93
488.837	7424.34
489.207	7478.12
489.578	7567.84
489.948	7652.13
490.318	7794.72
490.688	7826.14
491.058	7948.62
491.428	8097.77
491.798	8183.19
492.168	8256.18
492.538	8386.57
492.908	8400.81
493.278	8538.21
493.648	8540.92
494.017	8722.61
494.387	8770.97
494.757	8811.87
495.126	8924.19
495.496	8979.1
495.866	9003.51
496.235	9062.71
496.605	9175.03
496.974	9305.19
497.344	9331.63
497.713	9456.6
498.082	9450.5
498.452	9668.12
498.821	9656.82
499.19	9692.3
499.559	9849.81
499.928	9935.91
500.298	9941.56
500.667	10066.98
501.036	10022.46
501.405	10132.06
501.774	10154.89
502.143	10271.72
502.512	10351.27
502.88	10467.65
503.249	10454.77
503.618	10537.7
503.987	10646.85
504.356	10693.63
504.724	10763.23
505.093	10767.75
505.462	10844.81
505.83	10954.19
506.199	11124.35
506.567	11210.23
506.936	11141.3
507.304	11354.63
507.672	11404.35
508.041	11417.68
508.409	11520.73
508.777	11664.91
509.145	11716.43
509.514	11729.99
509.882	11851.11
510.25	11939.7
510.618	11963.88
510.986	12157.77
511.354	12193.03
511.722	12298.56
512.09	12354.6
512.458	12406.58
512.826	12485
513.193	12633.02
513.561	12641.6
513.929	12872.11
514.297	12901.71
514.664	12984.64
515.032	13048.6
515.4	13180.8
515.767	13268.93
516.135	13385.09
516.502	13321.36
516.869	13547.79
517.237	13558.87
517.604	13542.14
517.972	13772.65
518.339	13940.33
518.706	13897.16
519.073	13997.5
519.44	14082.47
519.808	14289.92
520.175	14305.74
520.542	14430.03
520.909	14527.2
521.276	14549.58
521.643	14708.67
522.009	14832.28
522.376	14989.56
522.743	15117.24
523.11	15255.77
523.477	15380.06
523.843	15444.01
524.21	15663.44
524.577	15706.15
524.943	15759.03
525.31	15879.48
525.676	16019.59
526.043	16114.96
526.409	16209.19
526.776	16438.11
527.142	16513.59
527.508	16650.99
527.874	16675.17
528.241	16866.8
528.607	16846.46
528.973	17070.19
529.339	17156.29
529.705	17319.9
530.071	17504.53
530.437	17501.59
530.803	17599.89
531.169	17733.22
531.535	17700.68
531.901	17860.22
532.267	17994.91
532.632	18109.48
532.998	18206.88
533.364	18239.87
533.73	18231.06
534.095	18399.19
534.461	18541.56
534.826	18633.54
535.192	18648
535.557	18858.39
535.923	18886.86
536.288	18931.15
536.653	19041.43
537.019	18979.29
537.384	19099.29
537.749	19177.02
538.114	19312.84
538.479	19316.91
538.845	19516.45
539.21	19469.22
539.575	19685.94
539.94	19542.89
540.305	19747.63
540.67	19754.18
541.034	19921.19
541.399	19939.26
541.764	19967.29
542.129	20036.21
542.494	20097.68
542.858	20243.66
543.223	20307.84
543.587	20435.52
543.952	20379.25
544.316	20551
544.681	20494.73
545.045	20688.4
545.41	20759.13
545.774	20881.61
546.138	20853.14
546.503	20920.71
546.867	21041.16
547.231	21088.16
547.595	21154.37
547.959	21266.01
548.324	21291.54
548.688	21323.18
549.052	21395.5
549.416	21457.42
549.779	21449.96
550.143	21698.09
550.507	21825.99
550.871	21807.46
551.235	21761.14
551.599	21947.57
551.962	22048.13
552.326	22136.72
552.689	22313.89
553.053	22143.05
553.417	22326.32
553.78	22503.72
554.143	22487.67
554.507	22566.77
554.87	22674.56
555.234	22917.72
555.597	22943.93
555.96	22912.52
556.323	23054.21
556.686	23018.73
557.05	23238.39
557.413	23263.02
557.776	23416.91
558.139	23558.83
558.502	23571.48
558.865	23779.16
559.228	23809.67
559.59	23931.93
559.953	23902.32
560.316	24274.97
560.679	24282.88
561.041	24434.51
561.404	24511.57
561.767	24675.41
562.129	24652.59
562.492	24927.16
562.854	24786.59
563.217	24944.56
563.579	25034.5
563.941	25169.18
564.304	25245.34
564.666	25425
565.028	25444.66
565.39	25543.64
565.753	25709.06
566.115	25722.61
566.477	25899.56
566.839	26003.96
567.201	26222.94
567.563	26130.97
567.925	26410.73
568.287	26570.28
568.648	26462.71
569.01	26603.72
569.372	26851.85
569.734	26688.69
570.095	26899.76
570.457	27042.13
570.819	27193.31
571.18	27108.34
571.542	27279.41
571.903	27348.56
572.265	27529.8
572.626	27513.75
572.987	27524.83
573.349	27633.52
573.71	27850.24
574.071	27873.97
574.432	27910.81
574.794	28050.46
575.155	28051.59
575.516	28086.39
575.877	28303.79
576.238	28231.25
576.599	28381.53
576.96	28392.83
577.32	28429.89
577.681	28409.55
578.042	28679.82
578.403	28560.96
578.763	28593.73
579.124	28706.72
579.485	28783.78
579.845	28787.62
580.206	28957.11
580.566	28753.72
580.927	28865.58
581.287	29023.54
581.648	28888.41
582.008	28995.52
582.368	28900.61
582.728	29052.7
583.089	28955.52
583.449	28975.64
583.809	29066.48
584.169	29195.29
584.529	29065.8
584.889	29302.63
585.249	29121.62
585.609	28998.46
585.969	29222.18
586.329	29179.25
586.688	29090.89
587.048	29120.72
587.408	29152.13
587.768	29042.3
588.127	29136.31
588.487	29052.47
588.846	29315.51
589.206	29170.66
589.565	29134.5
589.925	29346.25
590.284	29240.26
590.643	29208.85
591.003	29172.24
591.362	29422.86
591.721	29341.28
592.08	29337.66
592.44	29363.42
592.799	29416.75
593.158	29308.06
593.517	29431.9
593.876	29475.28
594.235	29434.38
594.593	29409.52
594.952	29447.04
595.311	29322.07
595.67	29504.89
596.029	29640.93
596.387	29577.2
596.746	29586.24
597.104	29606.81
597.463	29541.5
597.822	29703.98
598.18	29592.8
598.538	29677.09
598.897	29818.33
599.255	29547.15
599.613	29953.01
599.972	29683.19
600.33	29851.09
600.688	29727.48
601.046	29796.86
601.404	30048.6
601.762	29931.54
602.12	30100.13
602.478	30078.88
602.836	29971.77
603.194	29808.16
603.552	30092.22
603.91	29914.14
604.268	30122.72
604.625	30093.12
604.983	30157.53
605.341	29917.31
605.698	30085.66
606.056	30343.51
606.413	30184.42
606.771	30310.52
607.128	30362.94
607.485	30134.93
607.843	30339.89
608.2	30459.89
608.557	30526.1
608.914	30503.73
609.272	30629.6
609.629	30602.26
609.986	30711.41
610.343	30618.31
610.7	30847
611.057	30815.36
611.414	30772.2
611.771	30828.24
612.127	30897.62
612.484	30822.59
612.841	30962.02
613.198	30837.28
613.554	30829.15
613.911	31014.45
614.267	31130.83
614.624	30951.63
614.98	31109.14
615.337	31330.38
615.693	31175.58
616.05	31054.68
616.406	31317.27
616.762	31289.7
617.118	31218.29
617.475	31235.92
617.831	31281.11
618.187	31388
618.543	31476.36
618.899	31653.31
619.255	31648.11
619.611	31491.73
619.967	31589.58
620.323	31622.35
620.678	31537.15
621.034	31600.2
621.39	31522.91
621.746	31416.48
622.101	31689.69
622.457	31494.67
622.812	31606.08
623.168	31795.45
623.523	31723.59
623.879	31789.12
624.234	31510.94
624.589	31699.63
624.945	31760.42
625.3	31806.97
625.655	31736.02
626.01	31726.3
626.365	31700.76
626.72	31624.61
627.075	31616.02
627.43	31697.6
627.785	31656.02
628.14	31663.7
628.495	31664.38
628.85	31512.97
629.205	31508.23
629.559	31660.09
629.914	31525.85
630.269	31581.22
630.623	31518.85
630.978	31380.77
631.332	31553.2
631.687	31613.08
632.041	31495.8
632.396	31476.59
632.75	31330.38
633.104	31421.9
633.459	31323.15
633.813	31352.52
634.167	31367.21
634.521	31188.91
634.875	31381.22
635.229	31206.76
635.583	31163.6
635.937	31094
636.291	31066.43
636.645	31117.5
636.999	31012.42
637.352	31082.25
637.706	30878.86
638.06	30911.4
638.413	30900.11
638.767	30886.77
639.121	30814.46
639.474	30739.66
639.828	30856.72
640.181	30837.28
640.534	30785.31
640.888	30550.28
641.241	30439.55
641.594	30555.03
641.947	30643.16
642.301	30494.01
642.654	30696.27
643.007	30578.08
643.36	30420.8
643.713	30364.53
644.066	30400.68
644.419	30329.05
644.771	30101.93
645.124	29868.49
645.477	29812
645.83	29652.23
646.182	29487.04
646.535	29290.2
646.888	29428.05
647.24	29247.04
647.593	29350.32
647.945	29275.29
648.298	29227.16
648.65	29016.99
649.002	28960.95
649.355	29163.2
649.707	29183.54
650.059	29362.52
650.411	29683.41
650.763	29607.26
651.115	29909.62
651.467	29779.91
651.819	29801.38
652.171	29742.85
652.523	29715.73
652.875	29728.61
653.227	29572.46
653.578	29557.09
653.93	29559.8
654.282	29408.62
654.633	29447.71
654.985	29567.49
655.337	29389.41
655.688	29548.5
656.039	29594.15
656.391	29358.9
656.742	29322.29
657.094	29469.18
657.445	29461.05
657.796	29483.19
658.147	29298.11
658.498	29353.93
658.849	29331.33
659.2	29273.03
659.551	29338.11
659.902	29405.68
660.253	29194.16
660.604	29308.51
660.955	29159.81
661.306	29257.44
661.656	29061.96
662.007	29167.27
662.358	29130.43
662.708	29090.66
663.059	29231.9
663.409	28861.06
663.76	29194.16
664.11	28948.97
664.461	29045.24
664.811	29104.9
665.161	29141.28
665.511	29029.19
665.862	28935.86
666.212	29045.01
666.562	29111.45
666.912	28895.19
667.262	28879.14
667.612	28953.04
667.962	28929.08
668.312	28953.04
668.662	29146.71
669.011	28892.25
669.361	28835.53
669.711	28955.75
670.06	28824
670.41	28765.02
670.76	28704.68
671.109	28819.93
671.459	28727.28
671.808	28688.41
672.157	28905.58
672.507	28584.69
672.856	28578.36
673.205	28701.75
673.554	28663.1
673.904	28574.07
674.253	28806.83
674.602	28644.12
674.951	28255.43
675.3	28111.93
675.649	28524.35
675.998	28445.03
676.346	28445.93
676.695	28681.86
677.044	28305.6
677.393	28370.91
677.741	28320.51
678.09	28392.83
678.438	28279.16
678.787	28305.15
679.135	28263.34
679.484	28178.6
679.832	28271.47
680.181	28141.31
680.529	28207.75
680.877	28041.2
681.225	28029.22
681.573	28378.14
681.922	28075.77
682.27	27967.08
682.618	27928.66
682.966	27879.62
683.314	27904.25
683.661	27898.15
684.009	27792.16
684.357	27608.89
684.705	27696.57
685.053	27624.03
685.4	27514.88
685.748	27489.35
686.095	27487.54
686.443	27383.14
686.79	27365.74
687.138	27245.06
687.485	27437.15
687.832	27285.51
688.18	27363.02
688.527	27146.08
688.874	27005.29
689.221	27087.1
689.568	26932.75
689.915	26875.8
690.262	26885.3
690.609	26807.78
690.956	26802.36
691.303	26654.34
691.65	26563.04
691.997	26619.99
692.344	26457.51
692.69	26484.63
693.037	26400.11
693.383	26160.8
693.73	26227.91
694.077	26128.25
694.423	26096.16
694.769	25971.87
695.116	25986.34
695.462	25827.24
695.808	25826.11
696.155	25783.18
696.501	25632.22
696.847	25632.45
697.193	25461.83
697.539	25589.51
697.885	25378.44
698.231	25286.69
698.577	25182.29
698.923	25269.29
699.269	25220.25
699.614	25037.66
699.96	25002.86
700.306	24999.7
700.651	24871.79
700.997	24818.01
701.342	24759.93
701.688	24694.62
702.033	24637.9
702.379	24605.58
702.724	24641.06
703.069	24679.03
703.415	24320.84
703.76	24368.3
704.105	24233.61
704.45	24300.96
704.795	24101.87
705.14	24060.51
705.485	24103.22
705.83	23924.47
706.175	23955.43
706.52	23911.36
706.865	23823
707.209	23753.4
707.554	23645.61
707.899	23744.81
708.243	23561.77
708.588	23524.71
708.932	23472.96
709.277	23399.06
709.621	23530.81
709.966	23245.17
710.31	23433.64
710.654	23088.11
710.998	23108.45
711.342	23152.06
711.687	23176.92
712.031	22976.92
712.375	22962.24
712.719	22924.95
713.063	22849.24
713.407	22904.38
713.75	22705.97
714.094	22776.03
714.438	22726.31
714.782	22728.34
715.125	22651.51
715.469	22566.54
715.812	22463.49
716.156	22385.98
716.499	22395.02
716.843	22439.09
717.186	22171.75
717.53	22423.72
717.873	22365.19
718.216	22220.56
718.559	22250.84
718.902	22020.11
719.246	22104.86
719.589	22091.98
719.932	22010.62
720.275	22043.84
720.617	21976.95
720.96	21915.26
721.303	21992.77
721.646	21945.54
721.989	21781.93
722.331	21817.86
722.674	21840.91
723.016	21722.95
723.359	21702.83
723.701	21714.36
724.044	21549.84
724.386	21504.87
724.729	21521.14
725.071	21357.76
725.413	21466.23
725.755	21433.01
726.097	21413.35
726.439	21227.14
726.782	21276.18
727.124	21392.11
727.465	21191.66
727.807	21274.82
728.149	21113.7
728.491	21106.69
728.833	21006.35
729.175	21037.77
729.516	21041.16
729.858	21090.87
730.199	21050.42
730.541	20913.02
730.882	20840.71
731.224	20826.47
731.565	20772.69
731.906	20870.76
732.248	20819.01
732.589	20735.63
732.93	20658.12
733.271	20714.84
733.612	20703.99
733.953	20656.08
734.294	20503.77
734.635	20484.79
734.976	20528.85
735.317	20462.64
735.658	20470.78
735.999	20435.52
736.339	20378.57
736.68	20313.04
737.021	20363.21
737.361	20232.14
737.702	20250.67
738.042	20246.37
738.383	20196.21
738.723	20326.82
739.063	20141.52
739.404	20255.41
739.744	20182.65
740.084	20134.96
740.424	20056.1
740.764	19978.81
741.104	20121.86
741.444	19953.05
741.784	19947.4
742.124	19938.36
742.464	19960.28
742.804	19890.9
743.143	19785.14
743.483	19826.05
743.823	19714.64
744.162	19676.22
744.502	19725.03
744.841	19557.8
745.181	19684.81
745.52	19576.11
745.86	19582.89
746.199	19522.78
746.538	19505.38
746.877	19513.06
747.216	19530.69
747.556	19428.77
747.895	19420.41
748.234	19339.96
748.573	19240.98
748.911	19309.68
749.25	19271.48
749.589	19115.78
749.928	19220.64
750.267	19156.91
750.605	19107.65
750.944	19090.02
751.283	19010.02
751.621	18921.89
751.96	18860.2
752.298	18864.49
752.636	18850.03
752.975	18708.79
753.313	18755.34
753.651	18799.63
753.989	18722.8
754.327	18642.8
754.666	18598.96
755.004	18541.56
755.342	18610.94
755.679	18561.22
756.017	18452.07
756.355	18479.87
756.693	18382.47
757.031	18330.27
757.368	18327.55
757.706	18245.07
758.044	18186.54
758.381	18232.19
758.719	18133.21
759.056	18122.36
759.394	18132.53
759.731	17879.66
760.068	17764.86
760.405	17856.61
760.743	17801.24
761.08	17827.45
761.417	17850.73
761.754	17773.45
762.091	17731.86
762.428	17601.7
762.765	17533.68
763.102	17649.38
763.438	17447.58
763.775	17401.93
764.112	17366.45
764.449	17386.34
764.785	17327.36
765.122	17161.03
765.458	17159.22
765.795	17028.61
766.131	17012.11
766.467	17010.53
766.804	16934.37
767.14	16770.08
767.476	16690.99
767.812	16740.93
768.148	16692.12
768.485	16665.45
768.821	16586.13
769.157	16528.05
769.492	16506.36
769.828	16479.47
770.164	16325.12
770.5	16298.46
770.836	16227.27
771.171	16162.41
771.507	16107.5
771.842	16053.49
772.178	15966.94
772.513	15910.67
772.849	15804.91
773.184	15834.96
773.519	15842.87
773.855	15723.33
774.19	15676.1
774.525	15661.64
774.86	15603.11
775.195	15648.3
775.53	15477.69
775.865	15406.73
776.2	15385.03
776.535	15267.3
776.87	15282.66
777.205	15200.86
777.539	15100.97
777.874	15113.63
778.209	14952.28
778.543	14974.42
778.878	14825.05
779.212	14864.37
779.547	14758.16
779.881	14799.74
780.215	14601.1
780.55	14762.45
780.884	14627.77
781.218	14517.26
781.552	14558.39
781.886	14465.06
782.22	14456.47
782.554	14358.62
782.888	14211.5
783.222	14217.61
783.556	14060.32
783.889	14046.31
784.223	14075.24
784.557	13999.76
784.89	14003.15
785.224	13999.53
785.557	13897.39
785.891	13786.66
786.224	13767.45
786.558	13754.79
786.891	13651.29
787.224	13617.17
787.557	13562.26
787.891	13549.6
788.224	13553.22
788.557	13542.82
788.89	13447.01
789.223	13409.27
789.556	13221.47
789.888	13323.39
790.221	13308.93
790.554	13131.08
790.887	13226.67
791.219	13124.3
791.552	13091.08
791.884	13119.56
792.217	12932.22
792.549	12961.59
792.882	12856.29
793.214	12814.48
793.546	12830.52
793.879	12670.98
794.211	12694.03
794.543	12722.96
794.875	12646.8
795.207	12593.02
795.539	12558.44
795.871	12552.79
796.203	12392.8
796.535	12381.27
796.867	12413.59
797.198	12345.11
797.53	12350.76
797.862	12248.62
798.193	12258.11
798.525	12181.5
798.856	12281.84
799.188	12140.15
799.519	12094.05
799.85	12014.73
800.182	12035.52
800.513	11998.46
800.844	11921.4
801.175	11970.66
801.506	11935.18
801.837	11915.97
802.168	11787.84
802.499	11734.51
802.83	11648.41
803.161	11667.39
803.491	11600.05
803.822	11665.13
804.153	11572.03
804.483	11505.36
804.814	11410.9
805.145	11460.84
805.475	11405.48
805.805	11449.77
806.136	11418.58
806.466	11362.31
806.796	11440.28
807.126	11249.77
807.457	11287.06
807.787	11213.84
808.117	11207.06
808.447	11154.18
808.777	11176.56
809.107	11209.1
809.436	11164.13
809.766	11045.03
810.096	11068.54
810.426	11008.65
810.755	11055.66
811.085	11001.19
811.414	10939.27
811.744	10879.39
812.073	10867.64
812.403	10905.83
812.732	10764.36
813.061	10701.54
813.39	10647.53
813.719	10718.04
814.049	10695.21
814.378	10671.48
814.707	10664.71
815.036	10666.29
815.365	10622.22
815.693	10528.44
816.022	10505.16
816.351	10426.07
816.68	10444.37
817.008	10449.8
817.337	10370.7
817.665	10341.32
817.994	10356.92
818.322	10341.78
818.651	10247.99
818.979	10298.39
819.307	10342.45
819.636	10287.54
819.964	10258.84
820.292	10218.16
820.62	10209.12
820.948	10226.75
821.276	10226.52
821.604	10238.28
821.932	10182.68
822.259	10174.55
822.587	10139.75
822.915	10163.02
823.243	10217.71
823.57	10167.32
823.898	10257.71
824.225	10120.09
824.553	10070.82
824.88	10210.25
825.207	10172.52
825.535	10207.54
825.862	10169.35
826.189	10178.39
826.516	10187.88
826.843	10218.62
827.17	10179.29
827.497	10217.03
827.824	10155.34
828.151	10245.06
828.478	10210.03
828.805	10230.37
829.131	10163.48
829.458	10105.85
829.785	10154.21
830.111	10184.72
830.438	10163.93
830.764	10121.67
831.09	10166.64
831.417	10142.46
831.743	10130.03
832.069	10175.9
832.395	10043.93
832.722	10069.47
833.048	10088
833.374	10084.16
833.7	10084.83
834.026	10053.42
834.351	10097.26
834.677	10056.36
835.003	10104.04
835.329	10044.61
835.654	10025.17
835.98	9999.64
836.306	10003.03
836.631	9914.44
836.956	9942.92
837.282	9990.6
837.607	9860.21
837.932	9875.8
838.258	9882.13
838.583	9861.56
838.908	9843.48
839.233	9814.56
839.558	9829.7
839.883	9837.83
840.208	9723.26
840.533	9774.11
840.858	9762.36
841.182	9765.29
841.507	9742.02
841.832	9670.16
842.156	9685.07
842.481	9642.81
842.805	9651.62
843.13	9581.12
843.454	9598.29
843.778	9586.09
844.103	9571.4
844.427	9521.23
844.751	9521.46
845.075	9474.68
845.399	9445.53
845.723	9370.05
846.047	9385.64
846.371	9332.76
846.695	9320.11
847.019	9267.68
847.343	9225.87
847.666	9174.35
847.99	9234.01
848.313	9231.3
848.637	9060
848.96	9084.41
849.284	9051.64
849.607	9004.18
849.931	8944.75
850.254	8996.27
850.577	8849.61
850.9	8870.18
851.223	8822.04
851.546	8738.43
851.869	8699.33
852.192	8756.28
852.515	8672.89
852.838	8700.69
853.161	8638.32
853.483	8629.05
853.806	8515.16
854.129	8544.76
854.451	8455.05
854.774	8467.25
855.096	8436.52
855.419	8413.24
855.741	8397.42
856.063	8338.21
856.385	8337.99
856.708	8336.63
857.03	8300.25
857.352	8243.53
857.674	8213.47
857.996	8195.39
858.318	8210.53
858.64	8219.35
858.961	8142.06
859.283	8192.91
859.605	8111.78
859.926	8055.28
860.248	8128.05
860.57	8098.22
860.891	8130.53
861.212	8057.54
861.534	8044.44
861.855	8004.66
862.176	8008.5
862.498	7965.12
862.819	7952.91
863.14	7942.97
863.461	7957.43
863.782	7891.45
864.103	7918.79
864.424	7910.2
864.745	7960.6
865.065	7878.11
865.386	7852.35
865.707	7815.74
866.027	7830.66
866.348	7827.94
866.668	7803.54
866.989	7780.94
867.309	7723.31
867.63	7791.79
867.95	7735.97
868.27	7668.4
868.59	7759.7
868.91	7691.68
869.23	7652.81
869.55	7633.82
869.87	7704.78
870.19	7634.95
870.51	7702.75
870.83	7632.69
871.15	7670.89
871.469	7573.26
871.789	7634.5
872.109	7576.65
872.428	7550.44
872.748	7525.35
873.067	7507.95
873.386	7519.7
873.706	7499.82
874.025	7418.46
874.344	7424.11
874.663	7490.78
874.982	7431.8
875.301	7448.52
875.62	7418.92
875.939	7425.69
876.258	7420.05
876.577	7414.62
876.896	7399.48
877.214	7392.93
877.533	7317.45
877.852	7368.97
878.17	7398.35
878.489	7385.7
878.807	7316.77
879.125	7279.94
879.444	7370.33
879.762	7280.39
880.08	7268.86
880.398	7244.91
880.716	7237.45
881.034	7224.57
881.352	7212.14
881.67	7213.27
881.988	7176.44
882.306	7164.91
882.624	7163.1
882.941	7160.62
883.259	7080.84
883.577	7086.95
883.894	7090.34
884.212	7101.18
884.529	7065.03
884.846	7076.55
885.164	7042.88
885.481	7070.45
885.798	7030.45
886.115	6946.61
886.432	7001.3
886.75	7015.08
887.067	6936.44
887.383	6920.62
887.7	6903.22
888.017	6910.45
888.334	6921.53
888.651	6903
888.967	6807.18
889.284	6805.37
889.6	6718.82
889.917	6756.33
890.233	6721.98
890.55	6772.38
890.866	6757.46
891.182	6736.9
891.498	6709.56
891.815	6693.74
892.131	6684.92
892.447	6648.31
892.763	6594.53
893.079	6575.1
893.395	6558.37
893.71	6576.45
894.026	6581.2
894.342	6566.28
894.657	6521.54
894.973	6515.21
895.289	6457.13
895.604	6486.28
895.92	6467.75
896.235	6383.91
896.55	6454.19
896.865	6446.06
897.181	6401.77
897.496	6343.46
897.811	6325.38
898.126	6331.94
898.441	6338.27
898.756	6293.52
899.071	6210.81
899.386	6205.61
899.7	6169.46
900.015	6183.69
900.33	6144.82
900.644	6165.61
900.959	6074.09
901.273	6111.6
901.588	6107.54
901.902	6028.22
902.216	5992.74
902.531	6011.04
902.845	5920.2
903.159	5900.31
903.473	5899.41
903.787	5938.28
904.101	5886.53
904.415	5893.08
904.729	5858.28
905.042	5837.71
905.356	5832.74
905.67	5769.92
905.984	5805.4
906.297	5779.86
906.611	5713.42
906.924	5753.42
907.237	5683.14
907.551	5698.96
907.864	5627.55
908.177	5640.66
908.491	5643.37
908.804	5616.25
909.117	5616.48
909.43	5596.82
909.743	5514.33
910.056	5490.15
910.368	5486.76
910.681	5429.81
910.994	5455.35
911.307	5410.83
911.619	5376.93
911.932	5416.26
912.244	5376.71
912.557	5344.17
912.869	5331.96
913.181	5281.57
913.494	5309.59
913.806	5281.12
914.118	5255.81
914.43	5209.71
914.742	5225.75
915.054	5203.83
915.366	5149.14
915.678	5122.03
915.99	5156.6
916.302	5077.73
916.613	5028.24
916.925	5047.68
917.236	5052.2
917.548	5011.29
917.859	5039.32
918.171	4969.71
918.482	4937.17
918.794	4925.65
919.105	4965.87
919.416	4895.82
919.727	4897.63
920.038	4904.86
920.349	4846.1
920.66	4809.94
920.971	4839.55
921.282	4759.55
921.593	4751.19
921.903	4739.66
922.214	4722.94
922.525	4741.25
922.835	4665.77
923.146	4658.31
923.456	4687.46
923.767	4656.95
924.077	4635.03
924.387	4606.56
924.697	4592.55
925.008	4530.18
925.318	4522.72
925.628	4481.37
925.938	4520.23
926.248	4484.53
926.558	4447.24
926.867	4416.51
927.177	4423.74
927.487	4417.41
927.796	4390.52
928.106	4361.14
928.416	4351.43
928.725	4338.77
929.034	4339.22
929.344	4300.35
929.653	4288.38
929.962	4304.42
930.271	4312.1
930.581	4253.57
930.89	4217.42
931.199	4195.5
931.508	4166.35
931.817	4248.83
932.125	4153.24
932.434	4179.23
932.743	4158.44
933.051	4118.44
933.36	4094.93
933.669	4065.1
933.977	4085.9
934.286	4032.79
934.594	4102.62
934.902	4047.48
935.21	3975.84
935.519	3996.41
935.827	3944.43
936.135	3971.32
936.443	3891.1
936.751	3926.13
937.059	3910.31
937.367	3905.34
937.674	3919.57
937.982	3898.1
938.29	3836.64
938.597	3840.48
938.905	3789.86
939.213	3747.83
939.52	3771.55
939.827	3771.55
940.135	3784.43
940.442	3759.12
940.749	3731.78
941.056	3708.05
941.363	3684.32
941.67	3683.42
941.977	3624.66
942.284	3668.96
942.591	3649.52
942.898	3574.95
943.205	3595.74
943.511	3547.6
943.818	3542.41
944.125	3519.58
944.431	3509.19
944.738	3527.94
945.044	3512.58
945.35	3481.84
945.657	3502.41
945.963	3474.84
946.269	3478.91
946.575	3445.91
946.881	3390.09
947.187	3406.14
947.493	3393.26
947.799	3411.34
948.105	3345.12
948.41	3351.23
948.716	3271.45
949.022	3325.92
949.327	3298.8
949.633	3288.4
949.938	3311.9
950.244	3254.28
950.549	3258.12
950.854	3257.44
951.16	3196.65
951.465	3189.42
951.77	3173.38
952.075	3203.66
952.38	3182.87
952.685	3147.16
952.99	3157.11
953.294	3146.94
953.599	3143.55
953.904	3098.12
954.209	3113.27
954.513	3073.72
954.818	3124.79
955.122	3051.57
955.426	3052.7
955.731	3056.32
956.035	3020.39
956.339	3009.31
956.643	3014.96
956.948	2960.05
957.252	2980.61
957.556	2996.66
957.86	2988.52
958.163	2920.05
958.467	2934.97
958.771	2914.4
959.075	2905.36
959.378	2886.6
959.682	2886.15
959.985	2867.4
960.289	2885.7
960.592	2830.34
960.896	2839.83
961.199	2869.2
961.502	2791.69
961.805	2775.65
962.108	2797.34
962.411	2789.21
962.714	2778.59
963.017	2738.81
963.32	2728.19
963.623	2723.67
963.926	2730.45
964.228	2688.42
964.531	2694.52
964.833	2667.85
965.136	2671.7
965.438	2677.34
965.741	2640.96
966.043	2645.71
966.345	2647.29
966.648	2644.35
966.95	2595.54
967.252	2626.95
967.554	2571.13
967.856	2593.51
968.158	2605.26
968.46	2567.97
968.761	2554.41
969.063	2519.83
969.365	2536.11
969.666	2517.58
969.968	2498.37
970.269	2500.85
970.571	2499.5
970.872	2486.62
971.174	2467.41
971.475	2448.42
971.776	2450.91
972.077	2404.81
972.378	2416.33
972.679	2423.57
972.98	2421.76
973.281	2396.45
973.582	2403
973.883	2363.68
974.183	2366.39
974.484	2344.02
974.785	2373.17
975.085	2323.91
975.386	2376.11
975.686	2354.64
975.986	2288.43
976.287	2315.55
976.587	2287.98
976.887	2303.12
977.187	2304.02
977.487	2250.24
977.787	2286.39
978.087	2240.29
978.387	2217.7
978.687	2247.75
978.987	2238.49
979.286	2225.15
979.586	2198.04
979.885	2190.13
980.185	2211.14
980.484	2159.62
980.784	2169.11
981.083	2180.41
981.382	2114.2
981.682	2144.93
981.981	2114.2
982.28	2125.49
982.579	2123.91
982.878	2095.67
983.177	2113.97
983.475	2092.28
983.774	2075.1
984.073	2070.13
984.372	2045.5
984.67	2055.44
984.969	2031.94
985.267	2016.8
985.566	2004.37
985.864	2011.37
986.162	1986.29
986.461	2008.44
986.759	1970.92
987.057	1992.17
987.355	1958.95
987.653	1949.68
987.951	1961.66
988.249	1941.77
988.547	1931.83
988.844	1919.4
989.142	1949.45
989.44	1918.95
989.737	1916.01
990.035	1909.46
990.332	1912.39
990.63	1881.89
990.927	1855.9
991.224	1876.24
991.521	1854.54
991.819	1862.23
992.116	1866.97
992.413	1833.75
992.71	1797.14
993.006	1843.92
993.303	1828.33
993.6	1810.02
993.897	1840.98
994.193	1809.12
994.49	1804.37
994.787	1767.09
995.083	1805.73
995.379	1761.89
995.676	1737.26
995.972	1781.78
996.268	1733.41
996.565	1732.51
996.861	1736.13
997.157	1702.23
997.453	1673.3
997.749	1696.58
998.044	1669.69
998.34	1673.53
998.636	1668.33
998.932	1650.93
999.227	1682.12
999.523	1654.55
999.818	1658.61
1000.114	1621.78
1000.409	1647.09
1000.704	1633.98
1001	1614.1
1001.295	1598.73
1001.59	1582.46
1001.885	1601.21
1002.18	1594.89
1002.475	1582.68
1002.77	1558.73
1003.065	1545.4
1003.359	1534.78
1003.654	1557.83
1003.949	1536.13
1004.243	1514.66
1004.538	1519.41
1004.832	1526.41
1005.127	1507.43
1005.421	1487.55
1005.715	1480.99
1006.009	1478.51
1006.304	1480.09
1006.598	1467.21
1006.892	1445.51
1007.186	1471.73
1007.48	1437.15
1007.773	1428.11
1008.067	1445.29
1008.361	1430.6
1008.655	1406.64
1008.948	1405.74
1009.242	1372.52
1009.535	1374.55
1009.829	1350.37
1010.122	1379.3
1010.415	1351.5
1010.708	1396.7
1011.001	1370.71
1011.295	1344.27
1011.588	1340.43
1011.881	1337.95
1012.173	1318.96
1012.466	1305.18
1012.759	1320.77
1013.052	1319.87
1013.344	1279.42
1013.637	1267.89
1013.93	1274.67
1014.222	1283.71
1014.514	1254.33
1014.807	1279.64
1015.099	1243.48
1015.391	1276.93
1015.683	1260.21
1015.976	1248.23
1016.268	1218.17
1016.56	1222.47
1016.851	1213.88
1017.143	1203.71
1017.435	1207.55
1017.727	1197.16
1018.018	1204.62
1018.31	1194.67
1018.602	1188.57
1018.893	1160.1
1019.185	1179.53
1019.476	1157.84
1019.767	1128.91
1020.058	1128.01
1020.35	1137.05
1020.641	1114.22
1020.932	1117.61
1021.223	1093.66
1021.514	1109.93
1021.804	1085.07
1022.095	1097.27
1022.386	1064.51
1022.677	1096.82
1022.967	1080.78
1023.258	1074.22
1023.548	1054.34
1023.839	1055.69
1024.129	1048.91
1024.419	1054.79
1024.709	1031.96
1025	1032.64
1025.29	1003.49
1025.58	1042.81
1025.87	1038.97
1026.16	1025.41
1026.449	1003.26
1026.739	1019.08
1027.029	982.25
1027.319	999.65
1027.608	965.3
1027.898	997.62
1028.187	974.34
1028.477	967.56
1028.766	998.07
1029.055	931.4
1029.344	956.94
1029.634	937.96
1029.923	942.25
1030.212	936.15
1030.501	937.73
1030.79	944.96
1031.078	916.26
1031.367	918.3
1031.656	914.45
1031.945	895.7
1032.233	904.74
1032.522	871.97
1032.81	890.95
1033.099	878.97
1033.387	901.35
1033.675	899.76
1033.963	874
1034.251	855.92
1034.54	855.92
1034.828	864.51
1035.116	846.43
1035.403	843.27
1035.691	836.72
1035.979	839.65
1036.267	826.55
1036.554	814.34
1036.842	812.31
1037.129	829.71
1037.417	798.98
1037.704	804.4
1037.992	800.11
1038.279	800.56
1038.566	780.9
1038.853	780.9
1039.14	780.9
