Data from breadboard_black_back_FLMS001491_00032.txt Node
Date: Wed Feb 08 10:50:17 GMT 2017
User: dcchb
Spectrometer: FLMS00149
Trigger mode: 0
Integration Time (sec): 2.000000E-2
Scans to average: 10
Electric dark correction enabled: true
Nonlinearity correction enabled: false
Boxcar width: 0
XAxis mode: Wavelengths
Number of Pixels in Spectrum: 2048
>>>>>Begin Spectral Data<<<<<
341.393	-29.5
341.776	-29.5
342.16	-29.5
342.543	-64.08
342.927	-70.63
343.31	-86.45
343.693	-62.27
344.077	-70.18
344.46	-50.07
344.843	-41.93
345.226	-36.28
345.61	-10.07
345.993	-29.05
346.376	-3.52
346.759	22.25
347.142	5.97
347.525	35.13
347.908	47.56
348.291	85.07
348.674	95.24
349.057	98.63
349.44	118.51
349.823	135.24
350.206	175.69
350.588	208.45
350.971	227.66
351.354	215.01
351.737	226.31
352.119	237.38
352.502	271.28
352.884	281
353.267	288.45
353.65	289.36
354.032	295.01
354.414	312.18
354.797	318.51
355.179	312.63
355.562	322.12
355.944	336.14
356.326	343.14
356.709	366.19
357.091	352.63
357.473	351.28
357.855	361.22
358.238	351.5
358.62	346.08
359.002	340.43
359.384	346.53
359.766	357.15
360.148	343.82
360.53	364.61
360.912	369.58
361.294	320.99
361.676	349.92
362.057	357.6
362.439	349.02
362.821	337.94
363.203	348.79
363.584	364.84
363.966	344.04
364.348	325.06
364.729	332.07
365.111	338.85
365.493	360.09
365.874	350.37
366.256	335.01
366.637	349.24
367.019	321.67
367.4	330.03
367.781	332.29
368.163	345.17
368.544	325.74
368.925	349.92
369.306	346.08
369.688	338.4
370.069	323.03
370.45	337.94
370.831	338.17
371.212	345.63
371.593	358.73
371.974	356.7
372.355	342.01
372.736	354.67
373.117	359.64
373.498	355.12
373.879	355.12
374.26	354.67
374.641	356.47
375.021	344.04
375.402	348.79
375.783	338.62
376.163	385.85
376.544	377.94
376.925	375
377.305	389.24
377.686	377.49
378.066	366.19
378.447	387.66
378.827	384.72
379.208	387.66
379.588	376.13
379.968	390.15
380.349	369.35
380.729	411.84
381.109	402.35
381.489	381.78
381.87	393.76
382.25	399.64
382.63	422.23
383.01	426.3
383.39	425.62
383.77	403.7
384.15	406.19
384.53	424.27
384.91	411.61
385.29	441.9
385.67	428.79
386.049	427.21
386.429	443.25
386.809	432.4
387.189	415
387.568	434.21
387.948	425.62
388.328	447.09
388.707	461.33
389.087	468.34
389.466	473.76
389.846	468.11
390.225	479.63
390.605	486.41
390.984	473.08
391.363	492.74
391.743	492.06
392.122	476.92
392.501	492.97
392.881	500.88
393.26	511.05
393.639	509.01
394.018	513.08
394.397	504.27
394.776	517.15
395.155	519.86
395.534	536.58
395.913	533.42
396.292	532.97
396.671	553.3
397.05	562.8
397.429	533.19
397.808	535.68
398.186	569.58
398.565	549.24
398.944	548.33
399.323	568.67
399.701	571.84
400.08	580.65
400.458	550.82
400.837	580.2
401.215	567.09
401.594	604.15
401.972	609.12
402.351	590.37
402.729	612.96
403.107	606.18
403.486	607.54
403.864	638.05
404.242	607.54
404.62	618.39
404.999	654.09
405.377	634.66
405.755	649.8
406.133	660.42
406.511	658.16
406.889	674.21
407.267	694.77
407.645	697.93
408.023	698.39
408.401	679.63
408.779	720.76
409.156	718.05
409.534	728.67
409.912	720.08
410.29	739.51
410.667	765.95
411.045	776.8
411.422	750.14
411.8	757.14
412.178	781.32
412.555	797.82
412.933	807.31
413.31	792.62
413.687	837.59
414.065	799.4
414.442	810.93
414.819	847.99
415.197	844.82
415.574	835.78
415.951	861.55
416.328	878.04
416.705	865.84
417.082	865.39
417.46	875.33
417.837	925.5
418.214	917.81
418.591	905.16
418.967	936.35
419.344	960.75
419.721	924.14
420.098	949
420.475	977.7
420.852	955.33
421.228	982.67
421.605	965.95
421.982	992.16
422.358	998.26
422.735	999.17
423.111	1023.8
423.488	1013.63
423.864	1014.76
424.241	1043.69
424.617	1052.5
424.994	1081.43
425.37	1093.18
425.746	1094.76
426.123	1116.91
426.499	1136.34
426.875	1116.45
427.251	1119.62
427.627	1162.55
428.003	1173.85
428.379	1181.99
428.756	1191.71
429.132	1194.64
429.507	1222.44
429.883	1238.94
430.259	1225.15
430.635	1219.73
431.011	1279.84
431.387	1308.99
431.763	1318.48
432.138	1322.32
432.514	1346.96
432.89	1364.13
433.265	1395.54
433.641	1376.56
434.016	1403.23
434.392	1414.98
434.767	1458.82
435.143	1451.36
435.518	1476.67
435.894	1487.07
436.269	1492.94
436.644	1529.55
437.02	1563.22
437.395	1524.58
437.77	1577.23
438.145	1575.42
438.52	1598.47
438.895	1608.19
439.271	1600.73
439.646	1653.61
440.021	1651.81
440.395	1651.13
440.77	1655.2
441.145	1672.37
441.52	1721.64
441.895	1697.91
442.27	1740.39
442.645	1748.3
443.019	1773.16
443.394	1738.13
443.769	1769.32
444.143	1750.34
444.518	1809.77
444.892	1802.99
445.267	1829.88
445.641	1845.02
446.016	1849.32
446.39	1851.35
446.764	1887.28
447.139	1872.82
447.513	1867.62
447.887	1918.69
448.262	1898.58
448.636	1957.79
449.01	1962.31
449.384	1961.4
449.758	1999.14
450.132	2006.15
450.506	2035.07
450.88	2034.85
451.254	2035.07
451.628	2025.36
452.002	2098.35
452.376	2133.6
452.75	2154.84
453.123	2152.13
453.497	2175.86
453.871	2184
454.244	2233.03
454.618	2230.77
454.992	2294.95
455.365	2289.76
455.739	2354.39
456.112	2355.52
456.486	2352.13
456.859	2426.48
457.232	2438.68
457.606	2468.28
457.979	2490.65
458.352	2532.91
458.725	2565.91
459.099	2577.21
459.472	2661.27
459.845	2656.53
460.218	2641.61
460.591	2719.58
460.964	2738.78
461.337	2766.58
461.71	2845.9
462.083	2866.24
462.456	2873.24
462.829	2894.71
463.201	2930.42
463.574	2990.53
463.947	2985.11
464.32	3082.96
464.692	3104.65
465.065	3115.72
465.438	3160.24
465.81	3176.51
466.183	3254.25
466.555	3322.72
466.928	3300.35
467.3	3356.62
467.672	3372.21
468.045	3489.5
468.417	3473.68
468.789	3548.93
469.161	3556.16
469.534	3630.96
469.906	3691.08
470.278	3705.76
470.65	3747.34
471.022	3828.7
471.394	3867.57
471.766	3910.73
472.138	3976.04
472.51	4068.47
472.882	4129.93
473.253	4172.19
473.625	4230.04
473.997	4239.54
474.369	4325.18
474.74	4394.33
475.112	4464.16
475.484	4566.08
475.855	4612.18
476.227	4627.55
476.598	4788.67
476.97	4838.39
477.341	4930.82
477.713	5002
478.084	5018.5
478.455	5208.1
478.827	5215.1
479.198	5342.56
479.569	5403.35
479.94	5483.57
480.311	5596.34
480.682	5691.47
481.053	5796.1
481.424	5895.54
481.795	5931.92
482.166	6038.58
482.537	6121.29
482.908	6278.13
483.279	6352.93
483.65	6450.1
484.021	6605.12
484.391	6621.62
484.762	6679.02
485.133	6781.16
485.503	6807.6
485.874	6992.91
486.244	7017.99
486.615	7143.19
486.985	7307.25
487.356	7440.36
487.726	7442.16
488.097	7663.63
488.467	7697.75
488.837	7826.11
489.207	7950.4
489.578	8092.09
489.948	8093.45
490.318	8240.56
490.688	8260.9
491.058	8392.65
491.428	8503.15
491.798	8638.29
492.168	8778.85
492.538	8796.48
492.908	8921.67
493.278	9005.74
493.648	9050.48
494.017	9177.48
494.387	9317.37
494.757	9337.93
495.126	9416.57
495.496	9471.71
495.866	9573.86
496.235	9662.9
496.605	9797.58
496.974	9771.82
497.344	9927.3
497.713	9966.62
498.082	10032.15
498.452	10210.9
498.821	10225.59
499.19	10279.15
499.559	10313.5
499.928	10392.14
500.298	10445.7
500.667	10629.88
501.036	10596.43
501.405	10684.11
501.774	10685.02
502.143	10851.34
502.512	10903.99
502.88	11015.4
503.249	11045.23
503.618	11072.58
503.987	11147.83
504.356	11296.07
504.724	11316.86
505.093	11410.87
505.462	11414.94
505.83	11502.17
506.199	11628.27
506.567	11850.41
506.936	11701.03
507.304	11948.94
507.672	12004.75
508.041	12171.76
508.409	12106.67
508.777	12300.79
509.145	12365.88
509.514	12298.76
509.882	12475.25
510.25	12537.62
510.618	12701.46
510.986	12667.79
511.354	12854
511.722	12928.12
512.09	13129.25
512.458	13052.86
512.826	13212.63
513.193	13291.5
513.561	13325.85
513.929	13469.58
514.297	13572.62
514.664	13628.89
515.032	13760.64
515.4	13900.07
515.767	13902.33
516.135	14032.5
516.502	13990.69
516.869	14191.82
517.237	14295.54
517.604	14337.35
517.972	14484.24
518.339	14543.9
518.706	14576.44
519.073	14637.91
519.44	14845.36
519.808	15041.29
520.175	15051.91
520.542	15293.26
520.909	15313.37
521.276	15312.69
521.643	15496.64
522.009	15631.1
522.376	15766.92
522.743	15805.56
523.11	15995.61
523.477	16167.13
523.843	16334.58
524.21	16446.45
524.577	16528.25
524.943	16666.55
525.31	16749.94
525.676	16928.02
526.043	16958.75
526.409	17117.61
526.776	17274.67
527.142	17362.81
527.508	17446.87
527.874	17682.12
528.241	17653.87
528.607	17787.65
528.973	17974.77
529.339	18024.94
529.705	18179.06
530.071	18325.94
530.437	18439.39
530.803	18515.54
531.169	18623.11
531.535	18685.03
531.901	18742.88
532.267	18824.24
532.632	19048.19
532.998	19055.19
533.364	19089.54
533.73	19117.11
534.095	19367.5
534.461	19342.64
534.826	19526.37
535.192	19637.55
535.557	19770.65
535.923	19759.35
536.288	19868.95
536.653	20019.01
537.019	19965
537.384	20048.39
537.749	20178.55
538.114	20260.36
538.479	20266.68
538.845	20361.82
539.21	20476.62
539.575	20530.41
539.94	20513.91
540.305	20751.64
540.67	20644.3
541.034	20816.73
541.399	20912.09
541.764	20948.93
542.129	21048.13
542.494	21104.18
542.858	21216.04
543.223	21192.08
543.587	21366.32
543.952	21447.9
544.316	21509.14
544.681	21490.38
545.045	21712.52
545.41	21720.21
545.774	21790.26
546.138	21706.42
546.503	21883.37
546.867	21973.53
547.231	22043.14
547.595	22162.45
547.959	22241.55
548.324	22263.24
548.688	22427.53
549.052	22532.84
549.416	22490.35
549.779	22540.98
550.143	22583.91
550.507	22777.35
550.871	22808.09
551.235	22782.1
551.599	23047.63
551.962	23157.46
552.326	23113.84
552.689	23312.71
553.053	23219.6
553.417	23259.6
553.78	23562.64
554.143	23524.23
554.507	23681.74
554.87	23771.9
555.234	23969.64
555.597	23756.08
555.96	24093.48
556.323	24128.73
556.686	24185.9
557.05	24316.07
557.413	24451.66
557.776	24473.58
558.139	24559
558.502	24607.36
558.865	24691.43
559.228	24989.5
559.59	24916.96
559.953	24976.62
560.316	25343.16
560.679	25303.61
561.041	25562.14
561.404	25650.72
561.767	25773.43
562.129	25646.43
562.492	25996.25
562.854	25984.05
563.217	26009.58
563.579	26056.14
563.941	26393.3
564.304	26463.13
564.666	26572.51
565.028	26637.82
565.39	26754.42
565.753	26886.4
566.115	27016.11
566.477	27043.23
566.839	27197.12
567.201	27365.93
567.563	27512.6
567.925	27484.12
568.287	27583.78
568.648	27765.02
569.01	27774.96
569.372	28084.11
569.734	27981.51
570.095	28065.12
570.457	28188.06
570.819	28200.49
571.18	28326.81
571.542	28585.34
571.903	28535.62
572.265	28668.05
572.626	28832.11
572.987	28814.26
573.349	28828.04
573.71	28926.57
574.071	29022.16
574.432	29092.22
574.794	29250.18
575.155	29343.06
575.516	29197.75
575.877	29426.67
576.238	29447.01
576.599	29638.87
576.96	29628.47
577.32	29600.68
577.681	29757.96
578.042	29723.61
578.403	29707.79
578.763	29828.24
579.124	29874.57
579.485	29853.78
579.845	30125.18
580.206	29922.93
580.566	30053.09
580.927	30111.62
581.287	30173.77
581.648	30060.33
582.008	30189.14
582.368	30210.6
582.728	30307.55
583.089	30191.85
583.449	30243.15
583.809	30303.26
584.169	30373.99
584.529	30279.08
584.889	30644.04
585.249	30313.88
585.609	30299.64
585.969	30374.67
586.329	30444.95
586.688	30533.31
587.048	30244.73
587.408	30399.75
587.768	30278.62
588.127	30264.16
588.487	30291.28
588.846	30454.89
589.206	30361.33
589.565	30398.85
589.925	30402.69
590.284	30442.01
590.643	30483.82
591.003	30660.99
591.362	30724.71
591.721	30576.24
592.08	30480.2
592.44	30731.72
592.799	30605.85
593.158	30626.64
593.517	30630.48
593.876	30610.37
594.235	30662.34
594.593	30572.85
594.952	30794.54
595.311	30630.71
595.67	30738.5
596.029	31039.28
596.387	30892.39
596.746	30899.17
597.104	30765.39
597.463	30709.8
597.822	30970.36
598.18	30744.38
598.538	30747.76
598.897	30994.31
599.255	30613.76
599.613	31119.05
599.972	30975.1
600.33	31136.68
600.688	30860.08
601.046	31094.42
601.404	31175.32
601.762	31029.79
602.12	31196.11
602.478	31186.85
602.836	31192.27
603.194	31064.59
603.552	31139.39
603.91	31066.17
604.268	31343.46
604.625	31303.91
604.983	31352.04
605.341	31314.98
605.698	31472.94
606.056	31381.65
606.413	31407.18
606.771	31451.93
607.128	31610.12
607.485	31422.32
607.843	31509.55
608.2	31559.95
608.557	31785.03
608.914	31641.75
609.272	31708.87
609.629	31778.47
609.986	31906.15
610.343	31836.78
610.7	31970.11
611.057	31922.88
611.414	31910.22
611.771	31940.5
612.127	32041.29
612.484	32038.13
612.841	32153.6
613.198	31989.77
613.554	32040.39
613.911	32161.74
614.267	32167.39
614.624	32192.02
614.98	32296.42
615.337	32421.62
615.693	32359.7
616.05	32332.36
616.406	32552.69
616.762	32462.3
617.118	32469.08
617.475	32399.47
617.831	32549.3
618.187	32568.28
618.543	32630.65
618.899	32723.31
619.255	32793.13
619.611	32611.9
619.967	32771.67
620.323	32846.24
620.678	32711.33
621.034	32502.75
621.39	32665
621.746	32520.37
622.101	32947.03
622.457	32695.06
622.812	32797.43
623.168	32722.63
623.523	32735.06
623.879	32930.98
624.234	32711.1
624.589	32753.14
624.945	32883.08
625.3	32800.14
625.655	32868.16
626.01	32823.42
626.365	32732.12
626.72	32739.13
627.075	32719.01
627.43	32759.69
627.785	32639.69
628.14	32693.25
628.495	32805.11
628.85	32675.85
629.205	32660.48
629.559	32783.64
629.914	32684.89
630.269	32676.53
630.623	32599.47
630.978	32490.77
631.332	32705.45
631.687	32710.88
632.041	32596.08
632.396	32552.92
632.75	32538.9
633.104	32475.63
633.459	32415.74
633.813	32342.75
634.167	32230.89
634.521	32241.29
634.875	32321.96
635.229	32255.07
635.583	32108.63
635.937	32044.45
636.291	32135.98
636.645	32140.27
636.999	32058.24
637.352	32125.58
637.706	31968.52
638.06	32273.83
638.413	31961.52
638.767	32055.98
639.121	31880.84
639.474	31848.98
639.828	31815.31
640.181	31733.73
640.534	31800.17
640.888	31658.25
641.241	31529.44
641.594	31595.65
641.947	31632.04
642.301	31546.84
642.654	31485.37
643.007	31474.3
643.36	31388.43
643.713	31436.11
644.066	31573.73
644.419	31136
644.771	31200.41
645.124	30867.54
645.477	30791.61
645.83	30499.64
646.182	30506.42
646.535	30306.87
646.888	30344.84
647.24	30203.6
647.593	30254.44
647.945	30266.2
648.298	30100.1
648.65	30020.33
649.002	29934.68
649.355	30148.23
649.707	30184.16
650.059	30227.78
650.411	30559.75
650.763	30701.21
651.115	30630.03
651.467	30790.25
651.819	30803.36
652.171	30639.07
652.523	30550.03
652.875	30571.27
653.227	30486.53
653.578	30674.32
653.93	30546.64
654.282	30455.12
654.633	30359.75
654.985	30487.88
655.337	30437.26
655.688	30402.92
656.039	30476.13
656.391	30086.99
656.742	30373.31
657.094	30384.61
657.445	30416.25
657.796	30352.97
658.147	30082.7
658.498	30195.46
658.849	30231.17
659.2	30131.28
659.551	30181.9
659.902	30288.12
660.253	30222.81
660.604	30116.14
660.955	30014.9
661.306	30261.45
661.656	30117.5
662.007	30077.27
662.358	30035.02
662.708	30014.22
663.059	29970.16
663.409	29802.03
663.76	30088.35
664.11	30049.93
664.461	30019.87
664.811	29956.6
665.161	29919.09
665.511	29951.85
665.862	29889.93
666.212	29942.14
666.562	30001.34
666.912	29824.63
667.262	29977.16
667.612	29844.74
667.962	29846.77
668.312	29784.4
668.662	29839.09
669.011	29792.08
669.361	29822.14
669.711	29625.99
670.06	29663.05
670.41	29576.5
670.76	29607.91
671.109	29767.23
671.459	29681.13
671.808	29550.73
672.157	29642.26
672.507	29402.04
672.856	29442.71
673.205	29608.59
673.554	29453.56
673.904	29416.73
674.253	29562.03
674.602	29483.84
674.951	29038.66
675.3	28827.14
675.649	29397.74
675.998	29380.34
676.346	29378.99
676.695	29435.26
677.044	29167.02
677.393	29271.87
677.741	29298.99
678.09	29157.07
678.438	28997.75
678.787	29164.76
679.135	29216.73
679.484	28863.75
679.832	29068.94
680.181	28905.33
680.529	29094.48
680.877	28781.94
681.225	28890.64
681.573	28985.78
681.922	28820.58
682.27	28776.29
682.618	28777.87
682.966	28734.26
683.314	28712.34
683.661	28594.6
684.009	28532.23
684.357	28436.41
684.705	28492.91
685.053	28492.46
685.4	28362.06
685.748	28213.59
686.095	28175.4
686.443	28026.48
686.79	27998.91
687.138	28132.01
687.485	28013.83
687.832	27985.35
688.18	27992.81
688.527	27772.93
688.874	27713.49
689.221	27718.47
689.568	27587.85
689.915	27691.12
690.262	27610.67
690.609	27550.56
690.956	27390.79
691.303	27492.94
691.65	27384.69
691.997	27312.15
692.344	27056.56
692.69	27073.74
693.037	27170.68
693.383	26866.74
693.73	26976.79
694.077	26888.21
694.423	26804.82
694.769	26690.02
695.116	26679.17
695.462	26630.81
695.808	26656.57
696.155	26564.37
696.501	26373.42
696.847	26361.89
697.193	26155.57
697.539	26319.18
697.885	26046.19
698.231	26037.61
698.577	26023.6
698.923	25989.25
699.269	25870.61
699.614	25746.31
699.96	25652.98
700.306	25661.8
700.651	25465.64
700.997	25555.13
701.342	25431.07
701.688	25432.65
702.033	25244.18
702.379	25376.38
702.724	25139.55
703.069	25220.23
703.415	24916.05
703.76	24989.72
704.105	24941.59
704.45	24855.94
704.795	24716.96
705.14	24760.13
705.485	24748.6
705.83	24599.23
706.175	24609.17
706.52	24573.01
706.865	24492.34
707.209	24415.5
707.554	24277.88
707.899	24337.54
708.243	24147.26
708.588	24134.83
708.932	24074.72
709.277	24069.97
709.621	24112.91
709.966	23888.74
710.31	23948.17
710.654	23652.81
710.998	23798.57
711.342	23759.25
711.687	23792.24
712.031	23561.06
712.375	23504.79
712.719	23537.79
713.063	23517.9
713.407	23512.02
713.75	23395.64
714.094	23409.43
714.438	23339.37
714.782	23353.38
715.125	23164.69
715.469	23283.78
715.812	23019.38
716.156	22938.48
716.499	23024.8
716.843	23075.65
717.186	22784.81
717.53	22980.51
717.873	22935.32
718.216	22885.82
718.559	22774.87
718.902	22501.65
719.246	22736.45
719.589	22572.39
719.932	22468.66
720.275	22585.27
720.617	22506.4
720.96	22493.07
721.303	22450.36
721.646	22463.24
721.989	22331.26
722.331	22436.35
722.674	22223.92
723.016	22352.51
723.359	22203.36
723.701	22263.69
724.044	22042.46
724.386	21997.94
724.729	22059.63
725.071	21978.73
725.413	22002.91
725.755	21891.27
726.097	21854.89
726.439	21719.08
726.782	21776.02
727.124	21926.3
727.465	21777.15
727.807	21742.58
728.149	21563.83
728.491	21565.63
728.833	21567.67
729.175	21475.47
729.516	21474.34
729.858	21453.09
730.199	21503.04
730.541	21383.49
730.882	21372.87
731.224	21322.93
731.565	21170.16
731.906	21337.62
732.248	21184.85
732.589	21229.82
732.93	21017.4
733.271	21133.33
733.612	21139.43
733.953	21100.11
734.294	20980.34
734.635	20945.08
734.976	20989.15
735.317	20964.52
735.658	20936.05
735.999	20908.48
736.339	20853.34
736.68	20862.6
737.021	20822.6
737.361	20741.47
737.702	20833.45
738.042	20739.44
738.383	20701.7
738.723	20709.38
739.063	20568.15
739.404	20586.68
739.744	20487.92
740.084	20430.75
740.424	20509.62
740.764	20455.61
741.104	20456.51
741.444	20385.55
741.784	20337.87
742.124	20354.82
742.464	20375.38
742.804	20207.03
743.143	20352.56
743.483	20170.64
743.823	20136.52
744.162	20087.48
744.502	20115.28
744.841	20125.45
745.181	20076.18
745.52	20033.92
745.86	19976.07
746.199	19979.46
746.538	19969.74
746.877	20061.27
747.216	19942.17
747.556	19877.99
747.895	19775.17
748.234	19834.38
748.573	19726.59
748.911	19673.93
749.25	19698.34
749.589	19512.35
749.928	19554.16
750.267	19555.97
750.605	19511.9
750.944	19457.21
751.283	19342.87
751.621	19452.47
751.96	19218.35
752.298	19296.54
752.636	19344.22
752.975	19216.32
753.313	19129.31
753.651	19199.14
753.989	19006.15
754.327	19048.41
754.666	18911.47
755.004	19059.48
755.342	18988.98
755.679	18941.3
756.017	18837.57
756.355	18816.78
756.693	18724.13
757.031	18810
757.368	18728.65
757.706	18713.28
758.044	18488.2
758.381	18595.99
758.719	18472.16
759.056	18386.28
759.394	18455.43
759.731	18318.49
760.068	18255.21
760.405	18303.57
760.743	18253.18
761.08	18168.21
761.417	18089.11
761.754	18054.31
762.091	17985.84
762.428	18067.87
762.765	17850.25
763.102	17819.29
763.438	17837.37
763.775	17631.73
764.112	17731.84
764.449	17733.87
764.785	17630.82
765.122	17484.84
765.458	17450.49
765.795	17367.55
766.131	17352.18
766.467	17288.46
766.804	17256.59
767.14	17126.88
767.476	17119.65
767.812	17097.5
768.148	17081.91
768.485	16860.9
768.821	16871.29
769.157	16812.31
769.492	16776.83
769.828	16741.35
770.164	16634.01
770.5	16614.13
770.836	16570.96
771.171	16477.18
771.507	16443.73
771.842	16354.92
772.178	16266.79
772.513	16274.25
772.849	16263.63
773.184	16174.36
773.519	16104.76
773.855	16037.87
774.19	16002.16
774.525	15880.59
774.86	15908.16
775.195	15868.16
775.53	15787.93
775.865	15774.83
776.2	15547.49
776.535	15513.14
776.87	15486.7
777.205	15393.37
777.539	15382.97
777.874	15448.28
778.209	15274.27
778.543	15214.61
778.878	15161.73
779.212	15178
779.547	15010.55
779.881	15103.43
780.215	14980.95
780.55	15005.58
780.884	14923.55
781.218	14843.32
781.552	14818.24
781.886	14700.73
782.22	14708.41
782.554	14730.33
782.888	14549.77
783.222	14492.83
783.556	14427.97
783.889	14362.66
784.223	14299.16
784.557	14291.25
784.89	14313.85
785.224	14229.78
785.557	14098.03
785.891	14070.46
786.224	14078.37
786.558	14057.13
786.891	13952.95
787.224	13903.01
787.557	13790.02
787.891	13735.33
788.224	13780.53
788.557	13735.56
788.89	13593.64
789.223	13559.52
789.556	13605.39
789.888	13484.72
790.221	13475.9
790.554	13451.95
790.887	13415.79
791.219	13357.94
791.552	13377.6
791.884	13245.17
792.217	13141.45
792.549	13175.57
792.882	13068
793.214	12998.85
793.546	13105.29
793.879	12891.29
794.211	12882.92
794.543	12899.19
794.875	12838.63
795.207	12895.35
795.539	12773.1
795.871	12818.07
796.203	12685.19
796.535	12514.12
796.867	12596.83
797.198	12591.86
797.53	12582.82
797.862	12525.65
798.193	12489.49
798.525	12419.21
798.856	12470.05
799.188	12317.29
799.519	12298.53
799.85	12238.42
800.182	12234.81
800.513	12216.5
800.844	12110.74
801.175	12134.02
801.506	12111.19
801.837	12084.3
802.168	12020.35
802.499	11987.35
802.83	11900.35
803.161	11902.38
803.491	11892.67
803.822	11844.76
804.153	11741.03
804.483	11790.75
804.814	11700.58
805.145	11663.3
805.475	11601.83
805.805	11697.42
806.136	11588.04
806.466	11564.09
806.796	11554.6
807.126	11466.24
807.457	11426.47
807.787	11445.45
808.117	11301.72
808.447	11396.86
808.777	11390.99
809.107	11299.46
809.436	11285
809.766	11275.28
810.096	11204.32
810.426	11108.96
810.755	11165.23
811.085	11214.72
811.414	11089.98
811.744	11066.25
812.073	11013.14
812.403	11005.46
812.732	10975.18
813.061	10965.23
813.39	10977.21
813.719	10966.82
814.049	10843.2
814.378	10895.41
814.707	10816.76
815.036	10855.63
815.365	10735.64
815.693	10642.76
816.022	10675.3
816.351	10660.16
816.68	10573.15
817.008	10555.3
817.337	10501.74
817.665	10487.73
817.994	10491.35
818.322	10500.16
818.651	10476.21
818.979	10437.79
819.307	10476.21
819.636	10381.75
819.964	10391.01
820.292	10350.11
820.62	10397.79
820.948	10334.06
821.276	10355.98
821.604	10355.98
821.932	10380.39
822.259	10367.51
822.587	10305.14
822.915	10323.44
823.243	10295.87
823.57	10275.99
823.898	10299.04
824.225	10245.48
824.553	10273.5
824.88	10278.25
825.207	10269.43
825.535	10278.47
825.862	10338.58
826.189	10282.54
826.516	10275.53
826.843	10303.1
827.17	10273.5
827.497	10368.64
827.824	10235.99
828.151	10346.95
828.478	10319.83
828.805	10347.17
829.131	10336.32
829.458	10303.78
829.785	10254.97
830.111	10228.53
830.438	10298.81
830.764	10306.04
831.09	10213.62
831.417	10212.49
831.743	10217.46
832.069	10267.4
832.395	10219.04
832.722	10241.19
833.048	10234.18
833.374	10216.78
833.7	10180.4
834.026	10167.74
834.351	10181.98
834.677	10187.4
835.003	10171.36
835.329	10186.27
835.654	10144.92
835.98	10079.38
836.306	10091.36
836.631	10075.09
836.956	10096.56
837.282	10129.32
837.607	10022.43
837.932	9957.8
838.258	9991.7
838.583	9938.82
838.908	9980.4
839.233	9951.02
839.558	9925.49
839.883	9887.97
840.208	9886.17
840.533	9838.48
840.858	9857.69
841.182	9836.22
841.507	9813.17
841.832	9810.24
842.156	9796
842.481	9736.57
842.805	9725.94
843.13	9787.64
843.454	9675.78
843.778	9690.47
844.103	9631.48
844.427	9625.16
844.751	9599.62
845.075	9607.08
845.399	9622.67
845.723	9507.19
846.047	9490.47
846.371	9414.54
846.695	9420.64
847.019	9413.41
847.343	9370.47
847.666	9210.93
847.99	9220.65
848.313	9280.98
848.637	9151.5
848.96	9168.67
849.284	9128.9
849.607	9049.13
849.931	9050.93
850.254	9048.22
850.577	8960.54
850.9	8853.88
851.223	8897.72
851.546	8913.31
851.869	8793.09
852.192	8850.04
852.515	8763.03
852.838	8731.85
853.161	8682.81
853.483	8691.62
853.806	8634.67
854.129	8630.61
854.451	8589.48
854.774	8538.18
855.096	8560.55
855.419	8511.97
855.741	8534.34
856.063	8437.39
856.385	8503.6
856.708	8464.74
857.03	8389.26
857.352	8403.27
857.674	8305.42
857.996	8331.63
858.318	8244.85
858.64	8286.66
858.961	8229.71
859.283	8207.57
859.605	8149.72
859.926	8192.2
860.248	8241.24
860.57	8186.1
860.891	8146.33
861.212	8153.78
861.534	8099.77
861.855	8100.9
862.176	8112.88
862.498	8076.95
862.819	8085.54
863.14	7977.97
863.461	8031.3
863.782	7998.98
864.103	7982.94
864.424	7953.34
864.745	7892.09
865.065	7982.04
865.386	7888.03
865.707	7870.85
866.027	7909.27
866.348	7889.38
866.668	7843.06
866.989	7886.9
867.309	7808.93
867.63	7847.8
867.95	7856.39
868.27	7779.1
868.59	7810.97
868.91	7793.11
869.23	7756.51
869.55	7727.13
869.87	7791.53
870.19	7726.22
870.51	7706.56
870.83	7743.85
871.15	7662.72
871.469	7699.56
871.789	7678.77
872.109	7639.67
872.428	7598.77
872.748	7607.13
873.067	7639.67
873.386	7565.55
873.706	7557.64
874.025	7526.45
874.344	7505.89
874.663	7531.43
874.982	7495.72
875.301	7548.37
875.62	7525.55
875.939	7502.73
876.258	7460.69
876.577	7453.24
876.896	7485.33
877.214	7426.8
877.533	7453.69
877.852	7443.29
878.17	7379.57
878.489	7359.23
878.807	7374.82
879.125	7332.34
879.444	7385.22
879.762	7407.14
880.08	7381.15
880.398	7324.88
880.716	7344.76
881.034	7274.26
881.352	7294.82
881.67	7310.19
881.988	7235.61
882.306	7264.09
882.624	7260.02
882.941	7229.51
883.259	7194.03
883.577	7139.8
883.894	7129.18
884.212	7159.23
884.529	7172.34
884.846	7109.97
885.164	7137.76
885.481	7075.62
885.798	7093.92
886.115	7055.05
886.432	7016.19
886.75	7006.69
887.067	7021.38
887.383	7043.76
887.7	6979.35
888.017	6989.07
888.334	7008.05
888.651	6951.55
888.967	6930.76
889.284	6909.3
889.6	6827.94
889.917	6868.39
890.233	6835.17
890.55	6769.19
890.866	6813.93
891.182	6737.55
891.498	6782.75
891.815	6692.13
892.131	6721.05
892.447	6713.59
892.763	6674.5
893.079	6634.05
893.395	6626.14
893.71	6642.18
894.026	6619.36
894.342	6590.21
894.657	6544.79
894.973	6583.2
895.289	6581.62
895.604	6558.34
895.92	6513.37
896.235	6479.25
896.55	6454.84
896.865	6442.87
897.181	6389.54
897.496	6437.9
897.811	6359.93
898.126	6361.06
898.441	6314.96
898.756	6307.05
899.071	6249.65
899.386	6312.7
899.7	6244.91
900.015	6180.05
900.33	6135.76
900.644	6154.74
900.959	6160.16
901.273	6128.53
901.588	6124.46
901.902	6036.55
902.216	6080.84
902.531	6047.4
902.845	5994.74
903.159	5977.57
903.473	5948.87
903.787	5952.94
904.101	5937.8
904.415	5902.54
904.729	5935.08
905.042	5837.69
905.356	5853.05
905.67	5808.31
905.984	5840.17
906.297	5841.75
906.611	5733.06
906.924	5767.18
907.237	5761.53
907.551	5728.54
907.864	5677.69
908.177	5691.7
908.491	5677.24
908.804	5563.57
909.117	5627.3
909.43	5553.17
909.743	5551.82
910.056	5538.26
910.368	5468.43
910.681	5494.42
910.994	5527.64
911.307	5444.7
911.619	5421.65
911.932	5453.74
912.244	5418.49
912.557	5369.22
912.869	5360.18
913.181	5355.89
913.494	5298.26
913.806	5303.69
914.118	5280.19
914.43	5237.48
914.742	5255.55
915.054	5217.81
915.366	5148.66
915.678	5195.22
915.99	5152.28
916.302	5115.67
916.613	5105.5
916.925	5107.31
917.236	5056.46
917.548	5047.2
917.859	5072.28
918.171	5039.74
918.482	4985.73
918.794	4965.62
919.105	4955.9
919.416	4890.82
919.727	4903.92
920.038	4932.62
920.349	4817.15
920.66	4864.15
920.971	4846.75
921.282	4858.5
921.593	4814.21
921.903	4731.27
922.214	4762.69
922.525	4741.44
922.835	4715.46
923.146	4691.5
923.456	4686.76
923.767	4666.87
924.077	4641.78
924.387	4591.62
924.697	4640.65
925.008	4630.94
925.318	4566.31
925.628	4542.8
925.938	4561.56
926.248	4502.58
926.558	4515.46
926.867	4481.11
927.177	4445.63
927.487	4444.73
927.796	4402.69
928.106	4430.04
928.416	4372.64
928.725	4383.94
929.034	4348.91
929.344	4327.22
929.653	4344.39
929.962	4301.68
930.271	4276.14
930.581	4265.07
930.89	4208.8
931.199	4223.49
931.508	4223.72
931.817	4183.04
932.125	4203.38
932.434	4156.6
932.743	4143.04
933.051	4126.54
933.36	4071.63
933.669	4079.54
933.977	4098.97
934.286	4076.6
934.594	4020.56
934.902	4075.7
935.21	3978.07
935.519	3988.47
935.827	3978.53
936.135	3936.04
936.443	3913.44
936.751	3946.89
937.059	3881.13
937.367	3848.36
937.674	3885.87
937.982	3866.44
938.29	3876.83
938.597	3825.54
938.905	3782.37
939.213	3809.94
939.52	3800.9
939.827	3760.45
940.135	3733.33
940.442	3729.04
940.749	3720.23
941.056	3754.12
941.363	3665.77
941.67	3668.03
941.977	3597.74
942.284	3635.26
942.591	3648.36
942.898	3607.69
943.205	3592.77
943.511	3614.47
943.818	3573.56
944.125	3556.16
944.431	3523.62
944.738	3517.52
945.044	3495.6
945.35	3502.15
945.657	3504.64
945.963	3489.27
946.269	3473.23
946.575	3445.66
946.881	3420.8
947.187	3406.56
947.493	3349.62
947.799	3387.13
948.105	3378.99
948.41	3341.25
948.716	3359.56
949.022	3319.11
949.327	3357.52
949.633	3290.86
949.938	3251.54
950.244	3264.65
950.549	3219.22
950.854	3247.02
951.16	3240.69
951.465	3220.81
951.77	3176.51
952.075	3181.71
952.38	3178.55
952.685	3160.24
952.99	3124.54
953.294	3122.05
953.599	3125.67
953.904	3083.18
954.209	3038.44
954.513	3082.73
954.818	3083.41
955.122	3070.53
955.426	3048.15
955.731	3017.19
956.035	3017.42
956.339	3005.67
956.643	2992.34
956.948	2986.01
957.252	2995.05
957.556	2970.87
957.86	2936.52
958.163	2942.62
958.467	2944.65
958.771	2934.03
959.075	2883.86
959.378	2917.54
959.682	2908.72
959.985	2891.32
960.289	2857.65
960.592	2842.74
960.896	2843.87
961.199	2811.78
961.502	2801.16
961.805	2828.05
962.108	2802.51
962.411	2757.31
962.714	2805.22
963.017	2780.59
963.32	2752.12
963.623	2704.89
963.926	2720.71
964.228	2699.46
964.531	2680.03
964.833	2701.5
965.136	2716.41
965.438	2649.75
965.741	2645
966.043	2633.7
966.345	2610.65
966.648	2599.58
966.95	2590.09
967.252	2595.28
967.554	2568.17
967.856	2576.98
968.158	2527.94
968.46	2537.43
968.761	2543.08
969.063	2546.92
969.365	2512.8
969.666	2486.59
969.968	2474.84
970.269	2475.97
970.571	2482.07
970.872	2456.76
971.174	2461.96
971.475	2486.14
971.776	2431.45
972.077	2450.66
972.378	2439.36
972.679	2430.32
972.98	2404.33
973.281	2409.3
973.582	2398.45
973.883	2369.3
974.183	2347.83
974.484	2379.25
974.785	2372.47
975.085	2316.87
975.386	2342.64
975.686	2313.26
975.986	2299.93
976.287	2302.86
976.587	2235.29
976.887	2290.89
977.187	2278.46
977.487	2257.67
977.787	2217.44
978.087	2235.52
978.387	2248.63
978.687	2224.67
978.987	2202.75
979.286	2185.13
979.586	2198.23
979.885	2205.46
980.185	2164.79
980.484	2171.57
980.784	2164.56
981.083	2127.27
981.382	2127.95
981.682	2139.93
981.981	2099.93
982.28	2114.85
982.579	2087.05
982.878	2101.29
983.177	2107.84
983.475	2102.64
983.774	2070.55
984.073	2063.55
984.372	2033.27
984.67	2025.81
984.969	2041.18
985.267	2011.35
985.566	2045.02
985.864	2013.83
986.162	2017.45
986.461	1996.43
986.759	1977.9
987.057	1979.26
987.355	1969.09
987.653	1964.34
987.951	1942.87
988.249	1953.27
988.547	1938.8
988.844	1934.96
989.142	1935.87
989.44	1931.8
989.737	1913.04
990.035	1899.48
990.332	1897.45
990.63	1871.24
990.927	1880.05
991.224	1859.49
991.521	1860.61
991.819	1824.46
992.116	1842.99
992.413	1828.53
992.71	1850.67
993.006	1814.51
993.303	1816.32
993.6	1805.48
993.897	1807.28
994.193	1824.23
994.49	1772.48
994.787	1768.64
995.083	1761.18
995.379	1764.35
995.676	1755.31
995.972	1721.41
996.268	1720.51
996.565	1732.71
996.861	1721.64
997.157	1675.76
997.453	1694.52
997.749	1653.84
998.044	1709.66
998.34	1679.6
998.636	1684.8
998.932	1669.21
999.227	1657.91
999.523	1665.59
999.818	1624.91
1000.114	1603.67
1000.409	1628.08
1000.704	1619.72
1001	1609.55
1001.295	1601.64
1001.59	1594.41
1001.885	1573.84
1002.18	1555.54
1002.475	1583.33
1002.77	1571.58
1003.065	1522.32
1003.359	1530.68
1003.654	1527.29
1003.949	1524.35
1004.243	1500.62
1004.538	1506.05
1004.832	1523.22
1005.127	1502.21
1005.421	1483.68
1005.715	1469.89
1006.009	1480.51
1006.304	1451.36
1006.598	1418.37
1006.892	1440.06
1007.186	1449.78
1007.48	1444.58
1007.773	1420.85
1008.067	1445.03
1008.361	1380.85
1008.655	1412.49
1008.948	1374.3
1009.242	1385.83
1009.535	1369.78
1009.829	1343.11
1010.122	1358.71
1010.415	1360.74
1010.708	1350.8
1011.001	1345.15
1011.295	1334.98
1011.588	1345.83
1011.881	1328.65
1012.173	1329.33
1012.466	1319.84
1012.759	1316.45
1013.052	1312.15
1013.344	1277.58
1013.637	1269.44
1013.93	1297.69
1014.222	1264.92
1014.514	1273.96
1014.807	1262.44
1015.099	1230.12
1015.391	1236
1015.683	1242.1
1015.976	1213.4
1016.268	1246.17
1016.56	1194.64
1016.851	1206.39
1017.143	1182.89
1017.435	1210.46
1017.727	1205.49
1018.018	1173.85
1018.31	1173.63
1018.602	1186.28
1018.893	1167.3
1019.185	1147.19
1019.476	1140.41
1019.767	1141.09
1020.058	1144.48
1020.35	1132.72
1020.641	1152.61
1020.932	1129.11
1021.223	1092.95
1021.514	1078.49
1021.804	1086.62
1022.095	1079.84
1022.386	1069.45
1022.677	1082.33
1022.967	1069
1023.258	1063.8
1023.548	1069.45
1023.839	1069.9
1024.129	1052.73
1024.419	1036
1024.709	1033.97
1025	1035.33
1025.29	1033.07
1025.58	1025.83
1025.87	1007.76
1026.16	984.48
1026.449	1035.1
1026.739	971.37
1027.029	975.67
1027.319	998.49
1027.608	954.65
1027.898	975.89
1028.187	965.05
1028.477	957.36
1028.766	963.24
1029.055	966.63
1029.344	945.61
1029.634	965.27
1029.923	925.95
1030.212	943.35
1030.501	937.25
1030.79	923.92
1031.078	921.88
1031.367	897.48
1031.656	891.15
1031.945	888.21
1032.233	887.76
1032.522	858.61
1032.81	874.43
1033.099	882.56
1033.387	885.73
1033.675	852.51
1033.963	881.88
1034.251	832.85
1034.54	863.8
1034.828	841.21
1035.116	830.36
1035.403	826.07
1035.691	842.11
1035.979	823.81
1036.267	810.93
1036.554	812.73
1036.842	806.86
1037.129	798.95
1037.417	791.26
1037.704	791.94
1037.992	788.55
1038.279	779.06
1038.566	771.83
1038.853	771.83
1039.14	771.83
