Data from breadboard_black_back_FLMS001491_00051.txt Node
Date: Wed Feb 08 10:50:34 GMT 2017
User: dcchb
Spectrometer: FLMS00149
Trigger mode: 0
Integration Time (sec): 2.000000E-2
Scans to average: 10
Electric dark correction enabled: true
Nonlinearity correction enabled: false
Boxcar width: 0
XAxis mode: Wavelengths
Number of Pixels in Spectrum: 2048
>>>>>Begin Spectral Data<<<<<
341.393	-12.43
341.776	-12.43
342.16	-12.43
342.543	-49.04
342.927	-68.47
343.31	-60.11
343.693	-75.48
344.077	-58.3
344.46	-45.42
344.843	-54.46
345.226	-22.15
345.61	-49.04
345.993	-17.85
346.376	-6.78
346.759	4.29
347.142	25.99
347.525	35.03
347.908	53.56
348.291	54.69
348.674	101.47
349.057	114.57
349.44	118.64
349.823	133.78
350.206	150.96
350.588	191.63
350.971	202.48
351.354	214.01
351.737	243.38
352.119	256.94
352.502	272.76
352.884	283.16
353.267	283.61
353.65	304.62
354.032	299.2
354.414	353.89
354.797	325.87
355.179	327.22
355.562	318.64
355.944	344.62
356.326	351.18
356.709	346.43
357.091	328.58
357.473	343.04
357.855	341.91
358.238	336.94
358.62	358.18
359.002	349.6
359.384	362.93
359.766	328.35
360.148	338.75
360.53	339.65
360.912	338.52
361.294	342.14
361.676	354.79
362.057	344.17
362.439	358.63
362.821	349.6
363.203	344.85
363.584	338.97
363.966	342.59
364.348	324.29
364.729	318.18
365.111	347.34
365.493	343.27
365.874	332.65
366.256	344.4
366.637	304.85
367.019	320.22
367.4	323.61
367.781	320.22
368.163	351.18
368.544	340.33
368.925	334.68
369.306	350.5
369.688	321.57
370.069	350.5
370.45	329.26
370.831	347.34
371.212	359.09
371.593	357.28
371.974	332.42
372.355	343.27
372.736	323.83
373.117	352.53
373.498	341.46
373.879	354.34
374.26	339.88
374.641	336.94
375.021	348.92
375.402	342.36
375.783	359.76
376.163	346.66
376.544	372.65
376.925	372.87
377.305	387.33
377.686	375.36
378.066	379.88
378.447	368.35
378.827	378.3
379.208	371.06
379.588	376.94
379.968	366.54
380.349	382.81
380.729	385.98
381.109	379.2
381.489	383.49
381.87	381.46
382.25	376.71
382.63	388.69
383.01	390.5
383.39	397.28
383.77	401.57
384.15	414.23
384.53	422.59
384.91	416.26
385.29	409.93
385.67	403.15
386.049	437.05
386.429	441.8
386.809	452.87
387.189	422.36
387.568	423.72
387.948	424.85
388.328	438.86
388.707	437.5
389.087	447.45
389.466	462.81
389.846	432.31
390.225	458.75
390.605	461.23
390.984	475.24
391.363	465.52
391.743	487.44
392.122	477.05
392.501	477.5
392.881	474.11
393.26	471.63
393.639	489.7
394.018	482.25
394.397	517.5
394.776	485.64
395.155	507.56
395.534	522.25
395.913	506.2
396.292	539.65
396.671	526.31
397.05	522.7
397.429	514.79
397.808	540.1
398.186	547.56
398.565	531.96
398.944	519.53
399.323	562.25
399.701	572.19
400.08	544.62
400.458	549.59
400.837	575.58
401.215	558.86
401.594	565.86
401.972	586.65
402.351	580.78
402.729	594.56
403.107	564.05
403.486	581.68
403.864	600.44
404.242	602.24
404.62	618.74
404.999	625.07
405.377	637.5
405.755	623.26
406.133	643.37
406.511	624.62
406.889	641.79
407.267	661.45
407.645	667.33
408.023	673.88
408.401	662.36
408.779	651.28
409.156	691.73
409.534	682.24
409.912	682.47
410.29	710.72
410.667	727.44
411.045	727.44
411.422	729.92
411.8	744.84
412.178	758.4
412.555	736.93
412.933	751.17
413.31	767.21
413.687	759.75
414.065	770.6
414.442	801.11
414.819	796.59
415.197	825.29
415.574	830.71
415.951	827.77
416.328	822.13
416.705	834.33
417.082	855.8
417.46	845.85
417.837	869.13
418.214	879.07
418.591	884.04
418.967	869.13
419.344	888.34
419.721	886.08
420.098	895.57
420.475	914.1
420.852	928.56
421.228	948.68
421.605	936.25
421.982	955.68
422.358	950.48
422.735	970.37
423.111	947.09
423.488	982.12
423.864	971.5
424.241	992.06
424.617	988.45
424.994	994.32
425.37	1013.31
425.746	1021.67
426.123	1035.9
426.499	1034.78
426.875	1066.41
427.251	1096.92
427.627	1119.74
428.003	1106.19
428.379	1104.83
428.756	1132.17
429.132	1181.89
429.507	1178.5
429.883	1177.82
430.259	1209.46
430.635	1170.14
431.011	1196.58
431.387	1242.45
431.763	1275.9
432.138	1288.33
432.514	1291.49
432.89	1279.97
433.265	1342.11
433.641	1326.07
434.016	1324.48
434.392	1365.84
434.767	1383.24
435.143	1351.83
435.518	1404.26
435.894	1416.91
436.269	1446.29
436.644	1432.96
437.02	1455.55
437.395	1455.55
437.77	1496.91
438.145	1495.1
438.52	1523.12
438.895	1517.47
439.271	1518.83
439.646	1572.84
440.021	1586.4
440.395	1582.33
440.77	1578.49
441.145	1615.32
441.52	1609
441.895	1625.49
442.27	1651.26
442.645	1634.99
443.019	1688.77
443.394	1655.78
443.769	1659.62
444.143	1666.17
444.518	1726.06
444.892	1731.25
445.267	1725.38
445.641	1739.39
446.016	1761.08
446.39	1747.98
446.764	1748.88
447.139	1767.41
447.513	1789.11
447.887	1806.05
448.262	1805.83
448.636	1794.53
449.01	1886.73
449.384	1892.38
449.758	1893.74
450.132	1915.43
450.506	1939.16
450.88	1961.3
451.254	1967.86
451.628	1934.86
452.002	1981.19
452.376	1995.88
452.75	2031.81
453.123	2035.88
453.497	2057.35
453.871	2076.1
454.244	2134.63
454.618	2135.09
454.992	2144.12
455.365	2199.72
455.739	2228.19
456.112	2231.13
456.486	2223.67
456.859	2274.74
457.232	2348.64
457.606	2331.01
457.979	2367.17
458.352	2412.82
458.725	2461.63
459.099	2442.65
459.472	2514.28
459.845	2505.47
460.218	2531.01
460.591	2548.63
460.964	2581.4
461.337	2619.14
461.71	2638.57
462.083	2703.21
462.456	2726.93
462.829	2739.81
463.201	2785.24
463.574	2791.79
463.947	2836.08
464.32	2899.58
464.692	2931.9
465.065	2940.04
465.438	2967.15
465.81	3043.31
466.183	3068.17
466.555	3140.71
466.928	3182.74
467.3	3132.12
467.672	3190.65
468.045	3312
468.417	3287.37
468.789	3289.86
469.161	3386.13
469.534	3435.39
469.906	3510.87
470.278	3509.74
470.65	3558.55
471.022	3609.4
471.394	3695.04
471.766	3661.15
472.138	3792.44
472.51	3811.88
472.882	3893.23
473.253	3898.2
473.625	3985.66
473.997	4089.61
474.369	4141.59
474.74	4196.05
475.112	4228.82
475.484	4272.66
475.855	4382.48
476.227	4392.2
476.598	4519.43
476.97	4538.41
477.341	4635.81
477.713	4770.72
478.084	4770.95
478.455	4902.7
478.827	4935.69
479.198	5083.71
479.569	5091.39
479.94	5245.06
480.311	5230.14
480.682	5366.86
481.053	5525.96
481.424	5538.39
481.795	5673.75
482.166	5737.02
482.537	5820.19
482.908	5909.22
483.279	5993.51
483.65	6060.86
484.021	6178.14
484.391	6254.98
484.762	6346.95
485.133	6438.7
485.503	6472.6
485.874	6610
486.244	6690.67
486.615	6792.36
486.985	6938.12
487.356	6928.18
487.726	7070.32
488.097	7203.2
488.467	7254.5
488.837	7388.96
489.207	7474.83
489.578	7550.08
489.948	7689.74
490.318	7817.65
490.688	7787.59
491.058	7902.17
491.428	7989.62
491.798	8156.85
492.168	8244.3
492.538	8321.82
492.908	8400.68
493.278	8490.4
493.648	8514.35
494.017	8674.12
494.387	8772.88
494.757	8791.86
495.126	8911.4
495.496	8972.19
495.866	9019.88
496.235	9129.93
496.605	9252.64
496.974	9250.83
497.344	9379.64
497.713	9462.8
498.082	9509.13
498.452	9659.18
498.821	9627.54
499.19	9690.14
499.559	9791.61
499.928	9885.39
500.298	9893.98
500.667	10064.37
501.036	10037.93
501.405	10133.74
501.774	10200.86
502.143	10319.73
502.512	10368.54
502.88	10447.63
503.249	10487.41
503.618	10548.88
503.987	10620.06
504.356	10691.47
504.724	10799.49
505.093	10756.78
505.462	10888.98
505.83	10922.2
506.199	11051.23
506.567	11163.32
506.936	11147.05
507.304	11328.29
507.672	11357.44
508.041	11443.09
508.409	11587.94
508.777	11518.12
509.145	11765.34
509.514	11701.16
509.882	11871.78
510.25	11830.88
510.618	11993.13
510.986	12059.34
511.354	12192.22
511.722	12257.76
512.09	12425.66
512.458	12400.35
512.826	12542.72
513.193	12594.7
513.561	12684.41
513.929	12704.98
514.297	12903.84
514.664	13005.76
515.032	12990.17
515.4	13211.4
515.767	13190.39
516.135	13258.86
516.502	13256.37
516.869	13497.72
517.237	13568
517.604	13555.12
517.972	13765.29
518.339	13852.29
518.706	13926.87
519.073	13968.45
519.44	14068.56
519.808	14217.25
520.175	14255.67
520.542	14495.66
520.909	14571.59
521.276	14627.86
521.643	14728.43
522.009	14838.03
522.376	14942.88
522.743	15082.54
523.11	15218.58
523.477	15297.45
523.843	15444.34
524.21	15593.49
524.577	15743.54
524.943	15819.25
525.31	15921.39
525.676	16020.37
526.043	16208.84
526.409	16302.85
526.776	16491.54
527.142	16459.91
527.508	16588.26
527.874	16711.65
528.241	16812.44
528.607	16896.28
528.973	17070.29
529.339	17106.67
529.705	17317.06
530.071	17408.13
530.437	17501.91
530.803	17614.68
531.169	17770.83
531.535	17745.3
531.901	17864.16
532.267	17941
532.632	18054.67
532.998	18086.98
533.364	18371.27
533.73	18271.84
534.095	18501.66
534.461	18562.68
534.826	18628.89
535.192	18605.84
535.557	18857.58
535.923	18814.87
536.288	18905.72
536.653	19075.88
537.019	19048.76
537.384	19038.6
537.749	19218.48
538.114	19234.07
538.479	19314.97
538.845	19367.4
539.21	19452.82
539.575	19540.05
539.94	19528.07
540.305	19761.06
540.67	19704.57
541.034	19838.57
541.399	19944.79
541.764	19998.8
542.129	19996.99
542.494	20157.89
542.858	20139.58
543.223	20210.77
543.587	20350.43
543.952	20284.44
544.316	20497.31
544.681	20474.94
545.045	20523.98
545.41	20766.01
545.774	20784.31
546.138	20925.1
546.503	20934.82
546.867	20877.87
547.231	21062.5
547.595	21161.93
547.959	21148.6
548.324	21323.73
548.688	21306.11
549.052	21458.42
549.416	21494.35
549.779	21495.48
550.143	21624.06
550.507	21719.43
550.871	21757.39
551.235	21642.37
551.599	21951.06
551.962	22010.95
552.326	22169.36
552.689	22279.87
553.053	22157.61
553.417	22281.67
553.78	22555.57
554.143	22542.46
554.507	22636.47
554.87	22628.11
555.234	22890.25
555.597	22865.61
555.96	22863.13
556.323	23028.1
556.686	23134.76
557.05	23129.56
557.413	23276.9
557.776	23339.95
558.139	23674.18
558.502	23591.24
558.865	23684.57
559.228	24005.02
559.59	24026.26
559.953	23983.1
560.316	24284.11
560.679	24257.22
561.041	24349.42
561.404	24582.63
561.767	24625.79
562.129	24652.23
562.492	24790.76
562.854	24758.45
563.217	24819.01
563.579	25120.24
563.941	25121.15
564.304	25374.7
564.666	25406.11
565.028	25493.34
565.39	25545.77
565.753	25739.44
566.115	25870.05
566.477	25949.83
566.839	26016.27
567.201	26261.91
567.563	26243.6
567.925	26525.18
568.287	26322.25
568.648	26380.32
569.01	26612.41
569.372	26812.63
569.734	26709.13
570.095	26964.71
570.457	27018.27
570.819	27259.17
571.18	27202
571.542	27285.61
571.903	27313.41
572.265	27536.68
572.626	27509.56
572.987	27483.8
573.349	27662.78
573.71	27810.57
574.071	27778.03
574.432	27945.03
574.794	28049.21
575.155	28109.09
575.516	28037.23
575.877	28179.6
576.238	28253.49
576.599	28301.4
576.96	28431.34
577.32	28343.66
577.681	28481.29
578.042	28568.51
578.403	28627.95
578.763	28571
579.124	28776.19
579.485	28740.71
579.845	28878.79
580.206	28775.97
580.566	28819.81
580.927	28895.06
581.287	28921.27
581.648	28833.59
582.008	28972.8
582.368	29021.38
582.728	29001.72
583.089	28965.34
583.449	29012.57
583.809	29087.37
584.169	28995.17
584.529	28990.2
584.889	29255.28
585.249	29028.62
585.609	29067.26
585.969	29316.52
586.329	29123.3
586.688	29198.55
587.048	29170.08
587.408	29124.43
587.768	29214.15
588.127	29208.5
588.487	29156.3
588.846	29314.03
589.206	29085.56
589.565	29105
589.925	29386.35
590.284	29250.53
590.643	29210.08
591.003	29373.01
591.362	29410.98
591.721	29349.51
592.08	29285.56
592.44	29437.64
592.799	29394.71
593.158	29366.46
593.517	29425.89
593.876	29349.51
594.235	29274.03
594.593	29482.39
594.952	29369.17
595.311	29367.14
595.67	29438.1
596.029	29647.13
596.387	29677.64
596.746	29759.22
597.104	29585.66
597.463	29521.71
597.822	29635.38
598.18	29515.61
598.538	29664.08
598.897	29810.97
599.255	29572.1
599.613	29951.98
599.972	29703.85
600.33	29847.35
600.688	29652.1
601.046	29907.46
601.404	29830.63
601.762	29873.11
602.12	30008.02
602.478	30098.19
602.836	30055.48
603.194	29894.36
603.552	30024.07
603.91	29977.52
604.268	30183.16
604.625	30101.13
604.983	30134.8
605.341	29982.04
605.698	30235.59
606.056	30207.57
606.413	30311.07
606.771	30284.63
607.128	30429.03
607.485	30227.45
607.843	30104.97
608.2	30495.92
608.557	30341.58
608.914	30520.1
609.272	30581.34
609.629	30691.62
609.986	30734.33
610.343	30670.83
610.7	30938.62
611.057	30784.05
611.414	30827.21
611.771	30785.86
612.127	30794.22
612.484	30826.99
612.841	30904.5
613.198	30723.26
613.554	30847.32
613.911	31010.71
614.267	31117.83
614.624	31019.07
614.98	31170.25
615.337	31240.31
615.693	31137.94
616.05	31141.78
616.406	31377.93
616.762	31193.98
617.118	31269.69
617.475	31283.92
617.831	31301.32
618.187	31327.99
618.543	31305.17
618.899	31623.58
619.255	31501.09
619.611	31545.84
619.967	31530.24
620.323	31622.9
620.678	31554.65
621.034	31479.4
621.39	31446.4
621.746	31448.21
622.101	31871.7
622.457	31467.65
622.812	31704.48
623.168	31727.98
623.523	31758.26
623.879	31804.36
624.234	31602.56
624.589	31651.6
624.945	31655.21
625.3	31725.72
625.655	31727.3
626.01	31823.34
626.365	31679.17
626.72	31629
627.075	31712.61
627.43	31604.37
627.785	31659.96
628.14	31575.89
628.495	31675.33
628.85	31575.89
629.205	31527.53
629.559	31566.85
629.914	31672.39
630.269	31542.22
630.623	31511.49
630.978	31538.61
631.332	31579.73
631.687	31570.7
632.041	31451.15
632.396	31417.03
632.75	31389.01
633.104	31353.53
633.459	31293.87
633.813	31271.95
634.167	31295.45
634.521	31271.27
634.875	31255.68
635.229	31149.69
635.583	31070.14
635.937	31038.51
636.291	30918.51
636.645	31069.01
636.999	30953.76
637.352	31050.93
637.706	30930.03
638.06	31022.69
638.413	30954.89
638.767	30842.58
639.121	30853.88
639.474	30791.05
639.828	30724.84
640.181	30734.56
640.534	30870.6
640.888	30550.61
641.241	30415.25
641.594	30545.64
641.947	30635.35
642.301	30534.79
642.654	30538.41
643.007	30421.12
643.36	30508.58
643.713	30305.42
644.066	30564.39
644.419	30252.54
644.771	30136.83
645.124	29950.4
645.477	29909.5
645.83	29620.24
646.182	29517.64
646.535	29387.48
646.888	29399.68
647.24	29217.99
647.593	29379.34
647.945	29345.22
648.298	29224.09
648.65	29067.94
649.002	29082.85
649.355	29313.58
649.707	29198.1
650.059	29231.1
650.411	29624.08
650.763	29629.05
651.115	29991.53
651.467	29786.11
651.819	29805.77
652.171	29697.52
652.523	29551.31
652.875	29637.41
653.227	29551.77
653.578	29703.17
653.93	29595.83
654.282	29440.13
654.633	29385.89
654.985	29386.35
655.337	29577.53
655.688	29439.9
656.039	29604.87
656.391	29367.36
656.742	29340.47
657.094	29519.22
657.445	29391.32
657.796	29369.17
658.147	29384.99
658.498	29223.86
658.849	29260.47
659.2	29317.87
659.551	29271.09
659.902	29378.44
660.253	29161.04
660.604	29101.38
660.955	29190.42
661.306	29259.34
661.656	29160.82
662.007	29210.98
662.358	29159.46
662.708	29155.17
663.059	29150.42
663.409	29085.11
663.76	29009.63
664.11	29058.22
664.461	29126.92
664.811	29036.75
665.161	28972.35
665.511	29013.7
665.862	29117.88
666.212	29057.99
666.562	29131.21
666.912	28911.56
667.262	28933.25
667.612	28923.53
667.962	28880.14
668.312	28835.17
668.662	29005.34
669.011	28903.87
669.361	28894.83
669.711	28845.57
670.06	28759.02
670.41	28696.87
670.76	28779.36
671.109	28796.3
671.459	28729.19
671.808	28790.2
672.157	28801.28
672.507	28595.86
672.856	28677.66
673.205	28534.62
673.554	28743.88
673.904	28580.27
674.253	28698.45
674.602	28549.98
674.951	28359.03
675.3	28129.2
675.649	28518.8
675.998	28567.84
676.346	28440.38
676.695	28560.83
677.044	28309.31
677.393	28335.75
677.741	28472.7
678.09	28354.51
678.438	28205.59
678.787	28297.79
679.135	28319.93
679.484	28158.36
679.832	28254.17
680.181	28017.79
680.529	28231.57
680.877	28077
681.225	28051.01
681.573	28212.82
681.922	28057.79
682.27	28038.13
682.618	27962.88
682.966	27926.72
683.314	27932.82
683.661	27885.37
684.009	27698.03
684.357	27727.18
684.705	27654.87
685.053	27667.75
685.4	27609.22
685.748	27496.23
686.095	27458.71
686.443	27224.59
686.79	27291.26
687.138	27353.18
687.485	27312.05
687.832	27198.15
688.18	27288.77
688.527	27072.73
688.874	27018.27
689.221	27070.7
689.568	26904.83
689.915	26857.82
690.262	26908.67
690.609	26839.97
690.956	26734.66
691.303	26654.44
691.65	26531.28
691.997	26496.48
692.344	26358.63
692.69	26337.84
693.037	26402.02
693.383	26142.59
693.73	26168.13
694.077	26146.21
694.423	26051.97
694.769	26006.77
695.116	26003.16
695.462	25812.2
695.808	25751.41
696.155	25924.97
696.501	25569.95
696.847	25679.55
697.193	25504.19
697.539	25588.93
697.885	25362.27
698.231	25312.1
698.577	25336.06
698.923	25178.32
699.269	25052
699.614	25026.69
699.96	24968.16
700.306	24996.86
700.651	24920.47
700.997	24815.17
701.342	24769.74
701.688	24764.55
702.033	24706.92
702.379	24548.06
702.724	24670.76
703.069	24557.77
703.415	24323.88
703.76	24369.08
704.105	24308.51
704.45	24297.21
704.795	24056.32
705.14	24099.71
705.485	24039.14
705.83	23982.19
706.175	24023.55
706.52	23949.65
706.865	23791.69
707.209	23899.26
707.554	23790.11
707.899	23831.24
708.243	23615.2
708.588	23546.27
708.932	23418.82
709.277	23383.34
709.621	23440.06
709.966	23379.95
710.31	23332.49
710.654	23050.24
710.998	23133.85
711.342	23167.07
711.687	23086.62
712.031	22949.91
712.375	22892.51
712.719	23027.19
713.063	22919.62
713.407	22921.88
713.75	22856.57
714.094	22776.35
714.438	22690.7
714.782	22738.39
715.125	22685.05
715.469	22678.5
715.812	22497.26
716.156	22484.61
716.499	22369.81
716.843	22384.04
717.186	22288.23
717.53	22432.86
717.873	22406.42
718.216	22275.8
718.559	22160.1
718.902	22001.23
719.246	22072.41
719.589	22077.61
719.932	21833.32
720.275	21971.17
720.617	21966.43
720.96	22033.32
721.303	21926.88
721.646	21885.07
721.989	21858.63
722.331	21823.83
722.674	21715.14
723.016	21777.05
723.359	21687.79
723.701	21739.32
724.044	21500.9
724.386	21428.36
724.729	21410.74
725.071	21519.66
725.413	21318.99
725.755	21390.85
726.097	21198.76
726.439	21218.2
726.782	21230.18
727.124	21287.8
727.465	21132.33
727.807	21291.64
728.149	21138.88
728.491	21109.28
728.833	21068.37
729.175	21007.36
729.516	20849.4
729.858	20887.59
730.199	21074.7
730.541	20952.9
730.882	20907.02
731.224	20934.82
731.565	20875.84
731.906	20824.31
732.248	20752.45
732.589	20640.14
732.93	20710.42
733.271	20598.33
733.612	20636.75
733.953	20638.55
734.294	20539.8
734.635	20527.37
734.976	20582.96
735.317	20503.87
735.658	20406.02
735.999	20480.37
736.339	20314.95
736.68	20395.4
737.021	20268.85
737.361	20215.51
737.702	20409.41
738.042	20229.52
738.383	20201.95
738.723	20255.06
739.063	20166.93
739.404	20148.62
739.744	20065.69
740.084	19953.6
740.424	20085.8
740.764	20041.96
741.104	20014.61
741.444	19901.85
741.784	19857.33
742.124	19958.8
742.464	19913.6
742.804	19777.79
743.143	19837.9
743.483	19838.12
743.823	19691.23
744.162	19663.89
744.502	19700.72
744.841	19671.35
745.181	19636.55
745.52	19580.95
745.86	19570.56
746.199	19507.96
746.538	19450.11
746.877	19483.78
747.216	19554.74
747.556	19431.81
747.895	19435.87
748.234	19437.91
748.573	19293.96
748.911	19307.97
749.25	19273.39
749.589	19139.61
749.928	19263.67
750.267	19098.71
750.605	19037.47
750.944	19063.91
751.283	19002.21
751.621	18995.21
751.96	18866.85
752.298	18858.71
752.636	18844.02
752.975	18739.39
753.313	18696.01
753.651	18805.16
753.989	18622.56
754.327	18615.56
754.666	18499.63
755.004	18560.64
755.342	18604.26
755.679	18622.56
756.017	18363.36
756.355	18518.84
756.693	18332.63
757.031	18327.43
757.368	18267.54
757.706	18291.72
758.044	18191.16
758.381	18269.35
758.719	18162.46
759.056	18104.16
759.394	18074.1
759.731	17962.24
760.068	17951.39
760.405	17857.16
760.743	17708.01
761.08	17845.86
761.417	17737.61
761.754	17744.62
762.091	17643.38
762.428	17607.67
762.765	17432.76
763.102	17503.72
763.438	17417.17
763.775	17369.49
764.112	17319.09
764.449	17255.37
764.785	17198.64
765.122	17168.59
765.458	17085.88
765.795	17078.87
766.131	17020.57
766.467	16956.62
766.804	16902.61
767.14	16771.99
767.476	16936.05
767.812	16721.82
768.148	16752.78
768.485	16656.06
768.821	16579.68
769.157	16542.84
769.492	16456.52
769.828	16489.28
770.164	16301.49
770.5	16341.27
770.836	16228.95
771.171	16074.61
771.507	16087.49
771.842	16018.11
772.178	15986.47
772.513	15901.95
772.849	15850.43
773.184	15821.96
773.519	15874.61
773.855	15668.74
774.19	15663.77
774.525	15628.52
774.86	15655.41
775.195	15629.42
775.53	15515.3
775.865	15422.65
776.2	15356.66
776.535	15188.98
776.87	15203.89
777.205	15247.96
777.539	15040.51
777.874	15133.61
778.209	14935.2
778.543	14944.69
778.878	14884.35
779.212	14965.71
779.547	14719.16
779.881	14784.47
780.215	14708.31
780.55	14768.88
780.884	14690.01
781.218	14620.63
781.552	14554.19
781.886	14453.63
782.22	14402.56
782.554	14353.97
782.888	14219.06
783.222	14216.12
783.556	14128.67
783.889	14120.31
784.223	14039.4
784.557	13986.3
784.89	13991.72
785.224	13977.26
785.557	13802.12
785.891	13817.94
786.224	13800.09
786.558	13781.56
786.891	13699.07
787.224	13622.24
787.557	13611.62
787.891	13553.09
788.224	13535.46
788.557	13472.19
788.89	13399.42
789.223	13381.8
789.556	13298.86
789.888	13213.66
790.221	13229.93
790.554	13151.52
790.887	13160.56
791.219	13076.49
791.552	13107
791.884	12970.96
792.217	12992.88
792.549	12975.7
792.882	12879.44
793.214	12788.14
793.546	12815.03
793.879	12737.52
794.211	12668.59
794.543	12719.89
794.875	12614.81
795.207	12614.81
795.539	12616.62
795.871	12575.26
796.203	12448.03
796.535	12441.25
796.867	12340.69
797.198	12328.26
797.53	12330.07
797.862	12260.02
798.193	12252.56
798.525	12188.38
798.856	12223.63
799.188	12010.31
799.519	12007.37
799.85	11941.61
800.182	12102.05
800.513	11981.61
800.844	11851.67
801.175	11895.73
801.506	11927.14
801.837	11876.07
802.168	11797.88
802.499	11741.61
802.83	11707.49
803.161	11632.91
803.491	11696.42
803.822	11649.41
804.153	11580.26
804.483	11400.38
804.814	11473.14
805.145	11510.88
805.475	11542.07
805.805	11432.69
806.136	11383.88
806.466	11425.24
806.796	11327.84
807.126	11251.23
807.457	11232.7
807.787	11258.91
808.117	11192.47
808.447	11140.27
808.777	11225.24
809.107	11091.69
809.436	11119.03
809.766	11072.48
810.096	10988.64
810.426	10984.12
810.755	11012.59
811.085	10937.34
811.414	10946.38
811.744	10869.32
812.073	10854.86
812.403	10889.88
812.732	10835.65
813.061	10818.92
813.39	10725.14
813.719	10685.59
814.049	10722.43
814.378	10744.8
814.707	10601.3
815.036	10593.85
815.365	10589.55
815.693	10514.3
816.022	10485.37
816.351	10453.96
816.68	10439.95
817.008	10478.82
817.337	10334.19
817.665	10386.85
817.994	10363.8
818.322	10365.15
818.651	10335.32
818.979	10264.59
819.307	10320.41
819.636	10251.93
819.964	10246.74
820.292	10196.12
820.62	10230.92
820.948	10201.31
821.276	10267.53
821.604	10246.28
821.932	10237.7
822.259	10182.11
822.587	10189.79
822.915	10132.84
823.243	10174.65
823.57	10122.67
823.898	10141.88
824.225	10121.54
824.553	10156.57
824.88	10173.07
825.207	10199.28
825.535	10098.49
825.862	10173.74
826.189	10139.17
826.516	10096.01
826.843	10250.35
827.17	10143.69
827.497	10172.39
827.824	10183.46
828.151	10228.21
828.478	10127.19
828.805	10198.15
829.131	10162.22
829.458	10115.89
829.785	9977.14
830.111	10095.55
830.438	10157.7
830.764	10107.53
831.09	10078.83
831.417	10093.97
831.743	10086.97
832.069	10125.38
832.395	10086.97
832.722	10043.8
833.048	10034.31
833.374	10088.32
833.7	10058.27
834.026	10068.21
834.351	10108.21
834.677	10054.42
835.003	10067.98
835.329	10046.29
835.654	10009.23
835.98	9954.31
836.306	10021.88
836.631	9949.57
836.956	9938.27
837.282	9929.46
837.607	9891.04
837.932	9864.37
838.258	9945.95
838.583	9840.19
838.908	9883.36
839.233	9837.03
839.558	9842.68
839.883	9777.6
840.208	9792.06
840.533	9757.03
840.858	9691.04
841.182	9766.07
841.507	9708.22
841.832	9665.06
842.156	9646.07
842.481	9678.39
842.805	9637.71
843.13	9561.56
843.454	9578.96
843.778	9509.81
844.103	9446.76
844.427	9463.48
844.751	9522.69
845.075	9508.68
845.399	9533.53
845.723	9342.35
846.047	9427.55
846.371	9316.82
846.695	9367.21
847.019	9272.98
847.343	9238.85
847.666	9255.58
847.99	9112.75
848.313	9159.31
848.637	9081.34
848.96	9029.14
849.284	9039.54
849.607	8951.18
849.931	8944.62
850.254	8968.35
850.577	8837.73
850.9	8838.19
851.223	8843.61
851.546	8794.57
851.869	8753.44
852.192	8777.62
852.515	8641.58
852.838	8680.9
853.161	8669.38
853.483	8614.69
853.806	8583.28
854.129	8576.5
854.451	8504.86
854.774	8471.64
855.096	8438.42
855.419	8412.43
855.741	8414.02
856.063	8319.78
856.385	8313.91
856.708	8304.87
857.03	8305.77
857.352	8298.31
857.674	8262.38
857.996	8214.25
858.318	8123.18
858.64	8235.04
858.961	8177.19
859.283	8177.86
859.605	8083.63
859.926	8164.98
860.248	8086.79
860.57	8052.9
860.891	8060.81
861.212	8012.67
861.534	7934.71
861.855	7972.67
862.176	7993.24
862.498	8051.09
862.819	7885.22
863.14	7911.88
863.461	7906.68
863.782	7829.17
864.103	7882.28
864.424	7882.96
864.745	7845.67
865.065	7938.55
865.386	7757.76
865.707	7889.74
866.027	7847.03
866.348	7826.69
866.668	7804.99
866.989	7797.31
867.309	7698.1
867.63	7727.71
867.95	7752.34
868.27	7648.61
868.59	7663.75
868.91	7723.64
869.23	7678.89
869.55	7655.62
869.87	7707.59
870.19	7595.73
870.51	7617.2
870.83	7583.98
871.15	7484.32
871.469	7557.09
871.789	7590.99
872.109	7547.6
872.428	7542.85
872.748	7623.08
873.067	7538.11
873.386	7539.01
873.706	7517.32
874.025	7448.84
874.344	7448.62
874.663	7489.07
874.982	7415.17
875.301	7458.56
875.62	7477.54
875.939	7366.81
876.258	7388.28
876.577	7341.73
876.896	7361.84
877.214	7342.18
877.533	7332.24
877.852	7300.82
878.17	7395.29
878.489	7345.8
878.807	7322.07
879.125	7280.71
879.444	7290.88
879.762	7318.68
880.08	7259.02
880.398	7263.31
880.716	7251.79
881.034	7199.13
881.352	7229.64
881.67	7183.77
881.988	7199.58
882.306	7183.99
882.624	7159.36
882.941	7105.8
883.259	7083.88
883.577	7124.11
883.894	7061.96
884.212	7085.01
884.529	7061.96
884.846	7007.27
885.164	7033.26
885.481	6978.8
885.798	7053.37
886.115	6969.99
886.432	7001.17
886.75	6937.44
887.067	7012.24
887.383	6906.49
887.7	6908.29
888.017	6881.85
888.334	6889.99
888.651	6834.4
888.967	6865.81
889.284	6786.71
889.6	6790.78
889.917	6758.92
890.233	6744.91
890.55	6713.04
890.866	6737
891.182	6703.33
891.498	6705.59
891.815	6665.59
892.131	6640.05
892.447	6661.97
892.763	6560.28
893.079	6577
893.395	6553.27
893.71	6550.11
894.026	6618.81
894.342	6576.32
894.657	6518.47
894.973	6443.45
895.289	6513.95
895.604	6502.2
895.92	6405.03
896.235	6393.28
896.55	6403.22
896.865	6423.56
897.181	6311.02
897.496	6394.41
897.811	6366.16
898.126	6316.67
898.441	6293.85
898.756	6275.99
899.071	6217.69
899.386	6205.26
899.7	6205.03
900.015	6176.79
900.33	6132.49
900.644	6087.75
900.959	6087.75
901.273	6094.75
901.588	6007.07
901.902	6028.77
902.216	6063.12
902.531	5996.68
902.845	5986.28
903.159	5923.46
903.473	5956.45
903.787	5885.49
904.101	5899.96
904.415	5877.13
904.729	5918.04
905.042	5792.62
905.356	5844.59
905.67	5830.58
905.984	5799.62
906.297	5779.28
906.611	5714.2
906.924	5690.92
907.237	5651.38
907.551	5683.24
907.864	5626.52
908.177	5638.04
908.491	5641.66
908.804	5605.5
909.117	5559.63
909.43	5558.72
909.743	5507.65
910.056	5513.98
910.368	5471.95
910.681	5455.22
910.994	5431.27
911.307	5398.05
911.619	5386.07
911.932	5381.33
912.244	5367.54
912.557	5318.5
912.869	5294.1
913.181	5292.29
913.494	5258.39
913.806	5265.17
914.118	5276.25
914.43	5203.25
914.742	5187.89
915.054	5130.49
915.366	5194.89
915.678	5197.38
915.99	5152.63
916.302	5078.06
916.613	5080.32
916.925	5076.02
917.236	5048.45
917.548	5006.87
917.859	5058.4
918.171	4952.41
918.482	4956.25
918.794	4965.97
919.105	4946.99
919.416	4869.7
919.727	4873.09
920.038	4899.98
920.349	4864.5
920.66	4819.31
920.971	4789.7
921.282	4775.47
921.593	4737.95
921.903	4756.71
922.214	4709.71
922.525	4706.77
922.835	4675.58
923.146	4676.26
923.456	4639.43
923.767	4637.84
924.077	4658.18
924.387	4646.88
924.697	4560.33
925.008	4547
925.318	4574.79
925.628	4545.19
925.938	4513.78
926.248	4482.37
926.558	4471.97
926.867	4420.22
927.177	4405.08
927.487	4391.3
927.796	4369.6
928.106	4375.03
928.416	4365.99
928.725	4347.91
929.034	4327.34
929.344	4337.06
929.653	4353.11
929.962	4313.56
930.271	4274.24
930.581	4234.69
930.89	4245.31
931.199	4175.48
931.508	4184.97
931.817	4207.35
932.125	4174.58
932.434	4166.44
932.743	4142.49
933.051	4098.2
933.36	4069.5
933.669	4045.09
933.977	4062.72
934.286	4031.31
934.594	4030.63
934.902	4002.83
935.21	3977.75
935.519	3989.05
935.827	3957.18
936.135	3965.55
936.443	3875.38
936.751	3911.54
937.059	3904.53
937.367	3883.74
937.674	3872.44
937.982	3899.78
938.29	3862.05
938.597	3830.41
938.905	3765.32
939.213	3814.59
939.52	3736.62
939.827	3789.73
940.135	3757.87
940.442	3735.27
940.749	3733.46
941.056	3764.19
941.363	3708.38
941.67	3621.83
941.977	3636.29
942.284	3650.07
942.591	3632.45
942.898	3604.42
943.205	3576.63
943.511	3547.93
943.818	3589.06
944.125	3563.07
944.431	3537.76
944.738	3524.2
945.044	3510.42
945.35	3483.3
945.657	3505.67
945.963	3477.42
946.269	3449.17
946.575	3453.92
946.881	3389.06
947.187	3368.05
947.493	3401.72
947.799	3364.88
948.105	3369.18
948.41	3372.57
948.716	3315.62
949.022	3345
949.327	3333.02
949.633	3267.03
949.938	3287.37
950.244	3294.83
950.549	3268.16
950.854	3225.23
951.16	3224.1
951.465	3183.87
951.77	3244.43
952.075	3159.46
952.38	3132.12
952.685	3164.21
952.99	3163.08
953.294	3136.87
953.599	3127.38
953.904	3116.98
954.209	3093.48
954.513	3107.04
954.818	3052.35
955.122	3045.57
955.426	3065.23
955.731	3039.69
956.035	2991.79
956.339	3000.37
956.643	3036.08
956.948	2999.92
957.252	2968.28
957.556	2951.56
957.86	2934.84
958.163	2963.76
958.467	2925.8
958.771	2884.9
959.075	2951.56
959.378	2913.6
959.682	2889.87
959.985	2832.69
960.289	2833.6
960.592	2815.29
960.896	2814.84
961.199	2788.18
961.502	2827.5
961.805	2803.09
962.108	2806.03
962.411	2762.41
962.714	2745.69
963.017	2746.37
963.32	2760.15
963.623	2746.14
963.926	2679.25
964.228	2695.52
964.531	2668.4
964.833	2705.01
965.136	2672.47
965.438	2664.56
965.741	2631.8
966.043	2679.7
966.345	2628.18
966.648	2592.02
966.95	2607.84
967.252	2592.47
967.554	2564.23
967.856	2565.58
968.158	2543.21
968.46	2562.64
968.761	2562.42
969.063	2526.94
969.365	2507.5
969.666	2502.99
969.968	2486.26
970.269	2475.42
970.571	2487.39
970.872	2475.42
971.174	2467.28
971.475	2459.14
971.776	2436.09
972.077	2426.38
972.378	2474.51
972.679	2409.88
972.98	2395.64
973.281	2407.17
973.582	2393.61
973.883	2371.01
974.183	2346.83
974.484	2367.17
974.785	2329.88
975.085	2347.28
975.386	2313.61
975.686	2315.87
975.986	2321.75
976.287	2295.31
976.587	2260.28
976.887	2301.86
977.187	2308.87
977.487	2278.81
977.787	2243.1
978.087	2205.82
978.387	2244.01
978.687	2229.77
978.987	2216.44
979.286	2199.26
979.586	2213.28
979.885	2192.48
980.185	2163.11
980.484	2164.69
980.784	2157.91
981.083	2124.01
981.382	2141.86
981.682	2147.29
981.981	2126.27
982.28	2124.69
982.579	2115.42
982.878	2092.83
983.177	2120.17
983.475	2094.86
983.774	2075.43
984.073	2043.34
984.372	2049.21
984.67	2027.07
984.969	2027.97
985.267	2029.1
985.566	2051.7
985.864	2011.25
986.162	2014.18
986.461	2011.7
986.759	1966.95
987.057	1966.73
987.355	1972.15
987.653	1964.92
987.951	1990.23
988.249	1947.29
988.547	1957.46
988.844	1944.36
989.142	1910.68
989.44	1901.42
989.737	1923.57
990.035	1912.49
990.332	1925.6
990.63	1899.16
990.927	1854.87
991.224	1874.3
991.521	1848.09
991.819	1852.38
992.116	1851.93
992.413	1827.3
992.71	1828.2
993.006	1842.89
993.303	1813.74
993.6	1802.44
993.897	1807.18
994.193	1811.7
994.49	1792.5
994.787	1772.61
995.083	1750.69
995.379	1767.41
995.676	1740.52
995.972	1769.45
996.268	1740.52
996.565	1719.73
996.861	1707.3
997.157	1692.16
997.453	1711.82
997.749	1680.18
998.044	1686.28
998.34	1690.13
998.636	1662.56
998.932	1627.98
999.227	1644.48
999.523	1631.6
999.818	1641.09
1000.114	1626.62
1000.409	1607.19
1000.704	1612.39
1001	1597.25
1001.295	1596.12
1001.59	1626.62
1001.885	1587.98
1002.18	1572.39
1002.475	1576.23
1002.77	1564.48
1003.065	1563.35
1003.359	1557.25
1003.654	1558.38
1003.949	1509.79
1004.243	1547.53
1004.538	1493.29
1004.832	1498.27
1005.127	1510.47
1005.421	1497.81
1005.715	1496.46
1006.009	1484.93
1006.304	1463.46
1006.598	1458.72
1006.892	1426.86
1007.186	1456.46
1007.48	1444.48
1007.773	1431.6
1008.067	1439.74
1008.361	1422.56
1008.655	1407.19
1008.948	1401.32
1009.242	1413.75
1009.535	1386.63
1009.829	1374.43
1010.122	1395.44
1010.415	1360.64
1010.708	1340.3
1011.001	1350.47
1011.295	1331.26
1011.588	1331.49
1011.881	1353.18
1012.173	1323.36
1012.466	1321.32
1012.759	1309.34
1013.052	1309.12
1013.344	1300.53
1013.637	1295.56
1013.93	1268.44
1014.222	1263.02
1014.514	1265.5
1014.807	1272.96
1015.099	1236.58
1015.391	1246.97
1015.683	1251.72
1015.976	1244.04
1016.268	1235.45
1016.56	1209.23
1016.851	1193.87
1017.143	1236.35
1017.435	1213.3
1017.727	1188.22
1018.018	1192.96
1018.31	1207.2
1018.602	1184.83
1018.893	1176.69
1019.185	1169.69
1019.476	1151.83
1019.767	1118.61
1020.058	1142.79
1020.35	1139.41
1020.641	1129.46
1020.932	1118.39
1021.223	1118.61
1021.514	1117.94
1021.804	1142.57
1022.095	1120.42
1022.386	1079.52
1022.677	1106.64
1022.967	1088.33
1023.258	1086.98
1023.548	1041.78
1023.839	1040.88
1024.129	1045.17
1024.419	1043.59
1024.709	1018.05
1025	1035.68
1025.29	1023.7
1025.58	1045.85
1025.87	1010.14
1026.16	1026.64
1026.449	1016.7
1026.739	999.52
1027.029	1002.46
1027.319	978.51
1027.608	988.45
1027.898	968.79
1028.187	964.72
1028.477	958.62
1028.766	948.22
1029.055	925.4
1029.344	974.89
1029.634	938.51
1029.923	937.15
1030.212	940.54
1030.501	929.92
1030.79	925.63
1031.078	895.12
1031.367	888.56
1031.656	905.29
1031.945	900.09
1032.233	898.73
1032.522	900.54
1032.81	893.31
1033.099	865.29
1033.387	885.63
1033.675	863.48
1033.963	844.95
1034.251	874.78
1034.54	869.36
1034.828	843.82
1035.116	864.84
1035.403	832.07
1035.691	838.4
1035.979	840.43
1036.267	817.61
1036.554	823.93
1036.842	822.13
1037.129	816.02
1037.417	794.78
1037.704	811.96
1037.992	799.98
1038.279	799.08
1038.566	795.69
1038.853	795.69
1039.14	795.69
