Data from breadboard_white_FLMS001491_00059.txt Node
Date: Wed Feb 08 10:47:57 GMT 2017
User: dcchb
Spectrometer: FLMS00149
Trigger mode: 0
Integration Time (sec): 2.000000E-2
Scans to average: 10
Electric dark correction enabled: true
Nonlinearity correction enabled: false
Boxcar width: 0
XAxis mode: Wavelengths
Number of Pixels in Spectrum: 2048
>>>>>Begin Spectral Data<<<<<
341.393	-4.99
341.776	-4.99
342.16	-4.99
342.543	-56.06
342.927	-37.53
343.31	-78.43
343.693	-62.16
344.077	-89.5
344.46	-49.73
344.843	-44.98
345.226	-41.14
345.61	-10.41
345.993	-30.75
346.376	3.15
346.759	10.16
347.142	31.85
347.525	44.73
347.908	58.74
348.291	81.79
348.674	81.79
349.057	94.9
349.44	116.59
349.823	123.37
350.206	154.33
350.588	199.75
350.971	211.28
351.354	243.82
351.737	260.32
352.119	277.94
352.502	293.99
352.884	283.37
353.267	316.14
353.65	336.47
354.032	311.16
354.414	321.79
354.797	317.49
355.179	330.37
355.562	352.97
355.944	341.9
356.326	328.56
356.709	355.68
357.091	374.89
357.473	359.07
357.855	363.14
358.238	388
358.62	358.85
359.002	359.98
359.384	361.56
359.766	378.96
360.148	363.14
360.53	356.59
360.912	359.98
361.294	357.72
361.676	351.62
362.057	363.14
362.439	349.36
362.821	365.17
363.203	350.49
363.584	336.25
363.966	355.46
364.348	379.86
364.729	368.11
365.111	367.21
365.493	342.35
365.874	348.45
366.256	350.26
366.637	353.65
367.019	345.74
367.4	350.49
367.781	338.96
368.163	332.63
368.544	339.64
368.925	346.42
369.306	350.94
369.688	355.91
370.069	348.68
370.45	346.87
370.831	355.68
371.212	352.74
371.593	336.93
371.974	359.52
372.355	360.65
372.736	348.23
373.117	366.08
373.498	343.71
373.879	352.29
374.26	376.93
374.641	358.39
375.021	364.5
375.402	361.78
375.783	372.86
376.163	398.17
376.544	391.16
376.925	399.3
377.305	401.33
377.686	390.94
378.066	409.69
378.447	396.59
378.827	392.52
379.208	402.24
379.588	398.85
379.968	399.3
380.349	393.65
380.729	410.82
381.109	415.57
381.489	413.99
381.87	406.75
382.25	416.92
382.63	417.83
383.01	410.82
383.39	425.96
383.77	437.04
384.15	415.12
384.53	433.87
384.91	439.52
385.29	438.84
385.67	451.27
386.049	449.69
386.429	453.08
386.809	447.43
387.189	453.31
387.568	465.51
387.948	474.32
388.328	494.66
388.707	486.53
389.087	475.91
389.466	499.63
389.846	465.74
390.225	494.66
390.605	491.95
390.984	515.23
391.363	516.81
391.743	538.95
392.122	529.69
392.501	537.82
392.881	550.93
393.26	545.96
393.639	564.49
394.018	561.78
394.397	545.06
394.776	564.04
395.155	584.83
395.534	587.77
395.913	626.86
396.292	620.08
396.671	616.47
397.05	611.95
397.429	617.37
397.808	647.88
398.186	626.64
398.565	644.49
398.944	651.04
399.323	675.67
399.701	684.49
400.08	677.26
400.458	687.65
400.837	721.32
401.215	724.03
401.594	734.66
401.972	763.58
402.351	743.24
402.729	757.25
403.107	780.76
403.486	781.21
403.864	806.74
404.242	851.71
404.62	825.05
404.999	830.25
405.377	850.81
405.755	866.18
406.133	894.43
406.511	893.52
406.889	903.24
407.267	940.3
407.645	936.46
408.023	979.4
408.401	985.04
408.779	991.6
409.156	1022.78
409.534	1043.57
409.912	1055.1
410.29	1061.2
410.667	1096.45
411.045	1147.75
411.422	1160.41
411.8	1161.76
412.178	1203.57
412.555	1221.42
412.933	1208.32
413.31	1259.39
413.687	1296.9
414.065	1308.65
414.442	1314.08
414.819	1357.69
415.197	1361.08
415.574	1368.99
415.951	1417.12
416.328	1441.76
416.705	1461.42
417.082	1472.26
417.46	1476.78
417.837	1527.63
418.214	1564.24
418.591	1538.7
418.967	1576.22
419.344	1575.76
419.721	1606.72
420.098	1616.67
420.475	1668.64
420.852	1658.47
421.228	1683.33
421.605	1727.4
421.982	1746.61
422.358	1741.63
422.735	1771.01
423.111	1785.25
423.488	1819.83
423.864	1843.55
424.241	1862.54
424.617	1916.32
424.994	1906.38
425.37	1940.05
425.746	1956.54
426.123	1965.13
426.499	2001.74
426.875	2029.54
427.251	2036.99
427.627	2100.27
428.003	2130.55
428.379	2150.89
428.756	2178.46
429.132	2196.54
429.507	2234.96
429.883	2279.93
430.259	2317.44
430.635	2353.14
431.011	2328.51
431.387	2407.15
431.763	2462.52
432.138	2439.7
432.514	2528.96
432.89	2518.79
433.265	2620.26
433.641	2623.65
434.016	2635.62
434.392	2671.33
434.767	2756.98
435.143	2749.74
435.518	2765.34
435.894	2814.6
436.269	2847.37
436.644	2900.02
437.02	2959.68
437.395	2942.06
437.77	2980.47
438.145	3048.49
438.52	3063.86
438.895	3084.65
439.271	3103.18
439.646	3172.33
440.021	3184.31
440.395	3203.29
440.77	3228.83
441.145	3239.67
441.52	3356.28
441.895	3305.66
442.27	3369.39
442.645	3340.69
443.019	3464.53
443.394	3403.29
443.769	3493
444.143	3450.29
444.518	3541.81
444.892	3493.45
445.267	3537.29
445.641	3608.48
446.016	3608.7
446.39	3640.57
446.764	3658.19
447.139	3661.81
447.513	3710.4
447.887	3782.71
448.262	3739.55
448.636	3795.59
449.01	3851.86
449.384	3932.09
449.758	3881.92
450.132	3952.65
450.506	3977.96
450.88	4017.06
451.254	3998.98
451.628	4062.03
452.002	4117.17
452.376	4168.01
452.75	4224.51
453.123	4234.22
453.497	4333.88
453.871	4350.15
454.244	4461.56
454.618	4484.39
454.992	4549.7
455.365	4545.4
455.739	4729.35
456.112	4727.55
456.486	4752.18
456.859	4843.25
457.232	4890.93
457.606	4889.57
457.979	4970.93
458.352	5065.39
458.725	5117.14
459.099	5228.55
459.472	5307.42
459.845	5356.91
460.218	5374.76
460.591	5451.82
460.964	5461.54
461.337	5592.83
461.71	5696.33
462.083	5715.77
462.456	5788.08
462.829	5778.14
463.201	5956.44
463.574	5925.25
463.947	6004.57
464.32	6211.8
464.692	6232.14
465.065	6282.53
465.438	6397.56
465.81	6490.44
466.183	6533.15
466.555	6713.71
466.928	6746.93
467.3	6756.64
467.672	6840.48
468.045	7027.15
468.417	7074.6
468.789	7087.26
469.161	7172.23
469.534	7305.1
469.906	7553.46
470.278	7584.42
470.65	7672.33
471.022	7832.32
471.394	8028.25
471.766	8027.35
472.138	8171.75
472.51	8369.71
472.882	8416.71
473.253	8465.07
473.625	8678.85
473.997	8840.88
474.369	8956.13
474.74	8992.74
475.112	9167.2
475.484	9333.07
475.855	9491.26
476.227	9602.22
476.598	9946.84
476.97	9957.46
477.341	10205.59
477.713	10202.43
478.084	10447.17
478.455	10687.84
478.827	10781.17
479.198	11156.08
479.569	11112.24
479.94	11497.99
480.311	11462.51
480.682	11823.86
481.053	12103.17
481.424	12257.06
481.795	12331.19
482.166	12701.57
482.537	12799.2
482.908	13075.8
483.279	13158.74
483.65	13445.73
484.021	13724.14
484.391	13810.7
484.762	14034.19
485.133	14136.11
485.503	14351.47
485.874	14700.62
486.244	14817.22
486.615	15109.42
486.985	15186.48
487.356	15603.64
487.726	15616.07
488.097	15980.36
488.467	16067.13
488.837	16412.66
489.207	16621.7
489.578	16858.53
489.948	17109.14
490.318	17264.39
490.688	17280.89
491.058	17699.41
491.428	17854.88
491.798	18005.39
492.168	18437.47
492.538	18498.93
492.908	18703.45
493.278	18924.23
493.648	19027.28
494.017	19311.12
494.387	19463.65
494.757	19615.97
495.126	19939.12
495.496	19901.61
495.866	20068.84
496.235	20363.74
496.605	20399.45
496.974	20542.72
497.344	20784.75
497.713	20996.27
498.082	21133.67
498.452	21414.79
498.821	21406.43
499.19	21634.9
499.559	21796.93
499.928	21977.94
500.298	22090.93
500.667	22377.48
501.036	22270.13
501.405	22556.45
501.774	22579.51
502.143	22923.22
502.512	23086.84
502.88	23132.94
503.249	23228.3
503.618	23405.7
503.987	23550.78
504.356	23789.64
504.724	23864.22
505.093	23968.62
505.462	24162.06
505.83	24205.9
506.199	24578.77
506.567	24847.92
506.936	24836.39
507.304	25182.37
507.672	25268.47
508.041	25401.8
508.409	25622.59
508.777	25827.56
509.145	25971.28
509.514	26106.19
509.882	26282.91
510.25	26405.85
510.618	26769.9
510.986	26777.59
511.354	26962.67
511.722	27211.47
512.09	27469.55
512.458	27383.45
512.826	27804.45
513.193	27968.97
513.561	28022.98
513.929	28397.21
514.297	28605.56
514.664	28763.98
515.032	28873.12
515.4	29126.9
515.767	29312.66
516.135	29331.87
516.502	29356.73
516.869	29922.14
517.237	30015.24
517.604	30001.23
517.972	30484.16
518.339	30578.16
518.706	30785.17
519.073	30942.45
519.44	31241.88
519.808	31597.57
520.175	31523.45
520.542	32012.93
520.909	32167.05
521.276	32245.24
521.643	32711.22
522.009	32789.63
522.376	32943.75
522.743	33341.03
523.11	33649.95
523.477	33823.73
523.843	34011.52
524.21	34435.46
524.577	34679.75
524.943	34889.92
525.31	35096.69
525.676	35402.22
526.043	35637.47
526.409	35786.62
526.776	36067.29
527.142	36322.42
527.508	36445.58
527.874	36829.3
528.241	37091.89
528.607	37173.92
528.973	37542.73
529.339	37570.3
529.705	37860.01
530.071	38268.81
530.437	38352.42
530.803	38548.12
531.169	38812.52
531.535	38770.27
531.901	39024.5
532.267	39346.97
532.632	39461.32
532.998	39692.95
533.364	39843.68
533.73	39966.84
534.095	40231.02
534.461	40466.72
534.826	40617.22
535.192	40796.2
535.557	41045.01
535.923	41049.98
536.288	41254.49
536.653	41613.81
537.019	41415.39
537.384	41622.85
537.749	41918.66
538.114	42050.86
538.479	42032.33
538.845	42334.69
539.21	42352.54
539.575	42478.42
539.94	42554.57
540.305	42913.66
540.67	43034.56
541.034	43085.18
541.399	43211.28
541.764	43295.12
542.129	43450.14
542.494	43636.35
542.858	43859.4
543.223	43823.47
543.587	44096.91
543.952	44083.35
544.316	44394.07
544.681	44334.64
545.045	44571.02
545.41	44868.64
545.774	44940.27
546.138	44911.12
546.503	44980.27
546.867	45054.62
547.231	45379.58
547.595	45451.22
547.959	45589.75
548.324	45676.98
548.688	45689.18
549.052	46020.24
549.416	45983.86
549.779	46059.79
550.143	46310.63
550.507	46482.83
550.871	46606.67
551.235	46611.42
551.599	46941.35
551.962	47003.04
552.326	47220.89
552.689	47424.95
553.053	47301.12
553.417	47389.25
553.78	47983.13
554.143	47880.76
554.507	47964.6
554.87	48183.35
555.234	48460.63
555.597	48466.28
555.96	48646.62
556.323	48746.95
556.686	48894.97
557.05	49022.43
557.413	49242.31
557.776	49339.03
558.139	49553.03
558.502	49581.28
558.865	49764.78
559.228	49979.69
559.59	50035.73
559.953	50141.72
560.316	50473.24
560.679	50574.25
561.041	50684.3
561.404	50892.66
561.767	51125.65
562.129	50953.22
562.492	51311.41
562.854	51445.64
563.217	51377.39
563.579	51590.72
563.941	51785.06
564.304	51885.63
564.666	52133.76
565.028	52216.47
565.39	52293.53
565.753	52449.23
566.115	52504.14
566.477	52738.71
566.839	52762.67
567.201	52992.72
567.563	53015.99
567.925	53187.51
568.287	53171.24
568.648	53325.59
569.01	53553.83
569.372	53664.79
569.734	53577.11
570.095	53804.9
570.457	53862.98
570.819	53919.25
571.18	54006.25
571.542	54208.5
571.903	54222.51
572.265	54360.59
572.626	54387.26
572.987	54413.02
573.349	54585.67
573.71	54690.75
574.071	54771.88
574.432	54801.48
574.794	55003.74
575.155	54953.34
575.516	54908.37
575.877	55118.76
576.238	55104.3
576.599	55253.45
576.96	55301.58
577.32	55248.93
577.681	55390.62
578.042	55433.56
578.403	55357.17
578.763	55380.45
579.124	55532.09
579.485	55607.11
579.845	55651.63
580.206	55607.34
580.566	55624.74
580.927	55679.43
581.287	55807.11
581.648	55652.76
582.008	55838.29
582.368	55782.93
582.728	55789.25
583.089	55832.64
583.449	55754.9
583.809	55760.78
584.169	55911.96
584.529	55760.78
584.889	55931.62
585.249	55844.62
585.609	55730.95
585.969	55915.13
586.329	55835.81
586.688	55881.45
587.048	55900.66
587.408	55863.15
587.768	55873.54
588.127	55803.26
588.487	55907.44
588.846	56041
589.206	55879.42
589.565	55845.07
589.925	56010.72
590.284	55857.95
590.643	55901.11
591.003	56009.36
591.362	56079.19
591.721	56026.76
592.08	56029.7
592.44	56111.73
592.799	56102.24
593.158	56032.64
593.517	56036.25
593.876	56022.92
594.235	55952.86
594.593	56109.47
594.952	56104.5
595.311	56064.5
595.67	56061.34
596.029	56266.98
596.387	56249.58
596.746	56256.59
597.104	56129.13
597.463	56158.74
597.822	56318.28
598.18	56261.11
598.538	56183.14
598.897	56376.58
599.255	56115.57
599.613	56520.31
599.972	56328.67
600.33	56419.07
600.688	56264.5
601.046	56351.95
601.404	56475.56
601.762	56438.73
602.12	56500.2
602.478	56550.14
602.836	56558.95
603.194	56467.88
603.552	56530.02
603.91	56414.32
604.268	56568.89
604.625	56506.3
604.983	56657.25
605.341	56476.02
605.698	56614.54
606.056	56722.34
606.413	56664.48
606.771	56820.41
607.128	56817.25
607.485	56683.47
607.843	56747.65
608.2	56831.94
608.557	56899.96
608.914	56867.64
609.272	56905.83
609.629	56959.39
609.986	57125.49
610.343	56951.93
610.7	57106.51
611.057	57113.51
611.414	57104.02
611.771	57050.92
612.127	57239.61
612.484	57214.75
612.841	57254.07
613.198	57159.16
613.554	57156.9
613.911	57317.57
614.267	57319.38
614.624	57203.45
614.98	57309.44
615.337	57470.79
615.693	57365.94
616.05	57323.68
616.406	57510.11
616.762	57477.8
617.118	57467.85
617.475	57514.41
617.831	57587.62
618.187	57585.59
618.543	57617.91
618.899	57709.2
619.255	57611.58
619.611	57593.27
619.967	57703.1
620.323	57748.3
620.678	57594.4
621.034	57676.89
621.39	57613.61
621.746	57573.61
622.101	57877.33
622.457	57639.37
622.812	57685.93
623.168	57748.75
623.523	57798.69
623.879	57787.84
624.234	57631.69
624.589	57738.58
624.945	57736.09
625.3	57740.84
625.655	57742.42
626.01	57781.97
626.365	57657.9
626.72	57709.88
627.075	57716.43
627.43	57685.25
627.785	57595.31
628.14	57635.98
628.495	57727.73
628.85	57663.33
629.205	57537.68
629.559	57718.02
629.914	57554.63
630.269	57574.74
630.623	57565.03
630.978	57510.79
631.332	57547.4
631.687	57623.78
632.041	57497.01
632.396	57536.33
632.75	57409.55
633.104	57531.13
633.459	57309.67
633.813	57386.05
634.167	57339.04
634.521	57324.81
634.875	57322.55
635.229	57292.04
635.583	57184.92
635.937	57232.61
636.291	57159.39
636.645	57200.74
636.999	57066.06
637.352	57167.3
637.706	57067.86
638.06	57150.8
638.413	57040.29
638.767	56921.2
639.121	56945.83
639.474	56783.35
639.828	56844.14
640.181	56820.64
640.534	56822.22
640.888	56725.27
641.241	56696.35
641.594	56672.62
641.947	56751.26
642.301	56699.51
642.654	56685.5
643.007	56725.95
643.36	56606.41
643.713	56547.88
644.066	56607.31
644.419	56475.11
644.771	56356.02
645.124	56172.97
645.477	56102.69
645.83	55828.12
646.182	55730.72
646.535	55507.23
646.888	55592.65
647.24	55476.95
647.593	55589.48
647.945	55578.86
648.298	55368.25
648.65	55391.75
649.002	55293.67
649.355	55443.73
649.707	55353.11
650.059	55455.48
650.411	55784.28
650.763	55795.35
651.115	56048.91
651.467	55948.8
651.819	55982.69
652.171	55887.78
652.523	55792.87
652.875	55756.49
653.227	55723.94
653.578	55874.9
653.93	55779.31
654.282	55674.45
654.633	55668.35
654.985	55692.08
655.337	55693.66
655.688	55724.62
656.039	55721.91
656.391	55521.69
656.742	55574.34
657.094	55627.68
657.445	55657.28
657.796	55523.27
658.147	55537.06
658.498	55526.21
658.849	55553.1
659.2	55496.15
659.551	55479.66
659.902	55521.24
660.253	55517.4
660.604	55495.02
660.955	55315.14
661.306	55427.23
661.656	55384.74
662.007	55376.61
662.358	55375.93
662.708	55347.01
663.059	55264.97
663.409	55141.13
663.76	55331.19
664.11	55251.41
664.461	55325.08
664.811	55349.49
665.161	55223.62
665.511	55192.88
665.862	55208.93
666.212	55239.44
666.562	55224.97
666.912	55213
667.262	55157.63
667.612	55121.25
667.962	55188.82
668.312	55124.64
668.662	55182.94
669.011	55164.19
669.361	55087.58
669.711	55078.54
670.06	55005.09
670.41	55001.03
670.76	55006.22
671.109	55079.22
671.459	55021.59
671.808	54917.64
672.157	54945.21
672.507	54783.18
672.856	54789.96
673.205	54899.79
673.554	54907.24
673.904	54812.33
674.253	54883.74
674.602	54807.81
674.951	54348.61
675.3	54241.72
675.649	54709.96
675.998	54633.35
676.346	54650.75
676.695	54789.05
677.044	54460.25
677.393	54540.25
677.741	54600.36
678.09	54591.54
678.438	54459.8
678.787	54418.67
679.135	54434.71
679.484	54361.27
679.832	54435.62
680.181	54215.51
680.529	54418.44
680.877	54198.79
681.225	54242.63
681.573	54327.14
681.922	54125.57
682.27	54023.2
682.618	54110.88
682.966	54036.08
683.314	54037.44
683.661	53978.45
684.009	53764.67
684.357	53702.75
684.705	53705.92
685.053	53704.34
685.4	53618.46
685.748	53534.4
686.095	53490.33
686.443	53374.18
686.79	53364.23
687.138	53462.76
687.485	53382.99
687.832	53237.68
688.18	53288.98
688.527	53149.1
688.874	53125.59
689.221	53013.96
689.568	52839.95
689.915	52817.13
690.262	52858.71
690.609	52702.1
690.956	52620.98
691.303	52590.02
691.65	52417.59
691.997	52454.2
692.344	52231.15
692.69	52113.87
693.037	52242.68
693.383	51936.25
693.73	52001.78
694.077	51865.74
694.423	51841.79
694.769	51764.73
695.116	51670.04
695.462	51636.82
695.808	51437.73
696.155	51642.47
696.501	51271.63
696.847	51320.22
697.193	51015.82
697.539	51211.75
697.885	50898.53
698.231	50687.24
698.577	50854.92
698.923	50697.41
699.269	50639.56
699.614	50435.04
699.96	50339.23
700.306	50297.65
700.651	50191.89
700.997	50106.24
701.342	50075.28
701.688	49969.52
702.033	49810.88
702.379	49850.88
702.724	49656.76
703.069	49800.26
703.415	49388.52
703.76	49333.6
704.105	49323.66
704.45	49095.87
704.795	49036.44
705.14	48978.59
705.485	48897.01
705.83	48730.23
706.175	48664.92
706.52	48655.2
706.865	48516.22
707.209	48428.77
707.554	48350.8
707.899	48370.69
708.243	48177.48
708.588	48084.15
708.932	47786.98
709.277	47800.08
709.621	47917.82
709.966	47613.65
710.31	47656.36
710.654	47322.58
710.998	47380.66
711.342	47287.1
711.687	47261.12
712.031	47053.21
712.375	46971.41
712.719	47041.46
713.063	46939.99
713.407	46984.06
713.75	46732.09
714.094	46743.39
714.438	46548.37
714.782	46697.52
715.125	46401.03
715.469	46502.49
715.812	46169.39
716.156	46181.6
716.499	45978.89
716.843	46066.35
717.186	45851.66
717.53	45996.52
717.873	45944.31
718.216	45774.38
718.559	45632.68
718.902	45309.3
719.246	45529.86
719.589	45379.58
719.932	45122.87
720.275	45310.21
720.617	45065.02
720.96	45091.91
721.303	45081.29
721.646	45058.46
721.989	44782.31
722.331	44938.01
722.674	44732.37
723.016	44829.54
723.359	44673.16
723.701	44586.38
724.044	44301.19
724.386	44019.85
724.729	44367.41
725.071	44347.52
725.413	44174.87
725.755	44055.55
726.097	44164.93
726.439	43816.91
726.782	43805.16
727.124	43958.38
727.465	43654.88
727.807	43616.69
728.149	43615.34
728.491	43480.42
728.833	43432.52
729.175	43281.11
729.516	43251.05
729.858	43138.96
730.199	43329.92
730.541	43138.29
730.882	42993.88
731.224	43259.19
731.565	42774.68
731.906	42808.35
732.248	42987.78
732.589	42713.89
732.93	42539.66
733.271	42527.46
733.612	42509.83
733.953	42546.44
734.294	42413.11
734.635	42248.59
734.976	42229.84
735.317	42145.54
735.658	42137.41
735.999	42051.08
736.339	42112.32
736.68	42115.49
737.021	41848.83
737.361	41654.94
737.702	41755.95
738.042	41743.07
738.383	41695.39
738.723	41759.79
739.063	41505.34
739.404	41487.26
739.744	41438.9
740.084	41328.62
740.424	41273.93
740.764	41133.82
741.104	41306.47
741.444	41080.26
741.784	41024.22
742.124	40984.44
742.464	40956.65
742.804	40747.62
743.143	40691.12
743.483	40776.31
743.823	40483.89
744.162	40574.74
744.502	40452.26
744.841	40398.25
745.181	40563.44
745.52	40264.92
745.86	40426.04
746.199	40229.89
746.538	40224.69
746.877	40187.4
747.216	40127.97
747.556	39965.71
747.895	39907.41
748.234	39792.16
748.573	39700.86
748.911	39642.79
749.25	39530.7
749.589	39336.35
749.928	39595.78
750.267	39309.91
750.605	39393.98
750.944	39125.06
751.283	39008.68
751.621	38988.79
751.96	38927.55
752.298	38742.92
752.636	38816.37
752.975	38587.9
753.313	38388.58
753.651	38706.09
753.989	38363.5
754.327	38192.2
754.666	38106.55
755.004	38358.98
755.342	38158.53
755.679	38107.23
756.017	37718.09
756.355	38052.77
756.693	37828.14
757.031	37907.24
757.368	37504.31
757.706	37615.27
758.044	37375.27
758.381	37308.38
758.719	37216.63
759.056	37099.12
759.394	37024.32
759.731	36970.54
760.068	36733.03
760.405	36708.17
760.743	36472.47
761.08	36785.23
761.417	36376.43
761.754	36261.63
762.091	36195.64
762.428	36159.71
762.765	35835.88
763.102	35853.51
763.438	35799.95
763.775	35577.13
764.112	35634.3
764.449	35580.97
764.785	35387.08
765.122	35087.2
765.458	34992.74
765.795	35061.66
766.131	35050.14
766.467	34918.62
766.804	34607.89
767.14	34585.74
767.476	34454
767.812	34363.83
768.148	34331.51
768.485	34108.02
768.821	33891.3
769.157	33733.79
769.492	33803.84
769.828	33635.26
770.164	33421.25
770.5	33260.35
770.836	33334.93
771.171	33199.11
771.507	33107.59
771.842	32771.55
772.178	32792.34
772.513	32822.63
772.849	32688.39
773.184	32534.95
773.519	32614.5
773.855	32313.03
774.19	32177.44
774.525	32092.25
774.86	32027.84
775.195	32015.64
775.53	31853.61
775.865	31595.09
776.2	31340.63
776.535	31298.6
776.87	31221.99
777.205	31080.3
777.539	30939.29
777.874	30918.49
778.209	30760.31
778.543	30696.13
778.878	30507.88
779.212	30617.49
779.547	30441.9
779.881	30426.76
780.215	30120.1
780.55	30276.25
780.884	29980.67
781.218	29970.72
781.552	29919.43
781.886	29607.34
782.22	29551.53
782.554	29437.63
782.888	29147.02
783.222	29134.59
783.556	28936.17
783.889	28996.06
784.223	28788.38
784.557	28701.38
784.89	28649.4
785.224	28550.2
785.557	28476.75
785.891	28319.92
786.224	28260.94
786.558	28107.5
786.891	27896.2
787.224	27912.92
787.557	27670.22
787.891	27743.44
788.224	27680.84
788.557	27506.16
788.89	27423.45
789.223	27450.34
789.556	27263
789.888	27189.1
790.221	27041.08
790.554	26850.35
790.887	26804.7
791.219	26813.07
791.552	26685.61
791.884	26567.87
792.217	26471.83
792.549	26326.75
792.882	26163.59
793.214	26132.86
793.546	26211.95
793.879	26026.19
794.211	25715.92
794.543	25951.62
794.875	25724.96
795.207	25801.57
795.539	25586.21
795.871	25590.5
796.203	25264.18
796.535	25214.46
796.867	25178.31
797.198	25161.36
797.53	25088.14
797.862	24907.58
798.193	25109.83
798.525	24727.02
798.856	24818.32
799.188	24484.09
799.519	24503.97
799.85	24309.18
800.182	24463.98
800.513	24385.56
800.844	24090.88
801.175	24372
801.506	24107.37
801.837	23979.24
802.168	23976.76
802.499	23929.3
802.83	23764.33
803.161	23620.16
803.491	23774.95
803.822	23647.73
804.153	23597.33
804.483	23340.84
804.814	23293.84
805.145	23359.6
805.475	23311.24
805.805	23121.86
806.136	23117.12
806.466	23003.67
806.796	22993.28
807.126	22804.36
807.457	22752.83
807.787	22870.57
808.117	22631.48
808.447	22572.95
808.777	22550.35
809.107	22534.31
809.436	22450.47
809.766	22401.88
810.096	22378.61
810.426	22184.04
810.755	22287.31
811.085	22217.93
811.414	22113.3
811.744	21951.5
812.073	21853.65
812.403	21877.15
812.732	21862.91
813.061	21890.48
813.39	21690.26
813.719	21603.94
814.049	21662.24
814.378	21666.53
814.707	21459.08
815.036	21467.44
815.365	21343.61
815.693	21130.96
816.022	21263.61
816.351	21132.31
816.68	21005.76
817.008	21050.28
817.337	20832.43
817.665	20837.4
817.994	20963.95
818.322	20834.24
818.651	20718.09
818.979	20632.44
819.307	20720.57
819.636	20608.26
819.964	20490.07
820.292	20536.85
820.62	20533.23
820.948	20570.52
821.276	20577.3
821.604	20471.31
821.932	20509.73
822.259	20502.27
822.587	20403.52
822.915	20547.02
823.243	20499.56
823.57	20352.45
823.898	20406
824.225	20421.82
824.553	20428.83
824.88	20410.75
825.207	20405.55
825.535	20340.02
825.862	20417.3
826.189	20344.76
826.516	20317.64
826.843	20434.93
827.17	20335.5
827.497	20418.43
827.824	20409.17
828.151	20388.38
828.478	20351.99
828.805	20379.79
829.131	20238.1
829.458	20203.52
829.785	20253.24
830.111	20271.09
830.438	20358.09
830.764	20235.61
831.09	20396.51
831.417	20218.89
831.743	20293.46
832.069	20285.1
832.395	20184.09
832.722	20275.16
833.048	20201.04
833.374	20173.01
833.7	19948.84
834.026	20061.61
834.351	20145.9
834.677	20046.24
835.003	20202.17
835.329	20055.28
835.654	19963.98
835.98	19886.69
836.306	19975.05
836.631	19818.22
836.956	19848.28
837.282	19872.68
837.607	19693.71
837.932	19721.28
838.258	19735.51
838.583	19711.33
838.908	19610.09
839.233	19617.1
839.558	19630.43
839.883	19472.47
840.208	19406.26
840.533	19351.34
840.858	19412.13
841.182	19450.77
841.507	19430.21
841.832	19279.03
842.156	19227.73
842.481	19334.17
842.805	19195.64
843.13	19128.75
843.454	19058.02
843.778	19080.16
844.103	19027.96
844.427	18970.79
844.751	18945.02
845.075	18856.67
845.399	18765.14
845.723	18693.51
846.047	18719.72
846.371	18517.24
846.695	18508.65
847.019	18337.13
847.343	18403.12
847.666	18196.12
847.99	18155.89
848.313	18207.87
848.637	18038.83
848.96	18008.1
849.284	17899.18
849.607	17828.67
849.931	17758.16
850.254	17661.22
850.577	17522.01
850.9	17432.75
851.223	17508.45
851.546	17337.16
851.869	17248.57
852.192	17428.91
852.515	17115.69
852.838	17130.83
853.161	17068.24
853.483	16963.16
853.806	16970.61
854.129	16841.58
854.451	16831.18
854.774	16721.35
855.096	16658.76
855.419	16689.49
855.741	16697.17
856.063	16592.77
856.385	16506.9
856.708	16455.82
857.03	16311.2
857.352	16372.44
857.674	16262.61
857.996	16233.01
858.318	16234.36
858.64	16048.15
858.961	16046.12
859.283	16141.26
859.605	15896.29
859.926	16002.28
860.248	15880.47
860.57	15831.89
860.891	15907.36
861.212	15830.08
861.534	15769.29
861.855	15661.49
862.176	15779.91
862.498	15643.87
862.819	15629.41
863.14	15507.6
863.461	15505.34
863.782	15467.83
864.103	15498.11
864.424	15445.46
864.745	15417.89
865.065	15311
865.386	15311.22
865.707	15251.11
866.027	15281.84
866.348	15247.27
866.668	15211.56
866.989	15186.25
867.309	15088.63
867.63	15191.45
867.95	15094.96
868.27	15024.68
868.59	15046.37
868.91	15045.24
869.23	14968.41
869.55	14925.24
869.87	14968.41
870.19	14891.8
870.51	14900.84
870.83	14857
871.15	14743.33
871.469	14757.56
871.789	14857.45
872.109	14815.19
872.428	14670.11
872.748	14722.99
873.067	14681.18
873.386	14735.87
873.706	14584.01
874.025	14536.1
874.344	14572.03
874.663	14619.71
874.982	14462.2
875.301	14501.75
875.62	14481.64
875.939	14411.58
876.258	14486.84
876.577	14374.52
876.896	14345.15
877.214	14283.9
877.533	14348.31
877.852	14222.89
878.17	14264.92
878.489	14283.68
878.807	14216.79
879.125	14213.17
879.444	14156.9
879.762	14101.76
880.08	14090.46
880.398	14058.37
880.716	14045.72
881.034	14041.88
881.352	13964.36
881.67	13927.53
881.988	14108.54
882.306	13972.5
882.624	13896.57
882.941	13888.21
883.259	13720.98
883.577	13776.57
883.894	13793.75
884.212	13665.39
884.529	13764.82
884.846	13647.99
885.164	13718.72
885.481	13593.98
885.798	13586.52
886.115	13486.64
886.432	13565.28
886.75	13419.29
887.067	13481.67
887.383	13447.54
887.7	13414.55
888.017	13359.63
888.334	13416.81
888.651	13346.98
888.967	13226.3
889.284	13246.42
889.6	13187.44
889.917	13066.31
890.233	13111.51
890.55	13095.23
890.866	13077.38
891.182	13072.86
891.498	12959.87
891.815	12980.44
892.131	12867.22
892.447	12845.98
892.763	12785.86
893.079	12745.87
893.395	12721.46
893.71	12698.18
894.026	12634
894.342	12558.3
894.657	12551.07
894.973	12550.84
895.289	12479.43
895.604	12438.98
895.92	12320.79
896.235	12335.71
896.55	12269.27
896.865	12248.93
897.181	12245.54
897.496	12216.84
897.811	12175.94
898.126	12120.35
898.441	12106.33
898.756	11963.51
899.071	11955.15
899.386	11951.99
899.7	11784.53
900.015	11830.18
900.33	11686.46
900.644	11716.97
900.959	11632.22
901.273	11668.15
901.588	11612.79
901.902	11586.35
902.216	11557.65
902.531	11481.04
902.845	11505.45
903.159	11274.04
903.473	11331.21
903.787	11281.72
904.101	11312.68
904.415	11286.24
904.729	11175.74
905.042	11144.33
905.356	11107.94
905.67	11116.3
905.984	11126.92
906.297	10950.66
906.611	10953.6
906.924	10844.9
907.237	10834.96
907.551	10778.46
907.864	10728.52
908.177	10702.53
908.491	10678.58
908.804	10687.16
909.117	10530.78
909.43	10524
909.743	10444.68
910.056	10467.96
910.368	10352.71
910.681	10355.65
910.994	10329.66
911.307	10266.38
911.619	10208.53
911.932	10182.77
912.244	10147.52
912.557	10084.24
912.869	10070.23
913.181	10052.38
913.494	10018.03
913.806	9966.05
914.118	9906.39
914.43	9840.63
914.742	9784.14
915.054	9744.59
915.366	9763.57
915.678	9707.3
915.99	9639.28
916.302	9635.66
916.613	9554.54
916.925	9530.81
917.236	9474.31
917.548	9463.47
917.859	9447.2
918.171	9361.77
918.482	9314.09
918.794	9274.09
919.105	9337.37
919.416	9166.07
919.727	9189.57
920.038	9176.69
920.349	9050.14
920.66	9064.61
920.971	9056.24
921.282	8956.59
921.593	8904.16
921.903	8893.99
922.214	8817.83
922.525	8760.21
922.835	8747.1
923.146	8743.94
923.456	8748.91
923.767	8729.47
924.077	8640.89
924.387	8600.44
924.697	8550.04
925.008	8623.71
925.318	8498.75
925.628	8476.37
925.938	8415.81
926.248	8325.19
926.558	8320.45
926.867	8344.63
927.177	8260.11
927.487	8233.89
927.796	8115.93
928.106	8164.06
928.416	8104.41
928.725	8164.06
929.034	8056.05
929.344	8090.62
929.653	8056.05
929.962	7910.29
930.271	7947.12
930.581	7890.17
930.89	7800.23
931.199	7821.7
931.508	7784.41
931.817	7749.16
932.125	7710.29
932.434	7681.82
932.743	7628.49
933.051	7625.77
933.36	7580.58
933.669	7535.61
933.977	7519.11
934.286	7532.44
934.594	7428.27
934.902	7404.99
935.21	7334.93
935.519	7351.66
935.827	7264.2
936.135	7231.89
936.443	7179.23
936.751	7201.6
937.059	7189.85
937.367	7087.03
937.674	7107.14
937.982	7135.62
938.29	7104.21
938.597	7016.52
938.905	6974.72
939.213	6955.06
939.52	6895.85
939.827	6937.88
940.135	6839.35
940.442	6892.46
940.749	6794.16
941.056	6758.23
941.363	6732.92
941.67	6718.91
941.977	6670.32
942.284	6644.78
942.591	6634.84
942.898	6664.44
943.205	6612.24
943.511	6571.11
943.818	6489.98
944.125	6461.06
944.431	6447.95
944.738	6479.59
945.044	6407.73
945.35	6365.02
945.657	6318.24
945.963	6319.14
946.269	6232.82
946.575	6225.36
946.881	6257.22
947.187	6202.31
947.493	6239.6
947.799	6108.75
948.105	6143.33
948.41	6075.76
948.716	6106.04
949.022	6024.91
949.327	6015.42
949.633	5949.43
949.938	5977.46
950.244	6001.86
950.549	5905.59
950.854	5899.04
951.16	5852.04
951.465	5787.18
951.77	5794.41
952.075	5738.59
952.38	5738.82
952.685	5766.39
952.99	5701.53
953.294	5673.06
953.599	5632.15
953.904	5624.7
954.209	5612.95
954.513	5552.38
954.818	5572.72
955.122	5544.25
955.426	5490.69
955.731	5455.44
956.035	5429.45
956.339	5391.48
956.643	5401.2
956.948	5387.19
957.252	5373.18
957.556	5324.59
957.86	5286.63
958.163	5295.44
958.467	5317.36
958.771	5213.63
959.075	5246.18
959.378	5150.36
959.682	5210.47
959.985	5128.44
960.289	5125.95
960.592	5117.37
960.896	5130.02
961.199	5032.62
961.502	5041.44
961.805	5007.54
962.108	4958.5
962.411	5000.08
962.714	4929.8
963.017	4913.3
963.32	4931.16
963.623	4891.16
963.926	4844.6
964.228	4803.02
964.531	4857.71
964.833	4840.76
965.136	4791.95
965.438	4702.69
965.741	4744.04
966.043	4724.83
966.345	4685.29
966.648	4638.06
966.95	4623.37
967.252	4603.03
967.554	4624.05
967.856	4543.14
968.158	4528.91
968.46	4532.07
968.761	4512.64
969.063	4492.07
969.365	4517.16
969.666	4455.69
969.968	4387.22
970.269	4394.45
970.571	4359.42
970.872	4400.77
971.174	4371.17
971.475	4328.01
971.776	4304.05
972.077	4278.52
972.378	4248.69
972.679	4290.04
972.98	4266.09
973.281	4245.75
973.582	4166.2
973.883	4170.95
974.183	4148.8
974.484	4164.4
974.785	4120.78
975.085	4140.89
975.386	4097.96
975.686	4130.5
975.986	4038.07
976.287	4073.33
976.587	4034.46
976.887	3978.64
977.187	3950.39
977.487	3947.23
977.787	3956.04
978.087	3945.19
978.387	3902.93
978.687	3925.53
978.987	3914.46
979.286	3884.86
979.586	3842.6
979.885	3816.83
980.185	3813.44
980.484	3816.38
980.784	3776.16
981.083	3737.97
981.382	3768.25
981.682	3704.75
981.981	3706.33
982.28	3677.18
982.579	3670.85
982.878	3678.53
983.177	3616.16
983.475	3606.22
983.774	3559.89
984.073	3587.46
984.372	3547.24
984.67	3537.97
984.969	3535.49
985.267	3519.89
985.566	3479.44
985.864	3479.89
986.162	3479.67
986.461	3443.74
986.759	3451.42
987.057	3417.07
987.355	3408.48
987.653	3369.16
987.951	3397.41
988.249	3338.43
988.547	3347.92
988.844	3357.19
989.142	3330.75
989.44	3272.67
989.737	3319.9
990.035	3251.2
990.332	3272.22
990.63	3261.37
990.927	3214.36
991.224	3215.72
991.521	3178.43
991.819	3148.38
992.116	3116.74
992.413	3128.27
992.71	3122.84
993.006	3113.35
993.303	3087.59
993.6	3058.44
993.897	3099.79
994.193	3049.17
994.49	3012.34
994.787	3029.28
995.083	2996.74
995.379	3012.56
995.676	2972.34
995.972	2967.14
996.268	2959.91
996.565	2942.51
996.861	2924.88
997.157	2882.17
997.453	2885.79
997.749	2860.25
998.044	2840.59
998.34	2835.39
998.636	2822.28
998.932	2787.94
999.227	2796.3
999.523	2813.02
999.818	2792.45
1000.114	2750.2
1000.409	2719.69
1000.704	2728.73
1001	2696.19
1001.295	2672.68
1001.59	2674.94
1001.885	2658.9
1002.18	2656.87
1002.475	2622.29
1002.77	2593.36
1003.065	2589.52
1003.359	2571.67
1003.654	2563.76
1003.949	2552.24
1004.243	2532.12
1004.538	2507.26
1004.832	2483.08
1005.127	2477.43
1005.421	2509.75
1005.715	2496.19
1006.009	2438.79
1006.304	2409.19
1006.598	2424.1
1006.892	2418.45
1007.186	2406.02
1007.48	2359.7
1007.773	2364.44
1008.067	2339.13
1008.361	2347.04
1008.655	2331
1008.948	2304.56
1009.242	2316.08
1009.535	2299.36
1009.829	2273.6
1010.122	2267.04
1010.415	2243.99
1010.708	2277.89
1011.001	2228.4
1011.295	2169.19
1011.588	2180.95
1011.881	2167.61
1012.173	2134.84
1012.466	2135.52
1012.759	2118.8
1013.052	2094.39
1013.344	2095.98
1013.637	2067.95
1013.93	2085.35
1014.222	2059.59
1014.514	2043.55
1014.807	2019.59
1015.099	2037.67
1015.391	2008.97
1015.683	2016.66
1015.976	2008.75
1016.268	1994.06
1016.56	1985.02
1016.851	1946.15
1017.143	1944.34
1017.435	1933.49
1017.727	1906.38
1018.018	1905.02
1018.31	1889.2
1018.602	1878.13
1018.893	1874.29
1019.185	1847.39
1019.476	1834.51
1019.767	1827.28
1020.058	1817.34
1020.35	1799.03
1020.641	1775.31
1020.932	1787.74
1021.223	1733.73
1021.514	1763.56
1021.804	1709.77
1022.095	1737.34
1022.386	1728.98
1022.677	1719.49
1022.967	1707.74
1023.258	1705.7
1023.548	1667.06
1023.839	1651.24
1024.129	1630.45
1024.419	1653.05
1024.709	1650.79
1025	1638.36
1025.29	1602.88
1025.58	1575.54
1025.87	1555.2
1026.16	1545.48
1026.449	1546.61
1026.739	1534.41
1027.029	1543.67
1027.319	1532.6
1027.608	1521.75
1027.898	1519.72
1028.187	1474.75
1028.477	1487.18
1028.766	1457.12
1029.055	1468.42
1029.344	1454.86
1029.634	1447.18
1029.923	1465.48
1030.212	1437.91
1030.501	1432.26
1030.79	1413.06
1031.078	1382.32
1031.367	1392.49
1031.656	1362.44
1031.945	1371.25
1032.233	1347.07
1032.522	1355.2
1032.81	1348.42
1033.099	1315.43
1033.387	1315.43
1033.675	1309.1
1033.963	1290.12
1034.251	1282.89
1034.54	1285.6
1034.828	1280.86
1035.116	1258.71
1035.403	1261.65
1035.691	1245.6
1035.979	1271.59
1036.267	1232.95
1036.554	1248.77
1036.842	1188.43
1037.129	1187.53
1037.417	1183.46
1037.704	1195.21
1037.992	1173.06
1038.279	1175.55
1038.566	1138.94
1038.853	1138.94
1039.14	1138.94
