Data from breadboard_white_FLMS001491_00029.txt Node
Date: Wed Feb 08 10:47:30 GMT 2017
User: dcchb
Spectrometer: FLMS00149
Trigger mode: 0
Integration Time (sec): 2.000000E-2
Scans to average: 10
Electric dark correction enabled: true
Nonlinearity correction enabled: false
Boxcar width: 0
XAxis mode: Wavelengths
Number of Pixels in Spectrum: 2048
>>>>>Begin Spectral Data<<<<<
341.393	-31.4
341.776	-31.4
342.16	-31.4
342.543	-80.89
342.927	-73.2
343.31	-58.74
343.693	-68.23
344.077	-62.58
344.46	-57.16
344.843	-53.32
345.226	-39.08
345.61	-43.15
345.993	-31.4
346.376	-5.86
346.759	13.35
347.142	34.14
347.525	48.15
347.908	41.14
348.291	81.59
348.674	86.34
349.057	114.81
349.44	96.51
349.823	144.42
350.206	134.02
350.588	188.94
350.971	228.48
351.354	238.2
351.737	255.15
352.119	275.26
352.502	263.28
352.884	313
353.267	317.75
353.65	310.97
354.032	318.2
354.414	320.68
354.797	333.79
355.179	330.85
355.562	363.85
355.944	336.05
356.326	354.58
356.709	348.48
357.091	374.02
357.473	362.94
357.855	354.36
358.238	370.4
358.62	364.07
359.002	380.8
359.384	361.59
359.766	375.37
360.148	366.33
360.53	364.98
360.912	372.66
361.294	390.51
361.676	352.55
362.057	394.35
362.439	345.09
362.821	374.02
363.203	392.55
363.584	363.85
363.966	371.3
364.348	356.61
364.729	377.18
365.111	338.54
365.493	353
365.874	342.38
366.256	355.26
366.637	345.32
367.019	342.83
367.4	345.99
367.781	360.46
368.163	350.29
368.544	347.12
368.925	340.12
369.306	363.85
369.688	360.91
370.069	354.13
370.45	354.81
370.831	360.91
371.212	369.04
371.593	373.34
371.974	349.16
372.355	373.79
372.736	360.91
373.117	365.88
373.498	364.52
373.879	372.89
374.26	360.23
374.641	358.87
375.021	352.1
375.402	376.5
375.783	387.12
376.163	404.3
376.544	407.46
376.925	393.45
377.305	397.74
377.686	415.82
378.066	399.78
378.447	409.49
378.827	386.44
379.208	398.2
379.588	397.74
379.968	402.26
380.349	416.73
380.729	394.35
381.109	412.43
381.489	410.85
381.87	431.42
382.25	421.47
382.63	429.16
383.01	439.1
383.39	433.45
383.77	435.71
384.15	443.17
384.53	450.4
384.91	462.15
385.29	454.24
385.67	485.65
386.049	449.49
386.429	453.34
386.809	478.65
387.189	491.75
387.568	468.93
387.948	484.07
388.328	515.25
388.707	510.28
389.087	506.89
389.466	511.87
389.846	502.15
390.225	489.49
390.605	503.96
390.984	532.2
391.363	524.75
391.743	539.89
392.122	551.64
392.501	572.2
392.881	575.59
393.26	586.89
393.639	578.76
394.018	590.73
394.397	613.33
394.776	582.15
395.155	593.22
395.534	596.83
395.913	589.6
396.292	643.16
396.671	649.04
397.05	634.35
397.429	663.27
397.808	653.78
398.186	672.54
398.565	695.82
398.944	699.88
399.323	703.05
399.701	706.44
400.08	730.62
400.458	736.72
400.837	724.06
401.215	763.84
401.594	771.97
401.972	749.6
402.351	792.99
402.729	820.11
403.107	822.37
403.486	849.03
403.864	844.96
404.242	859.43
404.62	877.05
404.999	878.86
405.377	891.29
405.755	933.55
406.133	919.99
406.511	943.94
406.889	940.55
407.267	1014.68
407.645	999.54
408.023	1046.99
408.401	1035.02
408.779	1050.16
409.156	1087.9
409.534	1132.41
409.912	1141.23
410.29	1164.5
410.667	1175.35
411.045	1177.16
411.422	1227.1
411.8	1231.17
412.178	1283.6
412.555	1284.95
412.933	1315.69
413.31	1373.09
413.687	1369.7
414.065	1402.46
414.442	1379.41
414.819	1449.69
415.197	1473.2
415.574	1504.83
415.951	1486.98
416.328	1531.5
416.705	1535.79
417.082	1543.93
417.46	1601.55
417.837	1624.6
418.214	1610.59
418.591	1620.08
418.967	1680.87
419.344	1705.51
419.721	1733.08
420.098	1722.23
420.475	1772.4
420.852	1782.57
421.228	1840.87
421.605	1801.55
421.982	1825.73
422.358	1873.86
422.735	1956.57
423.111	1940.75
423.488	1929.68
423.864	1926.97
424.241	2040.86
424.617	2021.66
424.994	2042.67
425.37	2087.64
425.746	2093.97
426.123	2123.12
426.499	2105.5
426.875	2157.25
427.251	2215.32
427.627	2254.87
428.003	2290.58
428.379	2316.11
428.756	2319.95
429.132	2352.27
429.507	2400.18
429.883	2447.18
430.259	2450.8
430.635	2486.28
431.011	2526.5
431.387	2608.99
431.763	2612.15
432.138	2644.69
432.514	2707.51
432.89	2702.54
433.265	2784.12
433.641	2818.7
434.016	2828.87
434.392	2937.34
434.767	2975.53
435.143	2978.47
435.518	3007.84
435.894	3068.18
436.269	3055.75
436.644	3131.68
437.02	3162.87
437.395	3195.18
437.77	3200.38
438.145	3273.37
438.52	3272.7
438.895	3323.99
439.271	3375.07
439.646	3412.81
440.021	3465.01
440.395	3490.77
440.77	3458
441.145	3514.05
441.52	3545.46
441.895	3607.15
442.27	3670.2
442.645	3616.19
443.019	3706.58
443.394	3689.86
443.769	3739.12
444.143	3758.11
444.518	3846.24
444.892	3807.82
445.267	3835.17
445.641	3883.08
446.016	3882.85
446.39	3913.36
446.764	3941.38
447.139	3925.11
447.513	4045.56
447.887	4007.14
448.262	4032
448.636	4120.13
449.01	4138.66
449.384	4172.79
449.758	4227.25
450.132	4258.89
450.506	4280.35
450.88	4346.34
451.254	4331.2
451.628	4370.75
452.002	4465.43
452.376	4469.5
452.75	4533.23
453.123	4553.11
453.497	4638.31
453.871	4703.85
454.244	4795.37
454.618	4822.94
454.992	4906.1
455.365	4939.32
455.739	5007.57
456.112	5061.8
456.486	5095.7
456.859	5182.7
457.232	5270.38
457.606	5275.58
457.979	5335.02
458.352	5466.99
458.725	5540.66
459.099	5594.67
459.472	5657.72
459.845	5755.79
460.218	5754.21
460.591	5882.8
460.964	5854.1
461.337	6053.64
461.71	6160.08
462.083	6252.73
462.456	6240.3
462.829	6258.61
463.201	6375.67
463.574	6446.17
463.947	6513.97
464.32	6633.74
464.692	6751.93
465.065	6796.45
465.438	6891.36
465.81	6958.02
466.183	7047.51
466.555	7212.48
466.928	7298.58
467.3	7305.36
467.672	7386.94
468.045	7609.76
468.417	7631
468.789	7739.02
469.161	7774.05
469.534	7897.89
469.906	8086.36
470.278	8151.66
470.65	8241.15
471.022	8379.45
471.394	8609.96
471.766	8644.98
472.138	8748.71
472.51	8980.57
472.882	9076.61
473.253	9214.24
473.625	9378.75
473.997	9538.75
474.369	9610.38
474.74	9763.6
475.112	9915.01
475.484	10072.74
475.855	10277.26
476.227	10385.5
476.598	10683.8
476.97	10771.71
477.341	10950.01
477.713	11241.53
478.084	11306.16
478.455	11563.78
478.827	11698.92
479.198	12038.79
479.569	12028.62
479.94	12361.5
480.311	12498.22
480.682	12784.31
481.053	13112.89
481.424	13211.42
481.795	13479.89
482.166	13713.78
482.537	13862.02
482.908	14172.52
483.279	14268.79
483.65	14504.94
484.021	14844.6
484.391	14936.57
484.762	15157.58
485.133	15314.41
485.503	15482.54
485.874	15790.33
486.244	15941.52
486.615	16249.08
486.985	16517.09
487.356	16743.98
487.726	16983.75
488.097	17290.41
488.467	17323.17
488.837	17786.21
489.207	17958.19
489.578	18241.79
489.948	18453.77
490.318	18681.78
490.688	18669.58
491.058	19064.15
491.428	19244.25
491.798	19503.46
492.168	20012.14
492.538	19917
492.908	20230.44
493.278	20511.34
493.648	20524.67
494.017	20668.85
494.387	21014.38
494.757	21149.74
495.126	21537.07
495.496	21477.64
495.866	21692.33
496.235	21893.22
496.605	22118.98
496.974	22307
497.344	22451.63
497.713	22672.19
498.082	22920.99
498.452	23074.21
498.821	23097.94
499.19	23319.85
499.559	23635.32
499.928	23683.46
500.298	23769.11
500.667	24024.92
501.036	24084.13
501.405	24335.42
501.774	24484.57
502.143	24647.05
502.512	24761.4
502.88	25072.8
503.249	24983.31
503.618	25252.23
503.987	25437.76
504.356	25521.15
504.724	25682.05
505.093	25881.82
505.462	26009.05
505.83	26238.87
506.199	26418.53
506.567	26663.04
506.936	26681.8
507.304	27115.46
507.672	27252.86
508.041	27271.84
508.409	27580.76
508.777	27873.18
509.145	28076.34
509.514	28144.81
509.882	28378.03
510.25	28474.97
510.618	28773.27
510.986	28853.27
511.354	29116.99
511.722	29361.5
512.09	29591.78
512.458	29508.84
512.826	29808.95
513.193	30073.57
513.561	30272.89
513.929	30494.13
514.297	30780.9
514.664	31045.07
515.032	31235.35
515.4	31436.48
515.767	31580.65
516.135	31812.29
516.502	31592.18
516.869	32167.53
517.237	32393.74
517.604	32347.19
517.972	32748.98
518.339	32933.84
518.706	33028.98
519.073	33198.46
519.44	33541.51
519.808	33878.22
520.175	33857.65
520.542	34330.41
520.909	34625.09
521.276	34606.11
521.643	34949.38
522.009	35170.61
522.376	35544.39
522.743	35783.25
523.11	36070.03
523.477	36476.57
523.843	36543.23
524.21	37023
524.577	37255.76
524.943	37398.58
525.31	37648.52
525.676	38051.67
526.043	38135.73
526.409	38317.65
526.776	38768.03
527.142	38921.7
527.508	39154.01
527.874	39654.11
528.241	39662.02
528.607	39789.02
528.973	40254.1
529.339	40280.08
529.705	40640.53
530.071	40940.86
530.437	41039.84
530.803	41293.39
531.169	41573.61
531.535	41650.67
531.901	41843.66
532.267	41991
532.632	42390.76
532.998	42540.59
533.364	42782.62
533.73	42877.53
534.095	43258.54
534.461	43335.6
534.826	43637.74
535.192	43668.47
535.557	43848.58
535.923	43908.69
536.288	44045.41
536.653	44435.46
537.019	44216.93
537.384	44546.87
537.749	44779.4
538.114	44837.48
538.479	44920.87
538.845	45234.76
539.21	45140.07
539.575	45325.6
539.94	45524.47
540.305	45811.01
540.67	45758.58
541.034	45962.2
541.399	46175.75
541.764	46283.99
542.129	46477.21
542.494	46566.7
542.858	46628.84
543.223	46808.27
543.587	46994.48
543.952	46916.52
544.316	47202.39
544.681	47134.82
545.045	47485.77
545.41	47635.15
545.774	47743.39
546.138	47753.79
546.503	47889.15
546.867	47893.67
547.231	48353.77
547.595	48252.08
547.959	48454.33
548.324	48435.58
548.688	48486.87
549.052	48713.99
549.416	48748.56
549.779	48931.38
550.143	49007.31
550.507	49307.64
550.871	49461.76
551.235	49339.51
551.599	49782.43
551.962	49791.02
552.326	49856.33
552.689	50082.09
553.053	50026.5
553.417	50144.46
553.78	50500.16
554.143	50471
554.507	50617.89
554.87	50711.22
555.234	51051.1
555.597	50933.82
555.96	51020.37
556.323	51298.55
556.686	51340.36
557.05	51498.55
557.413	51557.3
557.776	51706.45
558.139	51968.82
558.502	52005.88
558.865	52144.41
559.228	52300.11
559.59	52368.13
559.953	52447.22
560.316	52783.03
560.679	52785.52
561.041	52988.9
561.404	53125.62
561.767	53384.83
562.129	53329.46
562.492	53609.68
562.854	53618.49
563.217	53668.43
563.579	53732.39
563.941	53994.53
564.304	54094.64
564.666	54235.65
565.028	54220.06
565.39	54406.95
565.753	54610.1
566.115	54653.72
566.477	54826.37
566.839	54938.68
567.201	55057.55
567.563	55093.48
567.925	55316.07
568.287	55320.37
568.648	55315.4
569.01	55501.61
569.372	55653.24
569.734	55575.95
570.095	55724.42
570.457	55868.38
570.819	55940.69
571.18	56006.23
571.542	56111.76
571.903	56123.74
572.265	56251.64
572.626	56308.82
572.987	56388.59
573.349	56472.2
573.71	56592.65
574.071	56620.67
574.432	56706.77
574.794	56883.94
575.155	56836.26
575.516	56824.28
575.877	56938.63
576.238	57034.67
576.599	57121.22
576.96	57115.12
577.32	57194.22
577.681	57255.68
578.042	57332.74
578.403	57313.76
578.763	57344.04
579.124	57350.14
579.485	57402.57
579.845	57550.59
580.206	57483.7
580.566	57452.06
580.927	57560.08
581.287	57505.85
581.648	57480.99
582.008	57620.42
582.368	57578.61
582.728	57610.48
583.089	57648.67
583.449	57609.35
583.809	57632.85
584.169	57737.25
584.529	57610.7
584.889	57890.7
585.249	57650.48
585.609	57585.17
585.969	57802.56
586.329	57649.8
586.688	57745.61
587.048	57761.43
587.408	57630.82
587.768	57697.03
588.127	57726.18
588.487	57704.49
588.846	57833.52
589.206	57731.83
589.565	57661.32
589.925	57863.13
590.284	57682.57
590.643	57733.86
591.003	57864.48
591.362	57923.91
591.721	57802.56
592.08	57842.11
592.44	57895.89
592.799	57891.15
593.158	57838.49
593.517	57841.88
593.876	57910.36
594.235	57823.8
594.593	57894.99
594.952	57885.95
595.311	57800.53
595.67	57915.1
596.029	57974.53
596.387	58031.03
596.746	58090.24
597.104	57911.03
597.463	57934.54
597.822	58080.52
598.18	57947.87
598.538	57948.09
598.897	58110.58
599.255	57862
599.613	58257.92
599.972	58011.37
600.33	58141.31
600.688	58076.23
601.046	58189.67
601.404	58209.33
601.762	58233.29
602.12	58319.16
602.478	58293.85
602.836	58341.98
603.194	58205.26
603.552	58250.91
603.91	58202.78
604.268	58363.68
604.625	58249.1
604.983	58392.83
605.341	58294.3
605.698	58386.5
606.056	58417.24
606.413	58449.1
606.771	58533.39
607.128	58581.52
607.485	58386.05
607.843	58419.5
608.2	58599.15
608.557	58622.65
608.914	58531.13
609.272	58682.09
609.629	58718.24
609.986	58786.94
610.343	58716.66
610.7	58810.45
611.057	58764.57
611.414	58783.55
611.771	58845.92
612.127	58937.45
612.484	58892.93
612.841	58938.8
613.198	58863.33
613.554	58905.58
613.911	59033.49
614.267	58984.9
614.624	59056.09
614.98	59040.5
615.337	59119.59
615.693	59073.26
616.05	59053.38
616.406	59209.53
616.762	59159.59
617.118	59119.59
617.475	59182.86
617.831	59210.66
618.187	59228.06
618.543	59302.41
618.899	59398
619.255	59373.82
619.611	59312.58
619.967	59337.89
620.323	59340.83
620.678	59314.84
621.034	59282.98
621.39	59275.74
621.746	59269.19
622.101	59518.9
622.457	59268.06
622.812	59429.19
623.168	59415.4
623.523	59419.47
623.879	59498.79
624.234	59313.26
624.589	59394.61
624.945	59426.02
625.3	59412.24
625.655	59442.07
626.01	59395.51
626.365	59408.85
626.72	59350.09
627.075	59393.48
627.43	59435.51
627.785	59340.83
628.14	59360.26
628.495	59356.19
628.85	59374.5
629.205	59201.62
629.559	59348.96
629.914	59262.18
630.269	59299.25
630.623	59166.82
630.978	59211.56
631.332	59299.7
631.687	59281.62
632.041	59146.48
632.396	59257.21
632.75	59066.94
633.104	59156.42
633.459	59046.15
633.813	58997.56
634.167	59020.16
634.521	58930.67
634.875	58963.66
635.229	58937.67
635.583	58830.78
635.937	58801.41
636.291	58819.48
636.645	58806.38
636.999	58765.02
637.352	58851.8
637.706	58705.14
638.06	58774.51
638.413	58693.16
638.767	58576.1
639.121	58696.32
639.474	58442.77
639.828	58504.69
640.181	58562.99
640.534	58506.5
640.888	58367.74
641.241	58366.84
641.594	58330.91
641.947	58411.36
642.301	58301.53
642.654	58363.68
643.007	58376.56
643.36	58306.73
643.713	58225.38
644.066	58355.32
644.419	58240.74
644.771	58060.18
645.124	57798.49
645.477	57751.72
645.83	57536.58
646.182	57396.47
646.535	57402.12
646.888	57366.19
647.24	57259.07
647.593	57403.25
647.945	57291.62
648.298	57206.19
648.65	57152.86
649.002	57057.95
649.355	57121.9
649.707	57088
650.059	57247.1
650.411	57492.97
650.763	57593.08
651.115	57730.7
651.467	57662.23
651.819	57708.33
652.171	57582.23
652.523	57544.04
652.875	57537.94
653.227	57397.83
653.578	57552.17
653.93	57531.38
654.282	57412.52
654.633	57335.46
654.985	57430.37
655.337	57376.81
655.688	57366.64
656.039	57443.02
656.391	57227.44
656.742	57267.66
657.094	57236.25
657.445	57337.94
657.796	57199.64
658.147	57264.05
658.498	57211.84
658.849	57233.76
659.2	57184.73
659.551	57117.61
659.902	57169.81
660.253	57137.27
660.604	57211.62
660.955	57040.32
661.306	57047.1
661.656	57063.15
662.007	57126.87
662.358	57078.51
662.708	57064.5
663.059	56971.62
663.409	56862.7
663.76	57012.3
664.11	57028.8
664.461	56982.02
664.811	57023.37
665.161	57022.02
665.511	56857.05
665.862	56992.19
666.212	56982.02
666.562	57029.7
666.912	56916.26
667.262	56904.96
667.612	56895.92
667.962	56862.7
668.312	56853.21
668.662	56951.06
669.011	56885.52
669.361	56808.69
669.711	56825.41
670.06	56736.83
670.41	56709.94
670.76	56628.36
671.109	56787.45
671.459	56674.91
671.808	56676.72
672.157	56770.95
672.507	56551.52
672.856	56530.05
673.205	56548.36
673.554	56600.56
673.904	56509.49
674.253	56633.1
674.602	56571.63
674.951	56219.78
675.3	56022.04
675.649	56511.3
675.998	56397.85
676.346	56412.54
676.695	56470.62
677.044	56231.08
677.393	56372.77
677.741	56314.01
678.09	56314.69
678.438	56215.03
678.787	56303.17
679.135	56248.25
679.484	56095.71
679.832	56207.58
680.181	56043.74
680.529	56099.56
680.877	55982.04
681.225	55943.18
681.573	56112.21
681.922	55900.69
682.27	55752.22
682.618	55839
682.966	55811.88
683.314	55867.7
683.661	55840.81
684.009	55584.09
684.357	55509.06
684.705	55492.79
685.053	55553.36
685.4	55433.36
685.748	55314.72
686.095	55249.63
686.443	55166.93
686.79	55158.79
687.138	55195.4
687.485	55207.38
687.832	55052.35
688.18	55107.04
688.527	54858.68
688.874	54955.18
689.221	54852.36
689.568	54792.7
689.915	54709.31
690.262	54782.53
690.609	54710.21
690.956	54476.1
691.303	54465.93
691.65	54354.29
691.997	54360.84
692.344	54158.59
692.69	54054.19
693.037	54173.73
693.383	53853.51
693.73	54029.78
694.077	53783.68
694.423	53846.73
694.769	53754.53
695.116	53625.04
695.462	53551.83
695.808	53496.69
696.155	53505.27
696.501	53282.68
696.847	53263.02
697.193	53040.88
697.539	53176.02
697.885	52833.2
698.231	52844.5
698.577	52819.87
698.923	52743.26
699.269	52593.66
699.614	52420.33
699.96	52356.15
700.306	52421.69
700.651	52303.27
700.997	52193.44
701.342	52051.53
701.688	52096.27
702.033	51868.03
702.379	51936.28
702.724	51810.18
703.069	51759.33
703.415	51439.79
703.76	51497.87
704.105	51522.95
704.45	51412
704.795	51124.32
705.14	51106.92
705.485	51074.38
705.83	50979.69
706.175	50889.52
706.52	50841.16
706.865	50643.2
707.209	50675.29
707.554	50581.06
707.899	50602.3
708.243	50472.81
708.588	50367.5
708.932	50191.69
709.277	50233.72
709.621	50172.71
709.966	49943.11
710.31	49995.99
710.654	49628.31
710.998	49774.75
711.342	49646.17
711.687	49630.8
712.031	49458.83
712.375	49294.76
712.719	49347.19
713.063	49293.63
713.407	49414.31
713.75	49192.39
714.094	49106.97
714.438	48859.52
714.782	49036.46
715.125	48794.44
715.469	48887.99
715.812	48618.85
716.156	48474.45
716.499	48446.88
716.843	48468.34
717.186	48282.59
717.53	48389.7
717.873	48337.73
718.216	48324.85
718.559	48073.55
718.902	47745.65
719.246	47927.12
719.589	47670.17
719.932	47664.07
720.275	47742.26
720.617	47569.16
720.96	47453.91
721.303	47510.4
721.646	47479.9
721.989	47264.99
722.331	47411.65
722.674	47217.53
723.016	47150.86
723.359	47097.53
723.701	47074.93
724.044	46723.76
724.386	46719.69
724.729	46857.31
725.071	46630.88
725.413	46784.77
725.755	46564.89
726.097	46285.12
726.439	46197.22
726.782	46148.41
727.124	46368.74
727.465	46169.87
727.807	45968.52
728.149	46079.48
728.491	45807.17
728.833	45886.27
729.175	45803.78
729.516	45679.27
729.858	45668.19
730.199	45735.99
730.541	45485.6
730.882	45473.17
731.224	45475.65
731.565	45328.09
731.906	45267.52
732.248	45333.74
732.589	45115.89
732.93	45100.75
733.271	45089
733.612	44973.75
733.953	44949.79
734.294	44861.43
734.635	44710.7
734.976	44861.43
735.317	44623.02
735.658	44471.61
735.999	44473.65
736.339	44380.77
736.68	44486.08
737.021	44324.27
737.361	44077.27
737.702	44209.47
738.042	44189.81
738.383	44092.64
738.723	43978.52
739.063	43828.24
739.404	43901.68
739.744	43890.39
740.084	43663.72
740.424	43793.66
740.764	43683.16
741.104	43801.57
741.444	43427.12
741.784	43406.56
742.124	43481.81
742.464	43355.94
742.804	43325.65
743.143	43267.58
743.483	43169.05
743.823	42892.45
744.162	42869.4
744.502	42882.73
744.841	42718.66
745.181	42834.59
745.52	42677.08
745.86	42654.71
746.199	42654.71
746.538	42555.28
746.877	42499.46
747.216	42448.16
747.556	42279.13
747.895	42463.53
748.234	42182.18
748.573	42072.13
748.911	42028.29
749.25	41894.96
749.589	41756.43
749.928	41887.05
750.267	41825.81
750.605	41640.5
750.944	41576.1
751.283	41352.37
751.621	41475.08
751.96	41100.18
752.298	41290.45
752.636	41147.41
752.975	41013.62
753.313	40822.67
753.651	40930.92
753.989	40752.61
754.327	40609.79
754.666	40398.5
755.004	40485.28
755.342	40488.22
755.679	40177.71
756.017	40236.7
756.355	40177.49
756.693	39868.12
757.031	40138.85
757.368	39869.02
757.706	39735.47
758.044	39561.69
758.381	39659.08
758.719	39460.9
759.056	39300.68
759.394	39070.63
759.731	39023.62
760.068	38919.22
760.405	38885.55
760.743	38766
761.08	38817.52
761.417	38498.21
761.754	38419.79
762.091	38352.9
762.428	38383.41
762.765	38032.01
763.102	38094.15
763.438	38022.07
763.775	37914.72
764.112	37765.35
764.449	37754.73
764.785	37490.33
765.122	37282.88
765.458	37155.65
765.795	37164.01
766.131	37056.44
766.467	36791.59
766.804	36720.86
767.14	36555.21
767.476	36464.14
767.812	36325.61
768.148	36439.73
768.485	36032.51
768.821	36004.94
769.157	35906.87
769.492	35904.61
769.828	35901.89
770.164	35374
770.5	35296.94
770.836	35291.06
771.171	35014.46
771.507	34995.93
771.842	34828.25
772.178	34837.06
772.513	34801.13
772.849	34611.31
773.184	34437.07
773.519	34494.93
773.855	34149.85
774.19	33956.86
774.525	33916.86
774.86	33869.63
775.195	33817.2
775.53	33666.25
775.865	33457.21
776.2	33340.38
776.535	33085.7
776.87	32995.3
777.205	32809.09
777.539	32822.65
777.874	32803.9
778.209	32591.02
778.543	32406.17
778.878	32330.01
779.212	32281.2
779.547	32018.83
779.881	32048.89
780.215	31846.86
780.55	31973.41
780.884	31733.19
781.218	31702.68
781.552	31605.74
781.886	31514.21
782.22	31357.38
782.554	31145.41
782.888	30944.06
783.222	30760.56
783.556	30632.43
783.889	30629.94
784.223	30383.85
784.557	30423.39
784.89	30467.46
785.224	30038.77
785.557	30097.98
785.891	30055.95
786.224	29847.14
786.558	29902.28
786.891	29526.47
787.224	29449.18
787.557	29421.16
787.891	29360.82
788.224	29226.59
788.557	29228.17
788.89	29185.01
789.223	29046.71
789.556	28758.13
789.888	28808.07
790.221	28760.16
790.554	28465.03
790.887	28489.21
791.219	28431.81
791.552	28257.58
791.884	28145.94
792.217	28227.29
792.549	27896.46
792.882	27883.57
793.214	27693.07
793.546	27768.78
793.879	27503.02
794.211	27373.98
794.543	27462.12
794.875	27378.5
795.207	27229.35
795.539	27091.96
795.871	27173.08
796.203	26912.3
796.535	26787.56
796.867	26742.81
797.198	26606.77
797.53	26568.81
797.862	26505.76
798.193	26407.23
798.525	26308.7
798.856	26233
799.188	26008.14
799.519	26023.06
799.85	25719.56
800.182	25873.46
800.513	25762.95
800.844	25607.25
801.175	25684.76
801.506	25656.29
801.837	25486.58
802.168	25425.56
802.499	25365.67
802.83	25101.28
803.161	25178.34
803.491	25109.18
803.822	25130.88
804.153	24925.01
804.483	24745.13
804.814	24694.51
805.145	24654.96
805.475	24767.05
805.805	24604.79
806.136	24569.99
806.466	24520.95
806.796	24438.69
807.126	24120.06
807.457	24254.74
807.787	24147.4
808.117	23993.28
808.447	23921.42
808.777	23949.21
809.107	23832.61
809.436	23825.6
809.766	23799.61
810.096	23610.47
810.426	23564.59
810.755	23588.77
811.085	23485.72
811.414	23480.3
811.744	23248.44
812.073	23233.53
812.403	23218.61
812.732	23093.42
813.061	23012.52
813.39	22883.03
813.719	22839.41
814.049	22993.53
814.378	22835.8
814.707	22723.94
815.036	22719.64
815.365	22540.21
815.693	22554.22
816.022	22440.33
816.351	22368.47
816.68	22206.44
817.008	22358.3
817.337	22123.95
817.665	22139.32
817.994	22165.53
818.322	22036.95
818.651	22061.13
818.979	21887.35
819.307	22075.82
819.636	21970.96
819.964	21818.2
820.292	21856.16
820.62	21818.88
820.948	21754.02
821.276	21786.56
821.604	21648.94
821.932	21766
822.259	21702.95
822.587	21636.96
822.915	21673.34
823.243	21627.92
823.57	21624.3
823.898	21620.46
824.225	21576.17
824.553	21486.45
824.88	21506.57
825.207	21571.65
825.535	21553.12
825.862	21638.77
826.189	21549.05
826.516	21638.77
826.843	21597.41
827.17	21519.45
827.497	21623.4
827.824	21475.83
828.151	21556.96
828.478	21502.27
828.805	21674.02
829.131	21551.31
829.458	21511.76
829.785	21388.6
830.111	21348.15
830.438	21497.75
830.764	21380.24
831.09	21423.63
831.417	21256.18
831.743	21441.26
832.069	21486
832.395	21275.39
832.722	21427.93
833.048	21375.05
833.374	21316.06
833.7	21243.07
834.026	21272.9
834.351	21264.31
834.677	21221.15
835.003	21195.39
835.329	21241.49
835.654	21181.83
835.98	21112.91
836.306	21096.63
836.631	20931.89
836.956	21085.79
837.282	21026.13
837.607	20908.84
837.932	20916.3
838.258	20921.05
838.583	20895.51
838.908	20768.28
839.233	20711.79
839.558	20560.15
839.883	20609.87
840.208	20566.93
840.533	20617.33
840.858	20603.31
841.182	20540.49
841.507	20502.75
841.832	20479.25
842.156	20360.38
842.481	20381.63
842.805	20224.12
843.13	20223.44
843.454	20142.54
843.778	20178.01
844.103	20056.44
844.427	19941.18
844.751	20079.49
845.075	19876.1
845.399	19918.81
845.723	19697.8
846.047	19779.61
846.371	19698.03
846.695	19578.26
847.019	19479.95
847.343	19300.52
847.666	19211.94
847.99	19214.65
848.313	19205.16
848.637	19132.39
848.96	19027.54
849.284	19043.81
849.607	18887.2
849.931	18813.76
850.254	18650.82
850.577	18526.98
850.9	18461.45
851.223	18454.9
851.546	18276.37
851.869	18285.18
852.192	18319.53
852.515	18075.25
852.838	18007
853.161	18065.75
853.483	17950.95
853.806	17826.21
854.129	17894.23
854.451	17691.98
854.774	17666.22
855.096	17505.09
855.419	17574.24
855.741	17473.9
856.063	17435.94
856.385	17424.64
856.708	17338.99
857.03	17159.79
857.352	17314.14
857.674	17263.74
857.996	17180.81
858.318	17052.45
858.64	17061.49
858.961	16989.85
859.283	17024.88
859.605	16861.49
859.926	16935.39
860.248	16881.6
860.57	16718.22
860.891	16833.92
861.212	16628.05
861.534	16648.62
861.855	16577.21
862.176	16505.34
862.498	16598.67
862.819	16577.43
863.14	16413.59
863.461	16351.22
863.782	16289.08
864.103	16282.52
864.424	16242.07
864.745	16381.73
865.065	16250.66
865.386	16216.99
865.707	16208.18
866.027	16225.8
866.348	16072.36
866.668	16035.52
866.989	16015.64
867.309	15946.71
867.63	16023.1
867.95	15977.22
868.27	15803.89
868.59	15942.65
868.91	15799.82
869.23	15812.71
869.55	15759.37
869.87	15755.31
870.19	15737
870.51	15707.4
870.83	15735.19
871.15	15672.82
871.469	15588.98
871.789	15551.24
872.109	15626.5
872.428	15406.39
872.748	15472.6
873.067	15524.58
873.386	15536.78
873.706	15482.09
874.025	15312.61
874.344	15354.64
874.663	15334.98
874.982	15290.01
875.301	15207.3
875.62	15179.28
875.939	15170.46
876.258	15149.22
876.577	15139.28
876.896	15072.84
877.214	15096.34
877.533	15089.33
877.852	14961.2
878.17	15115.1
878.489	15040.97
878.807	15012.95
879.125	15059.73
879.444	14898.15
879.762	14812.28
880.08	14883.01
880.398	14840.98
880.716	14822.68
881.034	14716.01
881.352	14813.64
881.67	14778.16
881.988	14763.92
882.306	14636.92
882.624	14709.91
882.941	14595.56
883.259	14457.26
883.577	14548.56
883.894	14422.23
884.212	14490.48
884.529	14395.79
884.846	14382.91
885.164	14312.18
885.481	14380.2
885.798	14299.07
886.115	14232.63
886.432	14152.41
886.75	14222.92
887.067	14221.11
887.383	14083.49
887.7	14226.98
888.017	14076.71
888.334	14056.82
888.651	14025.18
888.967	13908.35
889.284	13914.68
889.6	13828.35
889.917	13778.86
890.233	13891.4
890.55	13667
890.866	13711.52
891.182	13584.52
891.498	13660.67
891.815	13510.62
892.131	13556.95
892.447	13530.73
892.763	13423.16
893.079	13443.73
893.395	13417.97
893.71	13336.39
894.026	13278.99
894.342	13255.03
894.657	13146.79
894.973	13132.55
895.289	13189.27
895.604	13156.5
895.92	12925.1
896.235	12942.27
896.55	13013.68
896.865	12903.86
897.181	12874.03
897.496	12853.91
897.811	12763.97
898.126	12761.26
898.441	12693.01
898.756	12605.11
899.071	12566.92
899.386	12562.62
899.7	12438.78
900.015	12418.9
900.33	12340.71
900.644	12250.99
900.959	12342.51
901.273	12365.56
901.588	12182.07
901.902	12147.04
902.216	12098.45
902.531	12052.35
902.845	12075.63
903.159	12013.94
903.473	11897.1
903.787	11826.6
904.101	11847.39
904.415	11812.81
904.729	11805.13
905.042	11695.75
905.356	11691.91
905.67	11610.33
905.984	11658.46
906.297	11555.19
906.611	11484.91
906.924	11506.38
907.237	11443.78
907.551	11341.86
907.864	11288.76
908.177	11312.26
908.491	11277.23
908.804	11170.57
909.117	11111.59
909.43	11059.16
909.743	11035.2
910.056	11013.51
910.368	10881.31
910.681	10894.64
910.994	10884.47
911.307	10829.79
911.619	10694.2
911.932	10767.87
912.244	10697.36
912.557	10666.85
912.869	10535.56
913.181	10581.66
913.494	10459.17
913.806	10405.39
914.118	10439.74
914.43	10331.72
914.742	10359.29
915.054	10211.27
915.366	10220.76
915.678	10245.39
915.99	10175.57
916.302	10057.83
916.613	10010.82
916.925	10049.02
917.236	9974.22
917.548	10011.05
917.859	9929.92
918.171	9846.53
918.482	9824.16
918.794	9781
919.105	9723.6
919.416	9726.09
919.727	9665.3
920.038	9536.94
920.349	9575.13
920.66	9498.07
920.971	9473.66
921.282	9442.48
921.593	9349.82
921.903	9322.93
922.214	9346.44
922.525	9296.49
922.835	9224.18
923.146	9195.48
923.456	9166.78
923.767	9066.44
924.077	9103.96
924.387	9079.32
924.697	8928.37
925.008	9008.36
925.318	8965.43
925.628	8932.89
925.938	8899.22
926.248	8838.65
926.558	8760.01
926.867	8790.74
927.177	8696.28
927.487	8670.52
927.796	8549.85
928.106	8603.86
928.416	8501.49
928.725	8497.64
929.034	8404.99
929.344	8397.53
929.653	8444.76
929.962	8337.42
930.271	8312.11
930.581	8243.87
930.89	8251.32
931.199	8207.93
931.508	8177.65
931.817	8141.95
932.125	8056.75
932.434	8012.91
932.743	8015.85
933.051	7940.37
933.36	7849.53
933.669	7849.75
933.977	7870.09
934.286	7800.04
934.594	7769.75
934.902	7799.36
935.21	7656.76
935.519	7673.71
935.827	7706.93
936.135	7634.62
936.443	7561.4
936.751	7506.48
937.059	7496.77
937.367	7548.97
937.674	7453.15
937.982	7389.88
938.29	7366.83
938.597	7411.8
938.905	7326.15
939.213	7285.02
939.52	7223.33
939.827	7227.17
940.135	7220.84
940.442	7197.79
940.749	7145.36
941.056	7114.63
941.363	7045.25
941.67	7047.29
941.977	6996.89
942.284	6948.76
942.591	6949.21
942.898	6929.55
943.205	6902.66
943.511	6916.67
943.818	6824.24
944.125	6793.73
944.431	6831.47
944.738	6751.7
945.044	6696.79
945.35	6661.76
945.657	6652.04
945.963	6664.7
946.269	6637.13
946.575	6621.76
946.881	6520.07
947.187	6550.12
947.493	6425.16
947.799	6457.25
948.105	6423.57
948.41	6333.86
948.716	6322.79
949.022	6283.01
949.327	6285.05
949.633	6214.09
949.938	6239.85
950.244	6225.39
950.549	6200.98
950.854	6155.78
951.16	6109.91
951.465	6106.29
951.77	6050.7
952.075	6059.29
952.38	6002.79
952.685	5975.45
952.99	5942.23
953.294	5980.87
953.599	5902.23
953.904	5896.58
954.209	5871.05
954.513	5862.91
954.818	5847.54
955.122	5759.86
955.426	5760.54
955.731	5743.14
956.035	5642.8
956.339	5633.99
956.643	5669.24
956.948	5637.83
957.252	5626.08
957.556	5620.21
957.86	5570.26
958.163	5577.49
958.467	5514.22
958.771	5479.19
959.075	5440.32
959.378	5422.47
959.682	5396.93
959.985	5337.95
960.289	5332.3
960.592	5320.55
960.896	5306.09
961.199	5271.29
961.502	5250.27
961.805	5242.36
962.108	5208.24
962.411	5156.04
962.714	5125.3
963.017	5120.33
963.32	5135.92
963.623	5044.4
963.926	5092.08
964.228	5032.42
964.531	5026.1
964.833	5041.46
965.136	4961.01
965.438	4944.74
965.741	4941.58
966.043	4893.9
966.345	4902.03
966.648	4859.32
966.95	4868.81
967.252	4845.99
967.554	4799.21
967.856	4786.33
968.158	4749.04
968.46	4742.94
968.761	4668.14
969.063	4703.85
969.365	4726.22
969.666	4657.29
969.968	4653.23
970.269	4591.53
970.571	4596.73
970.872	4602.83
971.174	4485.55
971.475	4530.97
971.776	4480.8
972.077	4464.08
972.378	4460.91
972.679	4452.1
972.98	4456.17
973.281	4411.65
973.582	4401.93
973.883	4390.86
974.183	4311.31
974.484	4362.61
974.785	4326.45
975.085	4302.95
975.386	4299.79
975.686	4232.67
975.986	4237.19
976.287	4238.55
976.587	4189.73
976.887	4181.15
977.187	4192.9
977.487	4169.62
977.787	4114.48
978.087	4052.56
978.387	4120.13
978.687	4081.04
978.987	3994.03
979.286	4019.12
979.586	3993.81
979.885	4008.5
980.185	3968.27
980.484	3967.59
980.784	3925.33
981.083	3937.99
981.382	3924.66
981.682	3829.29
981.981	3868.84
982.28	3822.51
982.579	3755.62
982.878	3796.3
983.177	3756.75
983.475	3811.44
983.774	3731.44
984.073	3724.89
984.372	3697.32
984.67	3681.95
984.969	3712.68
985.267	3691.67
985.566	3703.65
985.864	3627.26
986.162	3595.85
986.461	3575.97
986.759	3594.27
987.057	3571.9
987.355	3539.36
987.653	3514.5
987.951	3495.97
988.249	3515.63
988.547	3498.68
988.844	3475.63
989.142	3444.9
989.44	3483.99
989.737	3422.97
990.035	3368.29
990.332	3415.74
990.63	3361.06
990.927	3336.2
991.224	3338.46
991.521	3331
991.819	3273.37
992.116	3312.02
992.413	3254.17
992.71	3223.88
993.006	3276.09
993.303	3212.13
993.6	3226.6
993.897	3170.1
994.193	3188.4
994.49	3151.57
994.787	3170.78
995.083	3089.65
995.379	3120.84
995.676	3109.76
995.972	3086.71
996.268	3082.64
996.565	3044.23
996.861	3039.93
997.157	3001.97
997.453	2988.86
997.749	2942.76
998.044	2976.89
998.34	2921.52
998.636	2925.36
998.932	2931.46
999.227	2898.69
999.523	2906.38
999.818	2849.2
1000.114	2836.1
1000.409	2867.06
1000.704	2796.55
1001	2819.38
1001.295	2789.77
1001.59	2787.96
1001.885	2806.27
1002.18	2757.46
1002.475	2771.69
1002.77	2704.8
1003.065	2686.5
1003.359	2679.49
1003.654	2655.99
1003.949	2633.84
1004.243	2653.5
1004.538	2603.56
1004.832	2630
1005.127	2636.1
1005.421	2611.7
1005.715	2576.9
1006.009	2540.96
1006.304	2544.58
1006.598	2555.2
1006.892	2510.68
1007.186	2457.58
1007.48	2423.45
1007.773	2458.71
1008.067	2432.94
1008.361	2410.8
1008.655	2411.48
1008.948	2371.48
1009.242	2406.96
1009.535	2378.26
1009.829	2338.94
1010.122	2319.5
1010.415	2311.59
1010.708	2336.9
1011.001	2296.9
1011.295	2256.45
1011.588	2249.67
1011.881	2284.25
1012.173	2217.58
1012.466	2228.43
1012.759	2186.85
1013.052	2214.19
1013.344	2189.34
1013.637	2181.88
1013.93	2180.97
1014.222	2120.18
1014.514	2169.22
1014.807	2108.43
1015.099	2126.74
1015.391	2067.3
1015.683	2110.92
1015.976	2038.6
1016.268	2038.38
1016.56	2035.44
1016.851	2027.76
1017.143	1997.93
1017.435	1983.24
1017.727	1951.6
1018.018	1952.51
1018.31	1937.59
1018.602	1951.15
1018.893	1923.58
1019.185	1915.22
1019.476	1911.6
1019.767	1893.07
1020.058	1871.15
1020.35	1862.79
1020.641	1841.77
1020.932	1855.78
1021.223	1854.2
1021.514	1816.24
1021.804	1788.67
1022.095	1802.68
1022.386	1764.94
1022.677	1753.64
1022.967	1748.67
1023.258	1736.92
1023.548	1699.63
1023.839	1702.79
1024.129	1705.96
1024.419	1670.25
1024.709	1675.45
1025	1632.51
1025.29	1668.67
1025.58	1614.21
1025.87	1633.19
1026.16	1612.85
1026.449	1602.46
1026.739	1570.59
1027.029	1604.72
1027.319	1560.2
1027.608	1555.68
1027.898	1539.18
1028.187	1559.97
1028.477	1515.91
1028.766	1545.51
1029.055	1512.06
1029.344	1503.93
1029.634	1469.35
1029.923	1467.32
1030.212	1468.68
1030.501	1442.01
1030.79	1427.32
1031.078	1433.87
1031.367	1440.2
1031.656	1407.66
1031.945	1419.41
1032.233	1403.59
1032.522	1391.84
1032.81	1402.46
1033.099	1357.04
1033.387	1361.79
1033.675	1330.37
1033.963	1341
1034.251	1337.83
1034.54	1306.42
1034.828	1308.91
1035.116	1321.11
1035.403	1299.41
1035.691	1254.9
1035.979	1241.34
1036.267	1256.93
1036.554	1234.78
1036.842	1264.39
1037.129	1223.71
1037.417	1222.13
1037.704	1210.83
1037.992	1193.43
1038.279	1195.91
1038.566	1195.01
1038.853	1195.01
1039.14	1195.01
