Data from brown_tile_FLMS001491_078.txt Node
Date: Tue Feb 07 10:37:59 GMT 2017
User: dcchb
Spectrometer: FLMS00149
Trigger mode: 0
Integration Time (sec): 2.000000E-2
Scans to average: 10
Electric dark correction enabled: true
Nonlinearity correction enabled: false
Boxcar width: 0
XAxis mode: Wavelengths
Number of Pixels in Spectrum: 2048
>>>>>Begin Spectral Data<<<<<
341.393	-9.76
341.776	-9.76
342.16	-9.76
342.543	-69.65
342.927	-66.93
343.31	-68.06
343.693	-69.65
344.077	-68.74
344.46	-72.58
344.843	-26.26
345.226	-35.97
345.61	-32.36
345.993	-14.51
346.376	-15.86
346.759	13.52
347.142	26.4
347.525	41.31
347.908	56.23
348.291	69.79
348.674	80.63
349.057	116.11
349.44	114.3
349.823	150.01
350.206	155.43
350.588	185.72
350.971	188.65
351.354	204.02
351.737	201.31
352.119	235.43
352.502	245.83
352.884	258.03
353.267	271.59
353.65	283.11
354.032	302.77
354.414	286.5
354.797	304.81
355.179	315.66
355.562	298.93
355.944	301.19
356.326	314.75
356.709	314.98
357.091	326.28
357.473	323.34
357.855	324.24
358.238	337.8
358.62	336.22
359.002	310.91
359.384	323.34
359.766	315.2
360.148	306.16
360.53	325.15
360.912	321.08
361.294	324.24
361.676	305.03
362.057	310.68
362.439	325.82
362.821	322.66
363.203	312.27
363.584	306.16
363.966	313.85
364.348	310.46
364.729	303.23
365.111	304.81
365.493	309.33
365.874	291.93
366.256	280.85
366.637	297.12
367.019	298.48
367.4	311.14
367.781	308.65
368.163	303
368.544	296.67
368.925	310.91
369.306	318.59
369.688	276.11
370.069	293.96
370.45	287.41
370.831	297.58
371.212	315.88
371.593	308.88
371.974	289.89
372.355	302.1
372.736	296.45
373.117	288.99
373.498	306.39
373.879	309.78
374.26	286.96
374.641	296.45
375.021	299.16
375.402	300.29
375.783	286.05
376.163	307.52
376.544	310.91
376.925	300.97
377.305	310.91
377.686	315.2
378.066	303.45
378.447	340.51
378.827	293.28
379.208	306.16
379.588	312.94
379.968	310.68
380.349	319.05
380.729	312.49
381.109	305.26
381.489	321.76
381.87	319.27
382.25	306.16
382.63	330.12
383.01	331.7
383.39	332.83
383.77	328.76
384.15	332.6
384.53	328.76
384.91	336.9
385.29	319.95
385.67	331.47
386.049	323.79
386.429	328.31
386.809	321.53
387.189	335.09
387.568	318.14
387.948	331.7
388.328	313.85
388.707	340.97
389.087	337.12
389.466	350.23
389.846	352.49
390.225	350.68
390.605	336.67
390.984	365.82
391.363	345.49
391.743	354.75
392.122	338.03
392.501	361.08
392.881	373.73
393.26	375.09
393.639	351.59
394.018	358.82
394.397	354.75
394.776	351.81
395.155	356.11
395.534	367.41
395.913	356.78
396.292	363.11
396.671	351.13
397.05	340.97
397.429	364.24
397.808	373.96
398.186	343.23
398.565	370.57
398.944	369.21
399.323	347.29
399.701	368.08
400.08	385.48
400.458	381.19
400.837	382.09
401.215	390.91
401.594	369.21
401.972	371.93
402.351	393.62
402.729	395.88
403.107	370.8
403.486	372.38
403.864	409.89
404.242	384.58
404.62	388.87
404.999	396.78
405.377	393.17
405.755	382.09
406.133	384.35
406.511	384.13
406.889	407.18
407.267	407.86
407.645	385.94
408.023	424.58
408.401	432.94
408.779	409.44
409.156	416.67
409.534	392.72
409.912	420.06
410.29	427.74
410.667	448.31
411.045	430.68
411.422	422.77
411.8	423
412.178	451.47
412.555	422.77
412.933	431.81
413.31	441.53
413.687	428.87
414.065	453.73
414.442	458.02
414.819	442.43
415.197	463
415.574	452.38
415.951	459.61
416.328	449.89
416.705	478.82
417.082	473.17
417.46	457.12
417.837	481.75
418.214	491.02
418.591	477.46
418.967	468.65
419.344	479.27
419.721	465.03
420.098	464.58
420.475	494.41
420.852	488.53
421.228	491.02
421.605	490.79
421.982	476.56
422.358	495.99
422.735	486.95
423.111	492.6
423.488	520.85
423.864	528.08
424.241	534.63
424.617	534.63
424.994	531.7
425.37	515.65
425.746	522.88
426.123	540.28
426.499	523.11
426.875	524.69
427.251	523.33
427.627	529.21
428.003	541.19
428.379	570.34
428.756	561.52
429.132	559.49
429.507	552.94
429.883	579.83
430.259	567.4
430.635	550
431.011	581.41
431.387	576.89
431.763	578.47
432.138	581.19
432.514	585.25
432.89	581.41
433.265	627.74
433.641	611.92
434.016	590.22
434.392	612.37
434.767	638.36
435.143	628.19
435.518	645.14
435.894	625.7
436.269	632.03
436.644	623.67
437.02	645.14
437.395	646.95
437.77	627.96
438.145	657.79
438.52	653.27
438.895	660.51
439.271	656.89
439.646	675.19
440.021	702.76
440.395	698.92
440.77	686.27
441.145	696.21
441.52	687.4
441.895	716.77
442.27	688.98
442.645	702.76
443.019	746.38
443.394	714.52
443.769	692.14
444.143	686.95
444.518	700.28
444.892	699.37
445.267	714.97
445.641	714.97
446.016	728.3
446.39	721.75
446.764	742.54
447.139	734.4
447.513	725.81
447.887	776.66
448.262	742.31
448.636	758.36
449.01	789.32
449.384	752.25
449.758	784.8
450.132	771.24
450.506	780.5
450.88	789.54
451.254	793.84
451.628	799.71
452.002	810.56
452.376	802.42
452.75	818.24
453.123	819.82
453.497	818.02
453.871	847.17
454.244	862.31
454.618	830.22
454.992	842.87
455.365	860.73
455.739	860.95
456.112	870.67
456.486	863.89
456.859	872.25
457.232	919.71
457.606	882.19
457.979	908.18
458.352	935.98
458.725	937.56
459.099	916.77
459.472	966.71
459.845	940.72
460.218	965.13
460.591	973.49
460.964	948.63
461.337	976.88
461.71	984.11
462.083	1003.77
462.456	997.45
462.829	999.25
463.201	1016.2
463.574	1030.21
463.947	1024.11
464.32	1060.49
464.692	1064.34
465.065	1053.94
465.438	1076.77
465.81	1054.17
466.183	1065.92
466.555	1114.05
466.928	1107.95
467.3	1126.71
467.672	1119.48
468.045	1154.73
468.417	1140.27
468.789	1185.01
469.161	1173.03
469.534	1226.59
469.906	1239.47
470.278	1257.33
470.65	1226.82
471.022	1254.84
471.394	1255.74
471.766	1298.68
472.138	1285.35
472.51	1294.39
472.882	1343.88
473.253	1342.75
473.625	1371.22
473.997	1379.13
474.369	1398.11
474.74	1418.45
475.112	1407.38
475.484	1445.57
475.855	1431.33
476.227	1455.96
476.598	1493.7
476.97	1480.14
477.341	1519.69
477.713	1552.01
478.084	1563.08
478.455	1616.41
478.827	1609.63
479.198	1661.38
479.569	1677.43
479.94	1689.86
480.311	1723.98
480.682	1741.61
481.053	1772.11
481.424	1796.52
481.795	1806.46
482.166	1827.71
482.537	1864.54
482.908	1873.58
483.279	1904.77
483.65	1935.27
484.021	1953.58
484.391	1991.09
484.762	2039.9
485.133	2011.66
485.503	2034.71
485.874	2074.48
486.244	2091.88
486.615	2140.01
486.985	2135.72
487.356	2211.2
487.726	2199.67
488.097	2272.21
488.467	2238.32
488.837	2296.39
489.207	2297.3
489.578	2342.72
489.948	2349.5
490.318	2381.36
490.688	2427.24
491.058	2390.63
491.428	2490.97
491.798	2513.11
492.168	2537.29
492.538	2549.95
492.908	2572.77
493.278	2574.58
493.648	2637.85
494.017	2657.74
494.387	2657.74
494.757	2702.26
495.126	2743.16
495.496	2698.64
495.866	2755.59
496.235	2785.87
496.605	2789.04
496.974	2791.75
497.344	2838.53
497.713	2874.46
498.082	2871.52
498.452	2909.71
498.821	2911.07
499.19	2944.06
499.559	2973.21
499.928	2969.82
500.298	2959.65
500.667	3057.73
501.036	3017.28
501.405	3050.5
501.774	3059.99
502.143	3081.46
502.512	3144.73
502.88	3155.35
503.249	3170.5
503.618	3176.15
503.987	3179.99
504.356	3184.73
504.724	3216.14
505.093	3248.69
505.462	3231.74
505.83	3288.01
506.199	3292.3
506.567	3362.81
506.936	3356.71
507.304	3401.22
507.672	3370.94
508.041	3399.19
508.409	3445.97
508.777	3439.87
509.145	3508.57
509.514	3503.14
509.882	3536.59
510.25	3541.56
510.618	3574.33
510.986	3600.31
511.354	3620.2
511.722	3690.93
512.09	3666.08
512.458	3667.43
512.826	3711.72
513.193	3730.93
513.561	3762.57
513.929	3780.65
514.297	3806.64
514.664	3850.7
515.032	3870.14
515.4	3866.97
515.767	3937.48
516.135	3928.89
516.502	3894.09
516.869	3996.46
517.237	3992.17
517.604	4020.42
517.972	4045.05
518.339	4094.31
518.706	4094.99
519.073	4116.01
519.44	4143.13
519.808	4217.7
520.175	4229.22
520.542	4254.99
520.909	4302.22
521.276	4305.61
521.643	4349
522.009	4386.96
522.376	4410.01
522.743	4445.49
523.11	4507.41
523.477	4549.67
523.843	4605.94
524.21	4631.25
524.577	4648.42
524.943	4654.07
525.31	4689.55
525.676	4727.74
526.043	4730.91
526.409	4783.56
526.776	4865.82
527.142	4869.43
527.508	4929.55
527.874	4931.58
528.241	4987.62
528.607	4980.84
528.973	5069.2
529.339	5090.9
529.705	5133.83
530.071	5141.74
530.437	5243.21
530.803	5237.11
531.169	5269.65
531.535	5254.96
531.901	5309.2
532.267	5342.19
532.632	5386.71
532.998	5409.76
533.364	5472.81
533.73	5480.27
534.095	5496.76
534.461	5540.6
534.826	5550.32
535.192	5633.48
535.557	5606.14
535.923	5615.86
536.288	5732.46
536.653	5713.48
537.019	5750.99
537.384	5748.73
537.749	5825.57
538.114	5859.46
538.479	5814.04
538.845	5867.15
539.21	5868.73
539.575	5936.98
539.94	5979.24
540.305	5991.89
540.67	5987.37
541.034	6034.83
541.399	6074.83
541.764	6134.49
542.129	6139.68
542.494	6196.86
542.858	6256.52
543.223	6301.49
543.587	6297.65
543.952	6353.69
544.316	6339.68
544.681	6353.01
545.045	6369.96
545.41	6466.68
545.774	6472.1
546.138	6513.68
546.503	6573.57
546.867	6590.07
547.231	6680.23
547.595	6640.24
547.959	6729.72
548.324	6715.04
548.688	6787.8
549.052	6848.59
549.416	6871.42
549.779	6947.35
550.143	6949.83
550.507	7026.67
550.871	7005.42
551.235	7091.3
551.599	7128.81
551.962	7177.17
552.326	7207.68
552.689	7276.83
553.053	7354.34
553.417	7348.92
553.78	7486.09
554.143	7421.23
554.507	7505.97
554.87	7559.08
555.234	7666.87
555.597	7726.08
555.96	7721.79
556.323	7786.87
556.686	7809.24
557.05	7932.86
557.413	7968.11
557.776	8044.49
558.139	8106.86
558.502	8196.58
558.865	8172.17
559.228	8284.49
559.59	8380.75
559.953	8380.3
560.316	8517.93
560.679	8553.18
561.041	8668.2
561.404	8736.68
561.767	8815.55
562.129	8793.85
562.492	8866.84
562.854	9018.25
563.217	9014.18
563.579	9090.79
563.941	9246.72
564.304	9269.54
564.666	9410.78
565.028	9440.16
565.39	9575.75
565.753	9668.18
566.115	9671.12
566.477	9751.34
566.839	9906.82
567.201	9895.74
567.563	9971.9
567.925	10130.99
568.287	10175.74
568.648	10220.03
569.01	10297.09
569.372	10445.33
569.734	10414.37
570.095	10539.79
570.457	10659.11
570.819	10736.62
571.18	10809.84
571.542	10973.91
571.903	10925.55
572.265	11027.01
572.626	11171.64
572.987	11237.18
573.349	11310.17
573.71	11365.76
574.071	11482.14
574.432	11523.95
574.794	11596.94
575.155	11735.24
575.516	11752.42
575.877	11851.4
576.238	11919.87
576.599	11956.25
576.96	12073.99
577.32	12083.93
577.681	12196.25
578.042	12302.91
578.403	12327.77
578.763	12454.32
579.124	12511.49
579.485	12568.44
579.845	12668.1
580.206	12691.38
580.566	12691.38
580.927	12709.91
581.287	12952.16
581.648	12909.67
582.008	12983.57
582.368	13022.44
582.728	13060.18
583.089	13101.99
583.449	13149.67
583.809	13183.34
584.169	13274.86
584.529	13306.73
584.889	13482.77
585.249	13415.65
585.609	13471.69
585.969	13551.01
586.329	13627.85
586.688	13650.67
587.048	13666.72
587.408	13745.36
587.768	13729.31
588.127	13764.12
588.487	13829.2
588.846	13889.08
589.206	13902.42
589.565	13936.31
589.925	14061.28
590.284	14099.25
590.643	14090.89
591.003	14206.14
591.362	14246.14
591.721	14251.11
592.08	14285.01
592.44	14325.23
592.799	14399.8
593.158	14377.66
593.517	14477.77
593.876	14607.03
594.235	14544.43
594.593	14538.78
594.952	14635.51
595.311	14589.4
595.67	14594.83
596.029	14787.59
596.387	14812
596.746	14798.44
597.104	14809.51
597.463	14834.37
597.822	14922.05
598.18	14924.08
598.538	15011.99
598.897	14981.03
599.255	14916.63
599.613	15167.69
599.972	15064.65
600.33	15188.71
600.688	15125.89
601.046	15230.29
601.404	15268.03
601.762	15306
602.12	15342.83
602.478	15382.15
602.836	15428.25
603.194	15309.61
603.552	15417.41
603.91	15385.99
604.268	15541.92
604.625	15439.33
604.983	15640
605.341	15487.69
605.698	15691.52
606.056	15685.65
606.413	15663.73
606.771	15661.69
607.128	15742.14
607.485	15751.63
607.843	15843.16
608.2	15881.57
608.557	15953.21
608.914	15894.45
609.272	15951.4
609.629	16029.59
609.986	16086.77
610.343	16075.24
610.7	16157.95
611.057	16169.25
611.414	16169.93
611.771	16199.53
612.127	16282.47
612.484	16183.71
612.841	16338.96
613.198	16322.24
613.554	16364.27
613.911	16420.77
614.267	16420.99
614.624	16390.04
614.98	16488.11
615.337	16502.8
615.693	16535.34
616.05	16523.14
616.406	16620.99
616.762	16631.61
617.118	16512.29
617.475	16602.46
617.831	16670.03
618.187	16664.38
618.543	16713.64
618.899	16815.56
619.255	16883.36
619.611	16829.35
619.967	16931.72
620.323	16902.79
620.678	16810.59
621.034	16749.35
621.39	16937.14
621.746	16794.09
622.101	16961.55
622.457	16855.56
622.812	16886.75
623.168	16964.94
623.523	16980.08
623.879	16995.89
624.234	16827.31
624.589	16910.25
624.945	16975.78
625.3	17037.7
625.655	17006.97
626.01	16961.09
626.365	17097.36
626.72	16960.87
627.075	16976.91
627.43	16965.39
627.785	16998.38
628.14	17011.49
628.495	16971.94
628.85	17045.16
629.205	17103.69
629.559	17069.57
629.914	16882.45
630.269	16965.61
630.623	16974.43
630.978	17051.49
631.332	16894.2
631.687	16990.47
632.041	16882.9
632.396	16969.68
632.75	16968.78
633.104	16858.5
633.459	16869.12
633.813	16880.64
634.167	16926.52
634.521	16894.43
634.875	16901.66
635.229	16846.97
635.583	16804.49
635.937	16833.19
636.291	16809.69
636.645	16813.3
636.999	16772.85
637.352	16845.62
637.706	16724.49
638.06	16793.87
638.413	16803.81
638.767	16762.45
639.121	16756.58
639.474	16699.86
639.828	16711.38
640.181	16710.48
640.534	16773.75
640.888	16689.24
641.241	16535.34
641.594	16630.03
641.947	16689.91
642.301	16638.16
642.654	16654.66
643.007	16632.29
643.36	16634.55
643.713	16639.29
644.066	16606.3
644.419	16566.53
644.771	16452.18
645.124	16326.53
645.477	16277.72
645.83	16122.25
646.182	16169.25
646.535	15938.07
646.888	16092.42
647.24	16014.9
647.593	16146.43
647.945	16105.75
648.298	16045.86
648.65	16008.58
649.002	15927.9
649.355	15958.41
649.707	16021.46
650.059	16060.78
650.411	16247.89
650.763	16260.1
651.115	16350.71
651.467	16372.86
651.819	16387.1
652.171	16316.59
652.523	16364.27
652.875	16327.66
653.227	16301
653.578	16422.58
653.93	16366.53
654.282	16228.91
654.633	16232.3
654.985	16225.29
655.337	16292.86
655.688	16264.61
656.039	16281.79
656.391	16192.98
656.742	16229.36
657.094	16238.4
657.445	16351.84
657.796	16246.76
658.147	16259.64
658.498	16237.72
658.849	16239.76
659.2	16304.39
659.551	16243.15
659.902	16266.87
660.253	16319.08
660.604	16295.8
660.955	16185.52
661.306	16321.34
661.656	16184.39
662.007	16259.19
662.358	16246.31
662.708	16284.5
663.059	16288.12
663.409	16194.11
663.76	16322.24
664.11	16309.59
664.461	16238.17
664.811	16410.83
665.161	16373.09
665.511	16331.51
665.862	16289.7
666.212	16394.78
666.562	16467.55
666.912	16377.83
667.262	16370.15
667.612	16300.09
667.962	16398.85
668.312	16395.23
668.662	16357.04
669.011	16350.71
669.361	16373.54
669.711	16381
670.06	16376.02
670.41	16334.67
670.76	16357.49
671.109	16416.02
671.459	16465.74
671.808	16289.02
672.157	16326.08
672.507	16280.66
672.856	16340.09
673.205	16408.79
673.554	16418.51
673.904	16313.2
674.253	16396.81
674.602	16409.02
674.951	16161.57
675.3	16063.94
675.649	16373.99
675.998	16366.76
676.346	16410.37
676.695	16452.18
677.044	16315.91
677.393	16324.95
677.741	16375.57
678.09	16372.41
678.438	16429.81
678.787	16375.8
679.135	16488.56
679.484	16353.2
679.832	16397.27
680.181	16305.74
680.529	16309.13
680.877	16242.24
681.225	16363.82
681.573	16370.83
681.922	16367.21
682.27	16246.76
682.618	16185.97
682.966	16324.73
683.314	16340.54
683.661	16201.57
684.009	16219.42
684.357	16202.02
684.705	16163.83
685.053	16180.78
685.4	16137.16
685.748	16171.28
686.095	16147.78
686.443	16044.96
686.79	16040.67
687.138	16080.66
687.485	16054
687.832	16003.38
688.18	16058.52
688.527	15963.83
688.874	15946.88
689.221	15931.52
689.568	15899.43
689.915	15847.22
690.262	15885.64
690.609	15933.55
690.956	15783.27
691.303	15834.8
691.65	15808.36
691.997	15759.32
692.344	15746.21
692.69	15663.5
693.037	15712.31
693.383	15601.58
693.73	15657.85
694.077	15539.89
694.423	15536.72
694.769	15592.99
695.116	15498.31
695.462	15492.21
695.808	15448.14
696.155	15499.89
696.501	15402.49
696.847	15419.21
697.193	15226.45
697.539	15412.21
697.885	15199.33
698.231	15266.67
698.577	15197.07
698.923	15190.74
699.269	15109.62
699.614	15048.6
699.96	15064.87
700.306	15061.93
700.651	14947.81
700.997	15100.13
701.342	14918.66
701.688	14948.04
702.033	14934.93
702.379	14944.88
702.724	14919.79
703.069	14987.81
703.415	14774.48
703.76	14805.67
704.105	14826.46
704.45	14779.68
704.795	14698.78
705.14	14627.14
705.485	14738.33
705.83	14630.08
706.175	14617.43
706.52	14614.26
706.865	14550.31
707.209	14515.96
707.554	14586.47
707.899	14601.83
708.243	14531.1
708.588	14461.95
708.932	14401.39
709.277	14356.87
709.621	14420.14
709.966	14411.78
710.31	14403.87
710.654	14226.93
710.998	14329.52
711.342	14382.18
711.687	14315.97
712.031	14265.12
712.375	14216.31
712.719	14294.27
713.063	14298.56
713.407	14334.04
713.75	14240.26
714.094	14270.54
714.438	14174.27
714.782	14167.49
715.125	14141.28
715.469	14161.39
715.812	14091.11
716.156	14057.22
716.499	14162.07
716.843	14102.86
717.186	14065.35
717.53	14090.89
717.873	14138.79
718.216	14023.77
718.559	14020.83
718.902	13893.38
719.246	13985.13
719.589	13913.49
719.932	13885.24
720.275	13870.78
720.617	13898.35
720.96	13901.74
721.303	13833.04
721.646	13868.97
721.989	13814.51
722.331	13869.88
722.674	13794.4
723.016	13880.04
723.359	13853.15
723.701	13810.22
724.044	13766.15
724.386	13734.29
724.729	13722.53
725.071	13671.69
725.413	13681.63
725.755	13644.8
726.097	13680.5
726.439	13564.8
726.782	13626.94
727.124	13612.93
727.465	13566.61
727.807	13518.25
728.149	13542.88
728.491	13592.14
728.833	13628.75
729.175	13507.4
729.516	13560.28
729.858	13564.12
730.199	13544.46
730.541	13579.71
730.882	13477.12
731.224	13495.65
731.565	13489.32
731.906	13581.97
732.248	13471.69
732.589	13440.51
732.93	13332.26
733.271	13417.91
733.612	13494.07
733.953	13466.5
734.294	13412.26
734.635	13403.67
734.976	13378.14
735.317	13297.46
735.658	13295.88
735.999	13310.12
736.339	13297.46
736.68	13407.74
737.021	13252.72
737.361	13331.58
737.702	13291.81
738.042	13277.8
738.383	13174.98
738.723	13198.71
739.063	13190.57
739.404	13227.63
739.744	13187.41
740.084	13091.59
740.424	13046.17
740.764	13152.15
741.104	13185.37
741.444	13060.41
741.784	12967.53
742.124	13056.34
742.464	13160.06
742.804	13113.74
743.143	12988.77
743.483	13020.86
743.823	13013.85
744.162	12945.83
744.502	13010.69
744.841	12973.85
745.181	12978.37
745.52	12899.73
745.86	12916
746.199	12866.06
746.538	12778.38
746.877	12895.21
747.216	12883.69
747.556	12787.42
747.895	12835.1
748.234	12725.95
748.573	12745.16
748.911	12676.01
749.25	12694.99
749.589	12666.97
749.928	12594.65
750.267	12638.5
750.605	12556.69
750.944	12637.37
751.283	12564.6
751.621	12601.21
751.96	12497.48
752.298	12465.84
752.636	12410.93
752.975	12408.44
753.313	12348.56
753.651	12468.1
753.989	12292.74
754.327	12324.15
754.666	12263.59
755.004	12279.86
755.342	12227.88
755.679	12262.23
756.017	12202.35
756.355	12229.24
756.693	12189.24
757.031	12129.81
757.368	12138.4
757.706	12103.14
758.044	12066.53
758.381	12073.99
758.719	11969.13
759.056	11942.47
759.394	11913.99
759.731	11834.9
760.068	11852.3
760.405	11829.7
760.743	11719.2
761.08	11749.93
761.417	11765.07
761.754	11628.58
762.091	11646.88
762.428	11584.06
762.765	11536.38
763.102	11503.84
763.438	11473.78
763.775	11511.97
764.112	11391.52
764.449	11406.89
764.785	11281.02
765.122	11275.37
765.458	11278.76
765.795	11267.68
766.131	11167.8
766.467	11171.87
766.804	11144.07
767.14	11106.11
767.476	11062.94
767.812	11028.14
768.148	11052.32
768.485	10917.86
768.821	10868.82
769.157	10855.49
769.492	10856.62
769.828	10815.72
770.164	10617.98
770.5	10728.04
770.836	10672.67
771.171	10566.01
771.507	10660.24
771.842	10448.5
772.178	10453.92
772.513	10440.81
772.849	10485.78
773.184	10408.5
773.519	10363.98
773.855	10353.36
774.19	10251.67
774.525	10253.47
774.86	10215.28
775.195	10206.02
775.53	10142.06
775.865	10059.35
776.2	10013.03
776.535	9892.35
776.87	9961.96
777.205	9831.34
777.539	9867.95
777.874	9905.91
778.209	9775.29
778.543	9818
778.878	9710.44
779.212	9740.72
779.547	9654.85
779.881	9669.08
780.215	9607.16
780.55	9555.19
780.884	9507.5
781.218	9455.53
781.552	9512.93
781.886	9454.4
782.22	9380.28
782.554	9335.76
782.888	9293.95
783.222	9157.23
783.556	9209.66
783.889	9237
784.223	9116.78
784.557	9031.58
784.89	9024.35
785.224	9037.46
785.557	8975.54
785.891	8988.42
786.224	8964.47
786.558	8937.35
786.891	8806.05
787.224	8768.77
787.557	8733.06
787.891	8728.09
788.224	8717.69
788.557	8730.35
788.89	8696.45
789.223	8694.64
789.556	8545.5
789.888	8619.84
790.221	8502.78
790.554	8525.61
790.887	8465.72
791.219	8396.57
791.552	8388.21
791.884	8364.48
792.217	8401.77
792.549	8328.55
792.882	8279.51
793.214	8184.83
793.546	8209.69
793.879	8223.24
794.211	8077.26
794.543	8175.56
794.875	8096.92
795.207	8093.08
795.539	8018.73
795.871	8091.5
796.203	7971.27
796.535	7945.06
796.867	7929.24
797.198	7946.19
797.53	7938.51
797.862	7795.01
798.193	7838.4
798.525	7776.02
798.856	7743.48
799.188	7668.46
799.519	7680.89
799.85	7621
800.182	7709.13
800.513	7595.69
800.844	7500.33
801.175	7551.17
801.506	7560.44
801.837	7535.8
802.168	7424.62
802.499	7453.32
802.83	7391.85
803.161	7410.38
803.491	7381.68
803.822	7366.09
804.153	7325.41
804.483	7278.18
804.814	7257.39
805.145	7222.82
805.475	7207.68
805.805	7216.27
806.136	7140.11
806.466	7174.01
806.796	7123.61
807.126	7089.49
807.457	7095.82
807.787	7105.08
808.117	7004.07
808.447	6958.64
808.777	7027.57
809.107	6903.05
809.436	6891.53
809.766	6920.45
810.096	6898.99
810.426	6835.71
810.755	6875.94
811.085	6855.82
811.414	6856.73
811.744	6807.46
812.073	6719.55
812.403	6774.47
812.732	6740.12
813.061	6720.68
813.39	6661.93
813.719	6652.21
814.049	6746.9
814.378	6648.82
814.707	6684.08
815.036	6606.79
815.365	6594.13
815.693	6533.8
816.022	6530.18
816.351	6457.87
816.68	6483.18
817.008	6478.88
817.337	6395.27
817.665	6396.4
817.994	6384.65
818.322	6404.08
818.651	6401.82
818.979	6346.23
819.307	6343.07
819.636	6337.42
819.964	6296.74
820.292	6276.63
820.62	6291.32
820.948	6282.5
821.276	6324.31
821.604	6257.42
821.932	6237.31
822.259	6201.38
822.587	6302.62
822.915	6261.71
823.243	6259.91
823.57	6212.45
823.898	6251.54
824.225	6200.25
824.553	6169.06
824.88	6194.6
825.207	6202.51
825.535	6150.98
825.862	6221.71
826.189	6155.73
826.516	6170.19
826.843	6232.79
827.17	6241.83
827.497	6148.95
827.824	6191.89
828.151	6164.09
828.478	6137.42
828.805	6191.89
829.131	6147.14
829.458	6150.76
829.785	6102.4
830.111	6145.33
830.438	6166.35
830.764	6115.73
831.09	6105.33
831.417	6056.75
831.743	6079.35
832.069	6141.72
832.395	6058.1
832.722	6056.3
833.048	6044.09
833.374	6096.29
833.7	6011.32
834.026	5991.89
834.351	6031.21
834.677	5996.18
835.003	5998.67
835.329	6017.88
835.654	6017.2
835.98	5930.2
836.306	5983.76
836.631	5932.23
836.956	5960.48
837.282	6004.32
837.607	5949.86
837.932	5939.91
838.258	5871.22
838.583	5910.99
838.908	5937.65
839.233	5911.44
839.558	5865.57
839.883	5849.3
840.208	5871.44
840.533	5816.53
840.858	5802.97
841.182	5810.65
841.507	5828.96
841.832	5715.29
842.156	5748.06
842.481	5740.6
842.805	5724.33
843.13	5738.34
843.454	5683.65
843.778	5717.77
844.103	5674.38
844.427	5666.02
844.751	5663.09
845.075	5613.14
845.399	5663.76
845.723	5622.41
846.047	5556.42
846.371	5555.52
846.695	5576.08
847.019	5543.09
847.343	5542.64
847.666	5449.53
847.99	5398.46
848.313	5410.21
848.637	5329.31
848.96	5353.49
849.284	5408.4
849.607	5332.92
849.931	5264.9
850.254	5268.29
850.577	5201.18
850.9	5226.71
851.223	5129.99
851.546	5199.82
851.869	5114.4
852.192	5119.6
852.515	5121.18
852.838	5105.81
853.161	5109.2
853.483	5026.49
853.806	5031.46
854.129	5022.42
854.451	5023.78
854.774	5027.17
855.096	4979.71
855.419	4918.7
855.741	4944.46
856.063	4883.67
856.385	4881.64
856.708	4881.64
857.03	4911.01
857.352	4891.58
857.674	4875.08
857.996	4825.37
858.318	4821.53
858.64	4811.58
858.961	4791.92
859.283	4763.67
859.605	4744.24
859.926	4760.96
860.248	4751.02
860.57	4691.13
860.891	4698.37
861.212	4677.8
861.534	4663.34
861.855	4655.43
862.176	4672.15
862.498	4689.78
862.819	4673.73
863.14	4664.02
863.461	4635.32
863.782	4650.23
864.103	4624.24
864.424	4566.62
864.745	4588.99
865.065	4570.46
865.386	4593.74
865.707	4636.9
866.027	4569.78
866.348	4527.3
866.668	4534.98
866.989	4509.44
867.309	4516.9
867.63	4513.51
867.95	4476.45
868.27	4486.62
868.59	4510.8
868.91	4474.87
869.23	4453.4
869.55	4454.76
869.87	4420.86
870.19	4444.59
870.51	4444.81
870.83	4430.58
871.15	4417.47
871.469	4417.47
871.789	4397.81
872.109	4389.9
872.428	4356.45
872.748	4340.63
873.067	4423.57
873.386	4379.05
873.706	4354.42
874.025	4340.41
874.344	4352.39
874.663	4344.02
874.982	4323.91
875.301	4327.98
875.62	4284.14
875.939	4271.71
876.258	4337.24
876.577	4241.65
876.896	4247.3
877.214	4271.71
877.533	4270.13
877.852	4233.29
878.17	4251.6
878.489	4220.64
878.807	4263.57
879.125	4261.54
879.444	4201.88
879.762	4226.06
880.08	4216.57
880.398	4203.24
880.716	4198.49
881.034	4168.44
881.352	4210.92
881.67	4202.78
881.988	4148.78
882.306	4159.85
882.624	4160.53
882.941	4126.18
883.259	4136.57
883.577	4125.5
883.894	4109.68
884.212	4100.64
884.529	4069.46
884.846	4110.58
885.164	4063.81
885.481	4090.92
885.798	4038.72
886.115	4069.46
886.432	4045.73
886.75	4037.37
887.067	4025.84
887.383	3981.77
887.7	3957.82
888.017	3927.31
888.334	3990.36
888.651	3955.33
888.967	3967.54
889.284	3910.36
889.6	3911.04
889.917	3885.51
890.233	3967.99
890.55	3923.24
890.866	3922.79
891.182	3907.88
891.498	3874.21
891.815	3847.99
892.131	3837.82
892.447	3854.55
892.763	3844.38
893.079	3821.55
893.395	3803.7
893.71	3818.61
894.026	3793.98
894.342	3765.51
894.657	3756.7
894.973	3714.66
895.289	3772.51
895.604	3709.46
895.92	3726.41
896.235	3689.35
896.55	3690.71
896.865	3707.66
897.181	3688.67
897.496	3664.04
897.811	3619.07
898.126	3674.44
898.441	3671.5
898.756	3624.5
899.071	3601.22
899.386	3603.25
899.7	3581.33
900.015	3545.18
900.33	3520.54
900.644	3536.14
900.959	3542.46
901.273	3539.07
901.588	3527.1
901.902	3520.09
902.216	3506.98
902.531	3501.11
902.845	3415.01
903.159	3438.96
903.473	3389.92
903.787	3472.63
904.101	3426.53
904.415	3400.09
904.729	3425.86
905.042	3389.02
905.356	3336.14
905.67	3321
905.984	3368
906.297	3331.4
906.611	3332.98
906.924	3332.3
907.237	3310.15
907.551	3317.38
907.864	3259.08
908.177	3291.62
908.491	3277.16
908.804	3225.41
909.117	3195.35
909.43	3197.39
909.743	3203.72
910.056	3167.11
910.368	3239.65
910.681	3186.54
910.994	3169.37
911.307	3144.96
911.619	3121.01
911.932	3133.89
912.244	3126.88
912.557	3119.88
912.869	3108.35
913.181	3104.73
913.494	3123.72
913.806	3046.21
914.118	3072.87
914.43	3017.05
914.742	3029.93
915.054	3010.5
915.366	2998.3
915.678	2985.42
915.99	2920.11
916.302	2944.29
916.613	2952.2
916.925	2986.32
917.236	2901.35
917.548	2952.65
917.859	2928.69
918.171	2898.64
918.482	2883.05
918.794	2862.48
919.105	2926.43
919.416	2831.75
919.727	2856.61
920.038	2842.82
920.349	2817.28
920.66	2793.33
920.971	2787
921.282	2820.67
921.593	2804.4
921.903	2718.98
922.214	2758.53
922.525	2741.35
922.835	2711.75
923.146	2716.5
923.456	2730.06
923.767	2661.81
924.077	2703.62
924.387	2683.28
924.697	2664.52
925.008	2671.53
925.318	2655.26
925.628	2631.98
925.938	2631.53
926.248	2615.71
926.558	2632.2
926.867	2603.73
927.177	2576.61
927.487	2609.15
927.796	2575.03
928.106	2561.02
928.416	2528.93
928.725	2574.13
929.034	2528.03
929.344	2573.68
929.653	2528.7
929.962	2497.97
930.271	2465.88
930.581	2494.58
930.89	2501.81
931.199	2470.18
931.508	2455.94
931.817	2448.71
932.125	2426.56
932.434	2470.4
932.743	2423.17
933.051	2416.84
933.36	2368.03
933.669	2384.3
933.977	2400.57
934.286	2396.73
934.594	2376.17
934.902	2390.18
935.21	2339.11
935.519	2347.01
935.827	2343.85
936.135	2332.1
936.443	2326.45
936.751	2296.17
937.059	2334.13
937.367	2278.09
937.674	2254.14
937.982	2296.17
938.29	2260.01
938.597	2238.32
938.905	2253.68
939.213	2250.75
939.52	2258.66
939.827	2231.99
940.135	2232.89
940.442	2190.63
940.749	2223.18
941.056	2184.08
941.363	2224.53
941.67	2191.09
941.977	2183.18
942.284	2145.66
942.591	2142.05
942.898	2167.36
943.205	2137.98
943.511	2151.09
943.818	2108.6
944.125	2129.62
944.431	2103.41
944.738	2087.59
945.044	2114.25
945.35	2095.27
945.657	2096.63
945.963	2092.78
946.269	2081.71
946.575	2060.02
946.881	2030.86
947.187	2024.09
947.493	2009.17
947.799	2053.69
948.105	2019.34
948.41	2032.45
948.716	2007.14
949.022	1977.98
949.327	1980.7
949.633	1990.41
949.938	1996.74
950.244	1973.24
950.549	1968.72
950.854	1977.08
951.16	1961.26
951.465	1928.27
951.77	1953.35
952.075	1900.02
952.38	1902.28
952.685	1918.33
952.99	1895.05
953.294	1911.77
953.599	1889.63
953.904	1872.68
954.209	1869.06
954.513	1866.35
954.818	1847.37
955.122	1832.45
955.426	1831.77
955.731	1832
956.035	1813.92
956.339	1819.57
956.643	1787.71
956.948	1826.58
957.252	1807.82
957.556	1789.97
957.86	1772.34
958.163	1782.28
958.467	1764.66
958.771	1773.24
959.075	1760.14
959.378	1766.92
959.682	1766.24
959.985	1718.33
960.289	1711.33
960.592	1731.21
960.896	1715.84
961.199	1698.67
961.502	1716.97
961.805	1710.2
962.108	1702.29
962.411	1704.77
962.714	1656.86
963.017	1672.23
963.32	1688.5
963.623	1662.29
963.926	1651.44
964.228	1655.96
964.531	1669.07
964.833	1651.21
965.136	1631.55
965.438	1628.84
965.741	1623.42
966.043	1626.13
966.345	1621.84
966.648	1622.29
966.95	1584.1
967.252	1582.06
967.554	1598.33
967.856	1584.55
968.158	1580.26
968.46	1584.77
968.761	1595.85
969.063	1561.5
969.365	1556.07
969.666	1551.33
969.968	1533.93
970.269	1532.12
970.571	1520.82
970.872	1500.48
971.174	1545.23
971.475	1534.61
971.776	1516.75
972.077	1515.4
972.378	1476.75
972.679	1480.6
972.98	1513.82
973.281	1493.93
973.582	1479.69
973.883	1490.99
974.183	1465.68
974.484	1459.81
974.785	1438.11
975.085	1468.85
975.386	1452.12
975.686	1436.53
975.986	1457.77
976.287	1427.49
976.587	1427.72
976.887	1420.49
977.187	1429.3
977.487	1427.26
977.787	1425.46
978.087	1406.7
978.387	1412.8
978.687	1403.76
978.987	1396.98
979.286	1353.14
979.586	1401.28
979.885	1365.8
980.185	1369.41
980.484	1358.34
980.784	1347.49
981.083	1329.64
981.382	1344.56
981.682	1335.97
981.981	1310.66
982.28	1339.36
982.579	1300.94
982.878	1333.48
983.177	1321.28
983.475	1288.29
983.774	1270.43
984.073	1306.59
984.372	1285.35
984.67	1293.93
984.969	1288.96
985.267	1274.05
985.566	1265.24
985.864	1278.12
986.162	1266.14
986.461	1264.56
986.759	1271.79
987.057	1257.78
987.355	1270.66
987.653	1230.66
987.951	1235.86
988.249	1248.96
988.547	1224.78
988.844	1260.72
989.142	1229.08
989.44	1219.59
989.737	1203.99
990.035	1216.65
990.332	1214.16
990.63	1198.34
990.927	1224.56
991.224	1200.38
991.521	1200.38
991.819	1199.93
992.116	1183.43
992.413	1185.92
992.71	1187.95
993.006	1182.53
993.303	1175.97
993.6	1180.72
993.897	1157.22
994.193	1152.92
994.49	1152.7
994.787	1117.67
995.083	1110.89
995.379	1129.87
995.676	1138.91
995.972	1120.61
996.268	1134.17
996.565	1100.27
996.861	1112.24
997.157	1109.31
997.453	1125.13
997.749	1082.64
998.044	1078.12
998.34	1083.54
998.636	1046.03
998.932	1087.39
999.227	1065.47
999.523	1049.87
999.818	1039.93
1000.114	1076.54
1000.409	1037.67
1000.704	1050.78
1001	1035.86
1001.295	1050.1
1001.59	1024.56
1001.885	1052.81
1002.18	1040.83
1002.475	1021.63
1002.77	1020.72
1003.065	1032.02
1003.359	979.59
1003.654	988.86
1003.949	996.99
1004.243	1015.3
1004.538	1024.11
1004.832	998.35
1005.127	995.64
1005.421	948.41
1005.715	981.17
1006.009	980.95
1006.304	966.71
1006.598	985.02
1006.892	917
1007.186	954.06
1007.48	958.12
1007.773	920.84
1008.067	938.24
1008.361	907.28
1008.655	917.22
1008.948	927.62
1009.242	915.19
1009.535	916.32
1009.829	921.06
1010.122	898.24
1010.415	897.34
1010.708	917
1011.001	891.69
1011.295	885.81
1011.588	898.24
1011.881	901.4
1012.173	904.34
1012.466	882.42
1012.759	869.77
1013.052	874.28
1013.344	858.47
1013.637	864.12
1013.93	877
1014.222	861.18
1014.514	850.1
1014.807	891.01
1015.099	828.86
1015.391	853.49
1015.683	829.99
1015.976	814.4
1016.268	832.7
1016.56	848.07
1016.851	808.52
1017.143	825.7
1017.435	828.64
1017.727	809.65
1018.018	810.11
1018.31	806.04
1018.602	791.8
1018.893	800.84
1019.185	794.51
1019.476	774.4
1019.767	762.42
1020.058	798.81
1020.35	773.72
1020.641	774.63
1020.932	776.89
1021.223	781.41
1021.514	747.28
1021.804	741.41
1022.095	765.14
1022.386	745.7
1022.677	730.33
1022.967	743.89
1023.258	728.07
1023.548	729.2
1023.839	712.26
1024.129	706.15
1024.419	718.81
1024.709	716.77
1025	708.87
1025.29	726.04
1025.58	701.18
1025.87	697.11
1026.16	713.16
1026.449	722.88
1026.739	686.72
1027.029	697.34
1027.319	675.42
1027.608	677.91
1027.898	681.75
1028.187	688.08
1028.477	671.58
1028.766	665.02
1029.055	659.6
1029.344	668.41
1029.634	662.09
1029.923	663.22
1030.212	676.55
1030.501	639.71
1030.79	656.21
1031.078	643.56
1031.367	644.91
1031.656	644.01
1031.945	654.63
1032.233	638.13
1032.522	624.35
1032.81	623.22
1033.099	621.41
1033.387	643.56
1033.675	624.57
1033.963	622.99
1034.251	616.66
1034.54	607.4
1034.828	580.28
1035.116	610.11
1035.403	606.04
1035.691	608.3
1035.979	608.08
1036.267	596.55
1036.554	610.56
1036.842	576.44
1037.129	578.7
1037.417	573.95
1037.704	602.2
1037.992	578.93
1038.279	556.55
1038.566	565.82
1038.853	565.82
1039.14	565.82
