Data from brown_tile_FLMS001491_044.txt Node
Date: Tue Feb 07 10:37:33 GMT 2017
User: dcchb
Spectrometer: FLMS00149
Trigger mode: 0
Integration Time (sec): 2.000000E-2
Scans to average: 10
Electric dark correction enabled: true
Nonlinearity correction enabled: false
Boxcar width: 0
XAxis mode: Wavelengths
Number of Pixels in Spectrum: 2048
>>>>>Begin Spectral Data<<<<<
341.393	5.41
341.776	5.41
342.16	5.41
342.543	-39.79
342.927	-52.67
343.31	-54.48
343.693	-70.52
344.077	-53.8
344.46	-53.35
344.843	-61.48
345.226	-40.01
345.61	-41.37
345.993	-30.75
346.376	-1.14
346.759	-2.5
347.142	46.54
347.525	40.21
347.908	46.99
348.291	73.43
348.674	88.12
349.057	114.11
349.44	112.3
349.823	152.75
350.206	161.11
350.588	200.21
350.971	189.13
351.354	203.14
351.737	218.51
352.119	221.67
352.502	258.06
352.884	241.79
353.267	275.46
353.65	267.55
354.032	277.94
354.414	286.31
354.797	303.03
355.179	307.55
355.562	302.12
355.944	317.72
356.326	323.14
356.709	330.82
357.091	333.31
357.473	323.59
357.855	329.24
358.238	322.46
358.62	331.5
359.002	327.21
359.384	319.53
359.766	323.37
360.148	333.99
360.53	327.43
360.912	309.13
361.294	310.49
361.676	333.31
362.057	331.5
362.439	293.99
362.821	319.3
363.203	329.92
363.584	300.99
363.966	309.36
364.348	312.75
364.729	304.61
365.111	305.97
365.493	306.42
365.874	319.75
366.256	306.42
366.637	307.55
367.019	295.12
367.4	310.03
367.781	321.33
368.163	273.2
368.544	314.33
368.925	312.75
369.306	279.75
369.688	293.99
370.069	298.96
370.45	299.64
370.831	276.59
371.212	303.48
371.593	299.64
371.974	296.48
372.355	288.57
372.736	308
373.117	293.09
373.498	301.9
373.879	293.54
374.26	269.81
374.641	297.61
375.021	290.6
375.402	295.57
375.783	299.41
376.163	319.07
376.544	320.88
376.925	305.51
377.305	304.38
377.686	310.94
378.066	308
378.447	290.15
378.827	320.66
379.208	313.2
379.588	306.64
379.968	316.14
380.349	310.71
380.729	321.11
381.109	318.62
381.489	323.14
381.87	319.98
382.25	319.75
382.63	325.4
383.01	324.05
383.39	324.05
383.77	321.11
384.15	328.34
384.53	315.23
384.91	316.14
385.29	345.74
385.67	315.46
386.049	326.08
386.429	320.43
386.809	338.06
387.189	338.06
387.568	335.8
387.948	330.37
388.328	338.73
388.707	343.03
389.087	345.97
389.466	336.25
389.846	338.96
390.225	358.39
390.605	336.7
390.984	332.86
391.363	341.9
391.743	362.01
392.122	328.11
392.501	327.21
392.881	352.07
393.26	331.95
393.639	345.74
394.018	343.93
394.397	326.08
394.776	371.28
395.155	342.8
395.534	364.72
395.913	353.65
396.292	370.82
396.671	369.69
397.05	381.22
397.429	366.08
397.808	372.86
398.186	370.82
398.565	364.72
398.944	402.46
399.323	382.8
399.701	351.16
400.08	390.71
400.458	390.48
400.837	360.2
401.215	400.2
401.594	382.8
401.972	383.93
402.351	394.78
402.729	378.51
403.107	390.48
403.486	380.09
403.864	383.7
404.242	382.12
404.62	394.78
404.999	382.57
405.377	394.33
405.755	379.18
406.133	394.33
406.511	404.72
406.889	417.83
407.267	401.78
407.645	389.13
408.023	411.5
408.401	389.35
408.779	429.58
409.156	419.18
409.534	420.54
409.912	416.47
410.29	415.34
410.667	416.02
411.045	432.52
411.422	416.7
411.8	440.2
412.178	443.36
412.555	435.23
412.933	435.23
413.31	437.49
413.687	431.84
414.065	426.64
414.442	447.21
414.819	454.44
415.197	445.17
415.574	446.53
415.951	445.17
416.328	473.42
416.705	443.82
417.082	463.25
417.46	471.61
417.837	461.67
418.214	476.58
418.591	451.5
418.967	466.19
419.344	470.48
419.721	478.39
420.098	485.4
420.475	472.06
420.852	472.06
421.228	483.36
421.605	481.56
421.982	494.44
422.358	509.13
422.735	498.96
423.111	510.03
423.488	521.78
423.864	500.31
424.241	502.12
424.617	508.9
424.994	505.06
425.37	519.97
425.746	516.36
426.123	509.35
426.499	504.83
426.875	495.34
427.251	538.5
427.627	548.22
428.003	540.99
428.379	517.94
428.756	526.53
429.132	538.95
429.507	553.64
429.883	558.39
430.259	533.76
430.635	552.06
431.011	555.9
431.387	558.62
431.763	595.9
432.138	575.56
432.514	582.57
432.89	581.67
433.265	575.79
433.641	601.1
434.016	582.57
434.392	622.34
434.767	628.67
435.143	612.4
435.518	610.59
435.894	631.61
436.269	629.35
436.644	644.49
437.02	616.69
437.395	652.17
437.77	640.2
438.145	635.45
438.52	653.53
438.895	639.52
439.271	687.43
439.646	669.12
440.021	652.4
440.395	667.09
440.77	647.88
441.145	669.35
441.52	667.54
441.895	688.56
442.27	677.26
442.645	689.91
443.019	701.66
443.394	701.66
443.769	700.76
444.143	698.27
444.518	691.95
444.892	693.07
445.267	724.26
445.641	711.38
446.016	720.42
446.39	722.68
446.764	709.35
447.139	711.38
447.513	726.52
447.887	734.43
448.262	730.81
448.636	731.49
449.01	731.04
449.384	740.76
449.758	759.06
450.132	775.33
450.506	771.94
450.88	764.71
451.254	733.3
451.628	769.01
452.002	755.9
452.376	789.57
452.75	770.14
453.123	795.22
453.497	789.57
453.871	805.16
454.244	829.34
454.618	828.89
454.992	846.07
455.365	861.21
455.739	847.87
456.112	830.25
456.486	852.62
456.859	865.73
457.232	858.27
457.606	866.63
457.979	886.52
458.352	877.02
458.725	899.62
459.099	917.02
459.472	910.92
459.845	910.7
460.218	916.57
460.591	928.32
460.964	934.65
461.337	925.39
461.71	980.98
462.083	982.11
462.456	970.36
462.829	978.27
463.201	1010.13
463.574	1000.64
463.947	1012.16
464.32	1014.87
464.692	1037.92
465.065	1039.05
465.438	1053.74
465.81	1046.96
466.183	1052.39
466.555	1080.18
466.928	1068.21
467.3	1080.18
467.672	1121.99
468.045	1117.7
468.417	1129.22
468.789	1138.49
469.161	1142.33
469.534	1161.99
469.906	1187.75
470.278	1173.51
470.65	1190.01
471.022	1213.74
471.394	1217.81
471.766	1263
472.138	1259.84
472.51	1235.21
472.882	1265.94
473.253	1295.77
473.625	1310.01
473.997	1322.66
474.369	1345.04
474.74	1357.69
475.112	1328.99
475.484	1384.36
475.855	1412.83
476.227	1414.64
476.598	1432.72
476.97	1441.76
477.341	1469.78
477.713	1503.68
478.084	1507.52
478.455	1552.26
478.827	1547.29
479.198	1576.89
479.569	1591.58
479.94	1622.54
480.311	1629.1
480.682	1655.08
481.053	1735.99
481.424	1727.4
481.795	1735.08
482.166	1737.34
482.537	1798.58
482.908	1845.36
483.279	1859.6
483.65	1871.35
484.021	1915.64
484.391	1887.85
484.762	1926.04
485.133	1936.43
485.503	1968.97
485.874	1982.98
486.244	2013.49
486.615	2051.01
486.985	2063.21
487.356	2075.41
487.726	2112.7
488.097	2172.13
488.467	2146.82
488.837	2201.51
489.207	2213.49
489.578	2269.76
489.948	2265.91
490.318	2303.43
490.688	2275.18
491.058	2321.51
491.428	2379.13
491.798	2374.39
492.168	2413.93
492.538	2479.02
492.908	2488.73
493.278	2467.04
493.648	2484.44
494.017	2528.96
494.387	2554.04
494.757	2557.21
495.126	2599.69
495.496	2583.19
495.866	2629.52
496.235	2683.08
496.605	2652.8
496.974	2716.75
497.344	2697.32
497.713	2676.75
498.082	2759.24
498.452	2774.38
498.821	2817.31
499.19	2785.68
499.559	2824.77
499.928	2824.77
500.298	2880.36
500.667	2875.16
501.036	2880.59
501.405	2956.74
501.774	2942.51
502.143	2926.69
502.512	2968.95
502.88	2960.59
503.249	2978.89
503.618	3024.54
503.987	3032.45
504.356	3026.8
504.724	3090.75
505.093	3101.15
505.462	3116.29
505.83	3151.32
506.199	3149.51
506.567	3208.94
506.936	3202.84
507.304	3188.15
507.672	3256.4
508.041	3251.88
508.409	3290.75
508.777	3335.94
509.145	3332.78
509.514	3352.44
509.882	3346.56
510.25	3362.84
510.618	3417.52
510.986	3417.07
511.354	3471.98
511.722	3461.82
512.09	3531.42
512.458	3514.24
512.826	3548.82
513.193	3591.98
513.561	3559.89
513.929	3638.99
514.297	3616.84
514.664	3710.4
515.032	3727.12
515.4	3735.03
515.767	3740.23
516.135	3791.52
516.502	3758.31
516.869	3809.83
517.237	3831.07
517.604	3862.94
517.972	3907.23
518.339	3932.99
518.706	3935.02
519.073	3960.79
519.44	4022.48
519.808	4015.47
520.175	4069.71
520.542	4058.18
520.909	4099.77
521.276	4155.58
521.643	4185.86
522.009	4177.5
522.376	4253.21
522.743	4243.72
523.11	4330.04
523.477	4318.06
523.843	4372.98
524.21	4420.21
524.577	4422.47
524.943	4492.75
525.31	4503.82
525.676	4564.84
526.043	4573.42
526.409	4595.57
526.776	4646.19
527.142	4704.95
527.508	4681.67
527.874	4715.57
528.241	4805.96
528.607	4818.62
528.973	4825.62
529.339	4853.42
529.705	4905.62
530.071	4958.27
530.437	5015.67
530.803	4971.38
531.169	5026.75
531.535	5052.96
531.901	5028.33
532.267	5122.56
532.632	5094.32
532.998	5212.28
533.364	5219.06
533.73	5276.01
534.095	5292.95
534.461	5347.87
534.826	5321.2
535.192	5377.25
535.557	5439.39
535.923	5391.93
536.288	5442.1
536.653	5471.25
537.019	5440.29
537.384	5551.7
537.749	5573.17
538.114	5610.23
538.479	5620.86
538.845	5667.63
539.21	5610.69
539.575	5671.25
539.94	5704.02
540.305	5790.34
540.67	5775.65
541.034	5826.05
541.399	5824.92
541.764	5856.33
542.129	5913.95
542.494	5878.02
542.858	6002.31
543.223	6014.29
543.587	6054.52
543.952	6024.23
544.316	6112.82
544.681	6092.93
545.045	6207.05
545.41	6181.97
545.774	6209.09
546.138	6225.13
546.503	6264.91
546.867	6306.94
547.231	6369.31
547.595	6391.68
547.959	6461.74
548.324	6520.04
548.688	6478.23
549.052	6538.8
549.416	6623.09
549.779	6637.55
550.143	6630.32
550.507	6739.7
550.871	6800.03
551.235	6772.92
551.599	6860.82
551.962	6910.99
552.326	6960.93
552.689	7024.21
553.053	6944.44
553.417	7072.57
553.78	7110.53
554.143	7120.93
554.507	7251.32
554.87	7242.73
555.234	7322.05
555.597	7377.87
555.96	7438.89
556.323	7510.3
556.686	7508.04
557.05	7619.67
557.413	7697.64
557.776	7714.59
558.139	7796.84
558.502	7759.1
558.865	7848.82
559.228	7927.91
559.59	8009.49
559.953	8036.38
560.316	8166.78
560.679	8240.22
561.041	8352.53
561.404	8342.14
561.767	8437.5
562.129	8440.89
562.492	8593.66
562.854	8628.91
563.217	8689.7
563.579	8734.9
563.941	8862.35
564.304	8840.43
564.666	9031.39
565.028	9053.99
565.39	9119.75
565.753	9214.88
566.115	9271.83
566.477	9361.77
566.839	9416.01
567.201	9534.42
567.563	9575.1
567.925	9711.59
568.287	9720.41
568.648	9739.39
569.01	9840.63
569.372	9984.13
569.734	10039.95
570.095	10186.38
570.457	10252.37
570.819	10250.56
571.18	10282.2
571.542	10432.71
571.903	10536.66
572.265	10588.63
572.626	10670.67
572.987	10792.7
573.349	10880.83
573.71	10867.27
574.071	10958.57
574.432	11098
574.794	11236.98
575.155	11249.63
575.516	11188.17
575.877	11370.31
576.238	11443.75
576.599	11490.31
576.96	11587.48
577.32	11624.54
577.681	11733.24
578.042	11833.12
578.403	11817.98
578.763	11843.06
579.124	11904.08
579.485	12028.37
579.845	12092.1
580.206	12121.48
580.566	12215.71
580.927	12323.73
581.287	12303.39
581.648	12285.09
582.008	12445.08
582.368	12456.61
582.728	12540
583.089	12602.82
583.449	12677.62
583.809	12648.92
584.169	12703.38
584.529	12785.19
584.889	12918.97
585.249	12921.91
585.609	12850.27
585.969	13045.52
586.329	13041.22
586.688	13081.45
587.048	13094.1
587.408	13166.19
587.768	13220.66
588.127	13209.36
588.487	13205.06
588.846	13346.98
589.206	13323.48
589.565	13366.41
589.925	13369.13
590.284	13407.77
590.643	13543.36
591.003	13518.05
591.362	13626.07
591.721	13611.61
592.08	13565.28
592.44	13694.32
592.799	13733.41
593.158	13743.35
593.517	13701.55
593.876	13877.36
594.235	13851.15
594.593	13899.73
594.952	13918.72
595.311	13940.41
595.67	14090.69
596.029	14098.37
596.387	14096.11
596.746	14154.64
597.104	14135.21
597.463	14141.76
597.822	14294.98
598.18	14291.14
598.538	14276.22
598.897	14436.67
599.255	14272.83
599.613	14546.27
599.972	14469.21
600.33	14514.63
600.688	14455.2
601.046	14630.79
601.404	14602.77
601.762	14570
602.12	14716.44
602.478	14708.75
602.836	14767.96
603.194	14751.69
603.552	14715.53
603.91	14765.25
604.268	14865.13
604.625	14873.72
604.983	14932.02
605.341	14893.83
605.698	14968.63
606.056	15004.11
606.413	14964.11
606.771	15041.4
607.128	15131.34
607.485	15059.48
607.843	15128.85
608.2	15214.28
608.557	15232.58
608.914	15228.51
609.272	15308.74
609.629	15348.96
609.986	15425.12
610.343	15303.09
610.7	15466.47
611.057	15437.09
611.414	15503.98
611.771	15516.64
612.127	15596.19
612.484	15631.89
612.841	15629.18
613.198	15546.7
613.554	15607.49
613.911	15658.33
614.267	15714.83
614.624	15620.59
614.98	15745.56
615.337	15790.53
615.693	15762.74
616.05	15807.03
616.406	16012.45
616.762	15834.6
617.118	15803.64
617.475	15939
617.831	15947.82
618.187	16007.25
618.543	16021.03
618.899	16115.27
619.255	16050.64
619.611	16009.28
619.967	16132.22
620.323	16157.53
620.678	16063.52
621.034	16076.4
621.39	16176.06
621.746	16010.41
622.101	16281.82
622.457	16103.29
622.812	16147.13
623.168	16253.57
623.523	16192.55
623.879	16328.82
624.234	16134.93
624.589	16261.48
624.945	16262.16
625.3	16327.69
625.655	16261.25
626.01	16245.43
626.365	16266.68
626.72	16304.64
627.075	16188.71
627.43	16244.3
627.785	16275.72
628.14	16295.6
628.495	16194.14
628.85	16312.33
629.205	16204.53
629.559	16322.72
629.914	16263.06
630.269	16261.48
630.623	16205.66
630.978	16285.66
631.332	16272.55
631.687	16340.57
632.041	16275.72
632.396	16312.78
632.75	16227.81
633.104	16241.82
633.459	16179.9
633.813	16225.77
634.167	16218.54
634.521	16195.04
634.875	16177.19
635.229	16198.88
635.583	16105.55
635.937	16119.79
636.291	16065.78
636.645	16083.86
636.999	16066.91
637.352	16129.73
637.706	15970.41
638.06	16118.66
638.413	16148.04
638.767	16048.6
639.121	16067.81
639.474	15929.51
639.828	15957.31
640.181	15989.85
640.534	16043.41
640.888	15989.4
641.241	15856.07
641.594	15949.4
641.947	15963.41
642.301	15972
642.654	15978.32
643.007	15959.79
643.36	15998.89
643.713	15885.44
644.066	15967.02
644.419	15783.75
644.771	15725.45
645.124	15615.85
645.477	15736.3
645.83	15515.51
646.182	15489.3
646.535	15519.8
646.888	15390.77
647.24	15368.17
647.593	15459.24
647.945	15492.01
648.298	15288.85
648.65	15388.28
649.002	15306.93
649.355	15339.47
649.707	15325.68
650.059	15434.16
650.411	15616.98
650.763	15530.65
651.115	15780.36
651.467	15744.66
651.819	15632.8
652.171	15602.97
652.523	15683.42
652.875	15676.64
653.227	15629.18
653.578	15637.09
653.93	15688.39
654.282	15644.55
654.633	15642.74
654.985	15592.12
655.337	15527.04
655.688	15675.73
656.039	15733.36
656.391	15523.42
656.742	15539.46
657.094	15579.01
657.445	15580.59
657.796	15566.13
658.147	15514.83
658.498	15554.38
658.849	15626.92
659.2	15619.01
659.551	15600.25
659.902	15518.67
660.253	15630.76
660.604	15616.07
660.955	15562.29
661.306	15638.9
661.656	15591.21
662.007	15547.37
662.358	15683.19
662.708	15607.94
663.059	15595.28
663.409	15585.79
663.76	15711.21
664.11	15659.01
664.461	15701.72
664.811	15625.79
665.161	15725.67
665.511	15604.77
665.862	15679.8
666.212	15728.61
666.562	15753.24
666.912	15673.25
667.262	15654.26
667.612	15678.67
667.962	15767.93
668.312	15709.18
668.662	15716.63
669.011	15687.48
669.361	15680.25
669.711	15670.31
670.06	15703.3
670.41	15573.59
670.76	15616.98
671.109	15701.27
671.459	15680.93
671.808	15712.34
672.157	15770.42
672.507	15596.19
672.856	15690.42
673.205	15648.39
673.554	15722.06
673.904	15591.44
674.253	15705.79
674.602	15573.81
674.951	15528.17
675.3	15370.2
675.649	15699.91
675.998	15702.62
676.346	15605.23
676.695	15757.54
677.044	15667.14
677.393	15659.69
677.741	15667.14
678.09	15658.11
678.438	15596.64
678.787	15714.37
679.135	15605.9
679.484	15540.59
679.832	15673.02
680.181	15568.39
680.529	15626.24
680.877	15602.06
681.225	15523.19
681.573	15706.92
681.922	15457.88
682.27	15526.58
682.618	15595.28
682.966	15592.34
683.314	15515.74
683.661	15469.64
684.009	15421.73
684.357	15440.03
684.705	15441.39
685.053	15439.58
685.4	15443.42
685.748	15402.29
686.095	15411.11
686.443	15334.72
686.79	15369.07
687.138	15435.29
687.485	15411.11
687.832	15425.79
688.18	15348.28
688.527	15386.02
688.874	15299.7
689.221	15287.72
689.568	15250.43
689.915	15214.05
690.262	15285.69
690.609	15221.73
690.956	15216.99
691.303	15184.45
691.65	15125.46
691.997	15025.13
692.344	14991.23
692.69	15041.4
693.037	15079.82
693.383	14943.32
693.73	14948.97
694.077	14880.95
694.423	14909.88
694.769	14866.04
695.116	14902.42
695.462	14842.99
695.808	14783.78
696.155	14815.42
696.501	14717.56
696.847	14762.76
697.193	14660.62
697.539	14728.64
697.885	14658.58
698.231	14564.57
698.577	14597.12
698.923	14642.54
699.269	14540.85
699.614	14542.43
699.96	14485.93
700.306	14504.24
700.651	14524.58
700.997	14435.09
701.342	14344.47
701.688	14411.13
702.033	14394.86
702.379	14381.08
702.724	14349.89
703.069	14473.05
703.415	14229.89
703.76	14203.91
704.105	14214.75
704.45	14177.24
704.795	14099.5
705.14	14129.78
705.485	14087.3
705.83	14112.16
706.175	14031.93
706.52	14029
706.865	14017.24
707.209	13985.38
707.554	14013.63
707.899	14008.88
708.243	13972.5
708.588	13865.84
708.932	13890.69
709.277	13837.59
709.621	13898.15
709.966	13853.86
710.31	13870.36
710.654	13745.39
710.998	13772.28
711.342	13810.02
711.687	13785.39
712.031	13737.48
712.375	13626.97
712.719	13686.63
713.063	13725.95
713.407	13702
713.75	13672.85
714.094	13686.63
714.438	13629.23
714.782	13603.02
715.125	13544.26
715.469	13575.67
715.812	13478.5
716.156	13542
716.499	13478.5
716.843	13577.93
717.186	13428.33
717.53	13467.2
717.873	13490.7
718.216	13488.22
718.559	13408.45
718.902	13355.57
719.246	13414.32
719.589	13359.86
719.932	13368.9
720.275	13326.64
720.617	13326.19
720.96	13330.03
721.303	13361.89
721.646	13284.83
721.989	13257.26
722.331	13229.47
722.674	13245.06
723.016	13261.56
723.359	13139.53
723.701	13293.42
724.044	13156.02
724.386	13148.79
724.729	13225.85
725.071	13081
725.413	13118.06
725.755	13235.8
726.097	13137.49
726.439	13029.93
726.782	13042.81
727.124	13092.52
727.465	13085.74
727.807	13047.55
728.149	13116.48
728.491	13032.19
728.833	13027.67
729.175	13039.19
729.516	13008.23
729.858	12907.44
730.199	13015.01
730.541	12977.72
730.882	12978.85
731.224	12930.95
731.565	12821.8
731.906	12872.87
732.248	12927.1
732.589	12921
732.93	12784.51
733.271	12788.12
733.612	12867.22
733.953	12785.41
734.294	12822.93
734.635	12766.66
734.976	12903.6
735.317	12834.9
735.658	12744.74
735.999	12759.88
736.339	12775.92
736.68	12750.16
737.021	12679.2
737.361	12741.57
737.702	12699.31
738.042	12702.93
738.383	12646.21
738.723	12651.63
739.063	12677.39
739.404	12674.45
739.744	12578.19
740.084	12550.16
740.424	12562.37
740.764	12555.59
741.104	12573.44
741.444	12516.04
741.784	12564.85
742.124	12544.74
742.464	12510.39
742.804	12485.08
743.143	12490.96
743.483	12465.87
743.823	12371.64
744.162	12332.54
744.502	12400.56
744.841	12349.72
745.181	12338.64
745.52	12304.3
745.86	12332.09
746.199	12386.55
746.538	12256.39
746.877	12383.84
747.216	12339.55
747.556	12285.76
747.895	12318.98
748.234	12173.45
748.573	12220.23
748.911	12163.28
749.25	12196.28
749.589	12101.36
749.928	12114.92
750.267	12093.68
750.605	12102.94
750.944	12032.21
751.283	12017.07
751.621	12095.94
751.96	11888.94
752.298	12006.45
752.636	11966.22
752.975	11838.09
753.313	11904.53
753.651	11948.82
753.989	11864.31
754.327	11828.83
754.666	11708.83
755.004	11716.97
755.342	11744.76
755.679	11686.01
756.017	11705.67
756.355	11618.66
756.693	11647.59
757.031	11679.9
757.368	11575.5
757.706	11515.84
758.044	11513.81
758.381	11550.19
758.719	11473.58
759.056	11509.29
759.394	11377.09
759.731	11352.91
760.068	11365.79
760.405	11263.87
760.743	11225
761.08	11241.27
761.417	11196.75
761.754	11143.2
762.091	11151.56
762.428	11152.46
762.765	11075.17
763.102	11150.88
763.438	10971.22
763.775	10974.39
764.112	10987.95
764.449	10924.67
764.785	10911.34
765.122	10826.82
765.458	10876.54
765.795	10747.5
766.131	10813.26
766.467	10720.38
766.804	10646.26
767.14	10619.59
767.476	10642.42
767.812	10587.73
768.148	10558.58
768.485	10505.92
768.821	10432.71
769.157	10486.72
769.492	10393.38
769.828	10406.72
770.164	10237
770.5	10224.35
770.836	10251.24
771.171	10200.17
771.507	10244.24
771.842	10169.44
772.178	10061.64
772.513	10040.4
772.849	10065.71
773.184	10001.08
773.519	9997.69
773.855	9937.8
774.19	9856.68
774.525	9864.13
774.86	9893.96
775.195	9790.01
775.53	9742.33
775.865	9720.18
776.2	9656.46
776.535	9523.13
776.87	9602.22
777.205	9550.92
777.539	9526.06
777.874	9535.78
778.209	9417.37
778.543	9337.59
778.878	9406.52
779.212	9316.13
779.547	9386.41
779.881	9296.24
780.215	9246.3
780.55	9247.43
780.884	9161.78
781.218	9095.57
781.552	9200.2
781.886	9084.49
782.22	9016.92
782.554	9003.59
782.888	8905.97
783.222	8885.63
783.556	8833.65
783.889	8762.02
784.223	8782.81
784.557	8714.78
784.89	8755.91
785.224	8710.04
785.557	8662.36
785.891	8688.8
786.224	8610.61
786.558	8619.19
786.891	8498.07
787.224	8455.13
787.557	8463.49
787.891	8426.88
788.224	8455.81
788.557	8479.31
788.89	8439.54
789.223	8354.79
789.556	8291.52
789.888	8196.61
790.221	8267.11
790.554	8162.03
790.887	8165.87
791.219	8160.22
791.552	8025.99
791.884	8062.37
792.217	8025.09
792.549	8005.43
792.882	7968.82
793.214	7961.36
793.546	7963.39
793.879	7906.22
794.211	7799.33
794.543	7862.6
794.875	7822.61
795.207	7865.09
795.539	7745.32
795.871	7738.77
796.203	7696.73
796.535	7613.35
796.867	7570.41
797.198	7631.42
797.53	7566.11
797.862	7523.4
798.193	7575.61
798.525	7463.29
798.856	7442.28
799.188	7454.48
799.519	7384.42
799.85	7283.86
800.182	7341.49
800.513	7283.18
800.844	7247.93
801.175	7270.76
801.506	7289.29
801.837	7238.89
802.168	7242.06
802.499	7137.43
802.83	7163.64
803.161	7176.75
803.491	7146.01
803.822	7129.06
804.153	7065.56
804.483	6991.44
804.814	6964.77
805.145	6959.12
805.475	6963.42
805.805	6927.71
806.136	6866.7
806.466	6944.66
806.796	6871.22
807.126	6844.55
807.457	6843.42
807.787	6769.75
808.117	6731.56
808.447	6753.25
808.777	6740.15
809.107	6743.54
809.436	6671.45
809.766	6702.41
810.096	6653.82
810.426	6641.62
810.755	6618.34
811.085	6609.98
811.414	6544.67
811.744	6540.6
812.073	6584.22
812.403	6573.82
812.732	6449.76
813.061	6456.09
813.39	6399.37
813.719	6412.47
814.049	6473.71
814.378	6387.84
814.707	6348.97
815.036	6401.17
815.365	6321.4
815.693	6274.17
816.022	6287.73
816.351	6273.27
816.68	6230.1
817.008	6214.06
817.337	6187.85
817.665	6194.85
817.994	6162.76
818.322	6175.87
818.651	6105.59
818.979	6090.9
819.307	6127.51
819.636	6064.01
819.964	6075.53
820.292	6064.91
820.62	6067.85
820.948	6046.83
821.276	6057.91
821.604	6024.69
821.932	5974.97
822.259	6038.25
822.587	6006.83
822.915	5985.82
823.243	6006.38
823.57	6031.01
823.898	5979.04
824.225	5977.46
824.553	6022.2
824.88	5992.82
825.207	5998.02
825.535	5955.99
825.862	6021.97
826.189	5919.15
826.516	5959.38
826.843	6000.05
827.17	5991.01
827.497	5953.28
827.824	5929.32
828.151	5993.5
828.478	5917.57
828.805	5913.05
829.131	5909.66
829.458	5866.5
829.785	5889.1
830.111	5928.64
830.438	5953.73
830.764	5937.91
831.09	5873.5
831.417	5904.24
831.743	5888.64
832.069	5924.35
832.395	5826.73
832.722	5884.58
833.048	5829.44
833.374	5822.21
833.7	5818.14
834.026	5820.4
834.351	5836.44
834.677	5825.37
835.003	5805.93
835.329	5808.65
835.654	5795.77
835.98	5751.93
836.306	5772.94
836.631	5725.71
836.956	5754.64
837.282	5787.18
837.607	5678.71
837.932	5728.42
838.258	5714.41
838.583	5688.42
838.908	5628.99
839.233	5659.5
839.558	5690.23
839.883	5636.22
840.208	5635.77
840.533	5628.09
840.858	5591.48
841.182	5666.5
841.507	5586.28
841.832	5548.54
842.156	5524.13
842.481	5604.81
842.805	5518.03
843.13	5523.46
843.454	5496.11
843.778	5428.77
844.103	5482.1
844.427	5434.87
844.751	5509.67
845.075	5437.36
845.399	5366.4
845.723	5375.66
846.047	5389.9
846.371	5369.79
846.695	5366.4
847.019	5334.31
847.343	5281.2
847.666	5239.62
847.99	5250.24
848.313	5248.89
848.637	5193.07
848.96	5141.32
849.284	5156.23
849.607	5113.75
849.931	5113.98
850.254	5073.75
850.577	5059.29
850.9	5036.24
851.223	5046.18
851.546	4970.25
851.869	4924.38
852.192	4961.89
852.515	4942.23
852.838	4895.22
853.161	4900.42
853.483	4899.29
853.806	4868.11
854.129	4861.55
854.451	4865.17
854.774	4835.56
855.096	4801.44
855.419	4774.1
855.741	4738.62
856.063	4707.43
856.385	4785.17
856.708	4713.08
857.03	4729.35
857.352	4744.27
857.674	4728
857.996	4683.03
858.318	4603.48
858.64	4695.23
858.961	4672.41
859.283	4594.22
859.605	4623.37
859.926	4606.87
860.248	4626.08
860.57	4576.36
860.891	4520.32
861.212	4531.17
861.534	4571.62
861.855	4515.35
862.176	4550.15
862.498	4531.84
862.819	4570.26
863.14	4538.4
863.461	4483.03
863.782	4465.41
864.103	4416.59
864.424	4444.61
864.745	4499.53
865.065	4450.94
865.386	4443.71
865.707	4463.15
866.027	4446.87
866.348	4393.54
866.668	4371.62
866.989	4395.58
867.309	4398.97
867.63	4376.59
867.95	4368.23
868.27	4366.2
868.59	4342.02
868.91	4359.42
869.23	4305.18
869.55	4276.71
869.87	4313.09
870.19	4305.64
870.51	4320.55
870.83	4335.47
871.15	4281.91
871.469	4288.01
871.789	4265.18
872.109	4268.57
872.428	4261.34
872.748	4259.31
873.067	4221.57
873.386	4216.6
873.706	4240.33
874.025	4223.6
874.344	4187.22
874.663	4224.28
874.982	4191.97
875.301	4191.06
875.62	4205.53
875.939	4170.72
876.258	4147.45
876.577	4110.16
876.896	4177.96
877.214	4141.57
877.533	4142.02
877.852	4167.56
878.17	4151.74
878.489	4126.21
878.807	4121.01
879.125	4093.89
879.444	4104.96
879.762	4118.52
880.08	4128.92
880.398	4069.26
880.716	4053.89
881.034	4083.04
881.352	4023.16
881.67	4064.96
881.988	3998.3
882.306	4026.55
882.624	4032.87
882.941	3983.84
883.259	3991.75
883.577	3967.11
883.894	3969.82
884.212	3964.85
884.529	3922.14
884.846	3974.34
885.164	3966.89
885.481	3942.71
885.798	3943.61
886.115	3908.81
886.432	3914.69
886.75	3886.44
887.067	3890.51
887.383	3872.65
887.7	3903.84
888.017	3832.65
888.334	3867.68
888.651	3896.83
888.967	3854.35
889.284	3800.11
889.6	3802.15
889.917	3817.96
890.233	3827.46
890.55	3799.21
890.866	3767.8
891.182	3754.46
891.498	3784.29
891.815	3761.02
892.131	3707.01
892.447	3705.2
892.763	3694.13
893.079	3693.9
893.395	3697.74
893.71	3683.96
894.026	3665.43
894.342	3681.47
894.657	3647.8
894.973	3622.26
895.289	3584.75
895.604	3641.92
895.92	3638.53
896.235	3578.65
896.55	3589.5
896.865	3594.92
897.181	3554.69
897.496	3557.86
897.811	3515.15
898.126	3533.45
898.441	3523.74
898.756	3524.64
899.071	3513.34
899.386	3489.84
899.7	3481.25
900.015	3469.95
900.33	3455.71
900.644	3437.64
900.959	3416.62
901.273	3397.64
901.588	3391.76
901.902	3367.58
902.216	3395.83
902.531	3388.6
902.845	3393.57
903.159	3360.8
903.473	3295.04
903.787	3300.24
904.101	3297.75
904.415	3284.65
904.729	3266.79
905.042	3282.39
905.356	3276.28
905.67	3290.97
905.984	3247.81
906.297	3253.91
906.611	3243.52
906.924	3209.62
907.237	3193.57
907.551	3208.49
907.864	3223.63
908.177	3171.43
908.491	3189.05
908.804	3155.61
909.117	3140.02
909.43	3150.41
909.743	3110.41
910.056	3113.12
910.368	3049.62
910.681	3086.01
910.994	3078.32
911.307	3106.57
911.619	3041.49
911.932	3026.12
912.244	3040.36
912.557	3013.24
912.869	2997.42
913.181	2981.6
913.494	2976.86
913.806	2938.67
914.118	2969.85
914.43	2951.32
914.742	2912.68
915.054	2919.46
915.366	2941.15
915.678	2884.88
915.99	2898.44
916.302	2872.68
916.613	2848.95
916.925	2855.05
917.236	2880.59
917.548	2863.41
917.859	2836.75
918.171	2854.37
918.482	2784.09
918.794	2818.44
919.105	2826.58
919.416	2804.88
919.727	2797.2
920.038	2738.67
920.349	2748.39
920.66	2735.51
920.971	2712.91
921.282	2741.16
921.593	2714.94
921.903	2694.15
922.214	2672.91
922.525	2667.49
922.835	2680.14
923.146	2640.82
923.456	2648.96
923.767	2607.6
924.077	2623.19
924.387	2585
924.697	2628.62
925.008	2606.7
925.318	2613.25
925.628	2564.44
925.938	2554.04
926.248	2576.87
926.558	2558.79
926.867	2539.13
927.177	2524.89
927.487	2513.37
927.796	2504.55
928.106	2462.97
928.416	2502.07
928.725	2510.2
929.034	2462.97
929.344	2476.53
929.653	2458.45
929.962	2456.19
930.271	2457.55
930.581	2417.55
930.89	2418.68
931.199	2361.51
931.508	2446.02
931.817	2409.41
932.125	2381.39
932.434	2379.36
932.743	2337.1
933.051	2332.13
933.36	2361.05
933.669	2314.73
933.977	2340.04
934.286	2316.76
934.594	2328.06
934.902	2314.73
935.21	2297.55
935.519	2270.66
935.827	2302.52
936.135	2295.52
936.443	2258.46
936.751	2242.86
937.059	2247.84
937.367	2229.08
937.674	2241.96
937.982	2219.14
938.29	2199.93
938.597	2186.6
938.905	2161.06
939.213	2185.24
939.52	2143.88
939.827	2164.67
940.135	2211.91
940.442	2140.95
940.749	2136.88
941.056	2156.54
941.363	2171.23
941.67	2126.26
941.977	2119.7
942.284	2093.26
942.591	2114.96
942.898	2119.7
943.205	2086.94
943.511	2079.25
943.818	2077.67
944.125	2070.21
944.431	2083.77
944.738	2066.37
945.044	2032.02
945.35	2013.94
945.657	2015.3
945.963	2001.29
946.269	1981.4
946.575	1994.74
946.881	1969.43
947.187	1974.17
947.493	1972.82
947.799	1960.16
948.105	1962.19
948.41	1952.93
948.716	1922.65
949.022	1957.45
949.327	1940.05
949.633	1930.56
949.938	1915.64
950.244	1931.01
950.549	1901.18
950.854	1890.33
951.16	1882.2
951.465	1892.14
951.77	1850.33
952.075	1849.43
952.38	1848.3
952.685	1866.83
952.99	1850.11
953.294	1829.99
953.599	1823.67
953.904	1835.64
954.209	1819.15
954.513	1793.39
954.818	1794.29
955.122	1802.2
955.426	1813.95
955.731	1819.6
956.035	1771.24
956.339	1775.76
956.643	1748.19
956.948	1761.97
957.252	1745.25
957.556	1764.23
957.86	1710.9
958.163	1736.66
958.467	1712.03
958.771	1745.93
959.075	1751.58
959.378	1734.18
959.682	1721.07
959.985	1721.07
960.289	1684.91
960.592	1687.85
960.896	1704.12
961.199	1654.86
961.502	1669.55
961.805	1632.94
962.108	1653.28
962.411	1626.38
962.714	1629.77
963.017	1619.38
963.32	1604.24
963.623	1619.83
963.926	1641.52
964.228	1608.08
964.531	1621.86
964.833	1602.88
965.136	1595.42
965.438	1641.52
965.741	1573.5
966.043	1561.3
966.345	1567.63
966.648	1584.13
966.95	1611.92
967.252	1569.66
967.554	1545.71
967.856	1522.66
968.158	1517.23
968.46	1525.82
968.761	1529.44
969.063	1519.49
969.365	1512.04
969.666	1498.48
969.968	1490.34
970.269	1500.29
970.571	1507.52
970.872	1463.9
971.174	1494.18
971.475	1489.21
971.776	1486.27
972.077	1466.16
972.378	1437.01
972.679	1446.73
972.98	1471.13
973.281	1443.56
973.582	1450.57
973.883	1443.11
974.183	1438.37
974.484	1433.17
974.785	1419.38
975.085	1404.02
975.386	1411.25
975.686	1430.23
975.986	1391.59
976.287	1404.69
976.587	1407.41
976.887	1379.61
977.187	1374.64
977.487	1353.62
977.787	1357.69
978.087	1380.74
978.387	1363.57
978.687	1364.24
978.987	1370.35
979.286	1328.31
979.586	1360.18
979.885	1332.38
980.185	1333.74
980.484	1338.03
980.784	1303
981.083	1310.69
981.382	1339.16
981.682	1326.73
981.981	1317.92
982.28	1304.13
982.579	1303.45
982.878	1315.21
983.177	1286.73
983.475	1265.49
983.774	1297.13
984.073	1272.49
984.372	1243.34
984.67	1272.27
984.969	1273.4
985.267	1266.39
985.566	1238.15
985.864	1245.83
986.162	1220.97
986.461	1226.85
986.759	1243.12
987.057	1231.82
987.355	1244.47
987.653	1229.11
987.951	1233.4
988.249	1218.03
988.547	1193.85
988.844	1167.86
989.142	1204.02
989.44	1194.3
989.737	1180.97
990.035	1191.59
990.332	1185.72
990.63	1150.24
990.927	1177.13
991.224	1161.31
991.521	1158.15
991.819	1168.99
992.116	1134.42
992.413	1157.7
992.71	1138.49
993.006	1129.67
993.303	1145.94
993.6	1137.36
993.897	1112.95
994.193	1116.11
994.49	1110.47
994.787	1112.72
995.083	1115.21
995.379	1107.53
995.676	1095.32
995.972	1079.05
996.268	1107.53
996.565	1097.36
996.861	1060.07
997.157	1070.92
997.453	1093.97
997.749	1074.53
998.044	1077.47
998.34	1044.7
998.636	1046.74
998.932	1052.39
999.227	1046.29
999.523	1039.96
999.818	1061.43
1000.114	1041.31
1000.409	1027.08
1000.704	1029.34
1001	1016.91
1001.295	994.76
1001.59	999.96
1001.885	996.12
1002.18	1005.61
1002.475	1011.71
1002.77	1008.55
1003.065	1020.07
1003.359	990.02
1003.654	984.14
1003.949	988.89
1004.243	971.49
1004.538	940.98
1004.832	942.11
1005.127	989.79
1005.421	947.76
1005.715	980.3
1006.009	934.42
1006.304	946.18
1006.598	954.31
1006.892	918.38
1007.186	928.55
1007.48	906.4
1007.773	908.89
1008.067	897.82
1008.361	910.92
1008.655	917.7
1008.948	899.17
1009.242	879.96
1009.535	882.9
1009.829	931.26
1010.122	893.3
1010.415	914.09
1010.708	888.78
1011.001	880.87
1011.295	872.28
1011.588	880.41
1011.881	868.44
1012.173	873.18
1012.466	865.95
1012.759	852.39
1013.052	846.97
1013.344	837.93
1013.637	828.66
1013.93	848.55
1014.222	813.3
1014.514	818.27
1014.807	833.64
1015.099	833.86
1015.391	834.09
1015.683	831.6
1015.976	797.93
1016.268	810.59
1016.56	837.03
1016.851	812.85
1017.143	783.92
1017.435	799.96
1017.727	791.38
1018.018	776.46
1018.31	761.55
1018.602	784.82
1018.893	772.17
1019.185	778.27
1019.476	792.51
1019.767	775.33
1020.058	748.89
1020.35	761.1
1020.641	751.6
1020.932	763.13
1021.223	755.45
1021.514	763.81
1021.804	725.62
1022.095	747.99
1022.386	727.65
1022.677	728.78
1022.967	750.02
1023.258	745.95
1023.548	723.81
1023.839	705.73
1024.129	721.32
1024.419	724.03
1024.709	715.67
1025	735.79
1025.29	713.19
1025.58	688.56
1025.87	692.62
1026.16	689.46
1026.449	673.64
1026.739	687.88
1027.029	700.98
1027.319	691.04
1027.608	658.95
1027.898	676.35
1028.187	668.67
1028.477	677.48
1028.766	675.45
1029.055	661.89
1029.344	642.68
1029.634	672.06
1029.923	630.7
1030.212	660.99
1030.501	618.73
1030.79	640.42
1031.078	650.14
1031.367	627.09
1031.656	631.61
1031.945	626.64
1032.233	651.27
1032.522	609.69
1032.81	618.05
1033.099	614.21
1033.387	632.29
1033.675	616.92
1033.963	624.38
1034.251	623.7
1034.54	600.2
1034.828	609.46
1035.116	596.81
1035.403	609.46
1035.691	585.96
1035.979	559.52
1036.267	610.37
1036.554	565.85
1036.842	585.06
1037.129	573.98
1037.417	572.85
1037.704	588.9
1037.992	585.73
1038.279	573.76
1038.566	563.59
1038.853	563.59
1039.14	563.59
