Data from brown_tile_FLMS001491_080.txt Node
Date: Tue Feb 07 10:37:59 GMT 2017
User: dcchb
Spectrometer: FLMS00149
Trigger mode: 0
Integration Time (sec): 2.000000E-2
Scans to average: 10
Electric dark correction enabled: true
Nonlinearity correction enabled: false
Boxcar width: 0
XAxis mode: Wavelengths
Number of Pixels in Spectrum: 2048
>>>>>Begin Spectral Data<<<<<
341.393	-15.68
341.776	-15.68
342.16	-15.68
342.543	-62.46
342.927	-59.74
343.31	-64.72
343.693	-75.79
344.077	-31.5
344.46	-39.86
344.843	-47.54
345.226	-44.6
345.61	-18.84
345.993	-20.88
346.376	-21.78
346.759	1.27
347.142	27.71
347.525	34.49
347.908	68.84
348.291	81.27
348.674	73.13
349.057	78.78
349.44	122.17
349.823	130.99
350.206	157.88
350.588	206.69
350.971	206.24
351.354	200.81
351.737	220.7
352.119	248.27
352.502	253.69
352.884	257.08
353.267	252.34
353.65	284.2
354.032	283.52
354.414	293.69
354.797	275.84
355.179	289.85
355.562	315.61
355.944	326.46
356.326	332.34
356.709	325.56
357.091	313.81
357.473	335.73
357.855	318.78
358.238	313.58
358.62	322.17
359.002	311.32
359.384	334.6
359.766	326.69
360.148	326.69
360.53	323.07
360.912	319.91
361.294	319.68
361.676	321.71
362.057	319.23
362.439	327.82
362.821	301.6
363.203	330.98
363.584	297.76
363.966	299.79
364.348	305.44
364.729	304.09
365.111	286.01
365.493	306.8
365.874	304.31
366.256	292.79
366.637	287.14
367.019	286.91
367.4	303.86
367.781	290.3
368.163	306.8
368.544	289.17
368.925	296.63
369.306	298.21
369.688	293.92
370.069	296.4
370.45	297.53
370.831	288.27
371.212	296.63
371.593	297.76
371.974	297.99
372.355	292.79
372.736	292.11
373.117	306.35
373.498	300.7
373.879	303.18
374.26	289.85
374.641	307.25
375.021	306.57
375.402	289.85
375.783	323.3
376.163	322.62
376.544	306.35
376.925	303.86
377.305	296.4
377.686	325.78
378.066	302.05
378.447	316.07
378.827	326.01
379.208	323.75
379.588	302.05
379.968	312
380.349	331.43
380.729	303.86
381.109	312.9
381.489	322.84
381.87	337.76
382.25	294.82
382.63	303.41
383.01	320.13
383.39	343.64
383.77	322.17
384.15	348.61
384.53	321.94
384.91	338.21
385.29	335.27
385.67	307.25
386.049	335.27
386.429	351.09
386.809	342.28
387.189	324.2
387.568	346.57
387.948	334.82
388.328	343.41
388.707	324.88
389.087	334.82
389.466	336.63
389.846	327.59
390.225	349.28
390.605	356.52
390.984	349.74
391.363	328.95
391.743	330.3
392.122	345.44
392.501	367.36
392.881	363.75
393.26	346.8
393.639	359.91
394.018	342.73
394.397	377.08
394.776	363.3
395.155	384.76
395.534	364.43
395.913	356.52
396.292	346.8
396.671	363.97
397.05	349.28
397.429	392.22
397.808	376.85
398.186	372.79
398.565	365.56
398.944	370.08
399.323	386.35
399.701	370.53
400.08	375.05
400.458	381.15
400.837	402.62
401.215	377.31
401.594	356.52
401.972	363.97
402.351	386.57
402.729	384.99
403.107	402.39
403.486	397.19
403.864	368.72
404.242	388.15
404.62	369.17
404.999	386.35
405.377	394.03
405.755	402.84
406.133	385.22
406.511	399.45
406.889	402.62
407.267	415.27
407.645	389.96
408.023	429.73
408.401	399.45
408.779	406.46
409.156	427.02
409.534	394.48
409.912	429.06
410.29	435.38
410.667	412.79
411.045	414.82
411.422	426.57
411.8	426.34
412.178	445.55
412.555	451.2
412.933	429.28
413.31	436.06
413.687	456.85
414.065	446.23
414.442	441.26
414.819	444.2
415.197	452.56
415.574	466.57
415.951	468.15
416.328	471.77
416.705	458.21
417.082	451.2
417.46	450.07
417.837	468.15
418.214	453.24
418.591	481.03
418.967	473.8
419.344	463.41
419.721	471.54
420.098	489.39
420.475	484.87
420.852	486
421.228	495.04
421.605	479.45
421.982	495.95
422.358	490.98
422.735	502.73
423.111	506.57
423.488	496.63
423.864	503.86
424.241	504.31
424.617	535.27
424.994	527.58
425.37	523.52
425.746	535.95
426.123	551.77
426.499	525.33
426.875	516.74
427.251	532.56
427.627	541.6
428.003	550.86
428.379	538.88
428.756	539.34
429.132	543.18
429.507	571.88
429.883	566.23
430.259	567.13
430.635	586.57
431.011	577.75
431.387	595.83
431.763	579.11
432.138	608.03
432.514	597.41
432.89	591.31
433.265	626.11
433.641	610.75
434.016	608.94
434.392	631.54
434.767	621.37
435.143	637.41
435.518	639.67
435.894	645.32
436.269	655.04
436.644	627.7
437.02	665.21
437.395	641.25
437.77	657.98
438.145	653.23
438.52	652.55
438.895	653.23
439.271	675.38
439.646	696.17
440.021	676.73
440.395	697.75
440.77	672.21
441.145	683.29
441.52	700.46
441.895	699.33
442.27	717.64
442.645	709.05
443.019	726
443.394	718.54
443.769	697.75
444.143	704.53
444.518	716.73
444.892	730.97
445.267	725.32
445.641	725.55
446.016	736.17
446.39	742.27
446.764	737.52
447.139	731.87
447.513	738.88
447.887	749.5
448.262	739.78
448.636	781.59
449.01	766.45
449.384	764.41
449.758	795.37
450.132	782.72
450.506	775.49
450.88	756.96
451.254	780.46
451.628	808.48
452.002	787.69
452.376	819.55
452.75	794.47
453.123	810.97
453.497	822.94
453.871	822.27
454.244	829.05
454.618	840.8
454.992	869.27
455.365	873.79
455.739	856.62
456.112	860.23
456.486	889.16
456.859	903.17
457.232	894.58
457.606	896.84
457.979	922.15
458.352	902.04
458.725	927.12
459.099	929.61
459.472	932.32
459.845	947.69
460.218	950.4
460.591	970.06
460.964	985.65
461.337	988.14
461.71	982.26
462.083	1027.01
462.456	1003.73
462.829	1012.54
463.201	995.14
463.574	1030.85
463.947	1046.67
464.32	1044.86
464.692	1056.61
465.065	1060.68
465.438	1061.58
465.81	1104.97
466.183	1103.62
466.555	1091.19
466.928	1116.72
467.3	1137.29
467.672	1134.35
468.045	1144.52
468.417	1168.25
468.789	1155.37
469.161	1157.4
469.534	1213.22
469.906	1236.04
470.278	1210.96
470.65	1239.88
471.022	1260.9
471.394	1294.57
471.766	1277.17
472.138	1273.78
472.51	1312.88
472.882	1332.31
473.253	1342.7
473.625	1358.07
473.997	1366.66
474.369	1395.13
474.74	1414.34
475.112	1429.03
475.484	1454.11
475.855	1486.66
476.227	1465.41
476.598	1512.42
476.97	1519.65
477.341	1531.4
477.713	1573.89
478.084	1570.72
478.455	1621.34
478.827	1614.79
479.198	1672.64
479.569	1683.03
479.94	1669.7
480.311	1723.49
480.682	1743.37
481.053	1797.38
481.424	1807.55
481.795	1800.55
482.166	1812.3
482.537	1857.49
482.908	1902.92
483.279	1941.56
483.65	1910.15
484.021	1962.8
484.391	1996.02
484.762	1993.08
485.133	2022.91
485.503	2078.96
485.874	2118.28
486.244	2103.81
486.615	2149.92
486.985	2168.67
487.356	2190.37
487.726	2193.98
488.097	2263.58
488.467	2258.61
488.837	2327.76
489.207	2319.18
489.578	2374.99
489.948	2400.53
490.318	2423.81
490.688	2424.03
491.058	2444.37
491.428	2469.45
491.798	2518.04
492.168	2546.97
492.538	2565.05
492.908	2570.47
493.278	2609.56
493.648	2606.63
494.017	2665.16
494.387	2685.04
494.757	2660.64
495.126	2730.46
495.496	2735.44
495.866	2711.03
496.235	2780.41
496.605	2835.55
496.974	2851.82
497.344	2851.82
497.713	2861.08
498.082	2909.67
498.452	2933.85
498.821	2928.88
499.19	2911.03
499.559	2987.86
499.928	3001.42
500.298	2981.98
500.667	3041.42
501.036	3034.41
501.405	3052.72
501.774	3066.05
502.143	3119.61
502.512	3113.51
502.88	3149.44
503.249	3153.96
503.618	3199.61
503.987	3140.85
504.356	3224.01
504.724	3184.24
505.093	3283.22
505.462	3247.74
505.83	3277.8
506.199	3329.55
506.567	3324.8
506.936	3358.47
507.304	3409.54
507.672	3401.63
508.041	3445.47
508.409	3448.41
508.777	3461.29
509.145	3516.21
509.514	3502.42
509.882	3566.15
510.25	3547.62
510.618	3534.51
510.986	3610.44
511.354	3610.67
511.722	3644.34
512.09	3706.03
512.458	3722.3
512.826	3678.46
513.193	3764.79
513.561	3744.68
513.929	3805.46
514.297	3784.9
514.664	3867.16
515.032	3845.46
515.4	3899.93
515.767	3889.53
516.135	3943.99
516.502	3918.46
516.869	3976.76
517.237	4056.98
517.604	4004.56
517.972	4074.38
518.339	4099.47
518.706	4109.64
519.073	4169.3
519.44	4177.66
519.808	4228.5
520.175	4203.42
520.542	4308.95
520.909	4273.48
521.276	4294.94
521.643	4350.31
522.009	4366.35
522.376	4437.54
522.743	4429.18
523.11	4497.65
523.477	4546.46
523.843	4572.22
524.21	4623.97
524.577	4657.42
524.943	4664.2
525.31	4679.11
525.676	4762.05
526.043	4771.77
526.409	4784.87
526.776	4914.81
527.142	4838.66
527.508	4918.66
527.874	4979.67
528.241	4955.49
528.607	4997.98
528.973	5043.17
529.339	5044.53
529.705	5107.8
530.071	5120.46
530.437	5194.58
530.803	5251.53
531.169	5262.83
531.535	5291.53
531.901	5300.79
532.267	5377.17
532.632	5381.69
532.998	5403.39
533.364	5416.27
533.73	5467.57
534.095	5504.86
534.461	5494.01
534.826	5538.75
535.192	5642.25
535.557	5633.67
535.923	5670.95
536.288	5668.69
536.653	5725.19
537.019	5680.9
537.384	5738.52
537.749	5822.59
538.114	5803.6
538.479	5885.86
538.845	5809.93
539.21	5887.67
539.575	5960.66
539.94	5945.52
540.305	5946.88
540.67	6033.43
541.034	6068.46
541.399	6089.92
541.764	6073.43
542.129	6193.42
542.494	6203.14
542.858	6214.22
543.223	6256.47
543.587	6302.57
543.952	6290.15
544.316	6333.08
544.681	6376.47
545.045	6472.97
545.41	6450.59
545.774	6492.17
546.138	6532.4
546.503	6540.76
546.867	6604.04
547.231	6692.17
547.595	6700.53
547.959	6731.04
548.324	6760.42
548.688	6796.12
549.052	6841.77
549.416	6842
549.779	6880.86
550.143	6905.72
550.507	7014.19
550.871	7046.74
551.235	7093.74
551.599	7093.51
551.962	7137.35
552.326	7241.53
552.689	7307.07
553.053	7290.8
553.417	7318.59
553.78	7463.67
554.143	7401.98
554.507	7521.3
554.87	7547.97
555.234	7637.45
555.597	7666.38
555.96	7725.36
556.323	7817.56
556.686	7871.57
557.05	7887.62
557.413	7928.07
557.776	7999.48
558.139	8092.13
558.502	8145.24
558.865	8197.67
559.228	8292.13
559.59	8331.67
559.953	8417.55
560.316	8540.71
560.679	8526.47
561.041	8657.99
561.404	8755.62
561.767	8852.34
562.129	8829.51
562.492	8966.23
562.854	9009.17
563.217	9092.11
563.579	9207.36
563.941	9202.61
564.304	9256.4
564.666	9357.86
565.028	9469.95
565.39	9533.45
565.753	9624.07
566.115	9690.28
566.477	9744.52
566.839	9848.92
567.201	9951.52
567.563	9988.58
567.925	10048.24
568.287	10173.66
568.648	10262.24
569.01	10375.24
569.372	10464.5
569.734	10520.77
570.095	10594.66
570.457	10687.54
570.819	10793.76
571.18	10824.94
571.542	10909.23
571.903	10918.05
572.265	10971.15
572.626	11150.36
572.987	11204.82
573.349	11252.95
573.71	11397.58
574.071	11419.5
574.432	11542.21
574.794	11673.96
575.155	11702.66
575.516	11683.68
575.877	11746.5
576.238	11916.21
576.599	12035.53
576.96	12021.97
577.32	12076.66
577.681	12233.72
578.042	12302.19
578.403	12319.82
578.763	12446.14
579.124	12506.93
579.485	12579.7
579.845	12709.19
580.206	12619.02
580.566	12728.85
580.927	12776.75
581.287	12943.53
581.648	12915.73
582.008	13085.22
582.368	13015.17
582.728	13084.09
583.089	13183.07
583.449	13162.51
583.809	13156.41
584.169	13237.31
584.529	13262.17
584.889	13522.05
585.249	13438.21
585.609	13451.54
585.969	13529.5
586.329	13617.64
586.688	13730.63
587.048	13773.11
587.408	13728.37
587.768	13748.71
588.127	13738.76
588.487	13825.54
588.846	13981.69
589.206	13938.53
589.565	13938.76
589.925	14109.6
590.284	14139.88
590.643	14165.19
591.003	14185.98
591.362	14247.22
591.721	14202.48
592.08	14273.44
592.44	14360.89
592.799	14376.49
593.158	14442.25
593.517	14457.39
593.876	14572.41
594.235	14480.89
594.593	14509.59
594.952	14569.93
595.311	14626.42
595.67	14656.25
596.029	14761.56
596.387	14758.85
596.746	14867.55
597.104	14901.67
597.463	14820.09
597.822	14913.42
598.18	14903.25
598.538	14863.71
598.897	15011.05
599.255	14916.36
599.613	15129.69
599.972	15078.16
600.33	15152.29
600.688	15078.84
601.046	15172.17
601.404	15256.69
601.762	15259.4
602.12	15354.77
602.478	15348.89
602.836	15452.39
603.194	15357.25
603.552	15372.39
603.91	15406.97
604.268	15547.53
604.625	15545.5
604.983	15499.62
605.341	15497.13
605.698	15636.79
606.056	15616.91
606.413	15691.03
606.771	15776.22
607.128	15719.73
607.485	15756.56
607.843	15749.78
608.2	15857.13
608.557	15953.62
608.914	15889.21
609.272	15998.59
609.629	16045.82
609.986	16060.96
610.343	16091.7
610.7	16164.91
611.057	16142.99
611.414	16155.87
611.771	16284.91
612.127	16272.93
612.484	16384.12
612.841	16314.51
613.198	16237.91
613.554	16322.2
613.911	16458.01
614.267	16428.86
614.624	16410.56
614.98	16430.9
615.337	16526.49
615.693	16528.52
616.05	16491.23
616.406	16572.13
616.762	16551.12
617.118	16601.51
617.475	16683.77
617.831	16691
618.187	16659.36
618.543	16636.54
618.899	16879.7
619.255	16797.67
619.611	16905.46
619.967	16875.18
620.323	16829.3
620.678	16834.95
621.034	16735.97
621.39	16854.16
621.746	16801.51
622.101	16926.25
622.457	16889.19
622.812	16833.82
623.168	16964.89
623.523	17094.61
623.879	17013.93
624.234	16919.24
624.589	16952.24
624.945	16973.93
625.3	17096.41
625.655	17006.7
626.01	17048.05
626.365	17097.09
626.72	16977.32
627.075	17044.44
627.43	17112.23
627.785	16937.32
628.14	16991.11
628.495	17039.02
628.85	16963.09
629.205	16918.34
629.559	17090.54
629.914	17004.21
630.269	16977.77
630.623	16955.63
630.978	16881.05
631.332	17041.95
631.687	17114.72
632.041	16985.23
632.396	17030.88
632.75	16958.79
633.104	16935.52
633.459	16875.18
633.813	16932.35
634.167	16862.97
634.521	16844.67
634.875	16865.46
635.229	16894.16
635.583	16824.56
635.937	16843.31
636.291	16770.55
636.645	16892.13
636.999	16724
637.352	16825.69
637.706	16767.38
638.06	16839.02
638.413	16734.62
638.767	16699.82
639.121	16862.3
639.474	16651.68
639.828	16735.97
640.181	16668.18
640.534	16667.95
640.888	16650.32
641.241	16680.38
641.594	16649.19
641.947	16619.82
642.301	16626.14
642.654	16657.1
643.007	16549.08
643.36	16572.36
643.713	16543.66
644.066	16680.83
644.419	16456.66
644.771	16430.67
645.124	16258.47
645.477	16244.46
645.83	16165.14
646.182	16102.77
646.535	16102.77
646.888	16026.84
647.24	16020.51
647.593	16185.7
647.945	16034.97
648.298	15906.39
648.65	15926.05
649.002	15911.36
649.355	16090.11
649.707	15905.71
650.059	16093.05
650.411	16198.59
650.763	16293.95
651.115	16415.3
651.467	16428.41
651.819	16349.54
652.171	16307.74
652.523	16194.74
652.875	16370.78
653.227	16243.78
653.578	16392.48
653.93	16334.18
654.282	16233.84
654.633	16231.8
654.985	16268.41
655.337	16329.2
655.688	16239.94
656.039	16258.24
656.391	16191.81
656.742	16147.51
657.094	16281.75
657.445	16295.53
657.796	16336.66
658.147	16225.48
658.498	16325.36
658.849	16207.4
659.2	16235.19
659.551	16222.77
659.902	16358.81
660.253	16280.17
660.604	16295.98
660.955	16173.73
661.306	16305.25
661.656	16230.9
662.007	16341.18
662.358	16270.9
662.708	16343.21
663.059	16322.65
663.409	16224.12
663.76	16322.42
664.11	16272.48
664.461	16316.55
664.811	16326.27
665.161	16308.41
665.511	16208.98
665.862	16354.06
666.212	16382.76
666.562	16416.66
666.912	16364.91
667.262	16312.71
667.612	16330.33
667.962	16365.36
668.312	16422.53
668.662	16383.44
669.011	16414.62
669.361	16355.64
669.711	16323.78
670.06	16385.02
670.41	16329.66
670.76	16347.51
671.109	16436.32
671.459	16370.56
671.808	16363.33
672.157	16398.81
672.507	16365.81
672.856	16339.6
673.205	16277
673.554	16403.33
673.904	16375.3
674.253	16459.82
674.602	16319.94
674.951	16188.42
675.3	16166.72
675.649	16377.79
675.998	16319.03
676.346	16358.58
676.695	16453.27
677.044	16395.87
677.393	16357.9
677.741	16376.66
678.09	16372.14
678.438	16369.88
678.787	16456.21
679.135	16400.16
679.484	16320.39
679.832	16434.74
680.181	16233.39
680.529	16354.51
680.877	16261.41
681.225	16266.15
681.573	16344.34
681.922	16242.43
682.27	16221.64
682.618	16307.51
682.966	16245.59
683.314	16330.33
683.661	16229.09
684.009	16155.65
684.357	16102.99
684.705	16160.39
685.053	16239.71
685.4	16132.6
685.748	16031.81
686.095	16126.72
686.443	16085.82
686.79	16013.96
687.138	16043.56
687.485	16147.51
687.832	15897.35
688.18	15999.27
688.527	15977.12
688.874	16025.03
689.221	15990.68
689.568	15976.9
689.915	15887.18
690.262	15912.04
690.609	15960.17
690.956	15870.46
691.303	15841.53
691.65	15678.6
691.997	15682.21
692.344	15759.05
692.69	15697.13
693.037	15659.84
693.383	15587.08
693.73	15718.37
694.077	15598.38
694.423	15590.24
694.769	15554.31
695.116	15589.34
695.462	15486.06
695.808	15418.27
696.155	15440.41
696.501	15334.43
696.847	15382.56
697.193	15346.18
697.539	15341.88
697.885	15207.65
698.231	15132.62
698.577	15308.44
698.923	15171.49
699.269	15107.77
699.614	15100.31
699.96	15066.41
700.306	15075.68
700.651	15055.56
700.997	14945.74
701.342	15016.92
701.688	14931.5
702.033	14925.17
702.379	15003.36
702.724	15005.62
703.069	14890.15
703.415	14853.76
703.76	14802.46
704.105	14766.76
704.45	14764.72
704.795	14624.84
705.14	14750.04
705.485	14663.48
705.83	14639.3
706.175	14653.09
706.52	14545.52
706.865	14543.71
707.209	14634.78
707.554	14441.34
707.899	14629.59
708.243	14500.78
708.588	14463.72
708.932	14439.31
709.277	14400.67
709.621	14452.19
709.966	14343.94
710.31	14436.6
710.654	14256.49
710.998	14320.89
711.342	14282.25
711.687	14296.94
712.031	14202.03
712.375	14217.39
712.719	14252.2
713.063	14239.99
713.407	14313.21
713.75	14275.47
714.094	14253.55
714.438	14129.94
714.782	14172.88
715.125	14182.82
715.469	14219.2
715.812	14072.99
716.156	14029.15
716.499	14061.01
716.843	14126.78
717.186	13995.25
717.53	14053.78
717.873	14031.86
718.216	13989.6
718.559	13959.77
718.902	13914.35
719.246	14030.05
719.589	13896.5
719.932	13874.58
720.275	13840.46
720.617	13917.29
720.96	13791.64
721.303	13946.89
721.646	13930.4
721.989	13790.51
722.331	13863.51
722.674	13845.2
723.016	13867.8
723.359	13850.4
723.701	13890.62
724.044	13797.07
724.386	13721.14
724.729	13796.16
725.071	13792.55
725.413	13742.83
725.755	13786.9
726.097	13669.61
726.439	13602.27
726.782	13651.31
727.124	13731.08
727.465	13684.08
727.807	13632.33
728.149	13587.81
728.491	13534.25
728.833	13609.73
729.175	13612.21
729.516	13550.52
729.858	13513.46
730.199	13593.46
730.541	13463.97
730.882	13521.82
731.224	13557.75
731.565	13471.43
731.906	13483.85
732.248	13458.09
732.589	13372.67
732.93	13435.95
733.271	13351.2
733.612	13378.55
733.953	13444.08
734.294	13390.3
734.635	13373.12
734.976	13359.11
735.317	13322.05
735.658	13283.18
735.999	13320.92
736.339	13231.66
736.68	13311.2
737.021	13240.7
737.361	13175.16
737.702	13298.32
738.042	13239.57
738.383	13240.92
738.723	13261.49
739.063	13205.67
739.404	13199.12
739.744	13161.83
740.084	13096.29
740.424	13142.62
740.764	13131.55
741.104	13139.91
741.444	13135.84
741.784	13000.48
742.124	13076.18
742.464	13115.05
742.804	13033.7
743.143	12905.34
743.483	13100.36
743.823	12948.28
744.162	12971.78
744.502	13040.25
744.841	12965.9
745.181	12923.19
745.52	12896.98
745.86	12869.86
746.199	12830.54
746.538	12863.31
746.877	12957.09
747.216	12835.06
747.556	12867.37
747.895	12803.19
748.234	12787.83
748.573	12705.34
748.911	12710.54
749.25	12762.07
749.589	12645.46
749.928	12789.18
750.267	12659.7
750.605	12566.36
750.944	12559.36
751.283	12560.49
751.621	12544.67
751.96	12475.97
752.298	12496.76
752.636	12547.16
752.975	12466.93
753.313	12387.16
753.651	12377.44
753.989	12344.22
754.327	12383.77
754.666	12272.13
755.004	12260.38
755.342	12285.02
755.679	12326.6
756.017	12151.69
756.355	12247.73
756.693	12137
757.031	12157.56
757.368	12147.39
757.706	12041.86
758.044	12031.24
758.381	12062.65
758.719	11905.36
759.056	11954.86
759.394	11888.64
759.731	11885.7
760.068	11814.97
760.405	11806.16
760.743	11729.55
761.08	11740.85
761.417	11644.13
761.754	11698.36
762.091	11695.43
762.428	11553.74
762.765	11541.98
763.102	11566.84
763.438	11497.24
763.775	11385.6
764.112	11456.11
764.449	11385.83
764.785	11384.93
765.122	11277.13
765.458	11199.85
765.795	11310.58
766.131	11249.34
766.467	11147.19
766.804	11082.56
767.14	11023.58
767.476	10987.87
767.812	10974.77
768.148	11023.13
768.485	10915.33
768.821	10828.33
769.157	10825.85
769.492	10819.29
769.828	10785.17
770.164	10737.71
770.5	10692.74
770.836	10708.33
771.171	10615.23
771.507	10588.56
771.842	10497.49
772.178	10540.88
772.513	10528.9
772.849	10416.14
773.184	10375.01
773.519	10370.49
773.855	10266.09
774.19	10312.19
774.525	10228.57
774.86	10219.08
775.195	10180.66
775.53	10150.61
775.865	10100.67
776.2	9993.78
776.535	9969.14
776.87	9941.57
777.205	9906.77
777.539	9880.33
777.874	9860.9
778.209	9801.69
778.543	9788.58
778.878	9701.58
779.212	9705.2
779.547	9618.87
779.881	9543.62
780.215	9585.65
780.55	9629.04
780.884	9565.54
781.218	9503.39
781.552	9479.89
781.886	9425.2
782.22	9323.06
782.554	9286
782.888	9271.76
783.222	9203.74
783.556	9147.02
783.889	9157.41
784.223	9124.2
784.557	9051.65
784.89	9087.36
785.224	8979.79
785.557	8948.61
785.891	9000.81
786.224	8891.21
786.558	8947.7
786.891	8844.2
787.224	8859.57
787.557	8718.1
787.891	8817.54
788.224	8830.64
788.557	8718.78
788.89	8709.29
789.223	8679.24
789.556	8550.2
789.888	8537.09
790.221	8548.62
790.554	8512.69
790.887	8484.89
791.219	8482.4
791.552	8415.06
791.884	8400.6
792.217	8307.04
792.549	8374.16
792.882	8248.74
793.214	8245.35
793.546	8272.24
793.879	8213.94
794.211	8142.75
794.543	8167.84
794.875	8115.41
795.207	8134.39
795.539	8066.14
795.871	8027.5
796.203	7967.84
796.535	7919.26
796.867	7926.03
797.198	7894.4
797.53	7830.22
797.862	7821.63
798.193	7865.25
798.525	7798.35
798.856	7789.99
799.188	7670.9
799.519	7678.81
799.85	7660.96
800.182	7619.15
800.513	7640.17
800.844	7534.86
801.175	7566.27
801.506	7540.96
801.837	7515.2
802.168	7490.79
802.499	7475.65
802.83	7418.93
803.161	7398.36
803.491	7408.76
803.822	7382.77
804.153	7345.03
804.483	7232.04
804.814	7279.72
805.145	7282.89
805.475	7250.12
805.805	7183.68
806.136	7230.01
806.466	7174.42
806.796	7150.24
807.126	7105.04
807.457	7058.94
807.787	7097.81
808.117	7100.75
808.447	7006.74
808.777	7017.36
809.107	6945.5
809.436	6940.3
809.766	6937.36
810.096	6942.56
810.426	6875.44
810.755	6852.62
811.085	6872.05
811.414	6782.11
811.744	6789.79
812.073	6758.61
812.403	6741.66
812.732	6764.94
813.061	6742.11
813.39	6650.59
813.719	6652.62
814.049	6680.42
814.378	6623.7
814.707	6593.41
815.036	6631.61
815.365	6549.12
815.693	6544.15
816.022	6526.3
816.351	6485.85
816.68	6471.16
817.008	6462.12
817.337	6404.49
817.665	6391.84
817.994	6388.67
818.322	6425.51
818.651	6347.54
818.979	6314.33
819.307	6345.06
819.636	6321.33
819.964	6311.16
820.292	6293.31
820.62	6320.88
820.948	6267.55
821.276	6300.09
821.604	6266.64
821.932	6254.67
822.259	6288.11
822.587	6254.67
822.915	6269.58
823.243	6316.59
823.57	6204.95
823.898	6258.06
824.225	6140.77
824.553	6226.64
824.88	6216.93
825.207	6175.8
825.535	6186.19
825.862	6240.66
826.189	6169.47
826.516	6217.15
826.843	6185.97
827.17	6138.06
827.497	6220.09
827.824	6151.17
828.151	6201.56
828.478	6129.92
828.805	6192.75
829.131	6140.54
829.458	6134.67
829.785	6086.76
830.111	6142.13
830.438	6136.7
830.764	6142.13
831.09	6089.92
831.417	6102.35
831.743	6083.37
832.069	6105.97
832.395	6075.46
832.722	6106.2
833.048	6058.29
833.374	6047.21
833.7	6023.94
834.026	6060.77
834.351	6040.66
834.677	6061.45
835.003	6043.6
835.329	6060.09
835.654	5970.61
835.98	5945.52
836.306	6003.83
836.631	5951.62
836.956	5943.49
837.282	5946.2
837.607	5949.36
837.932	5893.77
838.258	5947.56
838.583	5938.29
838.908	5873.21
839.233	5849.48
839.558	5855.81
839.883	5816.03
840.208	5844.06
840.533	5821.01
840.858	5845.19
841.182	5820.1
841.507	5830.5
841.832	5770.16
842.156	5729.03
842.481	5785.07
842.805	5754.34
843.13	5697.84
843.454	5734.23
843.778	5672.99
844.103	5697.17
844.427	5555.7
844.751	5661.69
845.075	5644.51
845.399	5594.8
845.723	5568.36
846.047	5612.2
846.371	5588.92
846.695	5509.15
847.019	5532.2
847.343	5457.85
847.666	5493.1
847.99	5457.17
848.313	5423.95
848.637	5342.15
848.96	5370.62
849.284	5347.35
849.607	5308.02
849.931	5329.04
850.254	5262.6
850.577	5243.85
850.9	5207.46
851.223	5206.33
851.546	5164.53
851.869	5128.82
852.192	5152.55
852.515	5123.62
852.838	5096.05
853.161	5098.31
853.483	5079.56
853.806	5059.67
854.129	4994.13
854.451	4976.06
854.774	4951.88
855.096	4981.93
855.419	4930.86
855.741	4969.73
856.063	4956.85
856.385	4918.43
856.708	4888.6
857.03	4878.88
857.352	4870.07
857.674	4877.53
857.996	4802.95
858.318	4839.34
858.64	4818.09
858.961	4793.01
859.283	4727.93
859.605	4731.32
859.926	4781.03
860.248	4753.69
860.57	4714.14
860.891	4678.44
861.212	4713.24
861.534	4686.8
861.855	4588.95
862.176	4647.48
862.498	4670.53
862.819	4636.86
863.14	4587.59
863.461	4625.1
863.782	4633.24
864.103	4622.84
864.424	4586.91
864.745	4592.56
865.065	4543.52
865.386	4543.52
865.707	4531.55
866.027	4592.79
866.348	4569.06
866.668	4589.63
866.989	4532.9
867.309	4486.12
867.63	4504.2
867.95	4461.27
868.27	4475.5
868.59	4491.77
868.91	4474.83
869.23	4447.93
869.55	4451.78
869.87	4440.93
870.19	4459.68
870.51	4465.56
870.83	4414.71
871.15	4415.17
871.469	4404.55
871.789	4403.42
872.109	4413.13
872.428	4377.65
872.748	4426.47
873.067	4393.92
873.386	4402.74
873.706	4303.3
874.025	4320.93
874.344	4331.33
874.663	4360.93
874.982	4342.17
875.301	4309.63
875.62	4320.48
875.939	4302.63
876.258	4293.14
876.577	4327.26
876.896	4290.42
877.214	4275.96
877.533	4253.14
877.852	4279.58
878.17	4271.22
878.489	4271.44
878.807	4253.81
879.125	4263.98
879.444	4221.95
879.762	4224.89
880.08	4235.96
880.398	4212.46
880.716	4204.78
881.034	4155.51
881.352	4212.69
881.67	4178.56
881.988	4189.18
882.306	4165.23
882.624	4155.06
882.941	4110.32
883.259	4108.96
883.577	4131.33
883.894	4122.74
884.212	4075.74
884.529	4055.4
884.846	4083.88
885.164	4082.75
885.481	4090.88
885.798	4039.13
886.115	4012.47
886.432	4049.3
886.75	4045.46
887.067	4025.57
887.383	4048.17
887.7	4025.8
888.017	4014.27
888.334	3997.32
888.651	3967.72
888.967	3924.11
889.284	3962.3
889.6	3931.11
889.917	3894.73
890.233	3924.56
890.55	3903.32
890.866	3906.48
891.182	3928.17
891.498	3835.29
891.815	3832.58
892.131	3869.87
892.447	3836.88
892.763	3837.1
893.079	3863.54
893.395	3808.63
893.71	3801.4
894.026	3735.86
894.342	3774.05
894.657	3794.84
894.973	3724.56
895.289	3774.51
895.604	3715.3
895.92	3723.89
896.235	3671.01
896.55	3703.32
896.865	3707.84
897.181	3659.71
897.496	3704.45
897.811	3663.55
898.126	3644.57
898.441	3616.32
898.756	3588.75
899.071	3598.01
899.386	3608.18
899.7	3556.43
900.015	3574.06
900.33	3529.99
900.644	3507.62
900.959	3566.15
901.273	3520.05
901.588	3525.92
901.902	3468.75
902.216	3507.62
902.531	3453.38
902.845	3458.13
903.159	3452.93
903.473	3448.64
903.787	3468.52
904.101	3421.75
904.415	3415.19
904.729	3400.5
905.042	3366.38
905.356	3350.79
905.67	3389.88
905.984	3348.53
906.297	3375.19
906.611	3308.98
906.924	3345.82
907.237	3291.13
907.551	3294.29
907.864	3313.05
908.177	3286.16
908.491	3280.05
908.804	3265.59
909.117	3240.73
909.43	3229.43
909.743	3210.9
910.056	3202.99
910.368	3217.23
910.681	3163.67
910.994	3151.02
911.307	3185.37
911.619	3146.73
911.932	3127.74
912.244	3105.14
912.557	3107.86
912.869	3119.61
913.181	3073.28
913.494	3092.26
913.806	3064.69
914.118	3029.89
914.43	3058.14
914.742	2980.4
915.054	3037.58
915.366	2991.7
915.678	2975.2
915.99	2940.63
916.302	2937.69
916.613	2990.12
916.925	2926.62
917.236	2936.34
917.548	2905.38
917.859	2873.96
918.171	2875.55
918.482	2890.46
918.794	2899.95
919.105	2863.34
919.416	2838.71
919.727	2848.2
920.038	2883.23
920.349	2843
920.66	2816.79
920.971	2854.53
921.282	2749.45
921.593	2786.96
921.903	2765.04
922.214	2798.49
922.525	2749.45
922.835	2732.72
923.146	2740.41
923.456	2715.78
923.767	2675.1
924.077	2705.83
924.387	2684.82
924.697	2659.05
925.008	2646.85
925.318	2685.49
925.628	2642.33
925.938	2638.49
926.248	2619.73
926.558	2623.35
926.867	2608.66
927.177	2577.7
927.487	2584.03
927.796	2579.51
928.106	2587.42
928.416	2551.26
928.725	2537.7
929.034	2521.2
929.344	2548.55
929.653	2520.75
929.962	2550.58
930.271	2490.92
930.581	2486.4
930.89	2480.53
931.199	2469.23
931.508	2475.56
931.817	2459.29
932.125	2448.44
932.434	2446.86
932.743	2429.91
933.051	2433.52
933.36	2398.04
933.669	2405.28
933.977	2361.44
934.286	2391.72
934.594	2383.81
934.902	2384.71
935.21	2354.88
935.519	2395.56
935.827	2372.06
936.135	2312.62
936.443	2341.32
936.751	2323.47
937.059	2295.67
937.367	2315.33
937.674	2326.63
937.982	2256.58
938.29	2291.83
938.597	2304.94
938.905	2262.91
939.213	2237.37
939.52	2231.27
939.827	2230.37
940.135	2245.73
940.442	2220.2
940.749	2215.22
941.056	2220.42
941.363	2206.64
941.67	2157.37
941.977	2177.26
942.284	2156.24
942.591	2193.3
942.898	2138.39
943.205	2153.08
943.511	2145.17
943.818	2143.36
944.125	2090.03
944.431	2084.83
944.738	2089.58
945.044	2123.7
945.35	2106.53
945.657	2070.37
945.963	2078.73
946.269	2070.37
946.575	2070.82
946.881	2036.7
947.187	2062.91
947.493	2021.33
947.799	2033.76
948.105	1996.7
948.41	2001.22
948.716	2011.39
949.022	1948.56
949.327	2003.25
949.633	1960.99
949.938	1987.21
950.244	1968.45
950.549	1954.67
950.854	1930.49
951.16	1909.24
951.465	1942.92
951.77	1928.23
952.075	1902.69
952.38	1923.71
952.685	1918.28
952.99	1884.61
953.294	1896.81
953.599	1852.52
953.904	1852.75
954.209	1851.39
954.513	1852.75
954.818	1838.28
955.122	1844.16
955.426	1857.27
955.731	1855.91
956.035	1802.58
956.339	1824.27
956.643	1804.39
956.948	1799.19
957.252	1810.94
957.556	1784.95
957.86	1797.83
958.163	1773.88
958.467	1753.09
958.771	1784.05
959.075	1736.14
959.378	1769.36
959.682	1782.02
959.985	1734.78
960.289	1731.62
960.592	1736.59
960.896	1705.41
961.199	1718.06
961.502	1717.84
961.805	1739.53
962.108	1715.58
962.411	1706.99
962.714	1674.9
963.017	1699.76
963.32	1682.13
963.623	1655.24
963.926	1633.54
964.228	1650.49
964.531	1639.65
964.833	1681.68
965.136	1623.6
965.438	1609.14
965.741	1618.63
966.043	1608.91
966.345	1579.31
966.648	1600.78
966.95	1610.04
967.252	1591.96
967.554	1614.79
967.856	1607.1
968.158	1582.47
968.46	1543.6
968.761	1605.52
969.063	1564.17
969.365	1562.36
969.666	1558.74
969.968	1544.73
970.269	1543.15
970.571	1517.84
970.872	1521.68
971.174	1547.22
971.475	1513.32
971.776	1488.01
972.077	1519.65
972.378	1472.64
972.679	1497.05
972.98	1471.06
973.281	1463.61
973.582	1481.23
973.883	1476.49
974.183	1472.87
974.484	1471.29
974.785	1468.35
975.085	1412.53
975.386	1466.77
975.686	1446.88
975.986	1436.94
976.287	1450.05
976.587	1427.22
976.887	1417.51
977.187	1429.26
977.487	1429.93
977.787	1390.16
978.087	1425.87
978.387	1382.7
978.687	1398.75
978.987	1391.97
979.286	1370.73
979.586	1405.3
979.885	1361.24
980.185	1380.22
980.484	1337.73
980.784	1332.99
981.083	1367.11
981.382	1350.39
981.682	1341.12
981.981	1336.38
982.28	1315.36
982.579	1335.93
982.878	1340.44
983.177	1337.51
983.475	1298.86
983.774	1326.89
984.073	1327.79
984.372	1309.94
984.67	1283.72
984.969	1279.2
985.267	1295.7
985.566	1300.67
985.864	1272.42
986.162	1289.6
986.461	1264.97
986.759	1264.51
987.057	1241.69
987.355	1268.36
987.653	1259.54
987.951	1233.78
988.249	1255.48
988.547	1249.6
988.844	1241.69
989.142	1229.04
989.44	1227.91
989.737	1197.62
990.035	1222.48
990.332	1204.4
990.63	1210.96
990.927	1196.04
991.224	1204.63
991.521	1180.22
991.819	1181.58
992.116	1189.26
992.413	1178.19
992.71	1149.04
993.006	1143.39
993.303	1164.4
993.6	1148.36
993.897	1139.55
994.193	1141.13
994.49	1121.02
994.787	1135.48
995.083	1132.54
995.379	1117.85
995.676	1112.88
995.972	1113.56
996.268	1132.77
996.565	1100.68
996.861	1101.36
997.157	1099.77
997.453	1108.81
997.749	1092.09
998.044	1093.22
998.34	1094.58
998.636	1072.43
998.932	1100.23
999.227	1090.06
999.523	1078.08
999.818	1066.78
1000.114	1069.94
1000.409	1064.52
1000.704	1051.41
1001	1041.02
1001.295	1053.9
1001.59	1052.99
1001.885	1076.5
1002.18	1035.37
1002.475	1014.58
1002.77	1005.99
1003.065	1008.7
1003.359	996.95
1003.654	1008.25
1003.949	1012.77
1004.243	998.53
1004.538	993.56
1004.832	1007.12
1005.127	1003.96
1005.421	1002.15
1005.715	968.93
1006.009	975.03
1006.304	945.88
1006.598	957.86
1006.892	959.89
1007.186	950.85
1007.48	936.84
1007.773	946.56
1008.067	956.5
1008.361	933
1008.655	944.98
1008.948	924.18
1009.242	927.35
1009.535	913.34
1009.829	918.31
1010.122	919.67
1010.415	922.38
1010.708	898.65
1011.001	892.77
1011.295	887.8
1011.588	888.48
1011.881	890.74
1012.173	872.89
1012.466	890.74
1012.759	889.61
1013.052	872.89
1013.344	866.56
1013.637	860.91
1013.93	859.33
1014.222	852.55
1014.514	838.54
1014.807	852.55
1015.099	845.77
1015.391	835.37
1015.683	841.7
1015.976	828.82
1016.268	814.36
1016.56	828.82
1016.851	805.32
1017.143	844.86
1017.435	820.46
1017.727	811.87
1018.018	804.19
1018.31	806.9
1018.602	794.47
1018.893	813.91
1019.185	797.41
1019.476	803.06
1019.767	797.41
1020.058	800.57
1020.35	795.37
1020.641	761.48
1020.932	787.01
1021.223	763.29
1021.514	762.83
1021.804	773.23
1022.095	764.19
1022.386	763.51
1022.677	747.24
1022.967	731.87
1023.258	735.72
1023.548	750.4
1023.839	743.17
1024.129	708.37
1024.419	719.9
1024.709	700.46
1025	730.07
1025.29	703.4
1025.58	711.31
1025.87	716.28
1026.16	707.02
1026.449	713.12
1026.739	717.18
1027.029	684.42
1027.319	709.95
1027.608	695.04
1027.898	684.19
1028.187	679.9
1028.477	679.67
1028.766	668.6
1029.055	687.13
1029.344	669.05
1029.634	669.05
1029.923	657.98
1030.212	653.91
1030.501	668.6
1030.79	656.85
1031.078	660.46
1031.367	660.24
1031.656	637.41
1031.945	646.68
1032.233	634.7
1032.522	640.35
1032.81	618.2
1033.099	641.71
1033.387	620.92
1033.675	620.92
1033.963	607.36
1034.251	630.18
1034.54	599.9
1034.828	621.82
1035.116	624.31
1035.403	584.31
1035.691	615.72
1035.979	593.8
1036.267	614.36
1036.554	599
1036.842	593.8
1037.129	597.64
1037.417	603.52
1037.704	589.05
1037.992	581.14
1038.279	574.14
1038.566	579.11
1038.853	579.11
1039.14	579.11
