Data from brown_tile_FLMS001491_043.txt Node
Date: Tue Feb 07 10:37:33 GMT 2017
User: dcchb
Spectrometer: FLMS00149
Trigger mode: 0
Integration Time (sec): 2.000000E-2
Scans to average: 10
Electric dark correction enabled: true
Nonlinearity correction enabled: false
Boxcar width: 0
XAxis mode: Wavelengths
Number of Pixels in Spectrum: 2048
>>>>>Begin Spectral Data<<<<<
341.393	-31.68
341.776	-31.68
342.16	-31.68
342.543	-49.31
342.927	-69.65
343.31	-73.03
343.693	-62.87
344.077	-65.8
344.46	-59.25
344.843	-38.23
345.226	-48.63
345.61	-53.83
345.993	-9.08
346.376	5.61
346.759	13.52
347.142	15.55
347.525	47.41
347.908	47.19
348.291	81.09
348.674	91.93
349.057	108.43
349.44	112.05
349.823	129.9
350.206	137.36
350.588	184.36
350.971	187.98
351.354	213.96
351.737	208.54
352.119	234.08
352.502	228.88
352.884	272.27
353.267	266.39
353.65	282.89
354.032	289.67
354.414	290.8
354.797	288.76
355.179	284.24
355.562	293.96
355.944	313.4
356.326	320.63
356.709	306.39
357.091	333.73
357.473	326.05
357.855	322.44
358.238	340.74
358.62	338.93
359.002	332.15
359.384	315.66
359.766	331.93
360.148	317.46
360.53	330.8
360.912	319.95
361.294	316.33
361.676	313.4
362.057	322.44
362.439	314.3
362.821	310.91
363.203	305.94
363.584	329.89
363.966	319.95
364.348	318.37
364.729	314.3
365.111	289.89
365.493	286.96
365.874	291.48
366.256	305.26
366.637	291.25
367.019	293.96
367.4	288.99
367.781	291.25
368.163	310.23
368.544	292.15
368.925	307.07
369.306	279.05
369.688	291.7
370.069	291.25
370.45	294.41
370.831	292.15
371.212	285.37
371.593	273.17
371.974	307.52
372.355	291.48
372.736	296.67
373.117	302.55
373.498	288.54
373.879	321.53
374.26	298.93
374.641	284.7
375.021	291.25
375.402	305.26
375.783	322.21
376.163	304.13
376.544	297.35
376.925	302.32
377.305	305.94
377.686	304.13
378.066	306.39
378.447	302.77
378.827	305.49
379.208	331.25
379.588	312.27
379.968	326.28
380.349	315.88
380.729	321.98
381.109	328.08
381.489	327.18
381.87	310.68
382.25	331.25
382.63	316.33
383.01	308.42
383.39	333.06
383.77	332.6
384.15	310.91
384.53	307.97
384.91	326.5
385.29	318.14
385.67	316.79
386.049	326.73
386.429	325.82
386.809	331.25
387.189	317.24
387.568	338.48
387.948	337.12
388.328	318.14
388.707	338.48
389.087	325.6
389.466	325.37
389.846	344.36
390.225	352.04
390.605	332.6
390.984	317.24
391.363	341.19
391.743	353.39
392.122	344.36
392.501	350
392.881	359.95
393.26	345.94
393.639	360.17
394.018	340.97
394.397	335.54
394.776	360.63
395.155	348.88
395.534	357.91
395.913	352.04
396.292	364.24
396.671	371.93
397.05	363.79
397.429	374.86
397.808	360.17
398.186	378.7
398.565	367.18
398.944	363.79
399.323	381.42
399.701	371.02
400.08	367.86
400.458	403.56
400.837	387.07
401.215	375.77
401.594	355.88
401.972	374.41
402.351	359.72
402.729	380.06
403.107	394.52
403.486	400.63
403.864	406.95
404.242	388.2
404.62	389.1
404.999	376.9
405.377	384.58
405.755	360.85
406.133	401.75
406.511	391.36
406.889	378.25
407.267	413.96
407.645	406.27
408.023	402.43
408.401	405.82
408.779	410.79
409.156	396.11
409.534	383.45
409.912	414.18
410.29	419.83
410.667	422.77
411.045	410.57
411.422	439.95
411.8	422.32
412.178	426.39
412.555	427.07
412.933	416.44
413.31	428.65
413.687	438.82
414.065	428.19
414.442	438.82
414.819	409.44
415.197	444.92
415.574	447.86
415.951	463.22
416.328	436.33
416.705	453.73
417.082	460.51
417.46	462.32
417.837	459.38
418.214	459.38
418.591	441.75
418.967	472.26
419.344	467.74
419.721	466.61
420.098	480.4
420.475	479.49
420.852	470.23
421.228	473.17
421.605	475.43
421.982	500.28
422.358	482.66
422.735	483.33
423.111	473.17
423.488	497.12
423.864	500.74
424.241	501.19
424.617	497.57
424.994	506.61
425.37	522.88
425.746	494.63
426.123	504.58
426.499	505.93
426.875	516.78
427.251	518.59
427.627	519.94
428.003	534.63
428.379	533.73
428.756	536.44
429.132	516.55
429.507	528.31
429.883	553.16
430.259	539.38
430.635	547.74
431.011	564.69
431.387	558.59
431.763	559.94
432.138	590.45
432.514	582.09
432.89	563.11
433.265	557.23
433.641	588.42
434.016	571.02
434.392	606.72
434.767	610.34
435.143	571.24
435.518	622.31
435.894	589.77
436.269	630.22
436.644	626.16
437.02	641.52
437.395	590.22
437.77	617.34
438.145	637.23
438.52	651.92
438.895	643.1
439.271	645.14
439.646	643.78
440.021	675.19
440.395	650.34
440.77	665.7
441.145	647.17
441.52	670.9
441.895	667.96
442.27	644.69
442.645	668.64
443.019	696.66
443.394	663.67
443.769	696.66
444.143	666.83
444.518	701.63
444.892	683.1
445.267	685.36
445.641	729.2
446.016	724.23
446.39	702.54
446.764	716.1
447.139	709.54
447.513	727.85
447.887	715.42
448.262	708.19
448.636	726.04
449.01	720.16
449.384	748.41
449.758	740.05
450.132	774.63
450.506	741.41
450.88	740.73
451.254	756.32
451.628	780.05
452.002	789.09
452.376	777.79
452.75	780.05
453.123	785.93
453.497	802.2
453.871	778.69
454.244	811.69
454.618	813.5
454.992	801.74
455.365	811.46
455.739	841.97
456.112	849.43
456.486	849.65
456.859	814.4
457.232	848.52
457.606	861.86
457.979	869.99
458.352	905.47
458.725	899.14
459.099	895.08
459.472	879.26
459.845	904.57
460.218	917
460.591	942.08
460.964	937.79
461.337	944.57
461.71	937.33
462.083	966.71
462.456	949.09
462.829	973.94
463.201	991.57
463.574	973.27
463.947	1000.61
464.32	1033.38
464.692	1027.05
465.065	1026.37
465.438	1036.31
465.81	1048.97
466.183	1064.34
466.555	1084.67
466.928	1074.05
467.3	1070.89
467.672	1117.22
468.045	1123.09
468.417	1125.13
468.789	1098.23
469.161	1118.35
469.534	1166.03
469.906	1151.79
470.278	1188.17
470.65	1178.68
471.022	1205.8
471.394	1212.58
471.766	1241.73
472.138	1225.69
472.51	1270.66
472.882	1298.91
473.253	1277.66
473.625	1295.52
473.997	1325.8
474.369	1321.5
474.74	1338.23
475.112	1357.44
475.484	1385.91
475.855	1420.49
476.227	1398.11
476.598	1446.25
476.97	1439.02
477.341	1510.65
477.713	1512.46
478.084	1478.56
478.455	1550.88
478.827	1527.6
479.198	1574.38
479.569	1585
479.94	1615.96
480.311	1605.79
480.682	1667.94
481.053	1678.78
481.424	1712
481.795	1718.78
482.166	1758.78
482.537	1796.07
482.908	1817.99
483.279	1822.73
483.65	1857.76
484.021	1895.05
484.391	1873.81
484.762	1919.68
485.133	1956.06
485.503	1971.43
485.874	1972.56
486.244	2005.1
486.615	2032.45
486.985	2069.73
487.356	2120.13
487.726	2085.55
488.097	2133.46
488.467	2164.65
488.837	2173.69
489.207	2171.65
489.578	2251.65
489.948	2244.64
490.318	2304.53
490.688	2273.8
491.058	2311.08
491.428	2382.49
491.798	2365.32
492.168	2388.37
492.538	2440.57
492.908	2453.68
493.278	2485.32
493.648	2464.07
494.017	2512.89
494.387	2550.17
494.757	2586.1
495.126	2608.7
495.496	2588.14
495.866	2599.44
496.235	2674.69
496.605	2683.05
496.974	2669.27
497.344	2697.06
497.713	2731.86
498.082	2737.06
498.452	2718.98
498.821	2775.48
499.19	2791.3
499.559	2853.44
499.928	2838.98
500.298	2844.18
500.667	2888.7
501.036	2857.51
501.405	2901.8
501.774	2934.12
502.143	2955.81
502.512	2958.3
502.88	2983.38
503.249	2982.48
503.618	3019.09
503.987	3027
504.356	3062.48
504.724	3068.8
505.093	3121.01
505.462	3110.61
505.83	3121.68
506.199	3158.74
506.567	3225.41
506.936	3206.43
507.304	3221.57
507.672	3239.42
508.041	3256.6
508.409	3269.02
508.777	3331.4
509.145	3340.89
509.514	3344.73
509.882	3415.24
510.25	3390.38
510.618	3421.79
510.986	3382.92
511.354	3442.13
511.722	3464.5
512.09	3505.63
512.458	3534.78
512.826	3563.71
513.193	3543.37
513.561	3622.69
513.929	3611.16
514.297	3666.98
514.664	3660.43
515.032	3734.77
515.4	3715.57
515.767	3741.78
516.135	3754.89
516.502	3771.61
516.869	3815.22
517.237	3820.2
517.604	3892.96
517.972	3933.64
518.339	3927.31
518.706	3983.36
519.073	3955.79
519.44	3980.64
519.808	4037.14
520.175	4026.29
520.542	4056.8
520.909	4144.71
521.276	4115.33
521.643	4206.63
522.009	4183.35
522.376	4258.6
522.743	4233.74
523.11	4305.61
523.477	4345.38
523.843	4391.25
524.21	4380.18
524.577	4419.73
524.943	4440.74
525.31	4495.88
525.676	4589.89
526.043	4512.83
526.409	4639.84
526.776	4611.36
527.142	4658.37
527.508	4745.6
527.874	4732.04
528.241	4787.18
528.607	4753.05
528.973	4868.98
529.339	4798.93
529.705	4924.35
530.071	4935.2
530.437	4983.33
530.803	4999.15
531.169	5010.22
531.535	5037.11
531.901	5015.64
532.267	5068.3
532.632	5119.15
532.998	5169.31
533.364	5193.49
533.73	5258.35
534.095	5270.55
534.461	5316.65
534.826	5308.07
535.192	5409.98
535.557	5388.74
535.923	5383.77
536.288	5450.66
536.653	5482.53
537.019	5486.82
537.384	5508.51
537.749	5598.91
538.114	5555.74
538.479	5622.41
538.845	5628.06
539.21	5670.32
539.575	5706.02
539.94	5680.94
540.305	5746.93
540.67	5802.97
541.034	5826.25
541.399	5776.98
541.764	5853.82
542.129	5916.64
542.494	5925.9
542.858	5951.44
543.223	5986.47
543.587	6046.58
543.952	6034.83
544.316	6019.23
544.681	6133.36
545.045	6169.29
545.41	6183.75
545.774	6219.23
546.138	6251.32
546.503	6253.35
546.867	6293.8
547.231	6409.51
547.595	6463.97
547.959	6454.48
548.324	6478.66
548.688	6480.01
549.052	6532.89
549.416	6570.86
549.779	6616.51
550.143	6669.61
550.507	6747.58
550.871	6730.63
551.235	6800.91
551.599	6807.46
551.962	6914.35
552.326	6915.71
552.689	6981.02
553.053	6977.63
553.417	7049.72
553.78	7158.19
554.143	7172.42
554.507	7201.12
554.87	7283.83
555.234	7334.91
555.597	7385.53
555.96	7414.23
556.323	7525.64
556.686	7528.57
557.05	7586.42
557.413	7620.55
557.776	7736.7
558.139	7787.55
558.502	7780.09
558.865	7881.11
559.228	7958.84
559.59	8016.24
559.953	8030.71
560.316	8130.37
560.679	8172.4
561.041	8304.37
561.404	8401.32
561.767	8514.08
562.129	8503.24
562.492	8605.83
562.854	8578.26
563.217	8672.95
563.579	8751.82
563.941	8832.49
564.304	8945.71
564.666	8995.65
565.028	9024.81
565.39	9126.95
565.753	9233.84
566.115	9274.74
566.477	9386.38
566.839	9429.99
567.201	9564
567.563	9554.73
567.925	9626.37
568.287	9794.73
568.648	9756.76
569.01	9888.29
569.372	9948.85
569.734	10087.83
570.095	10081.5
570.457	10179.35
570.819	10260.93
571.18	10290.08
571.542	10376.63
571.903	10522.39
572.265	10580.7
572.626	10676.06
572.987	10723.52
573.349	10812.33
573.71	10929.84
574.071	10956.96
574.432	11084.86
574.794	11206.44
575.155	11205.54
575.516	11231.53
575.877	11325.54
576.238	11390.17
576.599	11510.16
576.96	11606.21
577.32	11585.64
577.681	11699.76
578.042	11711.97
578.403	11828.8
578.763	11928.23
579.124	11914.9
579.485	12015.23
579.845	12085.74
580.206	12072.41
580.566	12133.65
580.927	12262.23
581.287	12265.17
581.648	12390.37
582.008	12468.56
582.368	12457.03
582.728	12510.82
583.089	12591.26
583.449	12581.55
583.809	12688.21
584.169	12724.37
584.529	12724.37
584.889	12908.54
585.249	12895.66
585.609	12834.2
585.969	12961.88
586.329	13006.62
586.688	13007.75
587.048	13123.68
587.408	13139.73
587.768	13099.95
588.127	13131.59
588.487	13203.23
588.846	13388.76
589.206	13318.7
589.565	13333.39
589.925	13417.23
590.284	13388.31
590.643	13545.59
591.003	13525.7
591.362	13617
591.721	13565.48
592.08	13616.1
592.44	13692.25
592.799	13800.05
593.158	13721.18
593.517	13771.8
593.876	13916.43
594.235	13872.36
594.593	13827.84
594.952	13948.52
595.311	13969.53
595.67	13970.21
596.029	14092.47
596.387	14175.63
596.746	14160.94
597.104	14176.76
597.463	14209.75
597.822	14346.25
598.18	14312.35
598.538	14252.92
598.897	14413.59
599.255	14333.14
599.613	14548.28
599.972	14447.94
600.33	14526.81
600.688	14457.88
601.046	14555.73
601.404	14644.09
601.762	14605.9
602.12	14750.98
602.478	14732.23
602.836	14685.67
603.194	14702.85
603.552	14812.22
603.91	14740.59
604.268	14791.43
604.625	14896.29
604.983	14956.17
605.341	14920.92
605.698	14988.94
606.056	15086.11
606.413	15038.88
606.771	15062.16
607.128	15048.15
607.485	15181.71
607.843	15141.25
608.2	15207.92
608.557	15248.37
608.914	15226
609.272	15299.22
609.629	15298.31
609.986	15429.61
610.343	15272.32
610.7	15501.24
611.057	15394.58
611.414	15505.99
611.771	15554.12
612.127	15551.64
612.484	15502.37
612.841	15655.14
613.198	15574.01
613.554	15591.86
613.911	15673.44
614.267	15665.08
614.624	15712.99
614.98	15740.11
615.337	15846.77
615.693	15866.66
616.05	15810.39
616.406	15949.14
616.762	15889.48
617.118	15919.54
617.475	15886.77
617.831	15947.79
618.187	15843.83
618.543	15939.43
618.899	16000.67
619.255	16108.91
619.611	15998.18
619.967	16176.03
620.323	16206.54
620.678	16143.04
621.034	15992.98
621.39	16021.23
621.746	16049.93
622.101	16251.96
622.457	16141
622.812	16228.01
623.168	16182.13
623.523	16214.67
623.879	16296.25
624.234	16221.23
624.589	16212.19
624.945	16285.86
625.3	16272.52
625.655	16353.43
626.01	16265.97
626.365	16251.51
626.72	16263.48
627.075	16247.44
627.43	16265.74
627.785	16300.09
628.14	16285.18
628.495	16304.84
628.85	16277.95
629.205	16274.78
629.559	16281.11
629.914	16271.17
630.269	16367.44
630.623	16237.27
630.978	16247.89
631.332	16258.06
631.687	16273.43
632.041	16230.72
632.396	16277.72
632.75	16218.74
633.104	16268.23
633.459	16196.82
633.813	16262.58
634.167	16188.68
634.521	16157.72
634.875	16194.33
635.229	16181
635.583	16080.89
635.937	16112.3
636.291	16125.86
636.645	16107.56
636.999	15995.02
637.352	16204.05
637.706	15943.04
638.06	16053.32
638.413	16093.09
638.767	16023.72
639.121	16030.27
639.474	15961.57
639.828	15954.34
640.181	16044.06
640.534	16002.7
640.888	15938.97
641.241	15958.86
641.594	15988.24
641.947	15956.15
642.301	15891.74
642.654	15938.97
643.007	16018.07
643.36	15813.78
643.713	15898.97
644.066	16031.63
644.419	15881.57
644.771	15728.58
645.124	15681.81
645.477	15625.76
645.83	15571.98
646.182	15470.06
646.535	15478.65
646.888	15454.01
647.24	15313
647.593	15536.05
647.945	15426.22
648.298	15342.38
648.65	15352.32
649.002	15328.14
649.355	15341.02
649.707	15383.51
650.059	15351.19
650.411	15566.55
650.763	15549.38
651.115	15790.95
651.467	15698.75
651.819	15649.72
652.171	15711.18
652.523	15644.29
652.875	15694.01
653.227	15609.04
653.578	15682.94
653.93	15644.07
654.282	15596.16
654.633	15632.54
654.985	15606.55
655.337	15548.48
655.688	15576.27
656.039	15652.88
656.391	15540.57
656.742	15603.16
657.094	15476.16
657.445	15609.49
657.796	15578.31
658.147	15558.42
658.498	15532.66
658.849	15641.58
659.2	15612.43
659.551	15515.03
659.902	15707.79
660.253	15593.9
660.604	15691.3
660.955	15521.81
661.306	15669.38
661.656	15654.91
662.007	15648.59
662.358	15639.55
662.708	15673.67
663.059	15631.86
663.409	15505.76
663.76	15621.92
664.11	15620.11
664.461	15736.72
664.811	15670.05
665.161	15662.6
665.511	15629.83
665.862	15661.92
666.212	15661.92
666.562	15708.47
666.912	15614.24
667.262	15619.89
667.612	15729.49
667.962	15698.53
668.312	15696.72
668.662	15710.5
669.011	15617.63
669.361	15626.44
669.711	15643.61
670.06	15677.29
670.41	15654.91
670.76	15536.27
671.109	15675.93
671.459	15646.33
671.808	15692.2
672.157	15783.95
672.507	15570.4
672.856	15673.22
673.205	15541.47
673.554	15703.95
673.904	15564.52
674.253	15717.96
674.602	15681.58
674.951	15456.73
675.3	15369.27
675.649	15707.79
675.998	15608.59
676.346	15678.64
676.695	15724.29
677.044	15640.45
677.393	15684.07
677.741	15618.98
678.09	15666.89
678.438	15631.41
678.787	15674.12
679.135	15685.87
679.484	15581.92
679.832	15597.74
680.181	15545.76
680.529	15604.52
680.877	15617.4
681.225	15649.49
681.573	15651.3
681.922	15559.55
682.27	15546.44
682.618	15576.72
682.966	15440.23
683.314	15613.11
683.661	15467.57
684.009	15425.31
684.357	15396.84
684.705	15385.99
685.053	15470.74
685.4	15468.03
685.748	15371.08
686.095	15437.52
686.443	15406.56
686.79	15375.37
687.138	15375.6
687.485	15369.5
687.832	15340.12
688.18	15348.71
688.527	15369.72
688.874	15244.08
689.221	15263.96
689.568	15245.66
689.915	15241.59
690.262	15290.4
690.609	15189.61
690.956	15138.32
691.303	15161.37
691.65	15119.56
691.997	15127.47
692.344	14981.03
692.69	15008.15
693.037	15096.74
693.383	14969.96
693.73	14982.39
694.077	14960.02
694.423	14917.31
694.769	14900.81
695.116	14812.22
695.462	14858.32
695.808	14827.36
696.155	14830.08
696.501	14714.37
696.847	14807.03
697.193	14652
697.539	14656.97
697.885	14596.41
698.231	14609.29
698.577	14619.91
698.923	14565.68
699.269	14586.69
699.614	14489.52
699.96	14505.79
700.306	14523.64
700.651	14447.49
700.997	14407.49
701.342	14361.16
701.688	14439.58
702.033	14366.81
702.379	14340.15
702.724	14290.2
703.069	14290.43
703.415	14221.28
703.76	14131.34
704.105	14233.03
704.45	14260.37
704.795	14087.72
705.14	14104.9
705.485	14127.04
705.83	14111.45
706.175	14053.37
706.52	14066.03
706.865	14027.16
707.209	14013.83
707.554	13971.34
707.899	13987.61
708.243	13979.7
708.588	13969.08
708.932	13893.15
709.277	13887.73
709.621	13886.15
709.966	13833.94
710.31	13829.42
710.654	13673.27
710.998	13755.53
711.342	13713.72
711.687	13774.96
712.031	13777.9
712.375	13691.12
712.719	13638.7
713.063	13710.33
713.407	13679.82
713.75	13617.68
714.094	13683.67
714.438	13569.09
714.782	13596.66
715.125	13579.94
715.469	13578.58
715.812	13560.96
716.156	13591.46
716.499	13477.57
716.843	13475.99
717.186	13397.8
717.53	13491.13
717.873	13482.09
718.216	13497.91
718.559	13383.79
718.902	13379.04
719.246	13322.09
719.589	13358.93
719.932	13290.91
720.275	13239.61
720.617	13330.91
720.96	13439.15
721.303	13294.75
721.646	13312.6
721.989	13149.89
722.331	13282.09
722.674	13259.5
723.016	13282.32
723.359	13275.54
723.701	13235.99
724.044	13175.88
724.386	13099.73
724.729	13145.15
725.071	13177.46
725.413	13135.66
725.755	13188.54
726.097	13103.57
726.439	12901.77
726.782	13065.38
727.124	13123.23
727.465	12980.86
727.807	13094.08
728.149	13045.94
728.491	13024.7
728.833	13048.2
729.175	12961.65
729.516	13041.42
729.858	13001.2
730.199	13027.19
730.541	12983.12
730.882	12877.13
731.224	12956
731.565	12869.9
731.906	12906.74
732.248	12854.31
732.589	12767.31
732.93	12820.19
733.271	12855.21
733.612	12765.5
733.953	12854.99
734.294	12772.28
734.635	12782.22
734.976	12820.86
735.317	12695.89
735.658	12734.99
735.999	12782.9
736.339	12675.1
736.68	12719.4
737.021	12737.7
737.361	12671.26
737.702	12635.11
738.042	12730.92
738.383	12584.71
738.723	12668.33
739.063	12618.16
739.404	12629.46
739.744	12571.38
740.084	12624.26
740.424	12651.15
740.764	12568.67
741.104	12600.76
741.444	12557.82
741.784	12477.14
742.124	12552.85
742.464	12500.19
742.804	12467.88
743.143	12450.03
743.483	12485.96
743.823	12342.68
744.162	12417.03
744.502	12374.32
744.841	12369.12
745.181	12443.7
745.52	12270.82
745.86	12340.65
746.199	12320.76
746.538	12293.19
746.877	12337.26
747.216	12295
747.556	12232.18
747.895	12234.66
748.234	12192.63
748.573	12195.8
748.911	12241.67
749.25	12168
749.589	12101.33
749.928	12144.95
750.267	12145.85
750.605	12154.89
750.944	12127.77
751.283	12089.58
751.621	12051.17
751.96	11972.07
752.298	11972.75
752.636	11985.18
752.975	11828.35
753.313	11831.06
753.651	11931.85
753.989	11863.37
754.327	11756.26
754.666	11810.27
755.004	11755.13
755.342	11710.38
755.679	11705.19
756.017	11618.86
756.355	11742.25
756.693	11616.6
757.031	11657.5
757.368	11546.77
757.706	11629.03
758.044	11471.52
758.381	11505.19
758.719	11424.97
759.056	11462.48
759.394	11497.28
759.731	11333.22
760.068	11335.25
760.405	11248.93
760.743	11239.21
761.08	11288.7
761.417	11232.88
761.754	11208.93
762.091	11255.25
762.428	11113.56
762.765	11108.14
763.102	11137.97
763.438	11028.14
763.775	10979.78
764.112	11005.77
764.449	10988.37
764.785	10892.1
765.122	10835.15
765.458	10805.32
765.795	10815.49
766.131	10766.91
766.467	10763.52
766.804	10690.98
767.14	10599.9
767.476	10612.33
767.812	10566.69
768.148	10500.92
768.485	10492.79
768.821	10459.57
769.157	10444.43
769.492	10372.57
769.828	10396.07
770.164	10338.22
770.5	10333.02
770.836	10242.85
771.171	10207.15
771.507	10205.56
771.842	10116.3
772.178	10157.43
772.513	10057.77
772.849	10030.88
773.184	10019.36
773.519	9950.88
773.855	9934.39
774.19	9896.42
774.525	9839.47
774.86	9769.42
775.195	9807.16
775.53	9747.05
775.865	9707.95
776.2	9627.28
776.535	9542.31
776.87	9564.45
777.205	9538.01
777.539	9494.85
777.874	9531.23
778.209	9419.37
778.543	9442.42
778.878	9360.62
779.212	9348.41
779.547	9252.6
779.881	9326.27
780.215	9226.38
780.55	9246.04
780.884	9198.59
781.218	9114.52
781.552	9131.92
781.886	9067.97
782.22	8980.51
782.554	9021.42
782.888	8940.51
783.222	8894.19
783.556	8883.79
783.889	8798.82
784.223	8818.03
784.557	8752.95
784.89	8794.75
785.224	8671.59
785.557	8702.78
785.891	8678.15
786.224	8612.84
786.558	8617.13
786.891	8559.73
787.224	8519.06
787.557	8491.49
787.891	8472.73
788.224	8429.34
788.557	8413.07
788.89	8346.18
789.223	8366.74
789.556	8292.39
789.888	8224.15
790.221	8216.24
790.554	8098.73
790.887	8127.43
791.219	8097.15
791.552	8111.16
791.884	8018.5
792.217	8017.83
792.549	8020.54
792.882	7973.99
793.214	7904.83
793.546	7892.18
793.879	7891.05
794.211	7841.56
794.543	7847.21
794.875	7785.97
795.207	7801.11
795.539	7739.64
795.871	7747.32
796.203	7668
796.535	7610.83
796.867	7614.22
797.198	7610.6
797.53	7579.87
797.862	7500.1
798.193	7544.17
798.525	7486.54
798.856	7435.47
799.188	7348.92
799.519	7340.56
799.85	7320.22
800.182	7333.78
800.513	7344.4
800.844	7256.72
801.175	7268.24
801.506	7276.6
801.837	7229.37
802.168	7202.25
802.499	7214.01
802.83	7155.93
803.161	7071.18
803.491	7098.3
803.822	7108.92
804.153	7024.63
804.483	7009.94
804.814	6972.66
805.145	6987.57
805.475	6942.6
805.805	6921.13
806.136	6891.53
806.466	6924.52
806.796	6853.56
807.126	6793
807.457	6786.9
807.787	6820.34
808.117	6745.32
808.447	6700.35
808.777	6773.11
809.107	6731.31
809.436	6693.11
809.766	6663.51
810.096	6640.46
810.426	6617.64
810.755	6624.42
811.085	6568.37
811.414	6621.7
811.744	6546.9
812.073	6507.13
812.403	6486.11
812.732	6442.27
813.061	6442.27
813.39	6368.83
813.719	6448.15
814.049	6403.63
814.378	6393.91
814.707	6351.66
815.036	6334.93
815.365	6316.4
815.693	6292
816.022	6267.14
816.351	6251.54
816.68	6187.37
817.008	6215.61
817.337	6168.83
817.665	6168.38
817.994	6113.02
818.322	6113.47
818.651	6102.85
818.979	6092.68
819.307	6134.71
819.636	6086.13
819.964	6036.64
820.292	6030.31
820.62	6080.02
820.948	5994.38
821.276	6076.41
821.604	6007.26
821.932	6042.96
822.259	6032.79
822.587	6014.04
822.915	5996.64
823.243	5972.68
823.57	5999.12
823.898	5988.73
824.225	5974.94
824.553	5973.59
824.88	5973.13
825.207	6005.68
825.535	5953.47
825.862	5967.71
826.189	5939.24
826.516	5989.4
826.843	6008.39
827.17	5956.41
827.497	5943.76
827.824	5978.33
828.151	5910.08
828.478	5899.01
828.805	5950.54
829.131	5866.24
829.458	5939.01
829.785	5885.45
830.111	5898.33
830.438	5903.53
830.764	5884.55
831.09	5925.45
831.417	5856.53
831.743	5836.41
832.069	5861.72
832.395	5823.08
832.722	5895.17
833.048	5862.85
833.374	5834.38
833.7	5819.69
834.026	5832.12
834.351	5790.09
834.677	5802.74
835.003	5790.77
835.329	5798.45
835.654	5796.42
835.98	5740.15
836.306	5775.62
836.631	5759.13
836.956	5784.21
837.282	5780.6
837.607	5736.53
837.932	5676.64
838.258	5676.19
838.583	5687.49
838.908	5713.93
839.233	5701.5
839.558	5634.61
839.883	5610.21
840.208	5625.8
840.533	5571.34
840.858	5658.57
841.182	5612.47
841.507	5626.93
841.832	5551.22
842.156	5527.27
842.481	5542.18
842.805	5506.71
843.13	5569.53
843.454	5535.41
843.778	5480.72
844.103	5473.49
844.427	5443.88
844.751	5448.4
845.075	5398.23
845.399	5398.69
845.723	5364.56
846.047	5403.43
846.371	5356.65
846.695	5311.91
847.019	5334.28
847.343	5274.17
847.666	5224.68
847.99	5228.29
848.313	5185.58
848.637	5209.76
848.96	5168.41
849.284	5162.53
849.607	5127.73
849.931	5086.6
850.254	5062.2
850.577	5036.66
850.9	5042.31
851.223	5035.98
851.546	4987.17
851.869	5019.26
852.192	5001.18
852.515	4925.03
852.838	4900.85
853.161	4946.49
853.483	4926.83
853.806	4856.55
854.129	4813.39
854.451	4875.54
854.774	4851.36
855.096	4802.32
855.419	4774.07
855.741	4781.75
856.063	4695.65
856.385	4687.29
856.708	4716.9
857.03	4709.44
857.352	4705.37
857.674	4695.65
857.996	4713.05
858.318	4619.95
858.64	4654.07
858.961	4645.26
859.283	4623.56
859.605	4596.22
859.926	4595.99
860.248	4633.96
860.57	4528.65
860.891	4573.4
861.212	4549.67
861.534	4548.76
861.855	4522.1
862.176	4517.58
862.498	4535.21
862.819	4497.01
863.14	4434.19
863.461	4474.87
863.782	4502.21
864.103	4498.6
864.424	4439.16
864.745	4471.25
865.065	4435.55
865.386	4455.89
865.707	4432.84
866.027	4430.58
866.348	4420.63
866.668	4374.53
866.989	4351.93
867.309	4330.69
867.63	4376.57
867.95	4411.59
868.27	4334.53
868.59	4336.34
868.91	4318.71
869.23	4313.97
869.55	4304.93
869.87	4315.1
870.19	4262.67
870.51	4304.7
870.83	4316.91
871.15	4264.03
871.469	4296.79
871.789	4281.2
872.109	4288.43
872.428	4256.12
872.748	4269.68
873.067	4224.93
873.386	4244.82
873.706	4236.23
874.025	4241.65
874.344	4223.58
874.663	4240.52
874.982	4165.27
875.301	4221.99
875.62	4191.94
875.939	4154.2
876.258	4160.07
876.577	4184.48
876.896	4150.81
877.214	4221.09
877.533	4147.87
877.852	4126.85
878.17	4146.74
878.489	4149.68
878.807	4097.03
879.125	4087.99
879.444	4141.32
879.762	4094.54
880.08	4062
880.398	4097.03
880.716	4069.46
881.034	4026.97
881.352	4017.48
881.67	4013.19
881.988	4017.48
882.306	4022.22
882.624	4010.47
882.941	3981.55
883.259	3983.58
883.577	3973.41
883.894	3987.42
884.212	4002.56
884.529	3960.53
884.846	3934.32
885.164	3950.81
885.481	3919.85
885.798	3918.95
886.115	3891.38
886.432	3931.83
886.75	3862.23
887.067	3935.45
887.383	3879.63
887.7	3854.09
888.017	3839.18
888.334	3885.05
888.651	3861.33
888.967	3809.57
889.284	3807.99
889.6	3847.09
889.917	3783.13
890.233	3827.43
890.55	3744.94
890.866	3781.1
891.182	3766.19
891.498	3736.58
891.815	3758.28
892.131	3691.84
892.447	3697.04
892.763	3682.57
893.079	3697.26
893.395	3683.7
893.71	3645.29
894.026	3687.77
894.342	3675.12
894.657	3678.96
894.973	3638.73
895.289	3647.32
895.604	3603.93
895.92	3567.1
896.235	3594.67
896.55	3571.62
896.865	3579.75
897.181	3569.13
897.496	3573.2
897.811	3544.05
898.126	3571.62
898.441	3523.71
898.756	3504.72
899.071	3531.39
899.386	3505.63
899.7	3497.04
900.015	3463.82
900.33	3477.15
900.644	3429.25
900.959	3423.14
901.273	3385.18
901.588	3394.9
901.902	3404.39
902.216	3353.32
902.531	3386.08
902.845	3363.71
903.159	3322.58
903.473	3323.94
903.787	3337.72
904.101	3310.38
904.415	3295.01
904.729	3303.83
905.042	3292.3
905.356	3296.82
905.67	3241.91
905.984	3213.88
906.297	3235.13
906.611	3212.98
906.924	3228.57
907.237	3172.3
907.551	3200.33
907.864	3191.29
908.177	3149.48
908.491	3119.88
908.804	3112.87
909.117	3114.68
909.43	3063.61
909.743	3117.16
910.056	3092.76
910.368	3078.97
910.681	3082.59
910.994	3062.02
911.307	3060.67
911.619	3045.75
911.932	3060.22
912.244	2996.04
912.557	3023.15
912.869	3018.86
913.181	3003.95
913.494	2978.41
913.806	2976.83
914.118	2996.49
914.43	2908.81
914.742	2935.7
915.054	2894.12
915.366	2890.73
915.678	2900.45
915.99	2881.69
916.302	2858.87
916.613	2905.87
916.925	2851.63
917.236	2834.23
917.548	2838.98
917.859	2848.7
918.171	2810.51
918.482	2818.19
918.794	2788.58
919.105	2818.87
919.416	2760.56
919.727	2775.25
920.038	2748.59
920.349	2768.25
920.66	2709.94
920.971	2747.68
921.282	2711.75
921.593	2699.1
921.903	2711.98
922.214	2677.85
922.525	2632.2
922.835	2668.59
923.146	2657.29
923.456	2624.97
923.767	2630.17
924.077	2592.21
924.387	2610.06
924.697	2611.19
925.008	2594.47
925.318	2578.42
925.628	2579.78
925.938	2557.86
926.248	2557.86
926.558	2552.88
926.867	2530.29
927.177	2517.41
927.487	2543.39
927.796	2479.44
928.106	2464.98
928.416	2490.29
928.725	2455.49
929.034	2485.77
929.344	2442.38
929.653	2459.55
929.962	2459.33
930.271	2445.09
930.581	2381.82
930.89	2391.31
931.199	2417.07
931.508	2364.19
931.817	2387.69
932.125	2367.8
932.434	2382.04
932.743	2345.21
933.051	2363.51
933.36	2364.42
933.669	2341.59
933.977	2340.01
934.286	2307.69
934.594	2291.2
934.902	2300.46
935.21	2301.14
935.519	2313.57
935.827	2283.74
936.135	2258.43
936.443	2246.23
936.751	2243.74
937.059	2209.17
937.367	2257.07
937.674	2269.95
937.982	2224.98
938.29	2200.13
938.597	2186.57
938.905	2171.65
939.213	2177.75
939.52	2191.99
939.827	2181.82
940.135	2141.82
940.442	2148.15
940.749	2157.64
941.056	2128.94
941.363	2125.78
941.67	2100.92
941.977	2113.12
942.284	2104.08
942.591	2094.82
942.898	2070.64
943.205	2049.62
943.511	2112.67
943.818	2051.88
944.125	2053.24
944.431	2030.19
944.738	2036.06
945.044	2018.89
945.35	2026.35
945.657	2038.32
945.963	2016.85
946.269	2016.18
946.575	1979.79
946.881	1957.65
947.187	1992.22
947.493	1961.26
947.799	1962.62
948.105	1921.49
948.41	1965.33
948.716	1959.23
949.022	1951.09
949.327	1920.59
949.633	1909.96
949.938	1907.03
950.244	1930.08
950.549	1898.44
950.854	1913.13
951.16	1893.02
951.465	1847.14
951.77	1847.14
952.075	1849.63
952.38	1848.95
952.685	1851.43
952.99	1848.27
953.294	1823.41
953.599	1827.25
953.904	1815.96
954.209	1833.13
954.513	1792.9
954.818	1838.78
955.122	1814.15
955.426	1784.09
955.731	1753.81
956.035	1775.73
956.339	1744.09
956.643	1785.45
956.948	1751.78
957.252	1775.96
957.556	1741.61
957.86	1748.61
958.163	1723.08
958.467	1718.33
958.771	1725.11
959.075	1718.33
959.378	1715.84
959.682	1700.25
959.985	1706.35
960.289	1689.18
960.592	1676.98
960.896	1711.33
961.199	1653.7
961.502	1654.38
961.805	1634.26
962.108	1592.01
962.411	1640.59
962.714	1613.47
963.017	1622.74
963.32	1644.66
963.623	1625.23
963.926	1606.47
964.228	1598.11
964.531	1618.9
964.833	1588.16
965.136	1579.35
965.438	1607.15
965.741	1588.84
966.043	1571.67
966.345	1550.2
966.648	1566.24
966.95	1553.82
967.252	1578.9
967.554	1539.8
967.856	1549.07
968.158	1556.07
968.46	1552.23
968.761	1524.21
969.063	1512.01
969.365	1542.52
969.666	1522.18
969.968	1504.55
970.269	1511.33
970.571	1477.88
970.872	1470.65
971.174	1484.66
971.475	1482.18
971.776	1489.41
972.077	1458.9
972.378	1443.76
972.679	1462.97
972.98	1446.7
973.281	1441.73
973.582	1453.25
973.883	1451.9
974.183	1450.54
974.484	1451.9
974.785	1435.63
975.085	1428.85
975.386	1385.23
975.686	1375.51
975.986	1403.54
976.287	1388.62
976.587	1387.72
976.887	1369.87
977.187	1409.19
977.487	1388.85
977.787	1380.71
978.087	1375.97
978.387	1369.19
978.687	1367.61
978.987	1320.15
979.286	1328.06
979.586	1335.06
979.885	1325.35
980.185	1342.52
980.484	1339.81
980.784	1338.45
981.083	1330.54
981.382	1327.83
981.682	1285.35
981.981	1312.24
982.28	1276.31
982.579	1293.93
982.878	1305.46
983.177	1311.11
983.475	1271.56
983.774	1270.21
984.073	1266.59
984.372	1249.64
984.67	1273.82
984.969	1256.2
985.267	1255.97
985.566	1253.48
985.864	1238.34
986.162	1254.61
986.461	1242.18
986.759	1255.97
987.057	1216.42
987.355	1232.47
987.653	1225.01
987.951	1219.59
988.249	1180.27
988.547	1202.86
988.844	1219.36
989.142	1207.16
989.44	1212.13
989.737	1198.57
990.035	1189.3
990.332	1163.77
990.63	1162.64
990.927	1182.98
991.224	1170.55
991.521	1159.7
991.819	1148.85
992.116	1142.07
992.413	1154.5
992.71	1142.98
993.006	1166.48
993.303	1141.62
993.6	1125.58
993.897	1117.44
994.193	1137.33
994.49	1125.35
994.787	1103.43
995.083	1115.41
995.379	1103.88
995.676	1115.63
995.972	1096.2
996.268	1105.47
996.565	1081.74
996.861	1076.09
997.157	1104.34
997.453	1067.5
997.749	1077.9
998.044	1068.63
998.34	1066.82
998.636	1053.04
998.932	1035.64
999.227	1040.83
999.523	1048.52
999.818	1026.6
1000.114	1046.94
1000.409	1032.47
1000.704	1021.63
1001	1029.31
1001.295	1020.95
1001.59	1017.56
1001.885	1008.52
1002.18	1008.29
1002.475	996.32
1002.77	1018.01
1003.065	982.98
1003.359	1008.07
1003.654	995.86
1003.949	981.4
1004.243	961.29
1004.538	966.71
1004.832	994.06
1005.127	962.64
1005.421	939.59
1005.715	941.18
1006.009	945.92
1006.304	935.53
1006.598	945.24
1006.892	950.67
1007.186	943.66
1007.48	935.07
1007.773	932.14
1008.067	918.8
1008.361	884
1008.655	905.24
1008.948	902.98
1009.242	933.27
1009.535	916.54
1009.829	908.86
1010.122	885.36
1010.415	887.84
1010.708	885.58
1011.001	860.73
1011.295	873.61
1011.588	865.02
1011.881	854.17
1012.173	875.87
1012.466	865.92
1012.759	849.2
1013.052	859.14
1013.344	837.68
1013.637	822.08
1013.93	849.88
1014.222	840.16
1014.514	827.96
1014.807	810.33
1015.099	817.79
1015.391	829.77
1015.683	787.73
1015.976	826.15
1016.268	789.09
1016.56	818.92
1016.851	811.01
1017.143	803.78
1017.435	773.5
1017.727	789.32
1018.018	792.48
1018.31	800.16
1018.602	795.87
1018.893	779.15
1019.185	775.98
1019.476	773.27
1019.767	779.82
1020.058	782.76
1020.35	752.71
1020.641	733.27
1020.932	759.71
1021.223	759.94
1021.514	745.47
1021.804	757.45
1022.095	727.17
1022.386	752.25
1022.677	738.02
1022.967	710.9
1023.258	708.87
1023.548	723.33
1023.839	716.1
1024.129	739.83
1024.419	701.41
1024.709	706.83
1025	720.62
1025.29	703.89
1025.58	696.66
1025.87	688.75
1026.16	689.43
1026.449	701.86
1026.739	668.64
1027.029	677
1027.319	691.92
1027.608	686.95
1027.898	655.31
1028.187	645.36
1028.477	681.75
1028.766	652.14
1029.055	662.54
1029.344	649.88
1029.634	655.31
1029.923	660.05
1030.212	649.66
1030.501	630.68
1030.79	617.57
1031.078	615.31
1031.367	628.87
1031.656	637
1031.945	631.58
1032.233	641.52
1032.522	625.93
1032.81	617.57
1033.099	612.14
1033.387	630.68
1033.675	593.39
1033.963	615.31
1034.251	617.34
1034.54	609.66
1034.828	609.43
1035.116	594.74
1035.403	591.13
1035.691	608.08
1035.979	593.84
1036.267	590.9
1036.554	560.17
1036.842	608.53
1037.129	586.16
1037.417	564.01
1037.704	601.07
1037.992	574.41
1038.279	576.67
1038.566	553.62
1038.853	553.62
1039.14	553.62
