Data from brown_tile_FLMS001491_060.txt Node
Date: Tue Feb 07 10:37:43 GMT 2017
User: dcchb
Spectrometer: FLMS00149
Trigger mode: 0
Integration Time (sec): 2.000000E-2
Scans to average: 10
Electric dark correction enabled: true
Nonlinearity correction enabled: false
Boxcar width: 0
XAxis mode: Wavelengths
Number of Pixels in Spectrum: 2048
>>>>>Begin Spectral Data<<<<<
341.393	-20.62
341.776	-20.62
342.16	-20.62
342.543	-52.03
342.927	-62.88
343.31	-64.24
343.693	-67.85
344.077	-68.76
344.46	-58.13
344.843	-33.95
345.226	-44.12
345.61	-33.73
345.993	-25.82
346.376	-33.95
346.759	0.17
347.142	37
347.525	38.59
347.908	57.12
348.291	71.35
348.674	98.92
349.057	127.4
349.44	136.89
349.823	139.6
350.206	147.51
350.588	181.41
350.971	183.22
351.354	199.94
351.737	218.24
352.119	229.09
352.502	284.23
352.884	282.2
353.267	272.93
353.65	278.58
354.032	277.9
354.414	278.81
354.797	312.93
355.179	310.44
355.562	302.31
355.944	296.66
356.326	320.84
356.709	323.1
357.091	322.87
357.473	331.91
357.855	330.78
358.238	323.1
358.62	337.34
359.002	313.38
359.384	312.48
359.766	314.96
360.148	340.05
360.53	300.27
360.912	326.49
361.294	320.16
361.676	306.38
362.057	301.63
362.439	332.36
362.821	308.18
363.203	313.61
363.584	318.58
363.966	307.28
364.348	336.21
364.729	321.29
365.111	311.35
365.493	306.38
365.874	319.26
366.256	311.8
366.637	306.15
367.019	296.43
367.4	319.26
367.781	290.33
368.163	300.27
368.544	306.83
368.925	299.14
369.306	289.43
369.688	279.71
370.069	303.89
370.45	276.55
370.831	296.88
371.212	295.08
371.593	307.96
371.974	293.95
372.355	315.87
372.736	319.48
373.117	297.79
373.498	317.68
373.879	286.49
374.26	294.85
374.641	300.05
375.021	302.08
375.402	307.05
375.783	288.07
376.163	306.38
376.544	295.75
376.925	312.93
377.305	318.81
377.686	307.28
378.066	289.65
378.447	325.58
378.827	322.87
379.208	293.72
379.588	299.37
379.968	323.32
380.349	329.65
380.729	324.91
381.109	315.64
381.489	317.45
381.87	300.05
382.25	317.68
382.63	321.52
383.01	315.42
383.39	313.83
383.77	321.74
384.15	339.6
384.53	320.61
384.91	329.43
385.29	302.31
385.67	339.6
386.049	338.24
386.429	340.05
386.809	317.68
387.189	319.26
387.568	327.62
387.948	328.97
388.328	353.38
388.707	352.7
389.087	336.88
389.466	352.02
389.846	349.76
390.225	334.85
390.605	351.8
390.984	338.92
391.363	358.8
391.743	354.96
392.122	332.82
392.501	323.78
392.881	347.96
393.26	352.48
393.639	349.54
394.018	354.74
394.397	338.69
394.776	380.72
395.155	364.91
395.534	363.78
395.913	353.15
396.292	363.78
396.671	354.06
397.05	353.61
397.429	363.1
397.808	360.16
398.186	354.06
398.565	388.86
398.944	349.54
399.323	369.2
399.701	389.09
400.08	361.06
400.458	379.82
400.837	379.37
401.215	378.01
401.594	403.32
401.972	371.46
402.351	359.71
402.729	389.76
403.107	380.5
403.486	385.7
403.864	397.45
404.242	396.32
404.62	398.8
404.999	424.11
405.377	378.69
405.755	397.9
406.133	393.83
406.511	394.06
406.889	388.63
407.267	401.97
407.645	411.01
408.023	397.9
408.401	404.23
408.779	412.81
409.156	409.65
409.534	405.58
409.912	404
410.29	445.81
410.667	421.4
411.045	428.41
411.422	441.97
411.8	413.72
412.178	424.79
412.555	414.4
412.933	425.7
413.31	438.8
413.687	428.41
414.065	437.9
414.442	442.87
414.819	447.39
415.197	444.9
415.574	447.84
415.951	453.94
416.328	448.97
416.705	460.95
417.082	455.98
417.46	479.93
417.837	448.75
418.214	466.6
418.591	452.81
418.967	465.92
419.344	470.89
419.721	468.86
420.098	462.76
420.475	481.29
420.852	480.83
421.228	482.42
421.605	474.51
421.982	499.37
422.358	485.35
422.735	482.64
423.111	469.99
423.488	501.4
423.864	488.52
424.241	519.03
424.617	512.02
424.994	502.98
425.37	508.63
425.746	530.33
426.123	521.96
426.499	524.9
426.875	523.77
427.251	515.64
427.627	513.15
428.003	528.52
428.379	528.74
428.756	539.14
429.132	533.94
429.507	552.92
429.883	544.56
430.259	569.42
430.635	554.28
431.011	545.47
431.387	545.92
431.763	568.74
432.138	553.6
432.514	580.04
432.89	578.23
433.265	565.35
433.641	593.37
434.016	602.19
434.392	606.93
434.767	604.22
435.143	620.27
435.518	626.82
435.894	613.71
436.269	611.23
436.644	622.75
437.02	632.02
437.395	631.34
437.77	627.05
438.145	637.21
438.52	646.93
438.895	649.87
439.271	658.46
439.646	649.42
440.021	644.9
440.395	662.07
440.77	642.86
441.145	658.46
441.52	669.3
441.895	665.91
442.27	668.85
442.645	681.06
443.019	682.41
443.394	686.48
443.769	671.11
444.143	716.76
444.518	717.66
444.892	708.63
445.267	674.95
445.641	714.28
446.016	715.18
446.39	735.07
446.764	750.88
447.139	689.87
447.513	733.48
447.887	757.21
448.262	733.03
448.636	717.21
449.01	721.51
449.384	741.17
449.758	763.31
450.132	766.48
450.506	758.34
450.88	747.04
451.254	742.3
451.628	764.67
452.002	774.16
452.376	779.13
452.75	768.74
453.123	789.53
453.497	832.69
453.871	801.05
454.244	820.94
454.618	815.29
454.992	822.97
455.365	829.75
455.739	839.02
456.112	843.31
456.486	830.88
456.859	860.03
457.232	867.72
457.606	850.09
457.979	845.57
458.352	860.71
458.725	911.56
459.099	889.86
459.472	927.15
459.845	898
460.218	925.57
460.591	924.44
460.964	930.09
461.337	946.81
461.71	955.17
462.083	958.79
462.456	993.14
462.829	941.16
463.201	987.71
463.574	966.47
463.947	1000.82
464.32	1026.81
464.692	1024.32
465.065	1018.45
465.438	1020.03
465.81	1043.31
466.183	1054.38
466.555	1055.51
466.928	1081.05
467.3	1067.03
467.672	1101.38
468.045	1110.87
468.417	1125.34
468.789	1111.78
469.161	1134.83
469.534	1162.4
469.906	1163.3
470.278	1168.05
470.65	1183.87
471.022	1209.4
471.394	1225.67
471.766	1219.8
472.138	1236.97
472.51	1238.56
472.882	1279.46
473.253	1282.62
473.625	1282.62
473.997	1335.5
474.369	1342.06
474.74	1334.37
475.112	1371.88
475.484	1364.88
475.855	1423.86
476.227	1419.57
476.598	1443.97
476.97	1433.58
477.341	1457.08
477.713	1477.42
478.084	1509.06
478.455	1558.09
478.827	1552.22
479.198	1570.52
479.569	1580.69
479.94	1628.6
480.311	1629.28
480.682	1651.2
481.053	1693.46
481.424	1724.64
481.795	1729.39
482.166	1735.49
482.537	1789.95
482.908	1802.61
483.279	1791.31
483.65	1841.93
484.021	1863.85
484.391	1909.27
484.762	1920.8
485.133	1900.23
485.503	1971.87
485.874	1972.32
486.244	2005.77
486.615	2020.91
486.985	2066.56
487.356	2068.14
487.726	2083.05
488.097	2164.41
488.467	2131.41
488.837	2196.5
489.207	2190.39
489.578	2193.78
489.948	2249.38
490.318	2267
490.688	2291.63
491.058	2306.78
491.428	2324.18
491.798	2358.75
492.168	2405.08
492.538	2422.48
492.908	2467
493.278	2485.08
493.648	2502.25
494.017	2484.85
494.387	2540.22
494.757	2544.28
495.126	2565.53
495.496	2573.44
495.866	2584.06
496.235	2648.24
496.605	2666.09
496.974	2685.07
497.344	2669.93
497.713	2720.32
498.082	2747.89
498.452	2745.86
498.821	2763.49
499.19	2765.97
499.559	2768.01
499.928	2857.5
500.298	2801.9
500.667	2856.59
501.036	2858.4
501.405	2890.26
501.774	2873.77
502.143	2946.98
502.512	2952.18
502.88	2951.73
503.249	2975.01
503.618	2995.34
503.987	2995.12
504.356	3024.04
504.724	3017.27
505.093	3082.12
505.462	3044.38
505.83	3108.11
506.199	3102.23
506.567	3188.56
506.936	3200.54
507.304	3225.62
507.672	3205.28
508.041	3232.4
508.409	3281.89
508.777	3272.17
509.145	3316.92
509.514	3329.35
509.882	3357.14
510.25	3350.82
510.618	3362.57
510.986	3396.69
511.354	3455.22
511.722	3497.48
512.09	3513.07
512.458	3527.76
512.826	3495.67
513.193	3577.02
513.561	3552.39
513.929	3560.98
514.297	3615.44
514.664	3652.73
515.032	3677.81
515.4	3720.98
515.767	3709.22
516.135	3716.23
516.502	3742.44
516.869	3811.37
517.237	3816.34
517.604	3798.71
517.972	3830.35
518.339	3885.49
518.706	3926.85
519.073	3893.85
519.44	3963.23
519.808	3956.68
520.175	3977.47
520.542	4041.19
520.909	4095.66
521.276	4086.39
521.643	4104.47
522.009	4163.68
522.376	4202.77
522.743	4210
523.11	4244.58
523.477	4267.18
523.843	4298.59
524.21	4336.55
524.577	4381.07
524.943	4400.73
525.31	4470.11
525.676	4501.29
526.043	4553.5
526.409	4562.08
526.776	4621.97
527.142	4605.25
527.508	4666.04
527.874	4662.87
528.241	4682.31
528.607	4715.07
528.973	4772.02
529.339	4784
529.705	4862.64
530.071	4859.7
530.437	4943.77
530.803	4959.14
531.169	4951.68
531.535	4992.58
531.901	4983.77
532.267	5083.88
532.632	5063.31
532.998	5093.14
533.364	5168.85
533.73	5165.01
534.095	5217.43
534.461	5285.91
534.826	5261.27
535.192	5271.44
535.557	5327.71
535.923	5335.17
536.288	5416.52
536.653	5435.51
537.019	5399.35
537.384	5421.72
537.749	5480.25
538.114	5529.29
538.479	5542.62
538.845	5606.8
539.21	5609.97
539.575	5641.38
539.94	5599.57
540.305	5690.42
540.67	5686.35
541.034	5661.26
541.399	5745.78
541.764	5830.75
542.129	5837.98
542.494	5825.33
542.858	5868.26
543.223	5917.3
543.587	5939.45
543.952	5969.28
544.316	5971.31
544.681	6056.51
545.045	6113.23
545.41	6133.79
545.774	6132.21
546.138	6172.21
546.503	6218.31
546.867	6214.47
547.231	6291.98
547.595	6370.17
547.959	6395.71
548.324	6325.2
548.688	6388.7
549.052	6444.29
549.416	6522.48
549.779	6554.57
550.143	6574.69
550.507	6611.75
550.871	6647.9
551.235	6733.55
551.599	6779.2
551.962	6789.6
552.326	6825.3
552.689	6865.75
553.053	6893.1
553.417	6966.77
553.78	7059.87
554.143	7046.31
554.507	7124.28
554.87	7148.23
555.234	7250.83
555.597	7206.53
555.96	7363.82
556.323	7387.55
556.686	7421.22
557.05	7510.93
557.413	7547.09
557.776	7602
558.139	7665.96
558.502	7712.51
558.865	7768.1
559.228	7933.52
559.59	7913.18
559.953	7922.22
560.316	8145.27
560.679	8104.82
561.041	8221.65
561.404	8256.9
561.767	8362.44
562.129	8317.46
562.492	8506.16
562.854	8479.04
563.217	8599.27
563.579	8683.56
563.941	8770.79
564.304	8825.25
564.666	8892.82
565.028	8963.55
565.39	8985.92
565.753	9167.61
566.115	9176.2
566.477	9235.41
566.839	9372.13
567.201	9438.34
567.563	9498.45
567.925	9649.86
568.287	9681.72
568.648	9715.85
569.01	9761.72
569.372	9915.16
569.734	9961.72
570.095	10072
570.457	10129.17
570.819	10270.41
571.18	10257.07
571.542	10376.39
571.903	10400.35
572.265	10519.44
572.626	10604.86
572.987	10674.24
573.349	10694.13
573.71	10862.03
574.071	10925.53
574.432	10981.35
574.794	11076.04
575.155	11157.62
575.516	11148.58
575.877	11235.58
576.238	11339.53
576.599	11427.44
576.96	11477.83
577.32	11546.53
577.681	11696.81
578.042	11723.7
578.403	11725.51
578.763	11789.46
579.124	11950.59
579.485	11979.29
579.845	12087.08
580.206	12118.27
580.566	12193.75
580.927	12181.32
581.287	12346.06
581.648	12328.66
582.008	12424.02
582.368	12428.32
582.728	12552.16
583.089	12645.26
583.449	12633.74
583.809	12663.11
584.169	12738.82
584.529	12727.74
584.889	12888.64
585.249	12857.01
585.609	12885.03
585.969	12979.49
586.329	12960.51
586.688	13068.07
587.048	13092.03
587.408	13118.92
587.768	13202.99
588.127	13142.2
588.487	13189.88
588.846	13382.42
589.206	13236.21
589.565	13402.75
589.925	13414.73
590.284	13410.21
590.643	13532.47
591.003	13565.01
591.362	13644.1
591.721	13646.82
592.08	13682.75
592.44	13680.94
592.799	13736.98
593.158	13738.11
593.517	13768.62
593.876	13818.79
594.235	13836.87
594.593	13917.77
594.952	13935.85
595.311	13943.31
595.67	14015.62
596.029	14079.57
596.387	14094.94
596.746	14198.44
597.104	14183.07
597.463	14180.36
597.822	14275.95
598.18	14179.91
598.538	14250.87
598.897	14478.88
599.255	14313.92
599.613	14538.32
599.972	14465.33
600.33	14524.53
600.688	14588.26
601.046	14559.79
601.404	14668.48
601.762	14618.77
602.12	14754.58
602.478	14692.44
602.836	14715.04
603.194	14722.49
603.552	14750.06
603.91	14754.36
604.268	14880.68
604.625	14862.6
604.983	14972.21
605.341	14774.24
605.698	14953
606.056	15037.74
606.413	15009.72
606.771	15054.91
607.128	15148.25
607.485	15082.94
607.843	15105.54
608.2	15209.94
608.557	15288.36
608.914	15273.67
609.272	15228.7
609.629	15381.91
609.986	15410.61
610.343	15340.11
610.7	15499.2
611.057	15426.88
611.414	15437.5
611.771	15464.4
612.127	15595.92
612.484	15539.87
612.841	15606.76
613.198	15581.68
613.554	15589.14
613.911	15739.19
614.267	15655.58
614.624	15694.67
614.98	15756.14
615.337	15767.66
615.693	15822.8
616.05	15825.74
616.406	15870.94
616.762	15857.15
617.118	15869.58
617.475	15909.58
617.831	15931.28
618.187	16076.58
618.543	15941.9
618.899	16099.41
619.255	16147.09
619.611	16072.74
619.967	16145.96
620.323	16086.53
620.678	16168.56
621.034	16069.8
621.39	16014.44
621.746	16125.17
622.101	16327.42
622.457	16133.53
622.812	16145.73
623.168	16204.72
623.523	16252.85
623.879	16368.78
624.234	16202.68
624.589	16240.87
624.945	16359.29
625.3	16371.72
625.655	16305.05
626.01	16290.14
626.365	16322.9
626.72	16342.56
627.075	16417.59
627.43	16442.68
627.785	16282.45
628.14	16336.69
628.495	16365.16
628.85	16334.66
629.205	16264.6
629.559	16392.28
629.914	16302.79
630.269	16353.19
630.623	16283.13
630.978	16250.59
631.332	16331.72
631.687	16297.59
632.041	16285.84
632.396	16306.18
632.75	16282.45
633.104	16316.8
633.459	16224.15
633.813	16077.71
634.167	16219.18
634.521	16180.76
634.875	16216.47
635.229	16143.7
635.583	16145.06
635.937	16166.75
636.291	16111.84
636.645	16129.91
636.999	16044.95
637.352	16131.04
637.706	16087.43
638.06	16202
638.413	16113.64
638.767	15972.63
639.121	16042.69
639.474	15943.93
639.828	16118.39
640.181	15966.3
640.534	16003.36
640.888	16020.54
641.241	15886.76
641.594	15949.81
641.947	15960.65
642.301	15980.54
642.654	15923.59
643.007	15956.13
643.36	15972.4
643.713	15914.1
644.066	15917.49
644.419	15828.91
644.771	15757.95
645.124	15660.32
645.477	15591.85
645.83	15582.13
646.182	15445.19
646.535	15333.78
646.888	15368.8
647.24	15351.18
647.593	15404.51
647.945	15343.27
648.298	15343.95
648.65	15263.05
649.002	15275.02
649.355	15371.52
649.707	15217.4
650.059	15384.17
650.411	15515.47
650.763	15563.38
651.115	15755.01
651.467	15643.83
651.819	15685.63
652.171	15597.5
652.523	15599.31
652.875	15603.6
653.227	15611.96
653.578	15587.33
653.93	15692.19
654.282	15589.14
654.633	15613.54
654.985	15553.43
655.337	15564.96
655.688	15564.96
656.039	15638.85
656.391	15418.75
656.742	15639.76
657.094	15619.87
657.445	15609.48
657.796	15537.84
658.147	15639.08
658.498	15571.29
658.849	15583.49
659.2	15529.03
659.551	15597.95
659.902	15592.98
660.253	15533.77
660.604	15604.73
660.955	15569.7
661.306	15716.82
661.656	15569.7
662.007	15587.1
662.358	15628.46
662.708	15619.42
663.059	15586.65
663.409	15506.65
663.76	15534.45
664.11	15590.72
664.461	15698.74
664.811	15626.2
665.161	15647.44
665.511	15564.96
665.862	15625.97
666.212	15710.49
666.562	15709.81
666.912	15668.01
667.262	15735.57
667.612	15676.82
667.962	15719.08
668.312	15664.16
668.662	15785.97
669.011	15725.18
669.361	15699.64
669.711	15678.85
670.06	15706.42
670.41	15682.24
670.76	15686.76
671.109	15693.77
671.459	15696.25
671.808	15705.75
672.157	15666.88
672.507	15646.54
672.856	15567.22
673.205	15741
673.554	15817.61
673.904	15668.91
674.253	15789.58
674.602	15714.33
674.951	15494.9
675.3	15434.11
675.649	15707.1
675.998	15627.1
676.346	15733.54
676.695	15723.6
677.044	15587.1
677.393	15650.15
677.741	15700.55
678.09	15662.58
678.438	15590.27
678.787	15756.37
679.135	15709.36
679.484	15668.23
679.832	15556.37
680.181	15690.38
680.529	15636.37
680.877	15644.28
681.225	15575.35
681.573	15694.9
681.922	15542.36
682.27	15594.34
682.618	15703.94
682.966	15538.74
683.314	15692.64
683.661	15493.1
684.009	15505.75
684.357	15496.71
684.705	15436.6
685.053	15494.45
685.4	15481.12
685.748	15438.63
686.095	15460.55
686.443	15460.1
686.79	15392.31
687.138	15483.15
687.485	15448.8
687.832	15344.62
688.18	15365.64
688.527	15343.95
688.874	15361.57
689.221	15274.34
689.568	15281.12
689.915	15297.62
690.262	15255.59
690.609	15273.21
690.956	15202.03
691.303	15168.13
691.65	15091.52
691.997	15075.03
692.344	14997.52
692.69	15031.86
693.037	14977.85
693.383	14966.56
693.73	15000.23
694.077	14993.22
694.423	15012.2
694.769	14928.82
695.116	14861.47
695.462	14879.33
695.808	14926.56
696.155	14878.2
696.501	14846.78
696.847	14769.27
697.193	14724.98
697.539	14747.8
697.885	14641.59
698.231	14641.14
698.577	14673.23
698.923	14662.83
699.269	14477.3
699.614	14569.05
699.96	14455.38
700.306	14515.72
700.651	14467.81
700.997	14469.85
701.342	14405.89
701.688	14450.19
702.033	14356.63
702.379	14384.2
702.724	14332.9
703.069	14399.56
703.415	14223.75
703.76	14243.18
704.105	14249.96
704.45	14230.08
704.795	14232.34
705.14	14161.83
705.485	14087.03
705.83	14070.31
706.175	14182.62
706.52	14033.92
706.865	14025.11
707.209	14037.77
707.554	14064.21
707.899	14086.8
708.243	13943.08
708.588	13949.86
708.932	13843.65
709.277	13907.83
709.621	13988.05
709.966	13796.64
710.31	13913.93
710.654	13831.44
710.998	13857.21
711.342	13789.64
711.687	13861.73
712.031	13725.23
712.375	13662.41
712.719	13792.12
713.063	13748.51
713.407	13750.77
713.75	13634.84
714.094	13776.98
714.438	13618.57
714.782	13648.62
715.125	13546.71
715.469	13640.49
715.812	13597.55
716.156	13481.17
716.499	13529.98
716.843	13476.2
717.186	13494.05
717.53	13551.68
717.873	13517.55
718.216	13525.69
718.559	13420.16
718.902	13418.35
719.246	13466.26
719.589	13400.27
719.932	13391.91
720.275	13380.38
720.617	13374.73
720.96	13336.77
721.303	13302.64
721.646	13355.07
721.989	13301.51
722.331	13273.94
722.674	13358.91
723.016	13238.24
723.359	13313.04
723.701	13243.44
724.044	13194.85
724.386	13134.74
724.729	13280.72
725.071	13214.51
725.413	13253.61
725.755	13219.48
726.097	13129.99
726.439	13210.67
726.782	13139.26
727.124	13183.33
727.465	13092.25
727.807	13105.59
728.149	13034.86
728.491	13030.11
728.833	13120.05
729.175	13027.17
729.516	13045.93
729.858	12970.22
730.199	13080.96
730.541	12963.22
730.882	12990.11
731.224	13106.27
731.565	12905.37
731.906	12944.46
732.248	12971.58
732.589	12937.68
732.93	12904.46
733.271	12862.66
733.612	12916.67
733.953	12923.9
734.294	12931.35
734.635	12791.02
734.976	12876.89
735.317	12774.97
735.658	12798.93
735.999	12773.17
736.339	12800.06
736.68	12886.84
737.021	12804.13
737.361	12665.6
737.702	12781.08
738.042	12761.19
738.383	12598.03
738.723	12757.12
739.063	12704.69
739.404	12667.18
739.744	12716.45
740.084	12602.32
740.424	12628.54
740.764	12537.92
741.104	12617.69
741.444	12516.68
741.784	12569.56
742.124	12581.31
742.464	12603.91
742.804	12490.46
743.143	12563.91
743.483	12516.9
743.823	12480.75
744.162	12386.74
744.502	12456.79
744.841	12308.09
745.181	12357.13
745.52	12334.53
745.86	12483.01
746.199	12331.82
746.538	12297.02
746.877	12330.47
747.216	12341.31
747.556	12261.54
747.895	12293.18
748.234	12241.88
748.573	12193.52
748.911	12206.4
749.25	12203.46
749.589	12097.93
749.928	12103.13
750.267	12156.46
750.605	12084.82
750.944	12086.18
751.283	12112.39
751.621	12055.22
751.96	11930.93
752.298	12004.6
752.636	11964.6
752.975	11921.66
753.313	11896.58
753.651	11929.57
753.989	11778.16
754.327	11866.98
754.666	11703.14
755.004	11762.57
755.342	11789.69
755.679	11704.49
756.017	11654.55
756.355	11667.43
756.693	11628.11
757.031	11620.65
757.368	11603.48
757.706	11545.4
758.044	11506.08
758.381	11535.23
758.719	11522.58
759.056	11509.92
759.394	11417.72
759.731	11337.27
760.068	11330.04
760.405	11287.56
760.743	11301.79
761.08	11214.34
761.417	11231.06
761.754	11206.65
762.091	11207.78
762.428	11174.11
762.765	11066.77
763.102	11144.06
763.438	10950.16
763.775	10970.28
764.112	10924.4
764.449	10947.9
764.785	10880.34
765.122	10765.31
765.458	10780
765.795	10792.88
766.131	10754.69
766.467	10758.76
766.804	10638.76
767.14	10594.02
767.476	10574.13
767.812	10550.17
768.148	10525.99
768.485	10524.41
768.821	10409.61
769.157	10386.79
769.492	10442.38
769.828	10350.86
770.164	10350.18
770.5	10246
770.836	10335.26
771.171	10250.3
771.507	10206.68
771.842	10120.36
772.178	10131.2
772.513	10101.82
772.849	10053.69
773.184	9998.55
773.519	9987.25
773.855	9951.32
774.19	9940.47
774.525	9881.49
774.86	9885.11
775.195	9801.27
775.53	9754.04
775.865	9653.93
776.2	9686.02
776.535	9606.92
776.87	9600.82
777.205	9573.48
777.539	9455.06
777.874	9513.59
778.209	9440.37
778.543	9405.35
778.878	9312.69
779.212	9394.72
779.547	9353.6
779.881	9324.9
780.215	9231.11
780.55	9213.94
780.884	9182.3
781.218	9155.63
781.552	9111.34
781.886	9031.57
782.22	9022.31
782.554	8997.67
782.888	8831.8
783.222	8925.58
783.556	8823.21
783.889	8839.71
784.223	8762.42
784.557	8695.76
784.89	8800.62
785.224	8660.51
785.557	8622.32
785.891	8633.84
786.224	8567.18
786.558	8614.41
786.891	8515.65
787.224	8514.97
787.557	8435.43
787.891	8492.38
788.224	8411.7
788.557	8406.95
788.89	8388.42
789.223	8394.07
789.556	8274.98
789.888	8276.56
790.221	8191.37
790.554	8158.37
790.887	8166.06
791.219	8173.51
791.552	8144.36
791.884	8053.52
792.217	8091.26
792.549	8009.9
792.882	7957.02
793.214	7891.26
793.546	7967.42
793.879	7864.37
794.211	7820.53
794.543	7856.23
794.875	7815.78
795.207	7815.56
795.539	7674.54
795.871	7719.06
796.203	7654.88
796.535	7588.9
796.867	7589.35
797.198	7571.04
797.53	7653.3
797.862	7576.69
798.193	7526.3
798.525	7438.62
798.856	7492.63
799.188	7357.94
799.519	7369.69
799.85	7317.04
800.182	7345.51
800.513	7353.2
800.844	7254.44
801.175	7359.3
801.506	7249.7
801.837	7217.38
802.168	7176.03
802.499	7119.3
802.83	7105.75
803.161	7131.96
803.491	7032.3
803.822	7106.88
804.153	7050.61
804.483	6980.78
804.814	6937.39
805.145	6986.43
805.475	6968.35
805.805	6928.57
806.136	6896.49
806.466	6884.51
806.796	6852.42
807.126	6794.57
807.457	6818.07
807.787	6804.96
808.117	6778.3
808.447	6755.7
808.777	6761.35
809.107	6722.48
809.436	6705.98
809.766	6680.67
810.096	6656.94
810.426	6612.88
810.755	6610.62
811.085	6542.37
811.414	6608.58
811.744	6533.56
812.073	6500.56
812.403	6501.92
812.732	6488.13
813.061	6468.7
813.39	6432.77
813.719	6390.06
814.049	6392.32
814.378	6464.18
814.707	6391.19
815.036	6356.39
815.365	6353.22
815.693	6247.91
816.022	6290.63
816.351	6234.58
816.68	6225.32
817.008	6247.69
817.337	6178.76
817.665	6137.18
817.994	6157.07
818.322	6155.04
818.651	6186.22
818.979	6070.52
819.307	6062.38
819.636	6101.48
819.964	6023.06
820.292	6037.52
820.62	6049.05
820.948	6019.67
821.276	6059.9
821.604	5923.63
821.932	6053.8
822.259	6012.67
822.587	5982.84
822.915	6035.04
823.243	6015.83
823.57	6010.41
823.898	6039.11
824.225	5989.39
824.553	5987.36
824.88	5964.53
825.207	5948.49
825.535	5966.57
825.862	6003.63
826.189	5931.76
826.516	5950.52
826.843	5988.71
827.17	5955.95
827.497	5952.78
827.824	5907.58
828.151	5977.87
828.478	5958.43
828.805	6014.93
829.131	5899.22
829.458	5912.33
829.785	5929.28
830.111	5898.32
830.438	5941.03
830.764	5970.41
831.09	5929.28
831.417	5856.29
831.743	5898.09
832.069	5875.5
832.395	5871.65
832.722	5867.81
833.048	5830.98
833.374	5887.25
833.7	5806.57
834.026	5876.4
834.351	5854.48
834.677	5832.56
835.003	5829.17
835.329	5836.85
835.654	5800.69
835.98	5788.94
836.306	5761.6
836.631	5729.51
836.956	5760.92
837.282	5716.86
837.607	5740.13
837.932	5715.95
838.258	5693.58
838.583	5739.68
838.908	5667.14
839.233	5687.03
839.558	5668.5
839.883	5662.62
840.208	5637.54
840.533	5647.48
840.858	5578.78
841.182	5617.2
841.507	5628.95
841.832	5588.72
842.156	5573.36
842.481	5546.92
842.805	5559.35
843.13	5555.05
843.454	5548.5
843.778	5465.79
844.103	5479.57
844.427	5442.06
844.751	5437.77
845.075	5436.86
845.399	5416.52
845.723	5448.84
846.047	5443.87
846.371	5343.76
846.695	5341.5
847.019	5314.15
847.343	5308.05
847.666	5245.68
847.99	5218.11
848.313	5229.18
848.637	5173.14
848.96	5178.11
849.284	5150.09
849.607	5144.89
849.931	5099.92
850.254	5067.61
850.577	5075.29
850.9	5009.98
851.223	5064.22
851.546	5001.62
851.869	4982.41
852.192	4974.05
852.515	4936.54
852.838	4919.81
853.161	4944.22
853.483	4951.68
853.806	4886.82
854.129	4906.03
854.451	4838.69
854.774	4863.54
855.096	4808.63
855.419	4793.72
855.741	4782.87
856.063	4792.81
856.385	4745.58
856.708	4708.75
857.03	4720.27
857.352	4772.02
857.674	4696.32
857.996	4701.74
858.318	4625.58
858.64	4648.41
858.961	4587.85
859.283	4589.88
859.605	4610.9
859.926	4608.86
860.248	4626.71
860.57	4528.41
860.891	4516.43
861.212	4534.29
861.534	4534.51
861.855	4483.67
862.176	4546.49
862.498	4520.73
862.819	4512.59
863.14	4462.2
863.461	4475.53
863.782	4459.04
864.103	4531.12
864.424	4437.57
864.745	4423.56
865.065	4422.43
865.386	4430.11
865.707	4426.95
866.027	4414.74
866.348	4402.99
866.668	4390.79
866.989	4380.17
867.309	4329.55
867.63	4377
867.95	4390.11
868.27	4315.08
868.59	4342.2
868.91	4377.46
869.23	4274.63
869.55	4299.27
869.87	4303.56
870.19	4301.53
870.51	4318.02
870.83	4268.98
871.15	4270.34
871.469	4277.8
871.789	4273.05
872.109	4321.41
872.428	4250
872.748	4255.88
873.067	4253.39
873.386	4199.61
873.706	4218.59
874.025	4217.91
874.344	4158.25
874.663	4222.88
874.982	4218.59
875.301	4187.86
875.62	4175.65
875.939	4157.57
876.258	4152.83
876.577	4132.26
876.896	4136.11
877.214	4146.05
877.533	4148.76
877.852	4152.38
878.17	4114.64
878.489	4125.94
878.807	4137.69
879.125	4130
879.444	4094.98
879.762	4115.54
880.08	4115.32
880.398	4054.3
880.716	4075.54
881.034	4030.35
881.352	4013.17
881.67	3975.66
881.988	4007.3
882.306	3978.37
882.624	4000.52
882.941	3979.05
883.259	3936.34
883.577	3970.01
883.894	3941.31
884.212	3944.7
884.529	3938.15
884.846	3928.88
885.164	3920.52
885.481	3917.35
885.798	3916
886.115	3900.41
886.432	3890.69
886.75	3902.67
887.067	3936.79
887.383	3860.18
887.7	3849.56
888.017	3829.45
888.334	3854.76
888.651	3830.8
888.967	3853.85
889.284	3851.59
889.6	3794.65
889.917	3782.67
890.233	3826.28
890.55	3746.06
890.866	3768.21
891.182	3766.4
891.498	3739.28
891.815	3737.92
892.131	3752.84
892.447	3753.07
892.763	3667.87
893.079	3700.41
893.395	3717.81
893.71	3654.31
894.026	3697.25
894.342	3675.1
894.657	3623.13
894.973	3635.33
895.289	3624.25
895.604	3587.42
895.92	3551.04
896.235	3594.88
896.55	3583.58
896.865	3579.74
897.181	3566.4
897.496	3537.25
897.811	3565.95
898.126	3504.26
898.441	3503.58
898.756	3500.87
899.071	3490.93
899.386	3492.51
899.7	3524.82
900.015	3476.91
900.33	3429.46
900.644	3448.44
900.959	3416.8
901.273	3382.68
901.588	3405.5
901.902	3367.54
902.216	3395.79
902.531	3338.61
902.845	3363.24
903.159	3352.62
903.473	3315.34
903.787	3342.45
904.101	3302
904.415	3288.22
904.729	3291.38
905.042	3299.07
905.356	3270.59
905.67	3238.28
905.984	3283.7
906.297	3238.5
906.611	3250.48
906.924	3224.27
907.237	3233.53
907.551	3209.8
907.864	3221.1
908.177	3159.41
908.491	3201.22
908.804	3140.2
909.117	3147.88
909.43	3125.29
909.743	3113.31
910.056	3077.15
910.368	3049.58
910.681	3032.18
910.994	3061.56
911.307	3057.49
911.619	3036.7
911.932	3048.68
912.244	3017.27
912.557	3017.04
912.869	3028.11
913.181	2961.22
913.494	2954.44
913.806	2934.33
914.118	2963.48
914.43	2947.66
914.742	2901.56
915.054	2921.45
915.366	2925.97
915.678	2956.25
915.99	2888.23
916.302	2866.31
916.613	2893.65
916.925	2911.28
917.236	2833.54
917.548	2811.85
917.859	2830.83
918.171	2835.35
918.482	2813.88
918.794	2787.89
919.105	2779.53
919.416	2745.86
919.727	2801
920.038	2752.41
920.349	2739.08
920.66	2735.92
920.971	2732.98
921.282	2695.47
921.593	2674.9
921.903	2671.51
922.214	2739.76
922.525	2676.48
922.835	2658.63
923.146	2646.65
923.456	2643.26
923.767	2627.22
924.077	2605.75
924.387	2625.41
924.697	2588.35
925.008	2570.72
925.318	2607.11
925.628	2610.04
925.938	2569.14
926.248	2565.07
926.558	2520.1
926.867	2506.09
927.177	2517.84
927.487	2511.06
927.796	2503.83
928.106	2513.1
928.416	2441.01
928.725	2458.18
929.034	2478.97
929.344	2445.3
929.653	2434.46
929.962	2436.49
930.271	2441.24
930.581	2449.37
930.89	2407.34
931.199	2372.08
931.508	2381.35
931.817	2390.62
932.125	2377.06
932.434	2351.07
932.743	2346.77
933.051	2359.66
933.36	2295.93
933.669	2322.82
933.977	2336.38
934.286	2305.42
934.594	2319.43
934.902	2296.61
935.21	2294.12
935.519	2286.89
935.827	2241.01
936.135	2268.13
936.443	2267.23
936.751	2233.56
937.059	2224.07
937.367	2250.28
937.674	2212.54
937.982	2232.65
938.29	2212.54
938.597	2205.54
938.905	2185.65
939.213	2177.51
939.52	2163.05
939.827	2165.99
940.135	2137.74
940.442	2182.94
940.749	2163.28
941.056	2125.54
941.363	2118.08
941.67	2069.95
941.977	2109.72
942.284	2079.44
942.591	2098.87
942.898	2094.13
943.205	2054.35
943.511	2053.9
943.818	2073.79
944.125	2042.15
944.431	2043.96
944.738	2025.65
945.044	2032.21
945.35	2034.47
945.657	2013.45
945.963	1980.23
946.269	2030.62
946.575	2022.72
946.881	2017.52
947.187	1984.52
947.493	1972.32
947.799	1960.57
948.105	1968.48
948.41	1950.4
948.716	1965.99
949.022	1976.16
949.327	1937.07
949.633	1903.4
949.938	1910.63
950.244	1902.49
950.549	1903.17
950.854	1896.84
951.16	1928.03
951.465	1916.96
951.77	1876.5
952.075	1834.02
952.38	1824.08
952.685	1843.06
952.99	1854.13
953.294	1846.9
953.599	1837.41
953.904	1853.45
954.209	1831.53
954.513	1827.69
954.818	1779.11
955.122	1797.18
955.426	1781.59
955.731	1816.39
956.035	1795.38
956.339	1759.67
956.643	1786.11
956.948	1752.44
957.252	1774.59
957.556	1788.15
957.86	1740.24
958.163	1752.44
958.467	1733.23
958.771	1711.08
959.075	1696.85
959.378	1692.55
959.682	1729.39
959.985	1680.13
960.289	1714.47
960.592	1706.34
960.896	1663.63
961.199	1687.81
961.502	1654.82
961.805	1690.29
962.108	1671.76
962.411	1643.97
962.714	1637.87
963.017	1633.57
963.32	1650.07
963.623	1627.02
963.926	1599
964.228	1633.57
964.531	1638.77
964.833	1603.97
965.136	1592.44
965.438	1559.45
965.741	1593.12
966.043	1603.07
966.345	1611.43
966.648	1579.56
966.95	1579.79
967.252	1561.48
967.554	1555.83
967.856	1554.25
968.158	1558.32
968.46	1537.98
968.761	1552.67
969.063	1539.79
969.365	1502.28
969.666	1502.95
969.968	1520.13
970.269	1516.74
970.571	1502.05
970.872	1504.31
971.174	1500.92
971.475	1476.51
971.776	1489.62
972.077	1459.57
972.378	1481.94
972.679	1497.53
972.98	1480.13
973.281	1456.63
973.582	1452.79
973.883	1428.38
974.183	1445.1
974.484	1416.63
974.785	1462.5
975.085	1437.87
975.386	1439.23
975.686	1392
975.986	1407.36
976.287	1390.64
976.587	1410.75
976.887	1393.35
977.187	1389.74
977.487	1357.2
977.787	1353.13
978.087	1372.34
978.387	1342.51
978.687	1371.88
978.987	1336.41
979.286	1349.29
979.586	1362.85
979.885	1338.21
980.185	1326.46
980.484	1284.2
980.784	1330.3
981.083	1313.81
981.382	1309.97
981.682	1322.39
981.981	1312.45
982.28	1317.42
982.579	1311.32
982.878	1281.04
983.177	1317.2
983.475	1274.03
983.774	1268.16
984.073	1238.1
984.372	1235.62
984.67	1254.37
984.969	1260.25
985.267	1254.37
985.566	1257.54
985.864	1232.45
986.162	1258.22
986.461	1230.65
986.759	1243.53
987.057	1221.61
987.355	1227.71
987.653	1239.68
987.951	1222.06
988.249	1202.85
988.547	1192.68
988.844	1224.54
989.142	1210.08
989.44	1193.36
989.737	1198.33
990.035	1167.6
990.332	1173.02
990.63	1183.64
990.927	1182.74
991.224	1174.83
991.521	1166.47
991.819	1158.11
992.116	1155.62
992.413	1144.09
992.71	1121.5
993.006	1127.82
993.303	1104.77
993.6	1149.29
993.897	1129.63
994.193	1122.4
994.49	1103.19
994.787	1092.34
995.083	1103.64
995.379	1084.43
995.676	1092.34
995.972	1084.43
996.268	1105.45
996.565	1067.03
996.861	1078.33
997.157	1091.21
997.453	1049.63
997.749	1065.23
998.044	1070.2
998.34	1075.85
998.636	1055.96
998.932	1044.21
999.227	1082.4
999.523	1039.69
999.818	1032.68
1000.114	1036.07
1000.409	1030.42
1000.704	1012.8
1001	1027.26
1001.295	1008.05
1001.59	1007.6
1001.885	996.3
1002.18	1000.14
1002.475	1026.58
1002.77	990.43
1003.065	1015.06
1003.359	999.01
1003.654	994.04
1003.949	998.11
1004.243	967.6
1004.538	966.47
1004.832	986.13
1005.127	978.67
1005.421	955.17
1005.715	930.77
1006.009	965.79
1006.304	953.82
1006.598	946.59
1006.892	930.77
1007.186	923.31
1007.48	940.71
1007.773	920.82
1008.067	904.55
1008.361	904.55
1008.655	901.39
1008.948	923.31
1009.242	922.41
1009.535	907.94
1009.829	887.6
1010.122	888.06
1010.415	867.49
1010.708	869.3
1011.001	864.55
1011.295	880.6
1011.588	878.79
1011.881	842.86
1012.173	853.93
1012.466	849.41
1012.759	860.49
1013.052	853.71
1013.344	872.01
1013.637	852.12
1013.93	866.81
1014.222	838.79
1014.514	849.86
1014.807	840.6
1015.099	874.5
1015.391	834.95
1015.683	815.52
1015.976	838.11
1016.268	827.49
1016.56	809.87
1016.851	803.76
1017.143	799.7
1017.435	803.99
1017.727	807.61
1018.018	800.37
1018.31	794.5
1018.602	800.37
1018.893	776.42
1019.185	756.08
1019.476	755.4
1019.767	772.8
1020.058	755.86
1020.35	757.89
1020.641	766.7
1020.932	762.41
1021.223	757.89
1021.514	734.39
1021.804	731.22
1022.095	735.52
1022.386	755.86
1022.677	742.3
1022.967	724.22
1023.258	695.97
1023.548	725.57
1023.839	709.08
1024.129	717.44
1024.419	690.32
1024.709	732.13
1025	704.56
1025.29	695.97
1025.58	692.81
1025.87	701.17
1026.16	684.67
1026.449	673.6
1026.739	690.32
1027.029	658.23
1027.319	672.69
1027.608	680.6
1027.898	688.51
1028.187	682.41
1028.477	657.78
1028.766	677.67
1029.055	657.78
1029.344	657.1
1029.634	650.55
1029.923	648.06
1030.212	651.9
1030.501	623.43
1030.79	640.83
1031.078	653.49
1031.367	658.23
1031.656	631.57
1031.945	652.58
1032.233	625.24
1032.522	628.18
1032.81	633.83
1033.099	615.07
1033.387	626.59
1033.675	596.99
1033.963	615.75
1034.251	603.32
1034.54	627.95
1034.828	620.27
1035.116	577.56
1035.403	585.46
1035.691	596.76
1035.979	604.67
1036.267	594.05
1036.554	602.19
1036.842	588.85
1037.129	584.33
1037.417	598.57
1037.704	593.83
1037.992	585.46
1038.279	563.54
1038.566	574.84
1038.853	574.84
1039.14	574.84
