Data from brown_tile_FLMS001491_056.txt Node
Date: Tue Feb 07 10:37:42 GMT 2017
User: dcchb
Spectrometer: FLMS00149
Trigger mode: 0
Integration Time (sec): 2.000000E-2
Scans to average: 10
Electric dark correction enabled: true
Nonlinearity correction enabled: false
Boxcar width: 0
XAxis mode: Wavelengths
Number of Pixels in Spectrum: 2048
>>>>>Begin Spectral Data<<<<<
341.393	-22.65
341.776	-22.65
342.16	-22.65
342.543	-90.68
342.927	-77.57
343.31	-89.09
343.693	-66.27
344.077	-63.56
344.46	-56.55
344.843	-64.01
345.226	-30.11
345.61	-28.53
345.993	-5.71
346.376	-7.74
346.759	25.71
347.142	25.03
347.525	30.45
347.908	63.44
348.291	65.48
348.674	81.98
349.057	119.49
349.44	131.24
349.823	148.64
350.206	162.43
350.588	169.66
350.971	168.75
351.354	200.84
351.737	213.72
352.119	230.9
352.502	250.33
352.884	232.71
353.267	253.95
353.65	265.25
354.032	289.2
354.414	264.34
354.797	277.68
355.179	280.16
355.562	322.65
355.944	311.12
356.326	324.23
356.709	311.12
357.091	303.21
357.473	330.78
357.855	317.9
358.238	322.42
358.62	301.4
359.002	335.75
359.384	321.97
359.766	314.51
360.148	316.55
360.53	311.57
360.912	314.74
361.294	306.38
361.676	305.47
362.057	332.14
362.439	300.05
362.821	339.82
363.203	298.92
363.584	303.66
363.966	318.58
364.348	295.98
364.729	307.05
365.111	318.81
365.493	297.56
365.874	304.79
366.256	305.02
366.637	301.63
367.019	275.19
367.4	293.95
367.781	283.78
368.163	312.7
368.544	305.7
368.925	281.07
369.306	288.07
369.688	262.76
370.069	289.43
370.45	294.4
370.831	289.2
371.212	298.69
371.593	297.56
371.974	301.86
372.355	291.91
372.736	287.62
373.117	288.07
373.498	309.31
373.879	305.25
374.26	279.71
374.641	290.33
375.021	298.69
375.402	291.69
375.783	318.35
376.163	300.73
376.544	299.14
376.925	314.51
377.305	304.12
377.686	295.3
378.066	288.75
378.447	294.85
378.827	317.22
379.208	308.86
379.588	320.61
379.968	315.42
380.349	293.27
380.729	306.83
381.109	324.45
381.489	308.41
381.87	316.55
382.25	301.86
382.63	313.83
383.01	316.32
383.39	322.87
383.77	298.92
384.15	323.55
384.53	336.43
384.91	304.34
385.29	315.19
385.67	311.57
386.049	329.2
386.429	303.66
386.809	341.4
387.189	298.47
387.568	306.15
387.948	321.29
388.328	329.88
388.707	317.45
389.087	325.58
389.466	316.32
389.846	331.01
390.225	335.08
390.605	330.78
390.984	338.92
391.363	344.12
391.743	334.62
392.122	338.01
392.501	334.4
392.881	335.75
393.26	327.17
393.639	336.43
394.018	355.64
394.397	350.22
394.776	358.13
395.155	348.41
395.534	363.78
395.913	343.21
396.292	349.54
396.671	349.99
397.05	358.8
397.429	348.18
397.808	338.92
398.186	352.48
398.565	358.35
398.944	364.68
399.323	348.18
399.701	384.11
400.08	374.85
400.458	355.19
400.837	363.1
401.215	373.04
401.594	364.68
401.972	368.07
402.351	360.61
402.729	371.01
403.107	360.61
403.486	405.81
403.864	377.33
404.242	372.82
404.62	385.24
404.999	372.59
405.377	389.76
405.755	397.22
406.133	364.45
406.511	413.49
406.889	379.82
407.267	403.1
407.645	394.74
408.023	393.15
408.401	404.68
408.779	380.72
409.156	402.42
409.534	422.08
409.912	408.52
410.29	411.68
410.667	411.46
411.045	424.79
411.422	413.27
411.8	422.98
412.178	444.23
412.555	424.34
412.933	427.28
413.31	431.34
413.687	427.73
414.065	428.18
414.442	432.93
414.819	423.66
415.197	425.92
415.574	434.51
415.951	441.74
416.328	436.32
416.705	445.36
417.082	436.99
417.46	462.98
417.837	447.62
418.214	462.53
418.591	483.32
418.967	454.39
419.344	429.76
419.721	480.61
420.098	470.21
420.475	474.96
420.852	460.72
421.228	482.87
421.605	487.84
421.982	487.39
422.358	488.52
422.735	486.03
423.111	484.9
423.488	467.73
423.864	475.19
424.241	511.57
424.617	482.64
424.994	482.19
425.37	511.34
425.746	495.75
426.123	496.2
426.499	505.47
426.875	496.65
427.251	525.58
427.627	514.05
428.003	529.2
428.379	545.92
428.756	542.3
429.132	534.17
429.507	532.36
429.883	516.31
430.259	545.92
430.635	534.84
431.011	546.82
431.387	540.72
431.763	571.23
432.138	568.97
432.514	561.28
432.89	563.54
433.265	588.18
433.641	589.53
434.016	608.74
434.392	597.89
434.767	599.7
435.143	593.37
435.518	629.08
435.894	611
436.269	612.81
436.644	599.7
437.02	608.97
437.395	614.16
437.77	613.71
438.145	622.53
438.52	639.02
438.895	629.31
439.271	639.25
439.646	652.81
440.021	634.73
440.395	666.59
440.77	657.33
441.145	632.24
441.52	688.96
441.895	655.52
442.27	660.72
442.645	683.54
443.019	661.85
443.394	671.11
443.769	692.35
444.143	692.81
444.518	686.03
444.892	667.5
445.267	688.06
445.641	727.16
446.016	701.39
446.39	700.04
446.764	691.45
447.139	716.53
447.513	699.13
447.887	706.59
448.262	714.95
448.636	718.79
449.01	745.69
449.384	737.78
449.758	731
450.132	761.96
450.506	742.07
450.88	749.75
451.254	762.86
451.628	759.25
452.002	764.44
452.376	773.03
452.75	763.31
453.123	787.27
453.497	784.33
453.871	807.61
454.244	794.5
454.618	819.58
454.992	802.63
455.365	825.46
455.739	821.16
456.112	815.06
456.486	827.72
456.859	853.48
457.232	867.49
457.606	864.33
457.979	866.36
458.352	874.95
458.725	897.32
459.099	870.2
459.472	910.2
459.845	887.15
460.218	944.78
460.591	915.85
460.964	929.64
461.337	969.64
461.71	982.06
462.083	960.82
462.456	970.31
462.829	987.04
463.201	989.3
463.574	974.16
463.947	987.26
464.32	1008.5
464.692	1004.21
465.065	1030.65
465.438	1037.66
465.81	1045.34
466.183	1041.95
466.555	1068.16
466.928	1060.25
467.3	1065
467.672	1089.18
468.045	1113.36
468.417	1101.38
468.789	1126.02
469.161	1121.27
469.534	1161.04
469.906	1157.65
470.278	1179.57
470.65	1180.25
471.022	1189.06
471.394	1212.57
471.766	1240.36
472.138	1238.1
472.51	1244.88
472.882	1256.18
473.253	1255.5
473.625	1308.16
473.997	1323.75
474.369	1316.97
474.74	1317.2
475.112	1351.32
475.484	1356.29
475.855	1377.76
476.227	1396.29
476.598	1459.57
476.97	1432
477.341	1441.94
477.713	1474.26
478.084	1504.54
478.455	1540.24
478.827	1550.86
479.198	1562.16
479.569	1579.11
479.94	1599.9
480.311	1647.13
480.682	1671.09
481.053	1646.91
481.424	1700.01
481.795	1697.98
482.166	1750.18
482.537	1777.52
482.908	1793.79
483.279	1823.17
483.65	1834.47
484.021	1852.1
484.391	1898.88
484.762	1930.06
485.133	1916.28
485.503	1951.53
485.874	1981.59
486.244	1968.93
486.615	2022.72
486.985	2032.66
487.356	2051.64
487.726	2088.02
488.097	2110.4
488.467	2150.4
488.837	2194.91
489.207	2197.85
489.578	2245.31
489.948	2238.75
490.318	2241.47
490.688	2292.99
491.058	2290.5
491.428	2335.48
491.798	2355.59
492.168	2398.07
492.538	2402.82
492.908	2416.83
493.278	2463.16
493.648	2466.55
494.017	2509.26
494.387	2528.46
494.757	2542.02
495.126	2562.59
495.496	2553.55
495.866	2553.77
496.235	2622.25
496.605	2636.94
496.974	2674.9
497.344	2658.63
497.713	2707.67
498.082	2740.21
498.452	2744.05
498.821	2735.92
499.19	2733.66
499.559	2755.13
499.928	2807.78
500.298	2825.18
500.667	2847.33
501.036	2857.5
501.405	2899.3
501.774	2886.65
502.143	2908.12
502.512	2909.02
502.88	2955.35
503.249	2974.33
503.618	2976.36
503.987	2990.6
504.356	3041.22
504.724	3020.66
505.093	3046.19
505.462	3049.58
505.83	3101.56
506.199	3120.99
506.567	3151.05
506.936	3131.84
507.304	3188.33
507.672	3234.43
508.041	3232.85
508.409	3251.16
508.777	3287.99
509.145	3302.91
509.514	3301.1
509.882	3339.97
510.25	3323.25
510.618	3360.53
510.986	3391.94
511.354	3422.9
511.722	3443.02
512.09	3488.21
512.458	3456.58
512.826	3512.17
513.193	3535.67
513.561	3563.92
513.929	3579.96
514.297	3596.91
514.664	3634.88
515.032	3622.9
515.4	3679.85
515.767	3702.22
516.135	3760.97
516.502	3738.15
516.869	3783.57
517.237	3775.66
517.604	3807.08
517.972	3826.74
518.339	3883.23
518.706	3857.7
519.073	3895.89
519.44	3950.35
519.808	4021.76
520.175	3996.22
520.542	4011.82
520.909	4032.38
521.276	4059.5
521.643	4146.05
522.009	4181.08
522.376	4191.7
522.743	4188.31
523.11	4284.12
523.477	4266.72
523.843	4306.27
524.21	4339.49
524.577	4405.25
524.943	4427.4
525.31	4453.84
525.676	4539.26
526.043	4557.34
526.409	4529.09
526.776	4571.57
527.142	4624.91
527.508	4645.92
527.874	4693.61
528.241	4727.95
528.607	4736.54
528.973	4796.88
529.339	4771.8
529.705	4861.28
530.071	4906.48
530.437	4908.52
530.803	4898.57
531.169	4976.99
531.535	5026.7
531.901	5056.53
532.267	5033.71
532.632	5090.21
532.998	5129.3
533.364	5136.98
533.73	5190.09
534.095	5161.62
534.461	5221.73
534.826	5302.63
535.192	5252.01
535.557	5352.35
535.923	5355.73
536.288	5392.34
536.653	5463.08
537.019	5433.7
537.384	5433.92
537.749	5450.65
538.114	5534.94
538.479	5520.48
538.845	5591.89
539.21	5573.13
539.575	5582.4
539.94	5646.12
540.305	5684.99
540.67	5710.75
541.034	5694.71
541.399	5811.54
541.764	5795.5
542.129	5849.06
542.494	5853.12
542.858	5829.85
543.223	5874.14
543.587	5933.35
543.952	5969.28
544.316	6040.69
544.681	6007.47
545.045	6058.77
545.41	6106.45
545.774	6098.99
546.138	6211.76
546.503	6207.92
546.867	6252.66
547.231	6321.81
547.595	6265.54
547.959	6394.8
548.324	6357.52
548.688	6424.18
549.052	6425.31
549.416	6479.77
549.779	6514.35
550.143	6551.41
550.507	6647.45
550.871	6640.22
551.235	6644.06
551.599	6753.44
551.962	6772.87
552.326	6853.32
552.689	6901.46
553.053	6886.99
553.417	6926.09
553.78	7067.1
554.143	6991.62
554.507	7109.14
554.87	7102.58
555.234	7263.71
555.597	7215.8
555.96	7335.57
556.323	7374.66
556.686	7449.69
557.05	7539.41
557.413	7543.02
557.776	7589.57
558.139	7661.66
558.502	7742.56
558.865	7772.17
559.228	7861.43
559.59	7903.24
559.953	7991.37
560.316	8083.8
560.679	8112.5
561.041	8184.81
561.404	8337.8
561.767	8356.56
562.129	8364.24
562.492	8540.28
562.854	8544.58
563.217	8608.53
563.579	8628.42
563.941	8754.29
564.304	8828.41
564.666	8924.68
565.028	8938.92
565.39	9021.85
565.753	9132.13
566.115	9151.57
566.477	9299.81
566.839	9352.01
567.201	9487.6
567.563	9509.52
567.925	9585.23
568.287	9698.22
568.648	9664.32
569.01	9774.15
569.372	9891.66
569.734	9969.85
570.095	10045.33
570.457	10152.44
570.819	10142.5
571.18	10275.61
571.542	10406.9
571.903	10460.69
572.265	10482.61
572.626	10592.89
572.987	10653.45
573.349	10731.41
573.71	10777.97
574.071	10878.53
574.432	11053.66
574.794	11133.89
575.155	11122.59
575.516	11154.45
575.877	11249.82
576.238	11438.74
576.599	11462.02
576.96	11568.9
577.32	11662.46
577.681	11593.31
578.042	11699.07
578.403	11703.14
578.763	11845.51
579.124	11872.4
579.485	12049.34
579.845	12063.81
580.206	12110.81
580.566	12213.18
580.927	12197.36
581.287	12321.65
581.648	12337.92
582.008	12403.23
582.368	12419.5
582.728	12537.24
583.089	12522.55
583.449	12595.77
583.809	12606.39
584.169	12731.13
584.529	12767.29
584.889	12840.28
585.249	12798.7
585.609	12917.34
585.969	13012.48
586.329	12954.18
586.688	13076.66
587.048	13042.54
587.408	13074.85
587.768	13168.41
588.127	13165.93
588.487	13250.44
588.846	13386.03
589.206	13220.61
589.565	13335.19
589.925	13450.21
590.284	13405.92
590.643	13438.23
591.003	13545.35
591.362	13524.56
591.721	13582.86
592.08	13579.02
592.44	13715.06
592.799	13727.27
593.158	13742.63
593.517	13850.43
593.876	13808.85
594.235	13896.08
594.593	13950.54
594.952	13899.47
595.311	13982.85
595.67	14005
596.029	14165.9
596.387	14142.17
596.746	14148.5
597.104	14152.79
597.463	14160.25
597.822	14280.7
598.18	14250.87
598.538	14264.43
598.897	14434.59
599.255	14308.95
599.613	14499.9
599.972	14379.9
600.33	14456.29
600.688	14451.31
601.046	14506.68
601.404	14615.38
601.762	14645.66
602.12	14729.27
602.478	14775.83
602.836	14765.88
603.194	14710.52
603.552	14800.23
603.91	14722.95
604.268	14816.96
604.625	14824.19
604.983	14913.9
605.341	14863.28
605.698	14917.29
606.056	15017.4
606.413	14973.34
606.771	15102.15
607.128	15007.23
607.485	15090.62
607.843	15169.71
608.2	15275.93
608.557	15265.3
608.914	15129.26
609.272	15278.64
609.629	15299.88
609.986	15401.35
610.343	15317.96
610.7	15469.37
611.057	15408.58
611.414	15449.93
611.771	15538.52
612.127	15602.02
612.484	15535.35
612.841	15671.17
613.198	15589.82
613.554	15613.09
613.911	15703.49
614.267	15687.89
614.624	15616.71
614.98	15771.96
615.337	15824.39
615.693	15873.65
616.05	15823.48
616.406	15866.42
616.762	15864.16
617.118	15927.66
617.475	15905.29
617.831	15883.82
618.187	15999.07
618.543	15964.72
618.899	16084.94
619.255	16049.69
619.611	16066.87
619.967	16153.64
620.323	16127.88
620.678	16113.19
621.034	16098.05
621.39	16122.01
621.746	16100.09
622.101	16304.6
622.457	16153.19
622.812	16274.09
623.168	16277.03
623.523	16255.56
623.879	16233.19
624.234	16249.91
624.589	16242.68
624.945	16281.32
625.3	16321.32
625.655	16240.19
626.01	16276.13
626.365	16336.92
626.72	16299.63
627.075	16282.45
627.43	16265.28
627.785	16282.91
628.14	16332.17
628.495	16357.71
628.85	16333.07
629.205	16355.67
629.559	16387.31
629.914	16294.66
630.269	16312.28
630.623	16256.69
630.978	16323.58
631.332	16353.64
631.687	16315.67
632.041	16358.38
632.396	16275.45
632.75	16258.73
633.104	16382.34
633.459	16257.82
633.813	16142.57
634.167	16209.01
634.521	16239.74
634.875	16197.48
635.229	16232.06
635.583	16110.25
635.937	16070.48
636.291	16054.44
636.645	16046.53
636.999	16061.44
637.352	16170.14
637.706	15995.91
638.06	16164.94
638.413	16112.97
638.767	16059.18
639.121	16068.9
639.474	15981.67
639.828	15946.64
640.181	15993.2
640.534	15983.25
640.888	16020.31
641.241	15838.62
641.594	15919.07
641.947	15917.94
642.301	15915.01
642.654	15934.21
643.007	15913.2
643.36	15899.86
643.713	15953.42
644.066	15971.05
644.419	15892.86
644.771	15727.44
645.124	15625.3
645.477	15568.8
645.83	15499.2
646.182	15427.56
646.535	15342.82
646.888	15343.95
647.24	15272.99
647.593	15463.04
647.945	15349.37
648.298	15294.68
648.65	15308.92
649.002	15265.53
649.355	15323.83
649.707	15287.45
650.059	15425.53
650.411	15517.95
650.763	15598.4
651.115	15711.85
651.467	15689.7
651.819	15739.64
652.171	15611.06
652.523	15611.74
652.875	15658.29
653.227	15553.88
653.578	15633.43
653.93	15624.17
654.282	15670.04
654.633	15553.66
654.985	15543.94
655.337	15578.74
655.688	15541.68
656.039	15646.09
656.391	15543.49
656.742	15643.15
657.094	15546.88
657.445	15616.03
657.796	15574.22
658.147	15610.61
658.498	15536.26
658.849	15545.07
659.2	15537.16
659.551	15609.7
659.902	15608.57
660.253	15572.64
660.604	15593.66
660.955	15425.75
661.306	15536.71
661.656	15601.12
662.007	15553.88
662.358	15606.09
662.708	15643.6
663.059	15593.21
663.409	15432.98
663.76	15604.96
664.11	15677.27
664.461	15636.82
664.811	15678.85
665.161	15560.44
665.511	15571.74
665.862	15661
666.212	15720.89
666.562	15704.16
666.912	15773.77
667.262	15692.41
667.612	15687.89
667.962	15627.78
668.312	15659.87
668.662	15734.9
669.011	15660.77
669.361	15575.81
669.711	15629.14
670.06	15675.24
670.41	15614.9
670.76	15667.78
671.109	15743.71
671.459	15721.34
671.808	15685.41
672.157	15698.97
672.507	15591.62
672.856	15662.58
673.205	15670.49
673.554	15632.75
673.904	15663.71
674.253	15689.47
674.602	15771.96
674.951	15502.81
675.3	15443.61
675.649	15700.77
675.998	15640.66
676.346	15639.31
676.695	15700.32
677.044	15540.78
677.393	15593.21
677.741	15720.66
678.09	15693.77
678.438	15612.87
678.787	15713.2
679.135	15713.2
679.484	15623.49
679.832	15653.32
680.181	15560.66
680.529	15690.15
680.877	15548.91
681.225	15512.3
681.573	15654.9
681.922	15540.33
682.27	15526.31
682.618	15586.88
682.966	15550.27
683.314	15610.61
683.661	15610.83
684.009	15589.14
684.357	15408.8
684.705	15409.26
685.053	15499.65
685.4	15475.69
685.748	15451.97
686.095	15370.16
686.443	15362.03
686.79	15374
687.138	15428.01
687.485	15359.31
687.832	15397.28
688.18	15404.06
688.527	15317.05
688.874	15318.86
689.221	15289.48
689.568	15214.01
689.915	15220.79
690.262	15188.47
690.609	15265.53
690.956	15212.88
691.303	15205.87
691.65	15094.69
691.997	15094.01
692.344	15104.63
692.69	14950.51
693.037	14977.63
693.383	14967.91
693.73	14942.15
694.077	14932.66
694.423	15016.72
694.769	14852.89
695.116	14926.56
695.462	14885.65
695.808	14875.94
696.155	14832.77
696.501	14737.41
696.847	14765.43
697.193	14727.24
697.539	14775.6
697.885	14672.33
698.231	14649.05
698.577	14667.81
698.923	14601.82
699.269	14567.24
699.614	14524.76
699.96	14498.55
700.306	14413.12
700.651	14424.65
700.997	14457.64
701.342	14327.48
701.688	14448.6
702.033	14324.99
702.379	14421.03
702.724	14286.8
703.069	14362.05
703.415	14173.58
703.76	14316.63
704.105	14275.73
704.45	14197.31
704.795	14100.59
705.14	14110.53
705.485	14153.7
705.83	14179.91
706.175	14170.64
706.52	14105.34
706.865	14014.94
707.209	14067.6
707.554	13984.89
707.899	13988.73
708.243	13957.77
708.588	13935.62
708.932	13879.58
709.277	13961.61
709.621	13962.29
709.966	13872.12
710.31	13928.16
710.654	13713.03
710.998	13842.97
711.342	13783.08
711.687	13824.21
712.031	13788.73
712.375	13735.18
712.719	13808.17
713.063	13695.18
713.407	13681.62
713.75	13779.47
714.094	13683.65
714.438	13646.59
714.782	13612.24
715.125	13594.84
715.469	13679.58
715.812	13602.3
716.156	13515.97
716.499	13590.32
716.843	13571.34
717.186	13433.71
717.53	13572.69
717.873	13537.67
718.216	13574.05
718.559	13520.27
718.902	13387.61
719.246	13383.09
719.589	13446.82
719.932	13377.22
720.275	13376.09
720.617	13370.44
720.96	13367.05
721.303	13334.06
721.646	13365.69
721.989	13313.27
722.331	13288.18
722.674	13272.14
723.016	13370.89
723.359	13360.95
723.701	13315.07
724.044	13252.7
724.386	13191.24
724.729	13220.39
725.071	13233.04
725.413	13203.44
725.755	13274.85
726.097	13144
726.439	13092.93
726.782	13108.98
727.124	13237.79
727.465	13090.22
727.807	13042.54
728.149	13081.63
728.491	13155.08
728.833	13125.47
729.175	13040.73
729.516	13056.78
729.858	13099.03
730.199	13032.82
730.541	13012.26
730.882	12919.38
731.224	12913.95
731.565	12942.65
731.906	12947.63
732.248	12958.02
732.589	12857.23
732.93	12833.5
733.271	12840.51
733.612	12939.26
733.953	12891.58
734.294	12876.44
734.635	12832.37
734.976	12832.15
735.317	12768.87
735.658	12798.93
735.999	12737.91
736.339	12776.78
736.68	12768.2
737.021	12782.21
737.361	12731.13
737.702	12727.97
738.042	12731.13
738.383	12629.44
738.723	12712.38
739.063	12713.73
739.404	12647.97
739.744	12586.51
740.084	12627.41
740.424	12655.2
740.764	12537.01
741.104	12580.63
741.444	12584.25
741.784	12529.56
742.124	12531.37
742.464	12471.25
742.804	12561.87
743.143	12499.5
743.483	12545.83
743.823	12405.27
744.162	12416.34
744.502	12424.48
744.841	12350.81
745.181	12416.79
745.52	12296.12
745.86	12380.18
746.199	12401.2
746.538	12292.28
746.877	12294.76
747.216	12304.93
747.556	12224.25
747.895	12334.53
748.234	12202.33
748.573	12154.88
748.911	12181.32
749.25	12139.96
749.589	12183.58
749.928	12179.06
750.267	12191.04
750.605	12114.2
750.944	12080.53
751.283	12015.67
751.621	12033.98
751.96	12007.99
752.298	11989.91
752.636	12000.53
752.975	11926.86
753.313	11845.96
753.651	11935.22
753.989	11830.82
754.327	11843.25
754.666	11782.68
755.004	11743.14
755.342	11783.59
755.679	11733.87
756.017	11707.88
756.355	11789.92
756.693	11628.56
757.031	11668.11
757.368	11550.37
757.706	11610.94
758.044	11532.52
758.381	11482.58
758.719	11480.32
759.056	11456.14
759.394	11402.36
759.731	11305.86
760.068	11278.29
760.405	11283.04
760.743	11204.39
761.08	11251.85
761.417	11161.91
761.754	11181.57
762.091	11168.24
762.428	11076.26
762.765	11026.09
763.102	11055.02
763.438	11080.33
763.775	10920.79
764.112	10976.38
764.449	10889.6
764.785	10902.26
765.122	10848.92
765.458	10768.47
765.795	10777.06
766.131	10797.85
766.467	10769.38
766.804	10685.99
767.14	10609.38
767.476	10672.43
767.812	10644.18
768.148	10550.85
768.485	10458.2
768.821	10507.24
769.157	10426.56
769.492	10365.77
769.828	10360.58
770.164	10316.51
770.5	10354.25
770.836	10311.99
771.171	10180.47
771.507	10229.73
771.842	10084.65
772.178	10123.97
772.513	10102.73
772.849	10018.21
773.184	10008.27
773.519	10037.65
773.855	9883.98
774.19	9909.97
774.525	9861.38
774.86	9817.76
775.195	9810.98
775.53	9821.83
775.865	9713.13
776.2	9653.93
776.535	9588.39
776.87	9632.01
777.205	9556.08
777.539	9535.29
777.874	9543.87
778.209	9393.37
778.543	9454.16
778.878	9373.93
779.212	9293.71
779.547	9267.95
779.881	9310.43
780.215	9186.59
780.55	9256.2
780.884	9167.61
781.218	9164.45
781.552	9109.99
781.886	9014.85
782.22	9005.58
782.554	8958.8
782.888	8926.04
783.222	8869.09
783.556	8842.42
783.889	8833.38
784.223	8733.05
784.557	8760.62
784.89	8804.46
785.224	8670.9
785.557	8699.38
785.891	8631.81
786.224	8541.64
786.558	8610.11
786.891	8474.75
787.224	8477.23
787.557	8420.97
787.891	8477.01
788.224	8435.88
788.557	8411.47
788.89	8384.13
789.223	8368.99
789.556	8285.15
789.888	8201.54
790.221	8172.16
790.554	8187.75
790.887	8132.39
791.219	8103.69
791.552	8145.27
791.884	8100.52
792.217	8037.25
792.549	8023.46
792.882	7875.67
793.214	7892.17
793.546	7944.14
793.879	7864.82
794.211	7837.7
794.543	7838.61
794.875	7769.46
795.207	7792.73
795.539	7704.37
795.871	7756.12
796.203	7667.76
796.535	7673.87
796.867	7614.88
797.198	7600.2
797.53	7615.79
797.862	7555.68
798.193	7484.49
798.525	7474.78
798.856	7434.78
799.188	7398.39
799.519	7341.67
799.85	7278.62
800.182	7314.78
800.513	7318.62
800.844	7224.39
801.175	7238.17
801.506	7269.13
801.837	7194.56
802.168	7187.55
802.499	7116.37
802.83	7133.32
803.161	7113.65
803.491	7080.21
803.822	7058.06
804.153	7054
804.483	6962.25
804.814	6981.23
805.145	6966.09
805.475	6914.56
805.805	6923.15
806.136	6935.58
806.466	6881.34
806.796	6924.73
807.126	6818.97
807.457	6797.96
807.787	6780.78
808.117	6777.62
808.447	6695.59
808.777	6799.09
809.107	6698.52
809.436	6645.64
809.766	6690.39
810.096	6649.03
810.426	6592.54
810.755	6581.92
811.085	6598.41
811.414	6586.44
811.744	6545.76
812.073	6489.72
812.403	6457.85
812.732	6445.2
813.061	6440.23
813.39	6419.44
813.719	6415.37
814.049	6395.93
814.378	6403.84
814.707	6341.7
815.036	6347.57
815.365	6287.01
815.693	6297.86
816.022	6273.9
816.351	6269.61
816.68	6257.18
817.008	6259.89
817.337	6189.39
817.665	6188.48
817.994	6176.96
818.322	6120.01
818.651	6131.53
818.979	6077.07
819.307	6135.6
819.636	6115.71
819.964	6052.44
820.292	6094.47
820.62	6051.31
820.948	5983.97
821.276	6046.34
821.604	5960.24
821.932	6030.97
822.259	6022.38
822.587	5990.07
822.915	6019.67
823.243	6021.93
823.57	5929.96
823.898	5972.22
824.225	5993.91
824.553	5990.52
824.88	5959.11
825.207	5966.57
825.535	5969.73
825.862	5991.2
826.189	5982.16
826.516	5918.66
826.843	5988.49
827.17	5991.42
827.497	5989.84
827.824	5988.71
828.151	5993.68
828.478	5896.06
828.805	6006.79
829.131	5920.24
829.458	5896.74
829.785	5906.23
830.111	5860.13
830.438	5903.07
830.764	5907.58
831.09	5909.39
831.417	5854.25
831.743	5913.01
832.069	5868.26
832.395	5877.53
832.722	5872.33
833.048	5831.2
833.374	5810.19
833.7	5819.9
834.026	5801.82
834.351	5886.12
834.677	5788.04
835.003	5811.99
835.329	5797.31
835.654	5807.93
835.98	5742.62
836.306	5837.76
836.631	5741.04
836.956	5769.51
837.282	5714.6
837.607	5718.66
837.932	5677.53
838.258	5696.97
838.583	5685.67
838.908	5693.35
839.233	5630.53
839.558	5643.86
839.883	5636.41
840.208	5633.69
840.533	5621.04
840.858	5557.31
841.182	5601.6
841.507	5587.14
841.832	5597.31
842.156	5520.48
842.481	5543.98
842.805	5513.02
843.13	5514.6
843.454	5510.99
843.778	5507.6
844.103	5443.19
844.427	5412
844.751	5412.46
845.075	5448.61
845.399	5435.28
845.723	5372.91
846.047	5386.92
846.371	5354.38
846.695	5311.22
847.019	5328.16
847.343	5288.84
847.666	5222.18
847.99	5198.9
848.313	5243.2
848.637	5188.06
848.96	5151.67
849.284	5160.71
849.607	5103.31
849.931	5083.88
850.254	5089.53
850.577	5024.44
850.9	5007.27
851.223	5027.61
851.546	4969.76
851.869	4951.9
852.192	4985.12
852.515	4914.39
852.838	4950.1
853.161	4887.72
853.483	4907.39
853.806	4871
854.129	4887.5
854.451	4854.05
854.774	4838.23
855.096	4821.06
855.419	4807.5
855.741	4795.98
856.063	4784.68
856.385	4777.45
856.708	4718.24
857.03	4732.93
857.352	4711.91
857.674	4684.34
857.996	4695.19
858.318	4633.95
858.64	4657.45
858.961	4664
859.283	4614.51
859.605	4628.3
859.926	4602.76
860.248	4558.69
860.57	4601.18
860.891	4539.03
861.212	4525.25
861.534	4538.13
861.855	4536.55
862.176	4504.68
862.498	4504.68
862.819	4544.23
863.14	4474.63
863.461	4454.29
863.782	4431.92
864.103	4428.53
864.424	4452.71
864.745	4461.3
865.065	4433.95
865.386	4429.43
865.707	4372.48
866.027	4435.99
866.348	4385.36
866.668	4371.58
866.989	4347.63
867.309	4311.92
867.63	4333.84
867.95	4354.18
868.27	4307.63
868.59	4305.14
868.91	4331.36
869.23	4331.36
869.55	4302.66
869.87	4259.27
870.19	4289.32
870.51	4232.37
870.83	4264.01
871.15	4248.42
871.469	4303.33
871.789	4262.88
872.109	4259.72
872.428	4221.08
872.748	4233.28
873.067	4193.51
873.386	4219.72
873.706	4229.89
874.025	4194.41
874.344	4149.21
874.663	4220.17
874.982	4203.9
875.301	4150.12
875.62	4164.58
875.939	4156.44
876.258	4140.63
876.577	4151.47
876.896	4151.92
877.214	4093.85
877.533	4103.11
877.852	4113.96
878.17	4112.15
878.489	4125.48
878.807	4134.75
879.125	4111.02
879.444	4086.16
879.762	4066.5
880.08	4085.49
880.398	4067.63
880.716	4059.27
881.034	4026.96
881.352	4026.05
881.67	4028.09
881.988	4028.31
882.306	4017.92
882.624	4025.15
882.941	3989.9
883.259	4002.55
883.577	4030.12
883.894	3949.22
884.212	3918.71
884.529	3924.81
884.846	3920.29
885.164	3919.61
885.481	3921.87
885.798	3936.11
886.115	3897.92
886.432	3869.67
886.75	3900.41
887.067	3877.58
887.383	3859.28
887.7	3827.64
888.017	3809.33
888.334	3842.1
888.651	3831.71
888.967	3837.58
889.284	3814.53
889.6	3783.57
889.917	3793.29
890.233	3763.46
890.55	3769.34
890.866	3743.12
891.182	3751.03
891.498	3723.24
891.815	3751.71
892.131	3716.91
892.447	3727.53
892.763	3683.91
893.079	3678.04
893.395	3667.87
893.71	3643.24
894.026	3627.87
894.342	3649.57
894.657	3619.74
894.973	3645.05
895.289	3594.88
895.604	3617.48
895.92	3584.26
896.235	3572.28
896.55	3583.8
896.865	3574.54
897.181	3573.18
897.496	3544.03
897.811	3531.6
898.126	3526.86
898.441	3518.04
898.756	3502.68
899.071	3457.71
899.386	3473.52
899.7	3451.15
900.015	3405.96
900.33	3456.58
900.644	3468.78
900.959	3429.01
901.273	3393.53
901.588	3380.19
901.902	3385.17
902.216	3394.2
902.531	3366.18
902.845	3358.73
903.159	3348.56
903.473	3343.81
903.787	3318.95
904.101	3301.1
904.415	3286.64
904.729	3276.69
905.042	3298.16
905.356	3272.4
905.67	3205.28
905.984	3274.43
906.297	3248.45
906.611	3219.29
906.924	3196.02
907.237	3175.68
907.551	3198.5
907.864	3202.57
908.177	3157.6
908.491	3154.21
908.804	3112.18
909.117	3164.83
909.43	3111.27
909.743	3120.54
910.056	3088.22
910.368	3061.78
910.681	3046.19
910.994	3062.46
911.307	3033.76
911.619	3037.83
911.932	3037.38
912.244	3021.11
912.557	3001.9
912.869	2995.34
913.181	2995.57
913.494	3005.97
913.806	2950.6
914.118	2943.14
914.43	2954.89
914.742	2928
915.054	2911.05
915.366	2909.25
915.678	2888.46
915.99	2898.85
916.302	2903.82
916.613	2868.34
916.925	2852.98
917.236	2861.56
917.548	2812.3
917.859	2852.3
918.171	2805.75
918.482	2816.82
918.794	2760.77
919.105	2789.93
919.416	2765.29
919.727	2732.08
920.038	2758.06
920.349	2740.66
920.66	2735.24
920.971	2704.51
921.282	2710.38
921.593	2731.62
921.903	2676.94
922.214	2629.93
922.525	2672.64
922.835	2687.33
923.146	2680.1
923.456	2627.45
923.767	2631.51
924.077	2610.27
924.387	2573.44
924.697	2581.8
925.008	2577.73
925.318	2544.96
925.628	2608.91
925.938	2591.97
926.248	2530.05
926.558	2509.93
926.867	2496.83
927.177	2526.66
927.487	2481.23
927.796	2474.23
928.106	2462.7
928.416	2480.78
928.725	2450.95
929.034	2459.54
929.344	2450.73
929.653	2440.56
929.962	2438.3
930.271	2421.57
930.581	2394.68
930.89	2397.85
931.199	2382.48
931.508	2368.24
931.817	2347
932.125	2364.18
932.434	2332.54
932.743	2354.46
933.051	2332.99
933.36	2310.84
933.669	2330.5
933.977	2315.14
934.286	2286.66
934.594	2285.08
934.902	2288.47
935.21	2284.18
935.519	2241.47
935.827	2283.73
936.135	2240.56
936.443	2251.18
936.751	2209.15
937.059	2206.67
937.367	2221.58
937.674	2181.36
937.982	2225.65
938.29	2170.51
938.597	2195.37
938.905	2165.54
939.213	2159.89
939.52	2158.3
939.827	2197.4
940.135	2169.83
940.442	2125.99
940.749	2122.15
941.056	2127.57
941.363	2107.68
941.67	2139.55
941.977	2092.32
942.284	2106.33
942.591	2087.35
942.898	2067.01
943.205	2081.47
943.511	2073.11
943.818	2087.57
944.125	2033.56
944.431	2045.77
944.738	2042.83
945.044	2036.95
945.35	2032.43
945.657	1985.88
945.963	1995.15
946.269	1990.4
946.575	1975.26
946.881	1981.36
947.187	1964.41
947.493	1959.89
947.799	1952.66
948.105	1944.53
948.41	1939.1
948.716	1962.83
949.022	1905.43
949.327	1946.78
949.633	1927.58
949.938	1918.54
950.244	1915.6
950.549	1896.62
950.854	1878.31
951.16	1881.7
951.465	1869.72
951.77	1884.87
952.075	1867.24
952.38	1869.27
952.685	1855.04
952.99	1838.99
953.294	1845.54
953.599	1829.73
953.904	1796.28
954.209	1830.4
954.513	1822.49
954.818	1817.3
955.122	1821.82
955.426	1793.57
955.731	1785.43
956.035	1767.58
956.339	1818.2
956.643	1771.2
956.948	1776.17
957.252	1757.86
957.556	1747.69
957.86	1745.43
958.163	1720.35
958.467	1713.57
958.771	1710.18
959.075	1714.25
959.378	1679.9
959.682	1698.66
959.985	1682.39
960.289	1687.58
960.592	1700.46
960.896	1683.74
961.199	1692.1
961.502	1663.4
961.805	1650.07
962.108	1636.06
962.411	1653.46
962.714	1627.47
963.017	1621.37
963.32	1647.13
963.623	1666.79
963.926	1615.04
964.228	1609.84
964.531	1585.89
964.833	1593.57
965.136	1604.65
965.438	1587.7
965.741	1552.22
966.043	1563.07
966.345	1559.45
966.648	1559.9
966.95	1533.01
967.252	1514.03
967.554	1539.79
967.856	1561.48
968.158	1530.3
968.46	1540.92
968.761	1543.41
969.063	1538.43
969.365	1519
969.666	1522.39
969.968	1496.4
970.269	1508.6
970.571	1493.24
970.872	1492.56
971.174	1487.36
971.475	1502.95
971.776	1486.23
972.077	1455.72
972.378	1468.15
972.679	1436.29
972.98	1454.14
973.281	1466.57
973.582	1434.71
973.883	1416.63
974.183	1423.86
974.484	1424.54
974.785	1415.5
975.085	1417.08
975.386	1415.05
975.686	1424.99
975.986	1403.07
976.287	1384.54
976.587	1388.83
976.887	1410.53
977.187	1373.69
977.487	1368.27
977.787	1345.9
978.087	1384.09
978.387	1352.22
978.687	1364.43
978.987	1352.22
979.286	1329.85
979.586	1338.89
979.885	1362.39
980.185	1323.52
980.484	1314.71
980.784	1316.29
981.083	1303.19
981.382	1309.51
981.682	1291.66
981.981	1283.98
982.28	1275.84
982.579	1306.12
982.878	1286.46
983.177	1290.76
983.475	1275.62
983.774	1269.06
984.073	1276.52
984.372	1270.42
984.67	1276.75
984.969	1253.47
985.267	1264.09
985.566	1252.57
985.864	1203.3
986.162	1252.57
986.461	1240.36
986.759	1230.19
987.057	1213.24
987.355	1194.94
987.653	1225.22
987.951	1201.95
988.249	1223.64
988.547	1212.34
988.844	1190.19
989.142	1214.37
989.44	1186.13
989.737	1166.47
990.035	1160.82
990.332	1174.38
990.63	1168.95
990.927	1139.12
991.224	1163.75
991.521	1142.06
991.819	1160.14
992.116	1135.51
992.413	1119.91
992.71	1130.08
993.006	1119.91
993.303	1122.85
993.6	1136.18
993.897	1122.85
994.193	1092.34
994.49	1100.93
994.787	1080.37
995.083	1105.23
995.379	1110.87
995.676	1120.14
995.972	1085.11
996.268	1085.79
996.565	1072.23
996.861	1087.82
997.157	1083.08
997.453	1031.78
997.749	1041.5
998.044	1058.22
998.34	1044.66
998.636	1038.79
998.932	1048.05
999.227	1042.85
999.523	1015.74
999.818	1048.73
1000.114	1014.38
1000.409	1038.79
1000.704	1022.52
1001	1019.13
1001.295	992.91
1001.59	982.74
1001.885	993.82
1002.18	988.84
1002.475	1016.19
1002.77	994.04
1003.065	999.24
1003.359	980.26
1003.654	977.09
1003.949	962.86
1004.243	960.14
1004.538	973.93
1004.832	972.8
1005.127	966.7
1005.421	941.16
1005.715	955.4
1006.009	949.07
1006.304	936.19
1006.598	937.77
1006.892	922.86
1007.186	928.73
1007.48	928.96
1007.773	922.63
1008.067	896.64
1008.361	888.51
1008.655	888.06
1008.948	888.51
1009.242	883.31
1009.535	882.18
1009.829	876.08
1010.122	883.76
1010.415	876.53
1010.708	896.87
1011.001	893.93
1011.295	868.17
1011.588	860.71
1011.881	870.2
1012.173	823.2
1012.466	857.77
1012.759	838.34
1013.052	851.9
1013.344	860.49
1013.637	813.26
1013.93	829.98
1014.222	824.1
1014.514	841.5
1014.807	834.05
1015.099	812.35
1015.391	827.04
1015.683	800.6
1015.976	817.1
1016.268	813.71
1016.56	803.54
1016.851	810.09
1017.143	806.25
1017.435	795.18
1017.727	785.23
1018.018	795.4
1018.31	767.61
1018.602	781.17
1018.893	787.04
1019.185	786.59
1019.476	753.14
1019.767	763.77
1020.058	766.7
1020.35	762.18
1020.641	745.01
1020.932	759.02
1021.223	737.1
1021.514	764.67
1021.804	733.94
1022.095	735.29
1022.386	750.88
1022.677	695.74
1022.967	707.5
1023.258	699.81
1023.548	742.3
1023.839	716.99
1024.129	710.89
1024.419	704.56
1024.709	722.64
1025	707.27
1025.29	728.74
1025.58	692.81
1025.87	695.97
1026.16	683.54
1026.449	695.97
1026.739	692.81
1027.029	664.56
1027.319	689.64
1027.608	647.38
1027.898	655.07
1028.187	653.26
1028.477	669.76
1028.766	669.98
1029.055	674.5
1029.344	666.37
1029.634	650.32
1029.923	667.5
1030.212	639.47
1030.501	615.75
1030.79	626.14
1031.078	622.98
1031.367	630.44
1031.656	616.2
1031.945	637.21
1032.233	644.9
1032.522	640.83
1032.81	616.42
1033.099	595.63
1033.387	600.15
1033.675	619.59
1033.963	621.62
1034.251	606.93
1034.54	609.42
1034.828	593.6
1035.116	606.93
1035.403	612.81
1035.691	591.79
1035.979	581.85
1036.267	606.71
1036.554	593.6
1036.842	562.41
1037.129	566.48
1037.417	560.15
1037.704	561.06
1037.992	563.09
1038.279	571.91
1038.566	551.34
1038.853	551.34
1039.14	551.34
