Data from brown_tile_FLMS001491_096.txt Node
Date: Tue Feb 07 10:38:16 GMT 2017
User: dcchb
Spectrometer: FLMS00149
Trigger mode: 0
Integration Time (sec): 2.000000E-2
Scans to average: 10
Electric dark correction enabled: true
Nonlinearity correction enabled: false
Boxcar width: 0
XAxis mode: Wavelengths
Number of Pixels in Spectrum: 2048
>>>>>Begin Spectral Data<<<<<
341.393	-16.37
341.776	-16.37
342.16	-16.37
342.543	-41
342.927	-67.67
343.31	-64.28
343.693	-66.99
344.077	-73.32
344.46	-45.52
344.843	-69.93
345.226	-51.17
345.61	-21.34
345.993	-23.38
346.376	1.26
346.759	15.72
347.142	26.79
347.525	40.13
347.908	65.44
348.291	69.96
348.674	88.03
349.057	108.6
349.44	126.9
349.823	136.39
350.206	151.31
350.588	196.28
350.971	173.46
351.354	228.14
351.737	228.37
352.119	232.21
352.502	243.96
352.884	248.48
353.267	257.07
353.65	278.09
354.032	279.67
354.414	297.52
354.797	295.26
355.179	325.09
355.562	315.6
355.944	306.11
356.326	311.98
356.709	322.6
357.091	340.01
357.473	334.36
357.855	317.86
358.238	338.2
358.62	319.44
359.002	330.74
359.384	306.11
359.766	328.25
360.148	323.28
360.53	312.44
360.912	307.46
361.294	313.57
361.676	328.25
362.057	314.47
362.439	317.86
362.821	318.99
363.203	340.46
363.584	328.48
363.966	305.66
364.348	328.71
364.729	310.18
365.111	325.77
365.493	302.94
365.874	311.31
366.256	317.18
366.637	306.56
367.019	315.15
367.4	310.85
367.781	287.58
368.163	302.72
368.544	300.01
368.925	266.79
369.306	306.11
369.688	313.11
370.069	293.9
370.45	309.5
370.831	298.65
371.212	290.97
371.593	287.8
371.974	294.58
372.355	306.33
372.736	308.82
373.117	308.14
373.498	304.53
373.879	314.24
374.26	298.2
374.641	285.77
375.021	318.31
375.402	296.84
375.783	312.44
376.163	308.82
376.544	323.06
376.925	316.5
377.305	313.79
377.686	331.19
378.066	327.8
378.447	291.19
378.827	326.67
379.208	312.89
379.588	341.59
379.968	332.32
380.349	330.51
380.729	330.51
381.109	344.3
381.489	332.77
381.87	311.53
382.25	315.6
382.63	326.45
383.01	333.9
383.39	338.2
383.77	321.02
384.15	330.06
384.53	316.95
384.91	346.78
385.29	338.2
385.67	324.64
386.049	344.07
386.429	321.93
386.809	348.14
387.189	339.55
387.568	338.65
387.948	315.37
388.328	343.85
388.707	346.78
389.087	359.67
389.466	356.95
389.846	353.11
390.225	342.72
390.605	352.89
390.984	360.34
391.363	347.91
391.743	350.4
392.122	338.2
392.501	343.39
392.881	357.18
393.26	353.11
393.639	351.3
394.018	372.55
394.397	359.44
394.776	340.01
395.155	349.5
395.534	357.18
395.913	354.02
396.292	376.39
396.671	363.28
397.05	365.32
397.429	368.48
397.808	378.87
398.186	387.46
398.565	385.43
398.944	380.23
399.323	379.78
399.701	375.94
400.08	383.62
400.458	358.99
400.837	368.03
401.215	388.82
401.594	390.63
401.972	390.85
402.351	384.3
402.729	400.57
403.107	400.57
403.486	387.46
403.864	411.42
404.242	400.12
404.62	389.04
404.999	409.83
405.377	394.24
405.755	378.65
406.133	394.47
406.511	400.57
406.889	407.12
407.267	412.32
407.645	390.63
408.023	399.21
408.401	426.1
408.779	420.46
409.156	425.65
409.534	444.18
409.912	421.36
410.29	428.82
410.667	405.99
411.045	440.79
411.422	426.56
411.8	415.94
412.178	426.78
412.555	443.96
412.933	437.86
413.31	446.44
413.687	445.31
414.065	467.01
414.442	436.27
414.819	470.62
415.197	462.49
415.574	457.74
415.951	438.08
416.328	459.55
416.705	460.91
417.082	450.74
417.46	476.72
417.837	478.76
418.214	466.56
418.591	478.31
418.967	496.61
419.344	484.18
419.721	501.36
420.098	468.36
420.475	494.58
420.852	489.83
421.228	488.48
421.605	480.79
421.982	493.22
422.358	498.42
422.735	497.06
423.111	507.68
423.488	495.48
423.864	483.5
424.241	514.92
424.617	505.65
424.994	533.9
425.37	532.09
425.746	514.92
426.123	507.46
426.499	532.09
426.875	532.32
427.251	558.53
427.627	526.67
428.003	530.28
428.379	559.89
428.756	550.62
429.132	547.68
429.507	532.77
429.883	566.67
430.259	544.52
430.635	560.56
431.011	578.64
431.387	575.93
431.763	590.17
432.138	598.98
432.514	601.24
432.89	587
433.265	603.73
433.641	576.84
434.016	596.04
434.392	618.64
434.767	611.64
435.143	631.3
435.518	627.91
435.894	627.91
436.269	640.79
436.644	626.1
437.02	638.75
437.395	646.21
437.77	648.7
438.145	644.86
438.52	660.45
438.895	650.73
439.271	646.66
439.646	660.67
440.021	682.82
440.395	682.14
440.77	679.88
441.145	664.06
441.52	691.41
441.895	696.15
442.27	688.47
442.645	681.69
443.019	712.42
443.394	722.37
443.769	697.28
444.143	686.66
444.518	707
444.892	717.85
445.267	729.15
445.641	718.75
446.016	724.18
446.39	729.37
446.764	739.32
447.139	729.83
447.513	722.37
447.887	756.49
448.262	717.4
448.636	743.84
449.01	763.27
449.384	756.04
449.758	762.37
450.132	777.96
450.506	770.73
450.88	763.72
451.254	770.28
451.628	800.11
452.002	801.24
452.376	793.78
452.75	815.47
453.123	811.63
453.497	819.99
453.871	809.15
454.244	848.01
454.618	841.46
454.992	814.79
455.365	829.71
455.739	838.3
456.112	861.57
456.486	866.32
456.859	864.96
457.232	897.28
457.606	884.85
457.979	873.78
458.352	892.53
458.725	914.68
459.099	906.77
459.472	938.86
459.845	938.86
460.218	931.18
460.591	929.37
460.964	955.58
461.337	959.65
461.71	967.79
462.083	993.1
462.456	1004.17
462.829	1018.63
463.201	1015.47
463.574	1026.31
463.947	1000.78
464.32	1030.38
464.692	1057.73
465.065	1039.2
465.438	1065.86
465.81	1060.89
466.183	1049.37
466.555	1090.04
466.928	1094.79
467.3	1094.34
467.672	1125.75
468.045	1130.27
468.417	1149.48
468.789	1153.54
469.161	1177.05
469.534	1167.55
469.906	1204.16
470.278	1190.15
470.65	1208
471.022	1219.3
471.394	1259.53
471.766	1240.32
472.138	1260.43
472.51	1303.14
472.882	1308.79
473.253	1340.66
473.625	1322.35
473.997	1355.57
474.369	1349.92
474.74	1384.72
475.112	1404.38
475.484	1407.77
475.855	1460.88
476.227	1440.32
476.598	1457.72
476.97	1493.65
477.341	1505.4
477.713	1516.02
478.084	1536.36
478.455	1534.55
478.827	1557.83
479.198	1611.16
479.569	1632.85
479.94	1659.97
480.311	1647.09
480.682	1723.7
481.053	1724.15
481.424	1741.32
481.795	1763.47
482.166	1791.04
482.537	1790.59
482.908	1829.23
483.279	1882.56
483.65	1879.4
484.021	1902.22
484.391	1920.75
484.762	1948.32
485.133	1984.48
485.503	1984.26
485.874	2044.82
486.244	2033.29
486.615	2088.89
486.985	2077.59
487.356	2167.08
487.726	2137.25
488.097	2201.2
488.467	2190.13
488.837	2219.28
489.207	2259.05
489.578	2299.5
489.948	2315.55
490.318	2338.6
490.688	2361.65
491.058	2392.61
491.428	2412.95
491.798	2406.62
492.168	2495.2
492.538	2453.62
492.908	2483
493.278	2511.25
493.648	2529.55
494.017	2554.86
494.387	2598.02
494.757	2605.48
495.126	2615.43
495.496	2630.11
495.866	2645.48
496.235	2697.68
496.605	2720.06
496.974	2688.19
497.344	2727.29
497.713	2769.77
498.082	2778.81
498.452	2794.63
498.821	2832.37
499.19	2865.81
499.559	2893.38
499.928	2889.77
500.298	2946.04
500.667	2927.06
501.036	2934.74
501.405	2962.08
501.774	2962.31
502.143	2988.52
502.512	3007.96
502.88	3064
503.249	3106.94
503.618	3014.29
503.987	3066.04
504.356	3116.43
504.724	3130.44
505.093	3140.16
505.462	3144.23
505.83	3179.7
506.199	3232.81
506.567	3238.01
506.936	3264.45
507.304	3299.7
507.672	3304.22
508.041	3313.03
508.409	3343.09
508.777	3399.13
509.145	3411.79
509.514	3410.88
509.882	3433.26
510.25	3434.61
510.618	3484.56
510.986	3459.02
511.354	3516.42
511.722	3511
512.09	3574.5
512.458	3563.88
512.826	3634.38
513.193	3604.1
513.561	3669.41
513.929	3664.66
514.297	3691.78
514.664	3722.29
515.032	3776.98
515.4	3774.49
515.767	3777.43
516.135	3805
516.502	3832.34
516.869	3849.97
517.237	3889.52
517.604	3888.84
517.972	3979.01
518.339	3981.72
518.706	4001.83
519.073	3994.6
519.44	4065.1
519.808	4071.66
520.175	4119.11
520.542	4131.09
520.909	4187.14
521.276	4204.99
521.643	4246.12
522.009	4298.32
522.376	4321.82
522.743	4350.3
523.11	4391.2
523.477	4398.66
523.843	4440.69
524.21	4550.52
524.577	4531.99
524.943	4534.92
525.31	4543.74
525.676	4601.59
526.043	4635.71
526.409	4697.86
526.776	4757.97
527.142	4732.88
527.508	4803.39
527.874	4844.07
528.241	4843.16
528.607	4885.87
528.973	4923.61
529.339	4933.78
529.705	4966.55
530.071	5004.29
530.437	5061.01
530.803	5126.09
531.169	5122.03
531.535	5121.8
531.901	5114.12
532.267	5192.53
532.632	5245.19
532.998	5196.6
533.364	5258.75
533.73	5308.01
534.095	5383.94
534.461	5411.06
534.826	5395.24
535.192	5448.12
535.557	5494.45
535.923	5465.52
536.288	5517.27
536.653	5551.39
537.019	5571.51
537.384	5586.65
537.749	5715.91
538.114	5753.42
538.479	5722.24
538.845	5745.51
539.21	5795
539.575	5777.83
539.94	5798.62
540.305	5863.02
540.67	5919.52
541.034	5881.33
541.399	5952.29
541.764	5894.21
542.129	5988.9
542.494	6033.41
542.858	6035.67
543.223	6103.02
543.587	6158.38
543.952	6124.49
544.316	6185.73
544.681	6188.44
545.045	6243.35
545.41	6251.49
545.774	6303.24
546.138	6368.1
546.503	6403.57
546.867	6475.21
547.231	6503.46
547.595	6536
547.959	6576.9
548.324	6558.37
548.688	6620.74
549.052	6696
549.416	6687.63
549.779	6709.56
550.143	6800.4
550.507	6844.47
550.871	6885.37
551.235	6874.75
551.599	6979.6
551.962	7030.22
552.326	6959.04
552.689	7125.59
553.053	7088.75
553.417	7192.93
553.78	7298.01
554.143	7304.79
554.507	7362.42
554.87	7442.87
555.234	7473.6
555.597	7547.95
555.96	7585.46
556.323	7635.41
556.686	7698.68
557.05	7780.49
557.413	7816.42
557.776	7894.38
558.139	7925.79
558.502	7955.62
558.865	8004.89
559.228	8146.58
559.59	8201.04
559.953	8269.51
560.316	8320.13
560.679	8376.4
561.041	8457.98
561.404	8577.75
561.767	8611.2
562.129	8635.38
562.492	8801.7
562.854	8869.72
563.217	8898.2
563.579	8998.99
563.941	9040.12
564.304	9112.66
564.666	9262.48
565.028	9248.02
565.39	9408.92
565.753	9477.39
566.115	9533.66
566.477	9604.85
566.839	9643.04
567.201	9797.61
567.563	9904.05
567.925	9917.83
568.287	9979.98
568.648	10105.17
569.01	10238.95
569.372	10275.11
569.734	10296.13
570.095	10427.2
570.457	10552.84
570.819	10539.51
571.18	10613.86
571.542	10697.47
571.903	10787.64
572.265	10913.06
572.626	10964.81
572.987	11028.99
573.349	11178.82
573.71	11193.28
574.071	11255.88
574.432	11345.59
574.794	11501.07
575.155	11565.02
575.516	11552.82
575.877	11610.67
576.238	11775.86
576.599	11790.55
576.96	11847.27
577.32	11974.5
577.681	12043.88
578.042	12158.23
578.403	12181.73
578.763	12237.32
579.124	12269.64
579.485	12394.83
579.845	12452.23
580.206	12463.08
580.566	12513.92
580.927	12635.73
581.287	12735.16
581.648	12672.56
582.008	12881.14
582.368	12841.37
582.728	12922.27
583.089	12953.01
583.449	13074.36
583.809	13091.53
584.169	13181.48
584.529	13157.75
584.889	13327.91
585.249	13311.19
585.609	13322.94
585.969	13399.1
586.329	13503.27
586.688	13473.67
587.048	13489.72
587.408	13634.8
587.768	13730.16
588.127	13737.17
588.487	13716.6
588.846	13884.96
589.206	13818.52
589.565	13852.42
589.925	13979.42
590.284	13940.1
590.643	14029.36
591.003	14192.3
591.362	14107.1
591.721	14108
592.08	14139.64
592.44	14265.29
592.799	14291.28
593.158	14359.07
593.517	14376.92
593.876	14425.74
594.235	14320.65
594.593	14456.02
594.952	14510.25
595.311	14525.39
595.67	14586.64
596.029	14724.03
596.387	14762.68
596.746	14801.77
597.104	14754.09
597.463	14719.06
597.822	14698.95
598.18	14751.83
598.538	14790.92
598.897	15005.38
599.255	14840.19
599.613	15060.52
599.972	15013.29
600.33	15133.29
600.688	15011.48
601.046	15223
601.404	15205.15
601.762	15196.34
602.12	15311.36
602.478	15299.61
602.836	15362.44
603.194	15303.68
603.552	15370.12
603.91	15374.64
604.268	15468.65
604.625	15378.71
604.983	15541.64
605.341	15484.69
605.698	15559.72
606.056	15737.11
606.413	15641.3
606.771	15688.75
607.128	15712.93
607.485	15663.67
607.843	15718.36
608.2	15862.08
608.557	15904.57
608.914	15877.22
609.272	15913.83
609.629	15914.28
609.986	15993.15
610.343	15899.37
610.7	16091.23
611.057	16060.27
611.414	16121.74
611.771	16185.46
612.127	16177.33
612.484	16271.79
612.841	16314.05
613.198	16257.1
613.554	16276.54
613.911	16403.09
614.267	16403.09
614.624	16361.96
614.98	16393.59
615.337	16535.51
615.693	16469.52
616.05	16516.3
616.406	16550.65
616.762	16489.41
617.118	16498
617.475	16607.83
617.831	16608.28
618.187	16708.84
618.543	16698.67
618.899	16827.48
619.255	16708.39
619.611	16682.85
619.967	16865.22
620.323	16911.77
620.678	16763.75
621.034	16812.57
621.39	16710.42
621.746	16768.95
622.101	16948.38
622.457	16728.73
622.812	16833.13
623.168	16936.63
623.523	16921.26
623.879	17003.75
624.234	16890.3
624.589	16950.64
624.945	17001.04
625.3	17070.19
625.655	16962.84
626.01	16975.27
626.365	17032
626.72	17031.09
627.075	17029.28
627.43	17083.07
627.785	17012.79
628.14	17038.78
628.495	17054.59
628.85	17007.82
629.205	16946.35
629.559	17146.12
629.914	16969.4
630.269	16976.63
630.623	16980.92
630.978	16961.04
631.332	17063.18
631.687	17030.87
632.041	16907.93
632.396	16945.22
632.75	16933.47
633.104	16994.48
633.459	16914.94
633.813	16857.99
634.167	16832
634.521	16845.33
634.875	16929.17
635.229	16941.6
635.583	16870.42
635.937	16837.65
636.291	16868.84
636.645	16843.98
636.999	16770.99
637.352	16829.74
637.706	16698.9
638.06	16820.02
638.413	16734.83
638.767	16780.02
639.121	16795.84
639.474	16715.39
639.828	16577.09
640.181	16722.85
640.534	16760.59
640.888	16686.02
641.241	16601.27
641.594	16589.07
641.947	16704.09
642.301	16683.08
642.654	16633.14
643.007	16646.7
643.36	16721.72
643.713	16602.85
644.066	16608.96
644.419	16523.31
644.771	16413.03
645.124	16249.42
645.477	16363.54
645.83	16195.63
646.182	16094.62
646.535	16144.56
646.888	16106.6
647.24	16092.81
647.593	16153.83
647.945	16037.45
648.298	16067.95
648.65	15951.8
649.002	15924.23
649.355	16044.23
649.707	16016.88
650.059	16056.65
650.411	16333.93
650.763	16340.04
651.115	16540.94
651.467	16437.66
651.819	16384.1
652.171	16457.55
652.523	16380.26
652.875	16429.3
653.227	16316.31
653.578	16467.94
653.93	16419.81
654.282	16379.13
654.633	16373.48
654.985	16279.02
655.337	16270.66
655.688	16390.66
656.039	16435.85
656.391	16322.86
656.742	16305.01
657.094	16294.61
657.445	16419.58
657.796	16284.9
658.147	16345.01
658.498	16243.77
658.849	16313.6
659.2	16354.27
659.551	16304.56
659.902	16289.19
660.253	16288.96
660.604	16366.25
660.955	16246.71
661.306	16420.94
661.656	16263.65
662.007	16319.25
662.358	16366.7
662.708	16332.13
663.059	16269.98
663.409	16186.37
663.76	16359.92
664.11	16356.53
664.461	16412.12
664.811	16408.96
665.161	16308.4
665.511	16337.55
665.862	16378.23
666.212	16396.53
666.562	16458.23
666.912	16400.83
667.262	16324.9
667.612	16327.83
667.962	16392.24
668.312	16383.65
668.662	16547.94
669.011	16409.64
669.361	16427.72
669.711	16416.19
670.06	16434.95
670.41	16430.66
670.76	16353.14
671.109	16485.57
671.459	16382.75
671.808	16427.04
672.157	16474.5
672.507	16333.93
672.856	16422.52
673.205	16409.19
673.554	16520.82
673.904	16468.85
674.253	16532.57
674.602	16426.36
674.951	16169.87
675.3	16089.87
675.649	16447.15
675.998	16405.12
676.346	16509.98
676.695	16445.12
677.044	16368.74
677.393	16476.76
677.741	16489.64
678.09	16358.79
678.438	16325.8
678.787	16382.52
679.135	16438.56
679.484	16322.18
679.832	16434.27
680.181	16314.73
680.529	16368.06
680.877	16340.26
681.225	16309.08
681.573	16373.71
681.922	16302.52
682.27	16276.76
682.618	16300.04
682.966	16282.86
683.314	16309.75
683.661	16225.01
684.009	16227.72
684.357	16148.63
684.705	16176.2
685.053	16234.05
685.4	16188.4
685.748	16148.4
686.095	16120.38
686.443	16051.68
686.79	16043.32
687.138	16037.67
687.485	16073.15
687.832	16022.76
688.18	16043.32
688.527	15960.84
688.874	16014.85
689.221	15999.03
689.568	15977.33
689.915	15968.29
690.262	15919.26
690.609	15893.27
690.956	15849.65
691.303	15840.16
691.65	15759.71
691.997	15797.9
692.344	15777.34
692.69	15710.9
693.037	15757.9
693.383	15627.51
693.73	15756.77
694.077	15648.3
694.423	15669.09
694.769	15651.24
695.116	15654.18
695.462	15559.27
695.808	15525.82
696.155	15563.33
696.501	15516.33
696.847	15459.16
697.193	15434.98
697.539	15476.78
697.885	15359.5
698.231	15315.88
698.577	15382.1
698.923	15432.94
699.269	15287.18
699.614	15171.03
699.96	15159.95
700.306	15269.33
700.651	15180.52
700.997	15095.1
701.342	15116.34
701.688	15100.97
702.033	15025.72
702.379	15069.34
702.724	15069.56
703.069	15070.92
703.415	14818.49
703.76	14954.76
704.105	14931.26
704.45	14893.07
704.795	14804.26
705.14	14844.71
705.485	14819.4
705.83	14730.36
706.175	14835.22
706.52	14749.8
706.865	14639.52
707.209	14690.81
707.554	14662.79
707.899	14741.66
708.243	14621.66
708.588	14679.29
708.932	14601.1
709.277	14536.24
709.621	14634.54
709.966	14509.58
710.31	14542.8
710.654	14338.73
710.998	14546.19
711.342	14514.1
711.687	14465.74
712.031	14485.62
712.375	14329.69
712.719	14331.28
713.063	14389.81
713.407	14485.85
713.75	14263.71
714.094	14380.31
714.438	14317.49
714.782	14310.94
715.125	14313.2
715.469	14311.62
715.812	14258.28
716.156	14134.22
716.499	14228.91
716.843	14215.35
717.186	14170.6
717.53	14231.84
717.873	14251.28
718.216	14233.2
718.559	14107.33
718.902	14105.74
719.246	14110.04
719.589	14044.96
719.932	13964.51
720.275	14044.73
720.617	14072.98
720.96	14033.88
721.303	13957.95
721.646	14041.34
721.989	13926.31
722.331	13962.47
722.674	13982.36
723.016	13955.01
723.359	13915.02
723.701	13940.55
724.044	13822.14
724.386	13776.94
724.729	13872.08
725.071	13836.37
725.413	13806.54
725.755	13965.64
726.097	13782.14
726.439	13694.68
726.782	13685.42
727.124	13851.51
727.465	13732.87
727.807	13708.92
728.149	13732.65
728.491	13698.52
728.833	13723.61
729.175	13714.12
729.516	13667.56
729.858	13648.58
730.199	13721.12
730.541	13649.26
730.882	13587.57
731.224	13640.67
731.565	13561.8
731.906	13629.83
732.248	13567.45
732.589	13586.44
732.93	13491.52
733.271	13635.47
733.612	13505.31
733.953	13560.67
734.294	13518.42
734.635	13473.9
734.976	13582.82
735.317	13402.71
735.658	13455.59
735.999	13546.89
736.339	13318.87
736.68	13410.4
737.021	13438.19
737.361	13411.75
737.702	13391.19
738.042	13384.86
738.383	13374.69
738.723	13375.14
739.063	13275.03
739.404	13289.5
739.744	13329.49
740.084	13259.67
740.424	13282.04
740.764	13201.36
741.104	13255.15
741.444	13179.44
741.784	13158.65
742.124	13225.32
742.464	13207.01
742.804	13140.57
743.143	13129.5
743.483	13132.66
743.823	13035.49
744.162	13131.99
744.502	13094.25
744.841	12964.53
745.181	13080.24
745.52	13035.26
745.86	13033.91
746.199	13023.74
746.538	13004.53
746.877	13060.35
747.216	13004.08
747.556	12917.75
747.895	12924.31
748.234	12841.15
748.573	12849.96
748.911	12786.23
749.25	12926.57
749.589	12760.02
749.928	12891.99
750.267	12777.19
750.605	12758.66
750.944	12781.03
751.283	12713.24
751.621	12753.46
751.96	12622.62
752.298	12644.77
752.636	12635.05
752.975	12608.84
753.313	12574.94
753.651	12612.22
753.989	12552.57
754.327	12461.49
754.666	12459.23
755.004	12443.64
755.342	12461.27
755.679	12394.6
756.017	12294.04
756.355	12264.44
756.693	12309.86
757.031	12266.02
757.368	12256.98
757.706	12235.96
758.044	12257.43
758.381	12140.6
758.719	12103.54
759.056	12063.31
759.394	12054.27
759.731	12004.56
760.068	11920.72
760.405	11909.19
760.743	11848.63
761.08	11885.69
761.417	11886.14
761.754	11774.73
762.091	11768.63
762.428	11715.53
762.765	11676.43
763.102	11708.75
763.438	11626.04
763.775	11542.65
764.112	11600.5
764.449	11574.06
764.785	11560.73
765.122	11437.79
765.458	11353.5
765.795	11389.43
766.131	11298.81
766.467	11428.75
766.804	11241.41
767.14	11215.65
767.476	11141.3
767.812	11127.07
768.148	11198.02
768.485	11031.93
768.821	11025.37
769.157	10974.98
769.492	10939.05
769.828	10895.43
770.164	10899.5
770.5	10792.84
770.836	10844.14
771.171	10783.12
771.507	10736.34
771.842	10652.95
772.178	10638.49
772.513	10619.06
772.849	10627.64
773.184	10464.03
773.519	10569.57
773.855	10479.63
774.19	10438.95
774.525	10437.82
774.86	10370.93
775.195	10381.78
775.53	10269.69
775.865	10262.46
776.2	10144.49
776.535	10099.97
776.87	10146.98
777.205	10109.01
777.539	9954.67
777.874	10036.25
778.209	9973.42
778.543	9942.24
778.878	9848.46
779.212	9857.5
779.547	9815.46
779.881	9810.26
780.215	9773.43
780.55	9761.23
780.884	9670.61
781.218	9652.08
781.552	9673.32
781.886	9639.42
782.22	9547.22
782.554	9473.55
782.888	9397.85
783.222	9387.9
783.556	9331.86
783.889	9216.38
784.223	9233.1
784.557	9234.46
784.89	9310.39
785.224	9102.26
785.557	9085.99
785.891	9114.24
786.224	9075.82
786.558	9047.35
786.891	8975.94
787.224	8928.48
787.557	8902.49
787.891	8866.33
788.224	8887.13
788.557	8867.46
788.89	8839.44
789.223	8808.48
789.556	8756.06
789.888	8751.99
790.221	8661.37
790.554	8580.01
790.887	8577.3
791.219	8535.72
791.552	8543.86
791.884	8568.72
792.217	8463.63
792.549	8423.18
792.882	8311.1
793.214	8304.54
793.546	8390.19
793.879	8362.17
794.211	8242.62
794.543	8227.26
794.875	8183.19
795.207	8180.48
795.539	8163.3
795.871	8139.8
796.203	8067.49
796.535	8044.21
796.867	7975.28
797.198	7960.82
797.53	8018.67
797.862	7947.71
798.193	7943.2
798.525	7806.93
798.856	7920.37
799.188	7865.23
799.519	7758.79
799.85	7704.33
800.182	7712.01
800.513	7696.2
800.844	7661.85
801.175	7720.15
801.506	7664.11
801.837	7618.68
802.168	7562.87
802.499	7601.51
802.83	7497.56
803.161	7510.89
803.491	7517.67
803.822	7493.04
804.153	7392.02
804.483	7427.73
804.814	7364.68
805.145	7373.04
805.475	7375.3
805.805	7339.82
806.136	7244.46
806.466	7285.13
806.796	7233.16
807.126	7256.89
807.457	7218.92
807.787	7180.73
808.117	7155.65
808.447	7117.23
808.777	7111.35
809.107	7077.23
809.436	7060.28
809.766	7042.88
810.096	6986.16
810.426	6982.54
810.755	6973.73
811.085	6917.46
811.414	6948.19
811.744	6875.88
812.073	6865.48
812.403	6832.04
812.732	6820.74
813.061	6814.86
813.39	6708.88
813.719	6762.66
814.049	6763.79
814.378	6718.82
814.707	6693.06
815.036	6653.06
815.365	6680.18
815.693	6592.5
816.022	6614.87
816.351	6608.09
816.68	6520.18
817.008	6634.3
817.337	6530.8
817.665	6524.25
817.994	6533.29
818.322	6474.53
818.651	6431.14
818.979	6408.77
819.307	6466.85
819.636	6414.87
819.964	6376
820.292	6371.94
820.62	6343.24
820.948	6383.91
821.276	6347.53
821.604	6356.57
821.932	6344.82
822.259	6321.32
822.587	6308.89
822.915	6330.58
823.243	6339.62
823.57	6312.96
823.898	6284.26
824.225	6248.55
824.553	6273.86
824.88	6276.57
825.207	6354.54
825.535	6281.32
825.862	6268.89
826.189	6242.9
826.516	6226.86
826.843	6299.17
827.17	6227.53
827.497	6223.69
827.824	6248.32
828.151	6267.76
828.478	6239.51
828.805	6281.77
829.131	6223.01
829.458	6185.73
829.785	6211.26
830.111	6232.05
830.438	6218.95
830.764	6215.56
831.09	6196.35
831.417	6214.88
831.743	6238.83
832.069	6188.89
832.395	6166.52
832.722	6129.91
833.048	6141.89
833.374	6165.39
833.7	6111.38
834.026	6108.44
834.351	6129.23
834.677	6087.65
835.003	6105.96
835.329	6070.48
835.654	6079.06
835.98	6029.35
836.306	6038.39
836.631	5966.07
836.956	6035.67
837.282	6036.58
837.607	6027.31
837.932	5993.87
838.258	5962
838.583	5940.76
838.908	5961.33
839.233	5938.28
839.558	5996.35
839.883	5863.02
840.208	5874.32
840.533	5903.47
840.858	5947.09
841.182	5916.81
841.507	5853.53
841.832	5846.53
842.156	5791.84
842.481	5773.99
842.805	5820.54
843.13	5802.23
843.454	5810.6
843.778	5727.43
844.103	5712.07
844.427	5701.67
844.751	5686.98
845.075	5734.44
845.399	5665.97
845.723	5672.07
846.047	5654.67
846.371	5515.24
846.695	5590.49
847.019	5591.62
847.343	5509.81
847.666	5526.99
847.99	5485.63
848.313	5451.28
848.637	5455.12
848.96	5415.35
849.284	5413.54
849.607	5354.56
849.931	5350.27
850.254	5280.44
850.577	5316.15
850.9	5271.4
851.223	5217.84
851.546	5206.77
851.869	5187.11
852.192	5225.98
852.515	5193.66
852.838	5122.25
853.161	5174.45
853.483	5157.73
853.806	5122.93
854.129	5129.71
854.451	5049.49
854.774	5055.59
855.096	5045.64
855.419	4980.56
855.741	5032.31
856.063	4990.5
856.385	4949.38
856.708	5004.06
857.03	4922.94
857.352	4969.26
857.674	4909.38
857.996	4902.82
858.318	4900.11
858.64	4911.64
858.961	4857.17
859.283	4887.68
859.605	4806.33
859.926	4827.8
860.248	4828.47
860.57	4771.3
860.891	4773.56
861.212	4782.37
861.534	4776.27
861.855	4726.33
862.176	4732.66
862.498	4744.64
862.819	4761.81
863.14	4718.65
863.461	4715.03
863.782	4699.89
864.103	4680.91
864.424	4654.47
864.745	4681.36
865.065	4628.48
865.386	4630.97
865.707	4638.2
866.027	4621.47
866.348	4686.78
866.668	4608.82
866.989	4591.19
867.309	4593
867.63	4542.61
867.95	4548.71
868.27	4529.73
868.59	4544.64
868.91	4559.78
869.23	4570.85
869.55	4524.75
869.87	4541.7
870.19	4593.45
870.51	4471.65
870.83	4537.41
871.15	4478.88
871.469	4485.43
871.789	4503.96
872.109	4474.59
872.428	4420.35
872.748	4470.74
873.067	4451.76
873.386	4475.26
873.706	4437.52
874.025	4432.1
874.344	4408.82
874.663	4406.56
874.982	4418.09
875.301	4403.63
875.62	4381.25
875.939	4354.14
876.258	4339
876.577	4340.8
876.896	4289.73
877.214	4355.27
877.533	4347.36
877.852	4364.98
878.17	4359.11
878.489	4321.6
878.807	4323.63
879.125	4294.03
879.444	4301.93
879.762	4275.95
880.08	4270.52
880.398	4264.65
880.716	4264.65
881.034	4264.65
881.352	4249.05
881.67	4223.97
881.988	4226.91
882.306	4239.79
882.624	4203.86
882.941	4177.42
883.259	4156.85
883.577	4155.72
883.894	4166.12
884.212	4107.59
884.529	4158.89
884.846	4147.59
885.164	4158.44
885.481	4117.53
885.798	4099.68
886.115	4087.25
886.432	4091.54
886.75	4102.84
887.067	4071.43
887.383	4032.79
887.7	4029.85
888.017	4084.54
888.334	4052.22
888.651	4011.77
888.967	4035.05
889.284	3969.06
889.6	3983.53
889.917	3956.86
890.233	3961.38
890.55	3981.27
890.866	4004.99
891.182	3910.08
891.498	3898.33
891.815	3922.28
892.131	3952.79
892.447	3893.58
892.763	3868.95
893.079	3823.98
893.395	3875.96
893.71	3870.31
894.026	3883.87
894.342	3830.99
894.657	3785.11
894.973	3810.65
895.289	3787.6
895.604	3789.41
895.92	3779.24
896.235	3746.02
896.55	3751.67
896.865	3763.19
897.181	3726.58
897.496	3711.22
897.811	3698.79
898.126	3686.58
898.441	3655.85
898.756	3661.05
899.071	3661.27
899.386	3659.47
899.7	3656.53
900.015	3655.62
900.33	3623.99
900.644	3595.51
900.959	3601.61
901.273	3560.94
901.588	3614.27
901.902	3545.34
902.216	3554.84
902.531	3543.31
902.845	3509.87
903.159	3506.93
903.473	3467.38
903.787	3497.21
904.101	3493.37
904.415	3493.14
904.729	3444.33
905.042	3433.48
905.356	3429.42
905.67	3447.49
905.984	3420.6
906.297	3450.43
906.611	3361.85
906.924	3360.72
907.237	3348.97
907.551	3375.86
907.864	3343.54
908.177	3326.82
908.491	3325.46
908.804	3336.31
909.117	3326.82
909.43	3277.78
909.743	3285.69
910.056	3251.12
910.368	3206.37
910.681	3192.81
910.994	3217.22
911.307	3204.56
911.619	3182.42
911.932	3193.04
912.244	3121.85
912.557	3158.01
912.869	3132.93
913.181	3156.43
913.494	3119.37
913.806	3100.84
914.118	3117.56
914.43	3085.24
914.742	3074.85
915.054	3055.41
915.366	3092.7
915.678	3079.82
915.99	3017.45
916.302	3014.06
916.613	2978.58
916.925	2979.71
917.236	2999.82
917.548	2978.35
917.859	2982.2
918.171	2925.7
918.482	2930.22
918.794	2951.24
919.105	2927.96
919.416	2895.87
919.727	2922.54
920.038	2872.14
920.349	2883.89
920.66	2858.81
920.971	2854.74
921.282	2855.87
921.593	2818.81
921.903	2793.5
922.214	2804.35
922.525	2784.69
922.835	2779.72
923.146	2786.49
923.456	2736.78
923.767	2755.53
924.077	2710.34
924.387	2739.72
924.697	2721.19
925.008	2721.41
925.318	2694.97
925.628	2696.78
925.938	2644.13
926.248	2689.32
926.558	2671.92
926.867	2647.06
927.177	2623.56
927.487	2660.85
927.796	2610
928.106	2617.46
928.416	2590.12
928.725	2607.29
929.034	2575.43
929.344	2600.51
929.653	2563
929.962	2577.46
930.271	2516.22
930.581	2541.76
930.89	2551.7
931.199	2511.47
931.508	2513.51
931.817	2488.42
932.125	2490.91
932.434	2473.73
932.743	2463.34
933.051	2418.37
933.36	2488.2
933.669	2447.75
933.977	2440.97
934.286	2447.29
934.594	2379.27
934.902	2390.35
935.21	2396.67
935.519	2410.46
935.827	2408.65
936.135	2371.14
936.443	2337.24
936.751	2340.63
937.059	2338.82
937.367	2331.82
937.674	2349.9
937.982	2319.84
938.29	2288.65
938.597	2306.51
938.905	2278.71
939.213	2266.28
939.52	2265.6
939.827	2265.15
940.135	2263.12
940.442	2243.01
940.749	2231.48
941.056	2224.48
941.363	2208.66
941.67	2189.9
941.977	2223.35
942.284	2182.22
942.591	2188.32
942.898	2166.62
943.205	2196.23
943.511	2166.62
943.818	2130.01
944.125	2152.39
944.431	2138.15
944.738	2173.18
945.044	2110.58
945.35	2126.17
945.657	2124.82
945.963	2097.47
946.269	2125.49
946.575	2104.48
946.881	2057.93
947.187	2079.17
947.493	2023.8
947.799	2060.86
948.105	2041.66
948.41	2025.38
948.716	2036.91
949.022	2020.64
949.327	2023.35
949.633	2015.67
949.938	1987.42
950.244	2020.41
950.549	1985.61
950.854	1988.32
951.16	1984.71
951.465	1967.31
951.77	1964.6
952.075	1954.2
952.38	1960.75
952.685	1951.71
952.99	1914.88
953.294	1934.09
953.599	1957.36
953.904	1901.32
954.209	1904.48
954.513	1928.89
954.818	1867.65
955.122	1893.64
955.426	1873.98
955.731	1846.18
956.035	1864.71
956.339	1835.56
956.643	1856.58
956.948	1835.79
957.252	1827.2
957.556	1839.63
957.86	1812.51
958.163	1840.3
958.467	1803.7
958.771	1812.73
959.075	1777.03
959.378	1788.78
959.682	1822
959.985	1799.85
960.289	1771.61
960.592	1740.19
960.896	1734.54
961.199	1771.38
961.502	1729.57
961.805	1740.19
962.108	1752.62
962.411	1735.9
962.714	1694.09
963.017	1712.17
963.32	1719.86
963.623	1708.56
963.926	1716.01
964.228	1706.07
964.531	1684.38
964.833	1702.68
965.136	1663.13
965.438	1657.71
965.741	1672.4
966.043	1629.91
966.345	1648.67
966.648	1641.89
966.95	1659.29
967.252	1627.2
967.554	1637.82
967.856	1627.88
968.158	1595.34
968.46	1622.46
968.761	1621.1
969.063	1591.95
969.365	1598.73
969.666	1582.23
969.968	1558.73
970.269	1549.92
970.571	1560.09
970.872	1557.37
971.174	1575.9
971.475	1528.9
971.776	1528.67
972.077	1508.34
972.378	1492.52
972.679	1526.19
972.98	1525.06
973.281	1522.57
973.582	1521.44
973.883	1518.51
974.183	1493.87
974.484	1475.57
974.785	1492.29
975.085	1500.2
975.386	1511.95
975.686	1492.74
975.986	1457.49
976.287	1442.35
976.587	1447.09
976.887	1472.63
977.187	1466.3
977.487	1457.26
977.787	1446.19
978.087	1439.19
978.387	1439.41
978.687	1421.78
978.987	1414.1
979.286	1410.94
979.586	1380.88
979.885	1407.77
980.185	1357.15
980.484	1378.4
980.784	1370.26
981.083	1371.16
981.382	1335.69
981.682	1361.9
981.981	1360.77
982.28	1342.92
982.579	1343.14
982.878	1349.7
983.177	1333.88
983.475	1331.84
983.774	1323.93
984.073	1302.92
984.372	1324.61
984.67	1298.62
984.969	1316.02
985.267	1338.4
985.566	1297.95
985.864	1304.05
986.162	1271.73
986.461	1295.46
986.759	1293.65
987.057	1274.9
987.355	1282.81
987.653	1292.3
987.951	1253.65
988.249	1269.92
988.547	1254.78
988.844	1274.22
989.142	1262.24
989.44	1250.04
989.737	1236.25
990.035	1252.52
990.332	1241.22
990.63	1200.32
990.927	1210.94
991.224	1189.7
991.521	1211.85
991.819	1193.99
992.116	1188.57
992.413	1203.03
992.71	1184.5
993.006	1190.38
993.303	1183.37
993.6	1171.62
993.897	1169.81
994.193	1169.81
994.49	1178.85
994.787	1150.61
995.083	1167.1
995.379	1134.79
995.676	1147.22
995.972	1167.33
996.268	1121
996.565	1120.78
996.861	1119.42
997.157	1146.54
997.453	1105.63
997.749	1131.85
998.044	1082.81
998.34	1105.41
998.636	1091.4
998.932	1087.78
999.227	1099.31
999.523	1091.17
999.818	1062.92
1000.114	1073.77
1000.409	1043.49
1000.704	1060.89
1001	1074.9
1001.295	1077.84
1001.59	1042.36
1001.885	1059.76
1002.18	1069.25
1002.475	1029.93
1002.77	1048.46
1003.065	1047.56
1003.359	1029.25
1003.654	1017.73
1003.949	1004.62
1004.243	1028.57
1004.538	1007.11
1004.832	1015.02
1005.127	1000.1
1005.421	978.63
1005.715	982.47
1006.009	1007.33
1006.304	972.76
1006.598	994.23
1006.892	963.94
1007.186	975.69
1007.48	944.96
1007.773	971.85
1008.067	969.14
1008.361	970.27
1008.655	949.71
1008.948	936.37
1009.242	937.5
1009.535	932.98
1009.829	915.58
1010.122	948.35
1010.415	916.71
1010.708	935.02
1011.001	908.8
1011.295	895.02
1011.588	908.58
1011.881	889.6
1012.173	875.13
1012.466	881.91
1012.759	878.3
1013.052	912.19
1013.344	881.01
1013.637	878.97
1013.93	858.41
1014.222	869.93
1014.514	874
1014.807	846.66
1015.099	849.37
1015.391	857.73
1015.683	845.53
1015.976	829.48
1016.268	838.98
1016.56	876.49
1016.851	829.94
1017.143	820.44
1017.435	836.04
1017.727	822.25
1018.018	817.96
1018.31	829.71
1018.602	791.97
1018.893	805.53
1019.185	804.63
1019.476	804.63
1019.767	797.85
1020.058	797.17
1020.35	791.97
1020.641	766.89
1020.932	769.37
1021.223	792.87
1021.514	751.97
1021.804	768.47
1022.095	757.4
1022.386	767.11
1022.677	761.91
1022.967	755.14
1023.258	746.32
1023.548	735.02
1023.839	719.88
1024.129	743.61
1024.419	737.51
1024.709	713.33
1025	730.5
1025.29	731.63
1025.58	698.64
1025.87	716.04
1026.16	711.97
1026.449	714.46
1026.739	672.65
1027.029	693.67
1027.319	705.87
1027.608	704.74
1027.898	694.8
1028.187	709.71
1028.477	677.85
1028.766	680.11
1029.055	659.32
1029.344	681.24
1029.634	679.43
1029.923	670.62
1030.212	681.69
1030.501	676.27
1030.79	650.28
1031.078	628.13
1031.367	674.46
1031.656	648.25
1031.945	662.03
1032.233	645.99
1032.522	643.05
1032.81	634.69
1033.099	648.7
1033.387	601.02
1033.675	645.08
1033.963	635.59
1034.251	637.17
1034.54	618.64
1034.828	631.3
1035.116	610.51
1035.403	616.38
1035.691	602.82
1035.979	617.29
1036.267	609.83
1036.554	595.82
1036.842	603.5
1037.129	597.63
1037.417	592.43
1037.704	596.72
1037.992	567.57
1038.279	567.34
1038.566	597.63
1038.853	597.63
1039.14	597.63
