Data from brown_tile_FLMS001491_084.txt Node
Date: Tue Feb 07 10:38:07 GMT 2017
User: dcchb
Spectrometer: FLMS00149
Trigger mode: 0
Integration Time (sec): 2.000000E-2
Scans to average: 10
Electric dark correction enabled: true
Nonlinearity correction enabled: false
Boxcar width: 0
XAxis mode: Wavelengths
Number of Pixels in Spectrum: 2048
>>>>>Begin Spectral Data<<<<<
341.393	-5.61
341.776	-5.61
342.16	-5.61
342.543	-37.7
342.927	-68.2
343.31	-59.39
343.693	-78.37
344.077	-66.4
344.46	-61.42
344.843	-47.87
345.226	-37.92
345.61	-28.43
345.993	2.3
346.376	-1.31
346.759	11.12
347.142	3.88
347.525	50.21
347.908	71.68
348.291	57.44
348.674	84.11
349.057	100.38
349.44	118.46
349.823	155.52
350.206	153.71
350.588	175.18
350.971	171.79
351.354	197.33
351.737	224.9
352.119	235.52
352.502	238.68
352.884	256.98
353.267	279.58
353.65	269.41
354.032	276.65
354.414	254.05
354.797	315.97
355.179	308.51
355.562	305.35
355.944	294.72
356.326	316.87
356.709	330.2
357.091	325.91
357.473	330.2
357.855	317.32
358.238	343.54
358.62	338.56
359.002	307.6
359.384	308.28
359.766	293.59
360.148	325.46
360.53	319.58
360.912	326.59
361.294	341.73
361.676	308.51
362.057	326.36
362.439	321.62
362.821	295.4
363.203	303.31
363.584	305.35
363.966	301.28
364.348	296.08
364.729	311.22
365.111	311.45
365.493	302.86
365.874	309.41
366.256	306.25
366.637	303.31
367.019	296.76
367.4	279.13
367.781	293.37
368.163	320.71
368.544	313.03
368.925	301.05
369.306	298.79
369.688	302.86
370.069	291.33
370.45	312.58
370.831	299.47
371.212	299.24
371.593	296.98
371.974	324.1
372.355	281.16
372.736	301.5
373.117	303.31
373.498	287.72
373.879	295.63
374.26	286.59
374.641	280.49
375.021	287.04
375.402	314.16
375.783	306.02
376.163	315.97
376.544	285.23
376.925	305.57
377.305	312.8
377.686	306.25
378.066	309.86
378.447	309.41
378.827	309.41
379.208	312.12
379.588	307.15
379.968	305.35
380.349	322.97
380.729	320.94
381.109	317.77
381.489	317.32
381.87	318
382.25	323.65
382.63	326.36
383.01	305.57
383.39	338.11
383.77	325.46
384.15	315.29
384.53	335.4
384.91	319.13
385.29	306.47
385.67	341.73
386.049	330.66
386.429	324.33
386.809	305.8
387.189	343.54
387.568	332.69
387.948	322.75
388.328	326.36
388.707	321.84
389.087	342.41
389.466	337.89
389.846	317.1
390.225	335.63
390.605	334.95
390.984	348.06
391.363	340.15
391.743	334.95
392.122	348.96
392.501	345.57
392.881	338.56
393.26	350.32
393.639	339.69
394.018	345.8
394.397	355.51
394.776	374.04
395.155	337.89
395.534	350.54
395.913	367.72
396.292	379.02
396.671	329.98
397.05	361.16
397.429	355.06
397.808	349.19
398.186	372.69
398.565	352.58
398.944	373.59
399.323	366.36
399.701	375.63
400.08	359.81
400.458	372.46
400.837	365.23
401.215	357.55
401.594	366.13
401.972	377.89
402.351	367.49
402.729	369.07
403.107	358
403.486	372.69
403.864	384.67
404.242	394.61
404.62	374.72
404.999	392.12
405.377	385.34
405.755	382.86
406.133	370.43
406.511	388.05
406.889	379.92
407.267	386.47
407.645	395.06
408.023	398.68
408.401	407.94
408.779	401.61
409.156	395.51
409.534	433.93
409.912	407.72
410.29	417.66
410.667	414.49
411.045	420.6
411.422	418.11
411.8	431.44
412.178	435.96
412.555	411.33
412.933	426.92
413.31	428.28
413.687	435.06
414.065	429.41
414.442	450.2
414.819	424.89
415.197	436.42
415.574	452.23
415.951	441.39
416.328	410.65
416.705	451.78
417.082	444.1
417.46	442.06
417.837	465.79
418.214	446.81
418.591	458.34
418.967	473.7
419.344	449.52
419.721	462.86
420.098	454.49
420.475	454.27
420.852	482.74
421.228	474.61
421.605	473.7
421.982	479.35
422.358	454.95
422.735	482.97
423.111	487.49
423.488	489.3
423.864	488.84
424.241	493.81
424.617	507.15
424.994	493.14
425.37	473.7
425.746	493.81
426.123	502.63
426.499	511.22
426.875	521.61
427.251	505.57
427.627	508.5
428.003	513.02
428.379	514.15
428.756	515.06
429.132	533.81
429.507	534.04
429.883	520.71
430.259	534.04
430.635	530.42
431.011	545.34
431.387	520.25
431.763	567.71
432.138	543.3
432.514	560.03
432.89	542.18
433.265	572.91
433.641	567.94
434.016	587.37
434.392	588.95
434.767	606.13
435.143	579.24
435.518	605.45
435.894	585.79
436.269	597.09
436.644	592.12
437.02	602.29
437.395	606.13
437.77	626.01
438.145	604.55
438.52	614.04
438.895	622.4
439.271	612.23
439.646	648.39
440.021	604.55
440.395	637.54
440.77	645.9
441.145	658.78
441.52	648.39
441.895	667.82
442.27	677.99
442.645	637.09
443.019	662.4
443.394	630.08
443.769	670.53
444.143	654.49
444.518	663.3
444.892	670.08
445.267	668.27
445.641	684.77
446.016	691.55
446.39	664.88
446.764	673.25
447.139	711.89
447.513	693.81
447.887	693.36
448.262	694.49
448.636	684.77
449.01	693.13
449.384	702.4
449.758	724.09
450.132	710.76
450.506	717.54
450.88	719.57
451.254	734.49
451.628	737.2
452.002	753.92
452.376	728.38
452.75	740.14
453.123	746.69
453.497	760.02
453.871	771.32
454.244	764.54
454.618	771.32
454.992	800.7
455.365	794.15
455.739	782.39
456.112	787.59
456.486	804.77
456.859	801.38
457.232	821.49
457.606	812
457.979	810.42
458.352	830.75
458.725	854.03
459.099	850.19
459.472	852.68
459.845	885.67
460.218	859.68
460.591	863.97
460.964	868.49
461.337	909.85
461.71	910.75
462.083	915.27
462.456	893.35
462.829	914.82
463.201	915.72
463.574	911.43
463.947	932.22
464.32	971.32
464.692	986.01
465.065	994.37
465.438	999.34
465.81	985.78
466.183	995.27
466.555	1026.23
466.928	1024.2
467.3	1015.16
467.672	1044.76
468.045	1061.26
468.417	1036.4
468.789	1051.77
469.161	1055.38
469.534	1076.17
469.906	1102.61
470.278	1099.45
470.65	1103.06
471.022	1115.95
471.394	1150.75
471.766	1170.18
472.138	1151.42
472.51	1188.26
472.882	1214.02
473.253	1212.44
473.625	1219.45
473.997	1226.9
474.369	1256.05
474.74	1247.24
475.112	1268.26
475.484	1282.27
475.855	1322.04
476.227	1308.93
476.598	1334.24
476.97	1353
477.341	1417.41
477.713	1391.64
478.084	1406.33
478.455	1462.83
478.827	1453.34
479.198	1480
479.569	1491.3
479.94	1532.43
480.311	1530.17
480.682	1543.96
481.053	1579.21
481.424	1597.74
481.795	1608.59
482.166	1666.67
482.537	1627.8
482.908	1692.43
483.279	1687
483.65	1722.48
484.021	1761.13
484.391	1751.41
484.762	1788.47
485.133	1789.15
485.503	1831.41
485.874	1879.31
486.244	1872.54
486.615	1897.62
486.985	1911.63
487.356	1957.51
487.726	1969.71
488.097	1984.62
488.467	2012.64
488.837	2060.78
489.207	2050.84
489.578	2069.82
489.948	2056.03
490.318	2110.04
490.688	2165.18
491.058	2163.38
491.428	2171.28
491.798	2184.62
492.168	2255.8
492.538	2232.53
492.908	2245.41
493.278	2311.39
493.648	2292.41
494.017	2348.91
494.387	2383.93
494.757	2377.61
495.126	2388
495.496	2394.1
495.866	2436.81
496.235	2442.69
496.605	2460.99
496.974	2490.15
497.344	2503.71
497.713	2540.77
498.082	2543.03
498.452	2602.46
498.821	2604.27
499.19	2571.95
499.559	2601.78
499.928	2635.91
500.298	2627.09
500.667	2656.92
501.036	2676.81
501.405	2692.85
501.774	2702.57
502.143	2727.2
502.512	2751.38
502.88	2753.64
503.249	2787.99
503.618	2806.07
503.987	2807.2
504.356	2800.42
504.724	2851.49
505.093	2832.96
505.462	2868.67
505.83	2902.34
506.199	2919.74
506.567	2949.34
506.936	2964.26
507.304	2968.1
507.672	2984.14
508.041	3027.76
508.409	3057.59
508.777	3038.15
509.145	3026.18
509.514	3070.02
509.882	3122.67
510.25	3105.72
510.618	3168.55
510.986	3143.46
511.354	3158.6
511.722	3211.71
512.09	3256.68
512.458	3261.65
512.826	3293.29
513.193	3283.12
513.561	3321.54
513.929	3327.19
514.297	3368.99
514.664	3356.56
515.032	3408.77
515.4	3439.5
515.767	3416
516.135	3465.49
516.502	3427.3
516.869	3537.35
517.237	3530.12
517.604	3542.32
517.972	3571.02
518.339	3613.96
518.706	3615.77
519.073	3677.23
519.44	3668.19
519.808	3680.17
520.175	3675.65
520.542	3777.57
520.909	3765.14
521.276	3769.21
521.643	3804.91
522.009	3900.5
522.376	3925.81
522.743	3919.26
523.11	4008.75
523.477	4015.3
523.843	4033.16
524.21	4056.66
524.577	4108.86
524.943	4115.87
525.31	4160.38
525.676	4178.69
526.043	4230.67
526.409	4241.51
526.776	4295.3
527.142	4316.77
527.508	4349.76
527.874	4394.73
528.241	4413.26
528.607	4446.03
528.973	4479.92
529.339	4468.63
529.705	4505.46
530.071	4546.59
530.437	4551.11
530.803	4610.09
531.169	4669.07
531.535	4607.83
531.901	4682.86
532.267	4709.98
532.632	4747.94
532.998	4768.73
533.364	4806.02
533.73	4809.18
534.095	4865.9
534.461	4924.43
534.826	4906.13
535.192	4902.74
535.557	4998.56
535.923	4998.33
536.288	5015.28
536.653	5038.1
537.019	5044.2
537.384	5099.8
537.749	5135.05
538.114	5176.18
538.479	5231.32
538.845	5201.04
539.21	5225.22
539.575	5283.29
539.94	5253.24
540.305	5288.26
540.67	5335.95
541.034	5330.07
541.399	5400.8
541.764	5461.82
542.129	5498.2
542.494	5488.26
542.858	5518.32
543.223	5531.42
543.587	5584.53
543.952	5617.07
544.316	5631.08
544.681	5641.25
545.045	5698.65
545.41	5693.9
545.774	5746.11
546.138	5747.69
546.503	5742.72
546.867	5789.72
547.231	5883.05
547.595	5927.12
547.959	5945.87
548.324	5990.62
548.688	6002.37
549.052	6042.37
549.416	6100.67
549.779	6111.29
550.143	6133.67
550.507	6222.93
550.871	6266.54
551.235	6250.5
551.599	6310.38
551.962	6352.64
552.326	6428.57
552.689	6437.61
553.053	6482.36
553.417	6471.74
553.78	6592.41
554.143	6626.99
554.507	6692.3
554.87	6775.68
555.234	6798.73
555.597	6825.17
555.96	6851.61
556.323	6928.67
556.686	6945.62
557.05	7021.1
557.413	7111.04
557.776	7179.97
558.139	7207.54
558.502	7305.39
558.865	7311.71
559.228	7365.05
559.59	7458.15
559.953	7522.33
560.316	7682.55
560.679	7688.65
561.041	7758.93
561.404	7774.98
561.767	7843.23
562.129	7880.51
562.492	8031.02
562.854	8030.34
563.217	8083.45
563.579	8120.51
563.941	8301.74
564.304	8286.6
564.666	8397.79
565.028	8461.74
565.39	8509.88
565.753	8613.38
566.115	8678.01
566.477	8847.72
566.839	8794.61
567.201	8960.94
567.563	8939.02
567.925	9017.66
568.287	9054.95
568.648	9196.64
569.01	9339.68
569.372	9396.18
569.734	9337.2
570.095	9584.42
570.457	9613.12
570.819	9668.49
571.18	9716.4
571.542	9809.05
571.903	9815.6
572.265	9931.31
572.626	9998.65
572.987	10138.98
573.349	10183.28
573.71	10265.99
574.071	10264.86
574.432	10403.61
574.794	10494.23
575.155	10532.19
575.516	10587.33
575.877	10714.11
576.238	10767.67
576.599	10884.73
576.96	10982.13
577.32	11025.29
577.681	11100.77
578.042	11137.15
578.403	11186.19
578.763	11221.44
579.124	11385.05
579.485	11420.08
579.845	11490.14
580.206	11513.19
580.566	11575.11
580.927	11624.82
581.287	11708.89
581.648	11745.95
582.008	11834.08
582.368	11813.74
582.728	11896.68
583.089	11958.82
583.449	11999.5
583.809	12055.09
584.169	12157.91
584.529	12105.03
584.889	12249.66
585.249	12170.12
585.609	12211.25
585.969	12356.33
586.329	12338.7
586.688	12425.03
587.048	12506.61
587.408	12456.89
587.768	12622.31
588.127	12619.6
588.487	12514.97
588.846	12686.71
589.206	12695.75
589.565	12698.47
589.925	12932.13
590.284	12826.37
590.643	12908.86
591.003	12879.25
591.362	13000.38
591.721	13015.07
592.08	13018.23
592.44	13160.6
592.799	13137.55
593.158	13173.93
593.517	13215.06
593.876	13290.09
594.235	13183.42
594.593	13259.35
594.952	13328.73
595.311	13388.39
595.67	13416.86
596.029	13460.93
596.387	13551.55
596.746	13600.36
597.104	13505
597.463	13539.57
597.822	13582.06
598.18	13588.84
598.538	13644.66
598.897	13664.32
599.255	13621.38
599.613	13892.11
599.972	13828.61
600.33	13942.05
600.688	13845.1
601.046	13960.13
601.404	14024.31
601.762	13915.83
602.12	14161.03
602.478	14140.69
602.836	14116.06
603.194	14057.3
603.552	14175.26
603.91	14107.47
604.268	14217.07
604.625	14173.23
604.983	14306.33
605.341	14211.87
605.698	14379.55
606.056	14313.56
606.413	14382.26
606.771	14495.93
607.128	14415.93
607.485	14389.95
607.843	14539.55
608.2	14628.58
608.557	14606.66
608.914	14546.55
609.272	14652.76
609.629	14817.51
609.986	14705.87
610.343	14684.63
610.7	14874.23
611.057	14838.3
611.414	14876.26
611.771	14910.38
612.127	14982.02
612.484	14985.64
612.841	15011.63
613.198	14921.46
613.554	15050.27
613.911	15093.88
614.267	15164.84
614.624	15098.18
614.98	15085.97
615.337	15139.98
615.693	15188.12
616.05	15262.24
616.406	15330.03
616.762	15219.76
617.118	15222.47
617.475	15285.29
617.831	15382.46
618.187	15382.91
618.543	15367.1
618.899	15525.96
619.255	15455
619.611	15459.97
619.967	15563.93
620.323	15516.47
620.678	15516.92
621.034	15568.9
621.39	15484.83
621.746	15526.87
622.101	15650.93
622.457	15525.06
622.812	15559.18
623.168	15690.03
623.523	15665.62
623.879	15630.82
624.234	15578.62
624.589	15604.15
624.945	15619.07
625.3	15644.83
625.655	15708.56
626.01	15607.32
626.365	15677.82
626.72	15613.87
627.075	15633.76
627.43	15668.1
627.785	15607.77
628.14	15672.4
628.495	15713.53
628.85	15655.68
629.205	15610.03
629.559	15642.57
629.914	15473.31
630.269	15702.68
630.623	15609.8
630.978	15525.74
631.332	15623.59
631.687	15728.22
632.041	15603.93
632.396	15686.86
632.75	15563.47
633.104	15657.26
633.459	15569.8
633.813	15499.3
634.167	15538.16
634.521	15507.21
634.875	15523.02
635.229	15564.6
635.583	15592.17
635.937	15484.61
636.291	15415.91
636.645	15449.58
636.999	15494.32
637.352	15480.77
637.706	15420.43
638.06	15491.61
638.413	15419.52
638.767	15398.51
639.121	15430.6
639.474	15379.52
639.828	15302.24
640.181	15374.1
640.534	15372.07
640.888	15372.75
641.241	15266.53
641.594	15337.49
641.947	15405.51
642.301	15252.75
642.654	15354.89
643.007	15378.85
643.36	15338.4
643.713	15238.51
644.066	15382.24
644.419	15216.59
644.771	15091.4
645.124	15062.02
645.477	14995.13
645.83	14949.25
646.182	14803.95
646.535	14768.69
646.888	14871.97
647.24	14743.38
647.593	14807.79
647.945	14760.33
648.298	14719.88
648.65	14785.64
649.002	14739.09
649.355	14662.48
649.707	14754.23
650.059	14805.75
650.411	14939.54
650.763	15067.67
651.115	15184.05
651.467	15097.27
651.819	15084.17
652.171	15112.64
652.523	15170.04
652.875	15063.38
653.227	15009.37
653.578	15017.73
653.93	15123.71
654.282	15026.09
654.633	15039.65
654.985	14999.42
655.337	15108.12
655.688	15085.3
656.039	15109.25
656.391	14914
656.742	15030.61
657.094	15021.57
657.445	15087.78
657.796	15029.03
658.147	15008.91
658.498	15020.44
658.849	15012.98
659.2	15092.07
659.551	15009.14
659.902	15139.98
660.253	15036.94
660.604	15107.44
660.955	14985.19
661.306	15131.85
661.656	15020.89
662.007	15026.54
662.358	15023.6
662.708	15002.59
663.059	15001.46
663.409	14922.59
663.76	15109.25
664.11	15033.55
664.461	15098.4
664.811	15135.46
665.161	15024.96
665.511	15145.18
665.862	15051.85
666.212	15102.92
666.562	15037.16
666.912	15137.27
667.262	15130.04
667.612	15165.75
667.962	15095.69
668.312	15057.5
668.662	15204.39
669.011	15070.38
669.361	15073.32
669.711	15132.07
670.06	15090.49
670.41	15051.17
670.76	15059.76
671.109	15194.9
671.459	15098.4
671.808	15163.03
672.157	15172.07
672.507	15059.53
672.856	15027.44
673.205	15128.91
673.554	15123.71
673.904	15122.58
674.253	15185.63
674.602	15092.98
674.951	15034.68
675.3	14875.81
675.649	15059.53
675.998	15102.24
676.346	15135.69
676.695	15210.04
677.044	15026.54
677.393	15114.67
677.741	15128.91
678.09	15089.82
678.438	15171.17
678.787	15233.54
679.135	15208.46
679.484	15129.81
679.832	15148.8
680.181	14997.61
680.529	15134.11
680.877	15105.86
681.225	15102.02
681.573	15108.12
681.922	15067.89
682.27	15097.5
682.618	15037.61
682.966	14995.58
683.314	15076.26
683.661	15037.16
684.009	14948.35
684.357	14954.23
684.705	15023.6
685.053	15009.59
685.4	14962.13
685.748	14899.54
686.095	14958.75
686.443	14891.63
686.79	14953.1
687.138	14955.36
687.485	14986.99
687.832	14884.85
688.18	14959.42
688.527	14767.11
688.874	14865.64
689.221	14749.71
689.568	14733.67
689.915	14670.39
690.262	14749.03
690.609	14734.12
690.956	14611.18
691.303	14663.61
691.65	14624.97
691.997	14599.88
692.344	14575.48
692.69	14488.02
693.037	14572.99
693.383	14444.63
693.73	14492.99
694.077	14415.93
694.423	14427.01
694.769	14438.76
695.116	14396.95
695.462	14462.49
695.808	14325.09
696.155	14420.68
696.501	14333.45
696.847	14292.1
697.193	14270.85
697.539	14274.92
697.885	14243.06
698.231	14145.66
698.577	14192.21
698.923	14197.64
699.269	14186.56
699.614	14030.86
699.96	13968.04
700.306	14035.38
700.651	14054.14
700.997	14054.14
701.342	13956.29
701.688	13961.94
702.033	13947.7
702.379	13923.29
702.724	13903.41
703.069	13928.04
703.415	13765.78
703.76	13801.04
704.105	13801.49
704.45	13799
704.795	13730.53
705.14	13702.05
705.485	13764.43
705.83	13639.46
706.175	13672
706.52	13639.23
706.865	13615.73
707.209	13560.36
707.554	13644.88
707.899	13510.87
708.243	13464.77
708.588	13514.94
708.932	13453.7
709.277	13440.14
709.621	13475.62
709.966	13392.68
710.31	13455.28
710.654	13359.47
710.998	13304.33
711.342	13385.68
711.687	13309.07
712.031	13353.14
712.375	13252.12
712.719	13284.21
713.063	13189.53
713.407	13278.56
713.75	13179.58
714.094	13126.93
714.438	13167.83
714.782	13325.79
715.125	13200.83
715.469	13224.55
715.812	13095.97
716.156	13089.64
716.499	13085.57
716.843	13093.71
717.186	13161.73
717.53	13151.33
717.873	13214.84
718.216	13131.9
718.559	13080.15
718.902	13000.83
719.246	13034.5
719.589	13025.24
719.932	12912.02
720.275	12976.88
720.617	12977.78
720.96	12991.11
721.303	12902.08
721.646	12960.83
721.989	12848.07
722.331	12976.2
722.674	12900.72
723.016	12907.5
723.359	12835.19
723.701	12876.54
724.044	12813.04
724.386	12725.58
724.729	12758.8
725.071	12723.1
725.413	12751.8
725.755	12817.78
726.097	12733.49
726.439	12678.81
726.782	12716.77
727.124	12780.95
727.465	12651.24
727.807	12697.79
728.149	12606.72
728.491	12660.05
728.833	12661.18
729.175	12601.07
729.516	12641.74
729.858	12580.95
730.199	12704.34
730.541	12613.27
730.882	12604.91
731.224	12667.05
731.565	12516.78
731.906	12539.6
732.248	12474.97
732.589	12504.12
732.93	12458.47
733.271	12466.83
733.612	12477.91
733.953	12541.86
734.294	12501.18
734.635	12455.76
734.976	12534.85
735.317	12388.42
735.658	12380.96
735.999	12443.33
736.339	12434.07
736.68	12410.34
737.021	12393.16
737.361	12294.63
737.702	12397.23
738.042	12368.98
738.383	12309.32
738.723	12328.53
739.063	12261.64
739.404	12313.16
739.744	12243.79
740.084	12241.98
740.424	12166.28
740.764	12232.94
741.104	12236.1
741.444	12152.72
741.784	12270.45
742.124	12157.91
742.464	12152.72
742.804	12150.91
743.143	12076.34
743.483	12103.45
743.823	12105.03
744.162	11979.39
744.502	12105.03
744.841	11959.28
745.181	12093.74
745.52	12046.05
745.86	12004.47
746.199	11993.4
746.538	12039.73
746.877	11973.74
747.216	12031.59
747.556	11980.52
747.895	11872.27
748.234	11855.1
748.573	11836.12
748.911	11932.38
749.25	11910.69
749.589	11795.89
749.928	11780.52
750.267	11837.7
750.605	11844.02
750.944	11743.01
751.283	11620.3
751.621	11762.22
751.96	11702.56
752.298	11674.54
752.636	11598.38
752.975	11627.53
753.313	11518.84
753.651	11588.89
753.989	11515.67
754.327	11459.18
754.666	11425.5
755.004	11399.06
755.342	11435
755.679	11424.15
756.017	11354.55
756.355	11348.9
756.693	11393.64
757.031	11277.03
757.368	11211.05
757.706	11302.57
758.044	11251.95
758.381	11217.37
758.719	11074.1
759.056	11161.33
759.394	11119.98
759.731	11042.01
760.068	11054.89
760.405	10993.2
760.743	10897.16
761.08	10917.72
761.417	10942.81
761.754	10844.5
762.091	10792.3
762.428	10802.02
762.765	10813.09
763.102	10755.92
763.438	10739.87
763.775	10705.52
764.112	10691.96
764.449	10668.91
764.785	10604.06
765.122	10494.46
765.458	10494.46
765.795	10444.51
766.131	10473.67
766.467	10472.31
766.804	10367.91
767.14	10345.08
767.476	10335.36
767.812	10245.87
768.148	10314.12
768.485	10153.67
768.821	10177.18
769.157	10196.61
769.492	10119.78
769.828	10109.38
770.164	10043.85
770.5	10006.78
770.836	10003.62
771.171	9877.3
771.507	9944.87
771.842	9808.6
772.178	9854.92
772.513	9818.99
772.849	9735.83
773.184	9703.29
773.519	9691.09
773.855	9635.95
774.19	9617.64
774.525	9582.84
774.86	9526.57
775.195	9533.35
775.53	9528.15
775.865	9449.74
776.2	9341.72
776.535	9317.31
776.87	9322.74
777.205	9258.56
777.539	9191.21
777.874	9217.88
778.209	9216.98
778.543	9197.31
778.878	9112.57
779.212	9115.51
779.547	8987.15
779.881	8997.09
780.215	8957.55
780.55	9005.23
780.884	8908.28
781.218	8927.27
781.552	8893.59
781.886	8751.68
782.22	8797.55
782.554	8716.42
782.888	8658.8
783.222	8650.66
783.556	8562.53
783.889	8602.53
784.223	8556.65
784.557	8497.45
784.89	8486.15
785.224	8478.92
785.557	8419.71
785.891	8373.83
786.224	8377.22
786.558	8275.76
786.891	8271.92
787.224	8224.23
787.557	8253.16
787.891	8197.34
788.224	8137.91
788.557	8186.95
788.89	8103.78
789.223	8137.91
789.556	8051.81
789.888	7998.02
790.221	7958.93
790.554	7935.65
790.887	7847.29
791.219	7858.59
791.552	7795.54
791.884	7838.93
792.217	7826.96
792.549	7774.3
792.882	7674.42
793.214	7709.44
793.546	7680.74
793.879	7615.44
794.211	7590.58
794.543	7581.09
794.875	7534.31
795.207	7565.49
795.539	7514.42
795.871	7464.48
796.203	7493.63
796.535	7406.4
796.867	7366.63
797.198	7353.97
797.53	7353.07
797.862	7285.73
798.193	7300.87
798.525	7270.81
798.856	7259.06
799.188	7218.61
799.519	7127.99
799.85	7127.09
800.182	7155.56
800.513	7153.3
800.844	7038.95
801.175	7102.91
801.506	7077.82
801.837	7054.55
802.168	7027.43
802.499	6976.81
802.83	6918.96
803.161	6899.07
803.491	6977.49
803.822	6902.01
804.153	6855.23
804.483	6764.61
804.814	6783.14
805.145	6759.64
805.475	6773.42
805.805	6706.31
806.136	6717.61
806.466	6708.57
806.796	6726.65
807.126	6629.92
807.457	6574.56
807.787	6595.58
808.117	6613.2
808.447	6539.31
808.777	6580.66
809.107	6577.72
809.436	6512.41
809.766	6483.26
810.096	6434.22
810.426	6436.03
810.755	6460.66
811.085	6462.92
811.414	6473.54
811.744	6341.57
812.073	6342.02
812.403	6317.39
812.732	6264.51
813.061	6248.01
813.39	6241.69
813.719	6242.36
814.049	6252.53
814.378	6217.28
814.707	6141.58
815.036	6221.35
815.365	6143.16
815.693	6055.93
816.022	6056.38
816.351	6086.89
816.68	6031.3
817.008	6073.78
817.337	5986.55
817.665	6039.66
817.994	6010.28
818.322	5973.9
818.651	5950.17
818.979	5902.03
819.307	6004.18
819.636	5963.5
819.964	5922.82
820.292	5915.82
820.62	5896.16
820.948	5925.76
821.276	5843.5
821.604	5857.97
821.932	5886.44
822.259	5880.11
822.587	5885.09
822.915	5828.82
823.243	5808.25
823.57	5814.35
823.898	5817.06
824.225	5833.79
824.553	5803.28
824.88	5815.26
825.207	5780.46
825.535	5810.06
825.862	5835.37
826.189	5743.39
826.516	5748.59
826.843	5796.27
827.17	5747.69
827.497	5813.45
827.824	5748.14
828.151	5775.94
828.478	5779.33
828.805	5793.56
829.131	5754.92
829.458	5698.42
829.785	5697.07
830.111	5707.69
830.438	5731.87
830.764	5708.14
831.09	5767.12
831.417	5720.34
831.743	5715.82
832.069	5699.78
832.395	5715.15
832.722	5675.83
833.048	5700.46
833.374	5681.7
833.7	5630.63
834.026	5659.78
834.351	5674.24
834.677	5628.59
835.003	5667.92
835.329	5657.97
835.654	5656.62
835.98	5617.3
836.306	5637.18
836.631	5636.96
836.956	5561.25
837.282	5610.52
837.607	5581.36
837.932	5572.55
838.258	5545.43
838.583	5534.59
838.908	5520.8
839.233	5513.12
839.558	5516.06
839.883	5485.32
840.208	5437.41
840.533	5436.28
840.858	5450.75
841.182	5434.93
841.507	5428.37
841.832	5414.82
842.156	5412.33
842.481	5384.76
842.805	5390.64
843.13	5379.79
843.454	5382.05
843.778	5357.87
844.103	5297.53
844.427	5286.23
844.751	5337.3
845.075	5255.05
845.399	5215.72
845.723	5233.58
846.047	5229.96
846.371	5223.63
846.695	5217.98
847.019	5173.92
847.343	5126.46
847.666	5099.34
847.99	5078.1
848.313	5075.39
848.637	5074.03
848.96	5053.24
849.284	5030.87
849.607	4986.8
849.931	4947.93
850.254	4930.99
850.577	4920.59
850.9	4869.74
851.223	4900.25
851.546	4866.36
851.869	4812.8
852.192	4862.29
852.515	4805.34
852.838	4792.01
853.161	4766.24
853.483	4761.27
853.806	4690.77
854.129	4721.73
854.451	4723.08
854.774	4674.04
855.096	4696.42
855.419	4639.02
855.741	4622.29
856.063	4617.32
856.385	4585.01
856.708	4564.44
857.03	4572.58
857.352	4603.31
857.674	4558.79
857.996	4502.52
858.318	4531.9
858.64	4474.05
858.961	4502.07
859.283	4497.1
859.605	4497.1
859.926	4480.83
860.248	4477.44
860.57	4417.78
860.891	4443.77
861.212	4417.78
861.534	4355.41
861.855	4406.71
862.176	4391.34
862.498	4335.75
862.819	4368.06
863.14	4348.4
863.461	4326.03
863.782	4312.25
864.103	4299.59
864.424	4304.79
864.745	4327.84
865.065	4326.26
865.386	4269.31
865.707	4288.07
866.027	4262.98
866.348	4274.28
866.668	4262.08
866.989	4203.77
867.309	4193.15
867.63	4196.32
867.95	4234.51
868.27	4208.29
868.59	4211.91
868.91	4215.98
869.23	4192.7
869.55	4192.25
869.87	4192.25
870.19	4141.4
870.51	4174.17
870.83	4193.15
871.15	4146.37
871.469	4197.9
871.789	4190.44
872.109	4152.7
872.428	4105.47
872.748	4101.63
873.067	4087.62
873.386	4158.13
873.706	4084.68
874.025	4051.01
874.344	4110.89
874.663	4073.38
874.982	4049.2
875.301	4015.98
875.62	4011.46
875.939	4012.59
876.258	4018.69
876.577	4021.41
876.896	4045.36
877.214	4012.82
877.533	4017.56
877.852	4003.55
878.17	4008.07
878.489	3974.85
878.807	4007.62
879.125	3985.47
879.444	3999.26
879.762	3980.28
880.08	3948.41
880.398	3989.32
880.716	3944.12
881.034	3900.96
881.352	3940.96
881.67	3872.48
881.988	3947.96
882.306	3894.63
882.624	3881.07
882.941	3901.86
883.259	3889.66
883.577	3873.39
883.894	3872.71
884.212	3828.19
884.529	3845.14
884.846	3821.18
885.164	3848.75
885.481	3787.74
885.798	3823.67
886.115	3791.13
886.432	3782.54
886.75	3788.64
887.067	3801.98
887.383	3769.43
887.7	3792.49
888.017	3772.15
888.334	3748.64
888.651	3758.81
888.967	3738.7
889.284	3680.17
889.6	3709.32
889.917	3683.11
890.233	3678.59
890.55	3651.02
890.866	3665.71
891.182	3670.91
891.498	3644.47
891.815	3633.39
892.131	3673.84
892.447	3608.54
892.763	3577.12
893.079	3587.52
893.395	3614.18
893.71	3555.88
894.026	3520.4
894.342	3554.75
894.657	3556.33
894.973	3506.39
895.289	3554.75
895.604	3553.17
895.92	3498.71
896.235	3483.11
896.55	3495.77
896.865	3467.52
897.181	3436.56
897.496	3466.62
897.811	3447.86
898.126	3452.15
898.441	3415.77
898.756	3449.67
899.071	3366.06
899.386	3427.07
899.7	3391.82
900.015	3393.4
900.33	3363.34
900.644	3357.24
900.959	3341.65
901.273	3343.91
901.588	3326.06
901.902	3330.12
902.216	3272.72
902.531	3299.39
902.845	3246.51
903.159	3228.66
903.473	3277.24
903.787	3272.72
904.101	3239.73
904.415	3223.69
904.729	3221.88
905.042	3180.75
905.356	3192.95
905.67	3190.47
905.984	3195.21
906.297	3197.25
906.611	3190.01
906.924	3145.04
907.237	3136.68
907.551	3136.46
907.864	3099.85
908.177	3090.13
908.491	3069.34
908.804	3094.42
909.117	3046.06
909.43	3036.8
909.743	3004.71
910.056	3021.66
910.368	3039.06
910.681	2981.21
910.994	3003.13
911.307	2959.74
911.619	2923.13
911.932	2974.2
912.244	2952.28
912.557	2963.81
912.869	2932.39
913.181	2899.18
913.494	2900.31
913.806	2865.05
914.118	2881.32
914.43	2840.87
914.742	2813.08
915.054	2838.39
915.366	2819.63
915.678	2818.5
915.99	2805.17
916.302	2795
916.613	2804.26
916.925	2773.3
917.236	2808.1
917.548	2754.77
917.859	2738.95
918.171	2700.31
918.482	2703.02
918.794	2723.59
919.105	2737.37
919.416	2681.1
919.727	2682.68
920.038	2657.83
920.349	2656.02
920.66	2660.31
920.971	2656.92
921.282	2645.62
921.593	2606.98
921.903	2607.88
922.214	2616.47
922.525	2608.34
922.835	2597.71
923.146	2578.73
923.456	2583.25
923.767	2560.2
924.077	2562.23
924.387	2555.23
924.697	2527.43
925.008	2560.65
925.318	2529.92
925.628	2495.34
925.938	2493.54
926.248	2470.71
926.558	2506.42
926.867	2493.99
927.177	2453.99
927.487	2432.29
927.796	2416.25
928.106	2425.74
928.416	2416.25
928.725	2423.26
929.034	2398.85
929.344	2396.36
929.653	2392.52
929.962	2364.05
930.271	2358.17
930.581	2338.96
930.89	2329.25
931.199	2359.75
931.508	2324.28
931.817	2337.38
932.125	2347.55
932.434	2314.11
932.743	2308
933.051	2279.3
933.36	2282.69
933.669	2263.94
933.977	2230.04
934.286	2260.32
934.594	2245.86
934.902	2218.52
935.21	2230.27
935.519	2223.94
935.827	2209.93
936.135	2178.97
936.443	2194.33
936.751	2174.45
937.059	2179.19
937.367	2156.6
937.674	2168.57
937.982	2169.7
938.29	2165.18
938.597	2150.49
938.905	2126.54
939.213	2087.45
939.52	2115.24
939.827	2119.76
940.135	2092.42
940.442	2072.98
940.749	2110.27
941.056	2091.96
941.363	2062.36
941.67	2041.34
941.977	2059.42
942.284	2061.23
942.591	2009.93
942.898	1991.63
943.205	1998.41
943.511	2027.79
943.818	2003.38
944.125	1995.24
944.431	1971.06
944.738	2004.51
945.044	1967.45
945.35	1978.3
945.657	1969.03
945.963	1938.97
946.269	1939.43
946.575	1970.61
946.881	1954.79
947.187	1936.04
947.493	1922.7
947.799	1895.59
948.105	1877.73
948.41	1888.58
948.716	1864.85
949.022	1872.76
949.327	1870.05
949.633	1881.12
949.938	1865.3
950.244	1871.41
950.549	1860.78
950.854	1832.31
951.16	1842.03
951.465	1809.94
951.77	1809.49
952.075	1821.46
952.38	1810.84
952.685	1839.09
952.99	1772.65
953.294	1764.74
953.599	1765.42
953.904	1766.55
954.209	1747.79
954.513	1796.15
954.818	1783.05
955.122	1732.2
955.426	1725.65
955.731	1743.73
956.035	1722.48
956.339	1707.57
956.643	1705.53
956.948	1693.11
957.252	1708.02
957.556	1717.96
957.86	1712.09
958.163	1679.77
958.467	1678.87
958.771	1670.28
959.075	1633.45
959.378	1654.46
959.682	1682.71
959.985	1641.13
960.289	1618.53
960.592	1624.18
960.896	1630.06
961.199	1627.57
961.502	1603.39
961.805	1624.63
962.108	1618.08
962.411	1610.85
962.714	1592.54
963.017	1567.01
963.32	1587.12
963.623	1594.58
963.926	1599.1
964.228	1548.7
964.531	1556.16
964.833	1584.86
965.136	1568.59
965.438	1553.22
965.741	1536.95
966.043	1527.23
966.345	1507.12
966.648	1551.64
966.95	1538.31
967.252	1510.74
967.554	1511.64
967.856	1503.73
968.158	1462.6
968.46	1487.01
968.761	1499.21
969.063	1467.35
969.365	1481.13
969.666	1491.53
969.968	1459.67
970.269	1457.86
970.571	1462.6
970.872	1460.34
971.174	1421.93
971.475	1392.32
971.776	1456.28
972.077	1418.99
972.378	1447.69
972.679	1423.96
972.98	1438.2
973.281	1430.29
973.582	1442.49
973.883	1420.12
974.183	1419.89
974.484	1392.32
974.785	1390.06
975.085	1359.33
975.386	1377.63
975.686	1378.31
975.986	1372.21
976.287	1379.44
976.587	1366.33
976.887	1361.59
977.187	1323.4
977.487	1324.53
977.787	1347.13
978.087	1333.11
978.387	1339.22
978.687	1320.46
978.987	1334.02
979.286	1329.95
979.586	1287.47
979.885	1312.32
980.185	1291.76
980.484	1289.95
980.784	1281.36
981.083	1279.1
981.382	1273.46
981.682	1278.65
981.981	1275.26
982.28	1243.85
982.579	1274.36
982.878	1258.77
983.177	1291.99
983.475	1240.46
983.774	1241.59
984.073	1255.38
984.372	1218.54
984.67	1246.34
984.969	1228.71
985.267	1205.43
985.566	1228.03
985.864	1228.26
986.162	1182.38
986.461	1210.41
986.759	1202.04
987.057	1174.02
987.355	1203.85
987.653	1185.1
987.951	1181.25
988.249	1174.25
988.547	1195.27
988.844	1171.76
989.142	1164.53
989.44	1168.15
989.737	1159.11
990.035	1174.25
990.332	1161.14
990.63	1176.96
990.927	1154.59
991.224	1148.26
991.521	1130.41
991.819	1115.04
992.116	1108.04
992.413	1124.98
992.71	1135.38
993.006	1131.76
993.303	1115.95
993.6	1095.83
993.897	1095.38
994.193	1097.19
994.49	1087.02
994.787	1083.63
995.083	1088.6
995.379	1086.57
995.676	1062.84
995.972	1087.92
996.268	1091.99
996.565	1093.12
996.861	1052.9
997.157	1082.73
997.453	1060.13
997.749	1061.48
998.044	1056.74
998.34	1050.18
998.636	1031.43
998.932	1029.17
999.227	1049.96
999.523	1023.97
999.818	1030.98
1000.114	1008.15
1000.409	998.21
1000.704	1023.97
1001	974.71
1001.295	1005.67
1001.59	1035.95
1001.885	1002.5
1002.18	982.16
1002.475	979.68
1002.77	1008.38
1003.065	953.69
1003.359	956.63
1003.654	979.23
1003.949	950.98
1004.243	967.25
1004.538	949.85
1004.832	935.16
1005.127	915.95
1005.421	936.97
1005.715	937.64
1006.009	949.4
1006.304	925.67
1006.598	923.18
1006.892	908.04
1007.186	927.7
1007.48	892.67
1007.773	896.52
1008.067	908.27
1008.361	921.83
1008.655	892.22
1008.948	903.3
1009.242	867.36
1009.535	856.97
1009.829	880.02
1010.122	887.93
1010.415	867.82
1010.708	860.81
1011.001	854.71
1011.295	838.89
1011.588	871.21
1011.881	864.43
1012.173	848.61
1012.466	862.84
1012.759	861.94
1013.052	822.62
1013.344	818.78
1013.637	828.72
1013.93	823.3
1014.222	812.45
1014.514	804.09
1014.807	815.61
1015.099	840.02
1015.391	801.83
1015.683	819.23
1015.976	809.06
1016.268	812.45
1016.56	769.06
1016.851	785.11
1017.143	794.82
1017.435	785.33
1017.727	784.2
1018.018	785.56
1018.31	766.8
1018.602	766.35
1018.893	763.64
1019.185	785.33
1019.476	757.76
1019.767	763.64
1020.058	750.53
1020.35	755.05
1020.641	755.73
1020.932	742.85
1021.223	739.01
1021.514	747.14
1021.804	749.4
1022.095	720.48
1022.386	732.45
1022.677	722.96
1022.967	713.7
1023.258	707.37
1023.548	703.75
1023.839	695.62
1024.129	686.58
1024.419	716.18
1024.709	703.3
1025	695.39
1025.29	689.97
1025.58	681.15
1025.87	685.67
1026.16	683.87
1026.449	691.55
1026.739	667.6
1027.029	683.19
1027.319	671.21
1027.608	675.05
1027.898	669.4
1028.187	652.45
1028.477	644.55
1028.766	647.03
1029.055	647.03
1029.344	659.46
1029.634	641.61
1029.923	633.47
1030.212	648.16
1030.501	629.18
1030.79	634.83
1031.078	654.94
1031.367	626.69
1031.656	624.66
1031.945	621.49
1032.233	612.23
1032.522	634.38
1032.81	612.91
1033.099	619.24
1033.387	602.29
1033.675	605.22
1033.963	611.78
1034.251	619.46
1034.54	586.92
1034.828	587.37
1035.116	599.57
1035.403	579.46
1035.691	602.06
1035.979	605.68
1036.267	586.69
1036.554	565.45
1036.842	586.47
1037.129	581.72
1037.417	538.79
1037.704	565.23
1037.992	559.8
1038.279	551.44
1038.566	561.84
1038.853	561.84
1039.14	561.84
