Data from brown_tile_FLMS001491_023.txt Node
Date: Tue Feb 07 10:37:17 GMT 2017
User: dcchb
Spectrometer: FLMS00149
Trigger mode: 0
Integration Time (sec): 2.000000E-2
Scans to average: 10
Electric dark correction enabled: true
Nonlinearity correction enabled: false
Boxcar width: 0
XAxis mode: Wavelengths
Number of Pixels in Spectrum: 2048
>>>>>Begin Spectral Data<<<<<
341.393	-40.28
341.776	-40.28
342.16	-40.28
342.543	-39.6
342.927	-72.14
343.31	-61.75
343.693	-61.75
344.077	-57.46
344.46	-60.17
344.843	-40.96
345.226	-38.25
345.61	-27.85
345.993	-32.15
346.376	-21.3
346.759	14.18
347.142	30.45
347.525	31.13
347.908	69.32
348.291	88.53
348.674	77.46
349.057	90.56
349.44	125.36
349.823	154.52
350.206	161.52
350.588	176.21
350.971	186.83
351.354	204.01
351.737	234.97
352.119	244
352.502	256.43
352.884	249.2
353.267	262.99
353.65	273.16
354.032	272.7
354.414	308.41
354.797	329.2
355.179	301.4
355.562	302.08
355.944	335.3
356.326	309.09
356.709	335.53
357.091	328.3
357.473	318.13
357.855	324.23
358.238	317
358.62	347.05
359.002	329.65
359.384	341.86
359.766	314.06
360.148	295.53
360.53	327.84
360.912	324
361.294	335.53
361.676	330.33
362.057	314.51
362.439	326.71
362.821	319.26
363.203	309.09
363.584	286.72
363.966	310.9
364.348	314.29
364.729	315.42
365.111	295.08
365.493	303.89
365.874	291.46
366.256	309.54
366.637	297.79
367.019	299.14
367.4	304.12
367.781	307.28
368.163	297.79
368.544	296.21
368.925	304.12
369.306	309.99
369.688	295.3
370.069	315.19
370.45	304.57
370.831	291.24
371.212	286.72
371.593	297.79
371.974	308.86
372.355	302.53
372.736	295.75
373.117	309.31
373.498	299.6
373.879	296.88
374.26	331.23
374.641	296.88
375.021	311.12
375.402	297.79
375.783	308.18
376.163	293.72
376.544	301.4
376.925	304.79
377.305	326.71
377.686	316.77
378.066	300.95
378.447	306.6
378.827	308.64
379.208	303.21
379.588	341.63
379.968	314.96
380.349	337.11
380.729	312.7
381.109	302.99
381.489	323.1
381.87	342.31
382.25	325.13
382.63	315.64
383.01	331.23
383.39	328.75
383.77	329.43
384.15	337.11
384.53	338.69
384.91	306.38
385.29	340.5
385.67	343.89
386.049	345.25
386.429	352.7
386.809	343.21
387.189	327.62
387.568	341.63
387.948	348.63
388.328	338.01
388.707	346.15
389.087	342.53
389.466	334.62
389.846	357
390.225	351.35
390.605	341.63
390.984	357.22
391.363	367.17
391.743	367.39
392.122	352.25
392.501	385.92
392.881	367.39
393.26	333.04
393.639	359.03
394.018	373.49
394.397	369.65
394.776	355.64
395.155	356.32
395.534	360.61
395.913	377.56
396.292	352.48
396.671	371.46
397.05	355.64
397.429	345.92
397.808	375.75
398.186	371.01
398.565	368.07
398.944	354.51
399.323	388.86
399.701	356.09
400.08	375.98
400.458	387.28
400.837	391.57
401.215	384.57
401.594	381.18
401.972	394.28
402.351	372.59
402.729	376.88
403.107	367.62
403.486	394.06
403.864	408.52
404.242	399.71
404.62	387.96
404.999	365.58
405.377	408.75
405.755	386.15
406.133	392.02
406.511	408.97
406.889	389.54
407.267	413.94
407.645	402.42
408.023	392.93
408.401	403.77
408.779	421.85
409.156	414.17
409.534	421.18
409.912	447.62
410.29	420.72
410.667	430.44
411.045	420.5
411.422	436.99
411.8	413.72
412.178	429.76
412.555	437.9
412.933	419.59
413.31	450.1
413.687	429.76
414.065	441.06
414.442	444
414.819	438.58
415.197	438.12
415.574	463.89
415.951	450.33
416.328	468.41
416.705	453.04
417.082	465.02
417.46	465.47
417.837	477.45
418.214	462.76
418.591	456.65
418.967	474.73
419.344	484
419.721	476.32
420.098	477.67
420.475	462.08
420.852	472.25
421.228	475.41
421.605	501.63
421.982	488.52
422.358	481.96
422.735	476.09
423.111	509.99
423.488	501.85
423.864	494.85
424.241	500.72
424.617	474.06
424.994	507.5
425.37	500.04
425.746	518.57
426.123	526.03
426.499	500.27
426.875	537.1
427.251	510.21
427.627	533.26
428.003	533.04
428.379	520.83
428.756	515.86
429.132	567.16
429.507	535.07
429.883	560.15
430.259	551.34
430.635	553.83
431.011	573.71
431.387	526.26
431.763	579.82
432.138	539.82
432.514	563.32
432.89	560.15
433.265	589.76
433.641	572.36
434.016	595.41
434.392	584.33
434.767	600.38
435.143	603.32
435.518	592.92
435.894	613.26
436.269	619.59
436.644	614.39
437.02	601.28
437.395	611.23
437.77	623.88
438.145	624.11
438.52	635.86
438.895	660.04
439.271	628.63
439.646	623.88
440.021	667.72
440.395	667.5
440.77	647.61
441.145	665.01
441.52	646.03
441.895	674.28
442.27	679.7
442.645	664.78
443.019	651.23
443.394	655.07
443.769	689.64
444.143	680.83
444.518	704.11
444.892	704.33
445.267	711.56
445.641	709.3
446.016	710.43
446.39	732.81
446.764	700.26
447.139	695.97
447.513	714.95
447.887	723.77
448.262	707.72
448.636	727.16
449.01	725.12
449.384	756.53
449.758	738.68
450.132	720.83
450.506	743.65
450.88	746.36
451.254	748.4
451.628	749.98
452.002	773.71
452.376	749.53
452.75	777.55
453.123	790.21
453.497	793.59
453.871	796.98
454.244	800.6
454.618	813.03
454.992	826.59
455.365	823.42
455.739	822.29
456.112	832.46
456.486	815.29
456.859	832.46
457.232	848.73
457.606	820.71
457.979	864.78
458.352	874.72
458.725	883.76
459.099	895.29
459.472	867.72
459.845	912.01
460.218	909.52
460.591	906.81
460.964	909.75
461.337	916.76
461.71	924.44
462.083	933.7
462.456	944.1
462.829	951.33
463.201	951.1
463.574	966.47
463.947	932.57
464.32	982.52
464.692	1006.92
465.065	1012.12
465.438	1017.77
465.81	1032.68
466.183	1033.36
466.555	1045.11
466.928	1054.15
467.3	1035.17
467.672	1055.51
468.045	1074.04
468.417	1083.98
468.789	1078.56
469.161	1094.15
469.534	1094.15
469.906	1138.9
470.278	1153.81
470.65	1171.21
471.022	1179.35
471.394	1161.27
471.766	1183.87
472.138	1200.14
472.51	1240.81
472.882	1244.43
473.253	1259.12
473.625	1285.33
473.997	1300.7
474.369	1326.91
474.74	1311.32
475.112	1329.4
475.484	1343.64
475.855	1383.41
476.227	1378.89
476.598	1388.83
476.97	1417.31
477.341	1459.11
477.713	1460.02
478.084	1464.09
478.455	1493.69
478.827	1494.82
479.198	1505.67
479.569	1543.18
479.94	1558.32
480.311	1607.13
480.682	1630.64
481.053	1653.23
481.424	1651.2
481.795	1653.46
482.166	1718.54
482.537	1734.59
482.908	1750.18
483.279	1760.58
483.65	1780.69
484.021	1856.39
484.391	1828.37
484.762	1845.32
485.133	1872.44
485.503	1882.15
485.874	1909.72
486.244	1948.14
486.615	1944.07
486.985	1945.2
487.356	2011.19
487.726	2033.56
488.097	2055.26
488.467	2064.3
488.837	2104.97
489.207	2139.1
489.578	2144.75
489.948	2151.07
490.318	2194.91
490.688	2212.54
491.058	2219.55
491.428	2238.08
491.798	2293.22
492.168	2355.59
492.538	2342.03
492.908	2346.55
493.278	2367.11
493.648	2384.51
494.017	2400.56
494.387	2452.08
494.757	2449.6
495.126	2482.82
495.496	2500.44
495.866	2517.84
496.235	2510.84
496.605	2544.74
496.974	2535.47
497.344	2599.88
497.713	2584.28
498.082	2597.39
498.452	2653.66
498.821	2660.66
499.19	2650.04
499.559	2699.76
499.928	2706.09
500.298	2756.48
500.667	2770.94
501.036	2784.05
501.405	2807.78
501.774	2802.58
502.143	2808.23
502.512	2854.56
502.88	2868.57
503.249	2897.49
503.618	2896.14
503.987	2911.05
504.356	2960.77
504.724	2918.28
505.093	2972.97
505.462	3001.9
505.83	2997.15
506.199	3026.76
506.567	3068.34
506.936	3096.36
507.304	3087.09
507.672	3119.41
508.041	3115.57
508.409	3153.08
508.777	3164.83
509.145	3216.36
509.514	3200.99
509.882	3211.16
510.25	3191.05
510.618	3248.45
510.986	3280.76
511.354	3288.67
511.722	3324.6
512.09	3353.08
512.458	3345.84
512.826	3408.22
513.193	3391.04
513.561	3443.92
513.929	3460.42
514.297	3457.93
514.664	3527.99
515.032	3501.09
515.4	3541.32
515.767	3569.57
516.135	3601.43
516.502	3579.51
516.869	3627.64
517.237	3684.82
517.604	3655.44
517.972	3709.45
518.339	3758.49
518.706	3758.94
519.073	3699.28
519.44	3805.49
519.808	3815.66
520.175	3838.03
520.542	3867.19
520.909	3897.69
521.276	3965.04
521.643	3999.39
522.009	3984.7
522.376	4052.72
522.743	4100.17
523.11	4124.58
523.477	4125.26
523.843	4129.1
524.21	4219.04
524.577	4199.83
524.943	4268.98
525.31	4287.51
525.676	4338.36
526.043	4355.08
526.409	4407.51
526.776	4447.28
527.142	4425.36
527.508	4481.63
527.874	4582.2
528.241	4550.78
528.607	4579.48
528.973	4611.57
529.339	4634.85
529.705	4664.45
530.071	4712.81
530.437	4746.94
530.803	4779.48
531.169	4838.46
531.535	4851.57
531.901	4831.91
532.267	4898.8
532.632	4884.33
532.998	4988.51
533.364	4922.07
533.73	4995.29
534.095	5056.76
534.461	5096.98
534.826	5070.09
535.192	5117.32
535.557	5153.25
535.923	5123.2
536.288	5181.05
536.653	5241.61
537.019	5216.98
537.384	5271.22
537.749	5314.15
538.114	5321.84
538.479	5333.14
538.845	5408.39
539.21	5390.99
539.575	5419.69
539.94	5442.51
540.305	5440.93
540.67	5523.19
541.034	5567.03
541.399	5572.9
541.764	5615.84
542.129	5624.65
542.494	5641.38
542.858	5683.18
543.223	5691.55
543.587	5757.31
543.952	5774.48
544.316	5809.96
544.681	5862.16
545.045	5912.78
545.41	5940.8
545.774	5940.8
546.138	5930.18
546.503	5984.87
546.867	6056.51
547.231	6085.21
547.595	6123.4
547.959	6126.56
548.324	6182.61
548.688	6251.08
549.052	6214.24
549.416	6250.63
549.779	6326.56
550.143	6349.83
550.507	6428.93
550.871	6468.47
551.235	6461.24
551.599	6565.42
551.962	6599.54
552.326	6688.13
552.689	6683.16
553.053	6731.52
553.417	6701.46
553.78	6844.96
554.143	6875.47
554.507	6920.21
554.87	6939.42
555.234	7047.44
555.597	7070.72
555.96	7102.58
556.323	7115.46
556.686	7190.94
557.05	7269.36
557.413	7340.99
557.776	7371.95
558.139	7437.49
558.502	7506.86
558.865	7540.54
559.228	7667.31
559.59	7729.01
559.953	7747.54
560.316	7860.98
560.679	7908.21
561.041	7992.95
561.404	8061.88
561.767	8141.65
562.129	8151.82
562.492	8253.74
562.854	8280.4
563.217	8291.93
563.579	8423.22
563.941	8536.22
564.304	8531.47
564.666	8696.66
565.028	8730.56
565.39	8789.77
565.753	8848.75
566.115	8987.73
566.477	9036.99
566.839	9129.19
567.201	9195.86
567.563	9218.01
567.925	9350.66
568.287	9346.82
568.648	9480.15
569.01	9605.57
569.372	9698.9
569.734	9713.36
570.095	9826.8
570.457	9960.59
570.819	9909.74
571.18	10095.95
571.542	10147.47
571.903	10215.27
572.265	10256.4
572.626	10347.69
572.987	10422.27
573.349	10497.97
573.71	10518.31
574.071	10632.88
574.432	10716.5
574.794	10830.62
575.155	10909.26
575.516	10941.35
575.877	11067.68
576.238	11109.26
576.599	11198.29
576.96	11262.92
577.32	11309.93
577.681	11363.26
578.042	11492.3
578.403	11527.32
578.763	11518.06
579.124	11633.76
579.485	11730.48
579.845	11808.45
580.206	11867.2
580.566	11917.37
580.927	11902.46
581.287	12016.58
581.648	12009.8
582.008	12141.55
582.368	12144.48
582.728	12273.52
583.089	12299.96
583.449	12407.98
583.809	12393.06
584.169	12508.32
584.529	12439.62
584.889	12592.61
585.249	12619.27
585.609	12669.44
585.969	12765.94
586.329	12686.16
586.688	12732.94
587.048	12876.89
587.408	12838.25
587.768	12966.16
588.127	12903.79
588.487	12966.16
588.846	13064.01
589.206	12968.87
589.565	13023.56
589.925	13212.25
590.284	13216.32
590.643	13227.84
591.003	13304.23
591.362	13433.71
591.721	13379.7
592.08	13402.53
592.44	13408.4
592.799	13531.57
593.158	13485.92
593.517	13588.06
593.876	13580.38
594.235	13575.18
594.593	13639.58
594.952	13804.1
595.311	13670.77
595.67	13756.87
596.029	13792.8
596.387	13915.96
596.746	13977.66
597.104	13891.1
597.463	13896.98
597.822	13947.15
598.18	14029.63
598.538	14012.68
598.897	14133.13
599.255	14009.97
599.613	14280.25
599.972	14217.65
600.33	14207.03
600.688	14162.28
601.046	14304.88
601.404	14335.61
601.762	14461.94
602.12	14402.95
602.478	14517.98
602.836	14485.89
603.194	14429.17
603.552	14434.14
603.91	14422.62
604.268	14481.6
604.625	14602.72
604.983	14621.71
605.341	14570.86
605.698	14785.32
606.056	14694.92
606.413	14807.24
606.771	14773.11
607.128	14833.23
607.485	14795.49
607.843	14863.73
608.2	14959.1
608.557	14987.12
608.914	14977.18
609.272	15052.43
609.629	14948.25
609.986	15116.38
610.343	14981.47
610.7	15169.26
611.057	15078.87
611.414	15141.92
611.771	15199.54
612.127	15230.28
612.484	15318.41
612.841	15289.26
613.198	15247.23
613.554	15322.93
613.911	15400.22
614.267	15421.91
614.624	15385.75
614.98	15416.04
615.337	15519.54
615.693	15483.15
616.05	15501.23
616.406	15681.34
616.762	15553.88
617.118	15578.97
617.475	15667.78
617.831	15679.53
618.187	15676.82
618.543	15715.24
618.899	15753.2
619.255	15740.09
619.611	15684.95
619.967	15870.71
620.323	15899.86
620.678	15805.4
621.034	15751.17
621.39	15893.31
621.746	15793.2
622.101	16016.47
622.457	15877.49
622.812	15900.99
623.168	16011.73
623.523	16020.54
623.879	15968.56
624.234	15917.27
624.589	15953.65
624.945	15999.52
625.3	16044.72
625.655	15992.74
626.01	16020.99
626.365	16027.09
626.72	16051.05
627.075	16023.03
627.43	16022.57
627.785	16006.75
628.14	16060.76
628.495	15993.42
628.85	15985.29
629.205	15971.27
629.559	16026.64
629.914	16068.22
630.269	15990.94
630.623	16030.03
630.978	15943.71
631.332	16020.54
631.687	15990.26
632.041	15971.5
632.396	16074.1
632.75	15946.87
633.104	16018.51
633.459	15963.14
633.813	15920.65
634.167	15921.33
634.521	15972.86
634.875	15915.68
635.229	15953.42
635.583	15838.62
635.937	15839.3
636.291	15826.65
636.645	15852.86
636.999	15827.32
637.352	15834.33
637.706	15777.38
638.06	15898.51
638.413	15813.09
638.767	15800.43
639.121	15807.21
639.474	15789.36
639.828	15629.14
640.181	15740.32
640.534	15762.69
640.888	15736.93
641.241	15682.92
641.594	15628.46
641.947	15745.07
642.301	15575.81
642.654	15668.68
643.007	15661
643.36	15633.88
643.713	15680.89
644.066	15701.45
644.419	15588.46
644.771	15511.17
645.124	15366.77
645.477	15323.38
645.83	15283.38
646.182	15247.45
646.535	15219.88
646.888	15177.4
647.24	15155.93
647.593	15201.35
647.945	15247.9
648.298	15225.31
648.65	15102.15
649.002	15033.67
649.355	15137.17
649.707	15111.86
650.059	15147.12
650.411	15356.83
650.763	15364.06
651.115	15534.68
651.467	15552.08
651.819	15447.9
652.171	15538.74
652.523	15390.5
652.875	15413.55
653.227	15320.44
653.578	15483.83
653.93	15461.23
654.282	15390.73
654.633	15425.3
654.985	15304.63
655.337	15441.35
655.688	15393.89
656.039	15445.19
656.391	15371.97
656.742	15358.64
657.094	15336.04
657.445	15467.33
657.796	15469.37
658.147	15310.28
658.498	15345.53
658.849	15451.97
659.2	15411.06
659.551	15385.08
659.902	15333.78
660.253	15328.58
660.604	15333.78
660.955	15318.41
661.306	15390.05
661.656	15348.47
662.007	15376.94
662.358	15348.47
662.708	15376.49
663.059	15347.34
663.409	15321.35
663.76	15477.05
664.11	15434.79
664.461	15422.81
664.811	15397.73
665.161	15441.8
665.511	15386.66
665.862	15342.36
666.212	15494
666.562	15504.85
666.912	15390.73
667.262	15410.84
667.612	15423.49
667.962	15471.85
668.312	15458.29
668.662	15533.55
669.011	15373.55
669.361	15505.75
669.711	15476.37
670.06	15370.84
670.41	15414.23
670.76	15371.97
671.109	15523.6
671.459	15407.22
671.808	15470.95
672.157	15437.5
672.507	15341.69
672.856	15401.35
673.205	15444.06
673.554	15532.87
673.904	15427.11
674.253	15493.1
674.602	15491.06
674.951	15245.19
675.3	15147.12
675.649	15407.22
675.998	15416.04
676.346	15481.8
676.695	15479.99
677.044	15404.28
677.393	15451.51
677.741	15417.84
678.09	15404.96
678.438	15401.12
678.787	15392.08
679.135	15488.12
679.484	15292.65
679.832	15421.68
680.181	15306.21
680.529	15413.78
680.877	15291.52
681.225	15354.57
681.573	15444.06
681.922	15303.27
682.27	15330.39
682.618	15394.12
682.966	15309.15
683.314	15366.55
683.661	15306.66
684.009	15226.44
684.357	15255.14
684.705	15215.81
685.053	15197.74
685.4	15210.17
685.748	15183.5
686.095	15192.09
686.443	15070.28
686.79	15104.63
687.138	15172.43
687.485	15155.93
687.832	15155.03
688.18	15190.5
688.527	15070.28
688.874	15034.12
689.221	15104.63
689.568	15017.4
689.915	15017.18
690.262	14974.69
690.609	14886.33
690.956	14974.47
691.303	14950.74
691.65	14915.26
691.997	14897.4
692.344	14773.79
692.69	14884.75
693.037	14808.37
693.383	14659.22
693.73	14798.42
694.077	14662.83
694.423	14768.59
694.769	14754.13
695.116	14627.58
695.462	14676.85
695.808	14639.56
696.155	14698.99
696.501	14559.33
696.847	14536.96
697.193	14525.66
697.539	14599.11
697.885	14401.6
698.231	14459.68
698.577	14505.55
698.923	14408.6
699.269	14342.17
699.614	14336.97
699.96	14290.87
700.306	14279.57
700.651	14269.85
700.997	14251.09
701.342	14169.97
701.688	14250.42
702.033	14161.38
702.379	14164.54
702.724	14159.57
703.069	14181.27
703.415	14115.5
703.76	14140.14
704.105	14066.92
704.45	14069.63
704.795	13981.72
705.14	13959.8
705.485	13973.59
705.83	13948.05
706.175	13917.32
706.52	13907.6
706.865	13901.05
707.209	13930.42
707.554	13839.81
707.899	13879.13
708.243	13800.48
708.588	13861.73
708.932	13738.57
709.277	13771.33
709.621	13830.31
709.966	13693.59
710.31	13737.44
710.654	13646.59
710.998	13672.58
711.342	13648.4
711.687	13607.27
712.031	13615.63
712.375	13519.81
712.719	13593.71
713.063	13679.36
713.407	13593.03
713.75	13543.09
714.094	13511
714.438	13497.44
714.782	13494.28
715.125	13459.93
715.469	13522.07
715.812	13446.6
716.156	13358.91
716.499	13402.08
716.843	13408.18
717.186	13342.64
717.53	13367.95
717.873	13334.28
718.216	13412.25
718.559	13350.33
718.902	13272.36
719.246	13313.94
719.589	13260.61
719.932	13313.72
720.275	13224.45
720.617	13152.59
720.96	13230.78
721.303	13155.3
721.646	13257.67
721.989	13182.2
722.331	13215.42
722.674	13159.82
723.016	13189.43
723.359	13038.47
723.701	13140.16
724.044	13080.96
724.386	12976.78
724.729	13102.42
725.071	13097.68
725.413	13085.02
725.755	13045.93
726.097	12986.72
726.439	12957.79
726.782	12981.52
727.124	13014.97
727.465	13016.32
727.807	12928.42
728.149	12921.64
728.491	12910.56
728.833	12956.44
729.175	12854.07
729.516	12864.92
729.858	12840.28
730.199	12930.9
730.541	12902.66
730.882	12918.25
731.224	12894.29
731.565	12853.39
731.906	12839.61
732.248	12845.03
732.589	12779.72
732.93	12770
733.271	12816.78
733.612	12769.1
733.953	12779.95
734.294	12758.25
734.635	12665.15
734.976	12716.22
735.317	12658.37
735.658	12646.16
735.999	12627.86
736.339	12583.12
736.68	12638.93
737.021	12618.37
737.361	12522.1
737.702	12694.75
738.042	12605.94
738.383	12582.89
738.723	12584.92
739.063	12551.48
739.404	12598.48
739.744	12526.17
740.084	12531.14
740.424	12520.74
740.764	12458.15
741.104	12439.16
741.444	12432.61
741.784	12346.51
742.124	12427.64
742.464	12361.2
742.804	12307.42
743.143	12396.91
743.483	12357.36
743.823	12290.02
744.162	12331.82
744.502	12309.68
744.841	12228.32
745.181	12286.4
745.52	12223.58
745.86	12292.73
746.199	12234.2
746.538	12272.39
746.877	12228.1
747.216	12184.03
747.556	12249.11
747.895	12137.93
748.234	12177.48
748.573	12093.86
748.911	12058.84
749.25	12079.17
749.589	11989.46
749.928	12029.01
750.267	12036.01
750.605	12041.21
750.944	11953.75
751.283	11984.04
751.621	11966.63
751.96	11870.14
752.298	11854.77
752.636	11865.17
752.975	11768.9
753.313	11815.9
753.651	11822.68
753.989	11760.54
754.327	11695
754.666	11699.07
755.004	11706.98
755.342	11801.44
755.679	11733.65
756.017	11513.54
756.355	11543.59
756.693	11554.67
757.031	11569.81
757.368	11471.28
757.706	11458.4
758.044	11417.27
758.381	11476.48
758.719	11365.52
759.056	11398.06
759.394	11347.44
759.731	11296.82
760.068	11163.27
760.405	11241.68
760.743	11177.05
761.08	11152.64
761.417	11100.89
761.754	11034.46
762.091	11084.17
762.428	11007.79
762.765	10955.81
763.102	10940.45
763.438	10956.04
763.775	10893.44
764.112	10902.71
764.449	10874.91
764.785	10802.37
765.122	10794.24
765.458	10717.63
765.795	10685.99
766.131	10648.93
766.467	10674.24
766.804	10613.22
767.14	10549.72
767.476	10483.06
767.812	10539.33
768.148	10522.15
768.485	10444.64
768.821	10337.07
769.157	10400.8
769.492	10318.99
769.828	10295.72
770.164	10205.78
770.5	10181.82
770.836	10161.26
771.171	10077.87
771.507	10112.9
771.842	10080.81
772.178	10021.6
772.513	9932.79
772.849	9899.34
773.184	9904.99
773.519	9919.46
773.855	9780.48
774.19	9854.6
774.525	9732.34
774.86	9775.96
775.195	9699.35
775.53	9707.26
775.865	9526.02
776.2	9565.57
776.535	9492.8
776.87	9487.15
777.205	9453.48
777.539	9394.72
777.874	9317.89
778.209	9323.77
778.543	9269.3
778.878	9295.29
779.212	9275.18
779.547	9312.47
779.881	9229.31
780.215	9127.61
780.55	9145.47
780.884	9175.07
781.218	9081.29
781.552	9043.1
781.886	8979.59
782.22	8965.13
782.554	8885.36
782.888	8901.63
783.222	8815.98
783.556	8749.54
783.889	8680.62
784.223	8691.69
784.557	8700.73
784.89	8658.7
785.224	8620.51
785.557	8569.66
785.891	8531.47
786.224	8485.6
786.558	8519.27
786.891	8386.84
787.224	8411.02
787.557	8343.45
787.891	8408.08
788.224	8312.95
788.557	8331.7
788.89	8260.74
789.223	8295.54
789.556	8178.26
789.888	8147.07
790.221	8117.02
790.554	8065.27
790.887	8070.92
791.219	8030.47
791.552	7996.12
791.884	7959.96
792.217	7943.01
792.549	7896.91
792.882	7892.17
793.214	7890.58
793.546	7842.68
793.879	7727.88
794.211	7777.37
794.543	7741.66
794.875	7667.54
795.207	7687.88
795.539	7604.26
795.871	7678.39
796.203	7658.5
796.535	7514.1
796.867	7531.72
797.198	7501.89
797.53	7469.58
797.862	7421.22
798.193	7431.39
798.525	7402.91
798.856	7426.64
799.188	7300.32
799.519	7325.17
799.85	7324.27
800.182	7260.77
800.513	7325.85
800.844	7190.26
801.175	7202.69
801.506	7196.36
801.837	7198.62
802.168	7108.68
802.499	7108.91
802.83	7126.08
803.161	7037.95
803.491	7018.06
803.822	7021.91
804.153	6984.84
804.483	6945.52
804.814	6961.34
805.145	6905.75
805.475	6846.77
805.805	6879.54
806.136	6834.11
806.466	6833.21
806.796	6824.62
807.126	6775.13
807.457	6783.27
807.787	6752.08
808.117	6690.62
808.447	6635.48
808.777	6689.26
809.107	6625.53
809.436	6688.58
809.766	6635.93
810.096	6666.66
810.426	6576.27
810.755	6573.33
811.085	6558.19
811.414	6533.78
811.744	6442.03
812.073	6459.43
812.403	6418.76
812.732	6420.79
813.061	6453.11
813.39	6399.1
813.719	6349.61
814.049	6394.58
814.378	6353.9
814.707	6229.61
815.036	6308.7
815.365	6265.54
815.693	6243.85
816.022	6255.15
816.351	6144.87
816.68	6150.52
817.008	6152.1
817.337	6134.02
817.665	6082.72
817.994	6117.97
818.322	6116.84
818.651	6082.95
818.979	5984.19
819.307	6056.96
819.636	6031.65
819.964	6016.06
820.292	6039.56
820.62	6064.19
820.948	6016.28
821.276	6032.55
821.604	5970.41
821.932	5971.54
822.259	5988.49
822.587	5929.51
822.915	5938.09
823.243	5956.17
823.57	5967.7
823.898	5993.68
824.225	5915.72
824.553	5919.34
824.88	5868.26
825.207	5950.75
825.535	5901.71
825.862	5902.39
826.189	5860.58
826.516	5896.51
826.843	5934.02
827.17	5952.56
827.497	5869.85
827.824	5884.08
828.151	5888.38
828.478	5868.04
828.805	5886.12
829.131	5905.78
829.458	5877.53
829.785	5817.87
830.111	5839.34
830.438	5886.57
830.764	5860.35
831.09	5828.94
831.417	5787.14
831.743	5789.62
832.069	5834.14
832.395	5806.12
832.722	5795.5
833.048	5800.69
833.374	5776.74
833.7	5741.04
834.026	5798.66
834.351	5763.18
834.677	5744.88
835.003	5750.53
835.329	5733.58
835.654	5671.21
835.98	5733.35
836.306	5717.53
836.631	5695.16
836.956	5680.25
837.282	5709.62
837.607	5698.32
837.932	5626.91
838.258	5699.23
838.583	5596.63
838.908	5587.37
839.233	5615.39
839.558	5574.49
839.883	5533.81
840.208	5532.45
840.533	5581.72
840.858	5534.94
841.182	5572.45
841.507	5496.75
841.832	5515.96
842.156	5492.91
842.481	5527.71
842.805	5467.37
843.13	5435.73
843.454	5459.46
843.778	5388.73
844.103	5408.84
844.427	5400.25
844.751	5357.09
845.075	5386.02
845.399	5334.49
845.723	5355.73
846.047	5410.65
846.371	5287.71
846.695	5287.49
847.019	5239.81
847.343	5253.36
847.666	5216.98
847.99	5157.1
848.313	5183.76
848.637	5128.4
848.96	5109.87
849.284	5094.5
849.607	5030.09
849.931	5015.18
850.254	5012.47
850.577	5006.37
850.9	5014.95
851.223	4975.86
851.546	4943.54
851.869	4915.97
852.192	4930.66
852.515	4907.61
852.838	4849.08
853.161	4888.18
853.483	4832.13
853.806	4830.55
854.129	4800.72
854.451	4766.82
854.774	4715.75
855.096	4761.85
855.419	4712.14
855.741	4722.53
856.063	4692.48
856.385	4714.17
856.708	4641.4
857.03	4714.17
857.352	4643.66
857.674	4593.95
857.996	4626.04
858.318	4611.8
858.64	4662.42
858.961	4565.25
859.283	4554.85
859.605	4543.33
859.926	4544
860.248	4526.38
860.57	4547.17
860.891	4497.9
861.212	4509.43
861.534	4508.07
861.855	4458.58
862.176	4444.12
862.498	4466.27
862.819	4463.1
863.14	4464.68
863.461	4407.74
863.782	4448.87
864.103	4395.76
864.424	4395.31
864.745	4409.77
865.065	4402.99
865.386	4383.78
865.707	4325.48
866.027	4350.79
866.348	4345.59
866.668	4321.86
866.989	4334.74
867.309	4260.62
867.63	4306.95
867.95	4310.34
868.27	4264.46
868.59	4267.18
868.91	4299.49
869.23	4284.35
869.55	4288.87
869.87	4304.92
870.19	4251.36
870.51	4272.15
870.83	4286.16
871.15	4248.19
871.469	4245.48
871.789	4203
872.109	4245.26
872.428	4224.24
872.748	4178.14
873.067	4165.03
873.386	4203.9
873.706	4180.62
874.025	4159.61
874.344	4177.91
874.663	4165.26
874.982	4158.48
875.301	4151.47
875.62	4114.64
875.939	4084.36
876.258	4137.24
876.577	4109.67
876.896	4136.78
877.214	4080.29
877.533	4066.73
877.852	4119.38
878.17	4104.69
878.489	4114.19
878.807	4104.69
879.125	4043
879.444	4018.82
879.762	4069.44
880.08	4032.61
880.398	4036.45
880.716	3989.67
881.034	3981.76
881.352	3977.01
881.67	3951.48
881.988	3953.51
882.306	4002.32
882.624	3990.8
882.941	3963.68
883.259	3949.9
883.577	3961.87
883.894	3967.3
884.212	3941.99
884.529	3893.63
884.846	3929.56
885.164	3911.25
885.481	3918.03
885.798	3935.43
886.115	3839.16
886.432	3862.44
886.75	3841.65
887.067	3864.25
887.383	3831.26
887.7	3850.01
888.017	3826.96
888.334	3808.88
888.651	3774.08
888.967	3788.54
889.284	3769.34
889.6	3761.2
889.917	3727.53
890.233	3745.38
890.55	3702.45
890.866	3716.91
891.182	3739.28
891.498	3726.4
891.815	3717.59
892.131	3680.3
892.447	3661.32
892.763	3677.13
893.079	3677.81
893.395	3633.75
893.71	3639.4
894.026	3620.41
894.342	3609.34
894.657	3534.09
894.973	3592.39
895.289	3583.35
895.604	3543.35
895.92	3552.39
896.235	3560.75
896.55	3529.57
896.865	3524.37
897.181	3510.81
897.496	3513.52
897.811	3492.96
898.126	3460.87
898.441	3484.6
898.756	3436.92
899.071	3419.74
899.386	3438.95
899.7	3399.4
900.015	3403.02
900.33	3401.44
900.644	3396.69
900.959	3391.94
901.273	3390.59
901.588	3348.1
901.902	3360.76
902.216	3333.42
902.531	3364.15
902.845	3297.26
903.159	3297.48
903.473	3281.44
903.787	3239.63
904.101	3315.34
904.415	3263.81
904.729	3247.99
905.042	3224.49
905.356	3206.19
905.67	3175.45
905.984	3190.37
906.297	3199.86
906.611	3165.51
906.924	3210.71
907.237	3164.61
907.551	3162.35
907.864	3111.5
908.177	3141.56
908.491	3113.76
908.804	3110.82
909.117	3104.72
909.43	3099.3
909.743	3097.49
910.056	3089.35
910.368	3058.39
910.681	3031.05
910.994	3026.08
911.307	3013.2
911.619	2979.53
911.932	3017.72
912.244	2993.09
912.557	2998.06
912.869	2966.42
913.181	2988.34
913.494	2944.05
913.806	2914.22
914.118	2936.82
914.43	2906.08
914.742	2903.6
915.054	2856.82
915.366	2866.99
915.678	2861.11
915.99	2848.91
916.302	2817.95
916.613	2826.31
916.925	2831.51
917.236	2810.49
917.548	2828.8
917.859	2819.3
918.171	2772.3
918.482	2755.13
918.794	2747.22
919.105	2762.13
919.416	2735.24
919.727	2757.61
920.038	2731.85
920.349	2712.87
920.66	2669.48
920.971	2682.81
921.282	2677.84
921.593	2648.24
921.903	2643.94
922.214	2648.69
922.525	2668.8
922.835	2631.51
923.146	2623.83
923.456	2593.77
923.767	2590.84
924.077	2630.61
924.387	2599.88
924.697	2538.63
925.008	2512.19
925.318	2533.66
925.628	2580.44
925.938	2518.52
926.248	2502.93
926.558	2503.83
926.867	2521.01
927.177	2496.38
927.487	2463.16
927.796	2471.52
928.106	2449.82
928.416	2453.21
928.725	2472.65
929.034	2459.31
929.344	2454.34
929.653	2456.6
929.962	2420.67
930.271	2370.95
930.581	2391.29
930.89	2362.82
931.199	2361.24
931.508	2334.12
931.817	2366.43
932.125	2326.89
932.434	2341.8
932.743	2332.99
933.051	2369.6
933.36	2298.87
933.669	2328.24
933.977	2284.86
934.286	2303.16
934.594	2288.02
934.902	2262.93
935.21	2269.26
935.519	2256.38
935.827	2255.7
936.135	2253.67
936.443	2230.62
936.751	2222.03
937.059	2205.31
937.367	2222.94
937.674	2231.75
937.982	2186.78
938.29	2165.08
938.597	2198.3
938.905	2182.94
939.213	2149.94
939.52	2159.89
939.827	2138.42
940.135	2156.27
940.442	2118.53
940.749	2147.91
941.056	2132.54
941.363	2116.95
941.67	2090.06
941.977	2061.36
942.284	2067.69
942.591	2057.29
942.898	2043.96
943.205	2053.67
943.511	2016.39
943.818	2059.55
944.125	2046.44
944.431	2034.47
944.738	2039.21
945.044	1997.18
945.35	2036.05
945.657	1976.16
945.963	1970.29
946.269	1968.71
946.575	1982.04
946.881	1966.45
947.187	1980.23
947.493	1942.49
947.799	1944.07
948.105	1964.41
948.41	1964.64
948.716	1915.15
949.022	1906.33
949.327	1955.37
949.633	1864.53
949.938	1867.47
950.244	1906.56
950.549	1891.19
950.854	1891.42
951.16	1875.6
951.465	1844.87
951.77	1840.8
952.075	1857.3
952.38	1843.28
952.685	1817.52
952.99	1817.75
953.294	1785.66
953.599	1761.48
953.904	1785.43
954.209	1793.57
954.513	1794.47
954.818	1795.6
955.122	1777.98
955.426	1784.76
955.731	1774.13
956.035	1765.09
956.339	1783.85
956.643	1754.47
956.948	1766.22
957.252	1718.77
957.556	1742.27
957.86	1726.23
958.163	1705.44
958.467	1705.21
958.771	1725.77
959.075	1711.31
959.378	1701.82
959.682	1676.51
959.985	1692.33
960.289	1675.38
960.592	1677.41
960.896	1638.54
961.199	1683.52
961.502	1662.95
961.805	1645.78
962.108	1627.25
962.411	1628.15
962.714	1613.69
963.017	1632.89
963.32	1627.7
963.623	1609.62
963.926	1622.05
964.228	1614.36
964.531	1578.89
964.833	1584.31
965.136	1581.82
965.438	1589.96
965.741	1576.4
966.043	1580.69
966.345	1584.08
966.648	1555.16
966.95	1558.09
967.252	1543.86
967.554	1543.86
967.856	1528.04
968.158	1528.49
968.46	1523.97
968.761	1530.98
969.063	1506.8
969.365	1518.1
969.666	1482.62
969.968	1509.06
970.269	1508.6
970.571	1503.18
970.872	1480.81
971.174	1490.98
971.475	1495.27
971.776	1490.07
972.077	1463.63
972.378	1461.83
972.679	1453.69
972.98	1449.4
973.281	1427.7
973.582	1426.35
973.883	1422.28
974.183	1430.41
974.484	1442.84
974.785	1431.32
975.085	1425.44
975.386	1406.69
975.686	1392.45
975.986	1392.45
976.287	1401.49
976.587	1386.12
976.887	1384.31
977.187	1381.38
977.487	1384.99
977.787	1358.1
978.087	1366.91
978.387	1356.52
978.687	1342.06
978.987	1372.56
979.286	1350.64
979.586	1351.09
979.885	1315.84
980.185	1318.55
980.484	1324.65
980.784	1307.93
981.083	1305.9
981.382	1330.08
981.682	1294.37
981.981	1307.03
982.28	1307.03
982.579	1283.07
982.878	1299.57
983.177	1295.28
983.475	1278.1
983.774	1300.02
984.073	1304.54
984.372	1267.71
984.67	1247.37
984.969	1253.7
985.267	1245.33
985.566	1239.01
985.864	1240.59
986.162	1246.01
986.461	1250.76
986.759	1243.75
987.057	1254.83
987.355	1210.53
987.653	1241.49
987.951	1191.78
988.249	1191.32
988.547	1204.66
988.844	1213.02
989.142	1202.17
989.44	1177.99
989.737	1188.16
990.035	1190.42
990.332	1184.55
990.63	1177.54
990.927	1161.04
991.224	1176.64
991.521	1181.61
991.819	1153.13
992.116	1140.03
992.413	1138.44
992.71	1147.26
993.006	1140.25
993.303	1150.2
993.6	1130.54
993.897	1133.92
994.193	1135.28
994.49	1132.34
994.787	1108.39
995.083	1089.41
995.379	1119.91
995.676	1103.64
995.972	1098.67
996.268	1098.67
996.565	1082.85
996.861	1090.31
997.157	1087.6
997.453	1059.8
997.749	1054.61
998.044	1064.77
998.34	1078.11
998.636	1049.86
998.932	1038.79
999.227	1018.22
999.523	1038.79
999.818	1018.67
1000.114	1029.07
1000.409	1054.38
1000.704	1015.51
1001	1010.09
1001.295	1013.48
1001.59	1036.98
1001.885	1005.79
1002.18	994.95
1002.475	1013.48
1002.77	988.39
1003.065	973.48
1003.359	989.52
1003.654	956.08
1003.949	1001.95
1004.243	957.66
1004.538	974.16
1004.832	965.12
1005.127	950.65
1005.421	970.09
1005.715	969.64
1006.009	945.68
1006.304	955.62
1006.598	946.81
1006.892	921.28
1007.186	915.17
1007.48	903.87
1007.773	909.07
1008.067	899.58
1008.361	909.52
1008.655	899.35
1008.948	910.2
1009.242	914.04
1009.535	913.14
1009.829	903.87
1010.122	912.69
1010.415	881.28
1010.708	904.1
1011.001	871.33
1011.295	854.38
1011.588	877.43
1011.881	871.33
1012.173	856.42
1012.466	852.8
1012.759	846.93
1013.052	844.44
1013.344	853.25
1013.637	843.54
1013.93	811.22
1014.222	836.53
1014.514	834.05
1014.807	838.57
1015.099	826.36
1015.391	836.31
1015.683	838.79
1015.976	827.27
1016.268	813.48
1016.56	790.88
1016.851	805.57
1017.143	810.54
1017.435	799.7
1017.727	806.93
1018.018	786.82
1018.31	785.46
1018.602	766.7
1018.893	775.74
1019.185	782.3
1019.476	756.31
1019.767	774.61
1020.058	768.06
1020.35	755.4
1020.641	771.45
1020.932	766.93
1021.223	762.18
1021.514	750.43
1021.804	741.17
1022.095	726.48
1022.386	731.22
1022.677	756.76
1022.967	763.77
1023.258	712.69
1023.548	721.96
1023.839	708.4
1024.129	717.21
1024.419	709.76
1024.709	718.79
1025	682.86
1025.29	690.77
1025.58	705.46
1025.87	686.03
1026.16	712.92
1026.449	691.22
1026.739	689.64
1027.029	708.17
1027.319	699.81
1027.608	678.8
1027.898	652.81
1028.187	667.95
1028.477	663.43
1028.766	672.69
1029.055	650.55
1029.344	663.2
1029.634	650.32
1029.923	647.16
1030.212	644.22
1030.501	654.84
1030.79	640.38
1031.078	635.41
1031.367	631.34
1031.656	648.97
1031.945	629.76
1032.233	638.12
1032.522	606.03
1032.81	615.75
1033.099	608.29
1033.387	613.49
1033.675	603.77
1033.963	616.42
1034.251	600.38
1034.54	590.44
1034.828	610.55
1035.116	611.9
1035.403	620.27
1035.691	609.42
1035.979	597.22
1036.267	584.11
1036.554	592.02
1036.842	586.59
1037.129	581.17
1037.417	594.5
1037.704	575.3
1037.992	563.09
1038.279	567.39
1038.566	574.39
1038.853	574.39
1039.14	574.39
