Data from brown_tile_FLMS001491_039.txt Node
Date: Tue Feb 07 10:37:26 GMT 2017
User: dcchb
Spectrometer: FLMS00149
Trigger mode: 0
Integration Time (sec): 2.000000E-2
Scans to average: 10
Electric dark correction enabled: true
Nonlinearity correction enabled: false
Boxcar width: 0
XAxis mode: Wavelengths
Number of Pixels in Spectrum: 2048
>>>>>Begin Spectral Data<<<<<
341.393	-5.73
341.776	-5.73
342.16	-5.73
342.543	-57.71
342.927	-72.63
343.31	-57.48
343.693	-45.73
344.077	-74.66
344.46	-56.58
344.843	-52.29
345.226	-36.24
345.61	-19.75
345.993	-28.11
346.376	-17.49
346.759	11.89
347.142	25.9
347.525	44.89
347.908	53.02
348.291	80.37
348.674	65.68
349.057	106.58
349.44	122.4
349.823	128.05
350.206	160.36
350.588	168.27
350.971	182.96
351.354	205.56
351.737	222.73
352.119	242.85
352.502	260.47
352.884	240.81
353.267	270.87
353.65	268.83
354.032	276.29
354.414	295.27
354.797	288.95
355.179	304.99
355.562	325.56
355.944	310.42
356.326	314.03
356.709	325.56
357.091	310.87
357.473	321.04
357.855	334.37
358.238	328.49
358.62	336.63
359.002	314.71
359.384	312
359.766	312.22
360.148	316.97
360.53	331.88
360.912	354.93
361.294	328.49
361.676	330.3
362.057	320.13
362.439	317.87
362.821	308.61
363.203	312.45
363.584	306.57
363.966	309.96
364.348	319.23
364.729	300.92
365.111	290.08
365.493	296.4
365.874	320.13
366.256	291.21
366.637	298.21
367.019	305.22
367.4	299.79
367.781	290.76
368.163	309.51
368.544	304.54
368.925	320.36
369.306	315.61
369.688	295.27
370.069	295.73
370.45	303.18
370.831	274.48
371.212	296.86
371.593	295.5
371.974	287.37
372.355	289.17
372.736	310.42
373.117	283.98
373.498	309.51
373.879	299.79
374.26	321.94
374.641	307.48
375.021	307.25
375.402	300.02
375.783	328.04
376.163	328.27
376.544	308.83
376.925	293.01
377.305	321.04
377.686	317.42
378.066	306.12
378.447	289.4
378.827	295.73
379.208	309.06
379.588	317.42
379.968	315.84
380.349	318.78
380.729	330.75
381.109	327.14
381.489	320.13
381.87	319.91
382.25	318.32
382.63	337.53
383.01	314.71
383.39	316.07
383.77	336.4
384.15	327.36
384.53	328.72
384.91	320.13
385.29	332.79
385.67	330.75
386.049	342.96
386.429	327.59
386.809	352.45
387.189	342.96
387.568	331.43
387.948	311.77
388.328	347.7
388.707	324.2
389.087	336.4
389.466	349.28
389.846	333.47
390.225	338.89
390.605	333.24
390.984	330.98
391.363	349.06
391.743	347.48
392.122	347.7
392.501	350.19
392.881	337.99
393.26	337.53
393.639	346.12
394.018	360.36
394.397	363.52
394.776	357.19
395.155	350.19
395.534	362.39
395.913	349.51
396.292	374.59
396.671	387.93
397.05	375.95
397.429	368.04
397.808	350.41
398.186	366.69
398.565	360.36
398.944	357.65
399.323	381.6
399.701	392.45
400.08	364.88
400.458	368.27
400.837	381.6
401.215	389.06
401.594	387.93
401.972	384.54
402.351	380.24
402.729	380.24
403.107	369.4
403.486	382.05
403.864	392
404.242	375.05
404.62	380.92
404.999	375.27
405.377	373.46
405.755	391.09
406.133	384.54
406.511	400.58
406.889	393.58
407.267	394.03
407.645	414.82
408.023	384.99
408.401	420.7
408.779	395.61
409.156	397.64
409.534	404.65
409.912	443.07
410.29	409.62
410.667	438.1
411.045	392.22
411.422	410.98
411.8	438.32
412.178	400.36
412.555	422.28
412.933	425.89
413.31	424.31
413.687	437.19
414.065	448.94
414.442	438.55
414.819	449.17
415.197	435.38
415.574	450.07
415.951	449.85
416.328	429.28
416.705	446.91
417.082	445.78
417.46	458.66
417.837	481.94
418.214	468.15
418.591	460.24
418.967	469.96
419.344	467.93
419.721	469.96
420.098	483.74
420.475	486.68
420.852	475.83
421.228	487.36
421.605	479
421.982	477.19
422.358	486.23
422.735	462.95
423.111	494.14
423.488	500.69
423.864	482.39
424.241	490.07
424.617	488.26
424.994	490.75
425.37	514.7
425.746	520.58
426.123	511.31
426.499	506.79
426.875	502.27
427.251	530.75
427.627	504.53
428.003	519.45
428.379	527.13
428.756	530.3
429.132	531.43
429.507	527.81
429.883	537.75
430.259	555.83
430.635	560.13
431.011	537.98
431.387	569.62
431.763	575.27
432.138	578.88
432.514	582.05
432.89	548.83
433.265	587.24
433.641	574.59
434.016	569.17
434.392	576.85
434.767	596.74
435.143	596.74
435.518	609.16
435.894	619.11
436.269	619.56
436.644	621.37
437.02	619.56
437.395	617.98
437.77	631.09
438.145	631.09
438.52	652.1
438.895	645.55
439.271	625.66
439.646	640.58
440.021	653.68
440.395	645.1
440.77	660.91
441.145	641.93
441.52	684.87
441.895	652.33
442.27	674.7
442.645	681.03
443.019	677.41
443.394	685.55
443.769	673.12
444.143	687.58
444.518	670.86
444.892	687.81
445.267	715.83
445.641	702.5
446.016	702.95
446.39	693
446.764	706.11
447.139	706.79
447.513	714.47
447.887	745.43
448.262	706.34
448.636	718.09
449.01	749.27
449.384	720.8
449.758	731.2
450.132	761.48
450.506	749.05
450.88	762.61
451.254	734.59
451.628	746.56
452.002	763.51
452.376	773.45
452.75	774.81
453.123	758.99
453.497	782.49
453.871	789.95
454.244	801.02
454.618	791.53
454.992	808.48
455.365	790.18
455.739	829.5
456.112	865.88
456.486	835.6
456.859	850.97
457.232	840.8
457.606	874.47
457.979	880.8
458.352	863.17
458.725	871.98
459.099	890.97
459.472	899.1
459.845	880.12
460.218	897.07
460.591	891.19
460.964	915.82
461.337	922.38
461.71	935.94
462.083	973.22
462.456	958.08
462.829	942.26
463.201	984.75
463.574	974.35
463.947	982.04
464.32	1009.15
464.692	1004.86
465.065	1011.19
465.438	1031.07
465.81	1018.65
466.183	1037.63
466.555	1073.56
466.928	1051.86
467.3	1073.56
467.672	1092.99
468.045	1087.8
468.417	1103.84
468.789	1122.37
469.161	1096.38
469.534	1140.22
469.906	1136.61
470.278	1156.95
470.65	1159.21
471.022	1198.98
471.394	1203.73
471.766	1191.75
472.138	1216.61
472.51	1207.57
472.882	1238.98
473.253	1256.61
473.625	1272.42
473.997	1285.53
474.369	1282.37
474.74	1338.19
475.112	1338.41
475.484	1358.75
475.855	1362.59
476.227	1358.3
476.598	1417.73
476.97	1432.19
477.341	1448.46
477.713	1454.11
478.084	1462.7
478.455	1508.58
478.827	1527.56
479.198	1550.16
479.569	1547.67
479.94	1582.7
480.311	1589.48
480.682	1665.63
481.053	1674.67
481.424	1685.97
481.795	1671.51
482.166	1683.94
482.537	1724.62
482.908	1770.49
483.279	1782.47
483.65	1793.31
484.021	1832.18
484.391	1839.41
484.762	1817.04
485.133	1871.96
485.503	1887.55
485.874	1935.91
486.244	1963.48
486.615	1970.03
486.985	2010.94
487.356	2063.36
487.726	2055.68
488.097	2099.3
488.467	2111.95
488.837	2135.9
489.207	2163.7
489.578	2191.72
489.948	2196.02
490.318	2237.37
490.688	2223.81
491.058	2268.33
491.428	2289.57
491.798	2303.58
492.168	2337.71
492.538	2398.95
492.908	2391.94
493.278	2420.19
493.648	2402.34
494.017	2462.68
494.387	2452.05
494.757	2498.15
495.126	2535.89
495.496	2541.32
495.866	2545.16
496.235	2610.24
496.605	2590.36
496.974	2632.84
497.344	2638.26
497.713	2652.73
498.082	2669.68
498.452	2699.51
498.821	2699.05
499.19	2687.75
499.559	2764.81
499.928	2762.1
500.298	2772.05
500.667	2816.11
501.036	2795.1
501.405	2830.35
501.774	2847.98
502.143	2869.22
502.512	2861.99
502.88	2929.1
503.249	2904.7
503.618	2939.27
503.987	2956.22
504.356	2932.95
504.724	2992.6
505.093	2981.53
505.462	3012.27
505.83	3047.07
506.199	3059.5
506.567	3085.26
506.936	3109.66
507.304	3134.75
507.672	3162.09
508.041	3198.25
508.409	3170.23
508.777	3189.66
509.145	3190.79
509.514	3207.51
509.882	3304.46
510.25	3286.61
510.618	3315.53
510.986	3338.36
511.354	3329.77
511.722	3367.06
512.09	3394.18
512.458	3406.61
512.826	3419.49
513.193	3410.45
513.561	3488.86
513.929	3495.19
514.297	3548.07
514.664	3551.23
515.032	3595.98
515.4	3624.9
515.767	3610.22
516.135	3662.64
516.502	3626.71
516.869	3680.72
517.237	3769.53
517.604	3732.92
517.972	3770.21
518.339	3801.4
518.706	3791.91
519.073	3874.16
519.44	3826.03
519.808	3918.46
520.175	3904.67
520.542	3954.61
520.909	4022.86
521.276	3974.05
521.643	4025.12
522.009	4068.28
522.376	4114.38
522.743	4126.81
523.11	4139.47
523.477	4197.77
523.843	4222.4
524.21	4296.07
524.577	4344.66
524.943	4379.46
525.31	4378.33
525.676	4446.8
526.043	4442.28
526.409	4522.96
526.776	4555.05
527.142	4543.52
527.508	4584.88
527.874	4602.73
528.241	4669.85
528.607	4654.03
528.973	4692.22
529.339	4744.42
529.705	4716.63
530.071	4809.05
530.437	4857.87
530.803	4865.32
531.169	4922.95
531.535	4883.18
531.901	4946
532.267	4974.93
532.632	4975.6
532.998	4993
533.364	5085.43
533.73	5081.82
534.095	5127.92
534.461	5105.32
534.826	5186.9
535.192	5213.79
535.557	5256.27
535.923	5238.87
536.288	5284.97
536.653	5316.39
537.019	5362.49
537.384	5391.41
537.749	5383.95
538.114	5415.14
538.479	5465.99
538.845	5494.01
539.21	5488.58
539.575	5578.07
539.94	5541.24
540.305	5597.06
540.67	5600.9
541.034	5648.58
541.399	5681.35
541.764	5716.83
542.129	5680.9
542.494	5787.33
542.858	5819.65
543.223	5832.53
543.587	5829.82
543.952	5899.42
544.316	5920.44
544.681	5932.87
545.045	5992.75
545.41	6018.06
545.774	6045.63
546.138	6100.32
546.503	6129.02
546.867	6098.51
547.231	6175.35
547.595	6266.42
547.959	6248.56
548.324	6299.41
548.688	6260.77
549.052	6422.57
549.416	6431.61
549.779	6423.48
550.143	6445.62
550.507	6516.13
550.871	6573.98
551.235	6625.96
551.599	6664.15
551.962	6684.71
552.326	6692.85
552.689	6778.49
553.053	6794.99
553.417	6867.08
553.78	6919.28
554.143	6961.09
554.507	6988.88
554.87	7038.83
555.234	7106.17
555.597	7159.5
555.96	7234.53
556.323	7284.47
556.686	7284.02
557.05	7375.54
557.413	7455.31
557.776	7553.61
558.139	7558.59
558.502	7646.72
558.865	7649.88
559.228	7797.68
559.59	7827.28
559.953	7842.42
560.316	8026.82
560.679	8035.41
561.041	8060.72
561.404	8182.98
561.767	8265.23
562.129	8309.08
562.492	8410.77
562.854	8453.7
563.217	8444.44
563.579	8576.64
563.941	8663.64
564.304	8742.96
564.666	8844.65
565.028	8888.72
565.39	8931.66
565.753	9041.71
566.115	9098.89
566.477	9173.23
566.839	9261.14
567.201	9404.87
567.563	9366.67
567.925	9450.06
568.287	9587.01
568.648	9609.83
569.01	9765.53
569.372	9832.65
569.734	9821.35
570.095	9989.48
570.457	10002.36
570.819	10170.5
571.18	10180.66
571.542	10263.6
571.903	10293.2
572.265	10412.97
572.626	10488.23
572.987	10591.28
573.349	10662.01
573.71	10717.83
574.071	10801.44
574.432	10842.34
574.794	11049.79
575.155	11057.25
575.516	11081.21
575.877	11199.17
576.238	11270.58
576.599	11389.9
576.96	11374.98
577.32	11428.09
577.681	11603.23
578.042	11637.35
578.403	11674.86
578.763	11693.85
579.124	11744.69
579.485	11944.01
579.845	11911.69
580.206	11978.81
580.566	12071.46
580.927	12172.02
581.287	12287.5
581.648	12271.68
582.008	12385.13
582.368	12386.93
582.728	12547.16
583.089	12538.79
583.449	12569.3
583.809	12624.44
584.169	12645.91
584.529	12703.31
584.889	12904.89
585.249	12770.43
585.609	12806.81
585.969	12961.61
586.329	12919.8
586.688	12943.53
587.048	13070.98
587.408	13054.71
587.768	13114.6
588.127	13173.35
588.487	13252.45
588.846	13397.53
589.206	13326.57
589.565	13322.05
589.925	13450.64
590.284	13466.68
590.643	13499
591.003	13616.73
591.362	13594.81
591.721	13622.61
592.08	13698.99
592.44	13737.63
592.799	13822.6
593.158	13823.51
593.517	13723.4
593.876	13868.7
594.235	13922.49
594.593	13905.76
594.952	14024.41
595.311	13952.32
595.67	14052.65
596.029	14096.49
596.387	14181.01
596.746	14244.96
597.104	14197.51
597.463	14211.52
597.822	14334.68
598.18	14185.3
598.538	14332.87
598.897	14499.65
599.255	14300.78
599.613	14597.72
599.972	14417.16
600.33	14582.58
600.688	14542.58
601.046	14620.77
601.404	14615.8
601.762	14653.09
602.12	14749.36
602.478	14769.47
602.836	14762.24
603.194	14717.72
603.552	14809.02
603.91	14769.02
604.268	14846.08
604.625	14862.58
604.983	14960.2
605.341	14856.7
605.698	14886.08
606.056	14968.11
606.413	15080.42
606.771	15078.84
607.128	15121.55
607.485	15149.8
607.843	15144.6
608.2	15219.18
608.557	15288.55
608.914	15298.72
609.272	15357.48
609.629	15333.98
609.986	15412.62
610.343	15423.24
610.7	15463.24
611.057	15457.14
611.414	15496.68
611.771	15545.27
612.127	15678.15
612.484	15584.36
612.841	15690.35
613.198	15642.67
613.554	15591.37
613.911	15772.38
614.267	15762.21
614.624	15701.42
614.98	15890.8
615.337	15867.75
615.693	15854.19
616.05	15748.2
616.406	15927.18
616.762	15827.3
617.118	15938.48
617.475	15946.84
617.831	16056.89
618.187	16049.44
618.543	15971.47
618.899	16125.37
619.255	16083.79
619.611	16056.67
619.967	16138.25
620.323	16163.11
620.678	16182.09
621.034	16142.54
621.39	16084.69
621.746	16121.3
622.101	16286.72
622.457	16217.12
622.812	16262.54
623.168	16265.93
623.523	16290.56
623.879	16391.12
624.234	16199.49
624.589	16320.16
624.945	16310.9
625.3	16392.48
625.655	16366.94
626.01	16387.51
626.365	16388.41
626.72	16302.54
627.075	16287.4
627.43	16293.05
627.785	16269.54
628.14	16340.95
628.495	16393.83
628.85	16426.83
629.205	16287.62
629.559	16477.9
629.914	16349.77
630.269	16404.91
630.623	16385.7
630.978	16350.67
631.332	16432.7
631.687	16377.11
632.041	16322.65
632.396	16335.98
632.75	16330.11
633.104	16338.47
633.459	16180.51
633.813	16226.61
634.167	16220.96
634.521	16219.83
634.875	16302.54
635.229	16233.61
635.583	16215.08
635.937	16207.17
636.291	16190.68
636.645	16123.33
636.999	16202.43
637.352	16211.92
637.706	16137.12
638.06	16206.72
638.413	16151.81
638.767	16122.43
639.121	16107.74
639.474	16088.08
639.828	16098.02
640.181	16054.18
640.534	16044.69
640.888	16065.03
641.241	15911.81
641.594	16033.39
641.947	16060.51
642.301	16059.61
642.654	15969.21
643.007	15990.46
643.36	15984.35
643.713	16002.66
644.066	15985.94
644.419	15910.91
644.771	15810.8
645.124	15640.63
645.477	15647.64
645.83	15566.29
646.182	15526.74
646.535	15478.6
646.888	15424.14
647.24	15380.3
647.593	15530.35
647.945	15479.96
648.298	15419.17
648.65	15384.82
649.002	15323.81
649.355	15389.79
649.707	15410.13
650.059	15467.98
650.411	15611.26
650.763	15644.7
651.115	15832.04
651.467	15788.88
651.819	15676.79
652.171	15724.02
652.523	15714.98
652.875	15678.6
653.227	15725.38
653.578	15772.61
653.93	15742.78
654.282	15710.69
654.633	15640.86
654.985	15645.15
655.337	15728.09
655.688	15730.35
656.039	15781.2
656.391	15578.71
656.742	15680.18
657.094	15645.15
657.445	15705.72
657.796	15695.32
658.147	15546.63
658.498	15747.75
658.849	15776.45
659.2	15808.77
659.551	15622.56
659.902	15651.93
660.253	15639.05
660.604	15762.66
660.955	15565.61
661.306	15710.46
661.656	15602.67
662.007	15661.65
662.358	15664.81
662.708	15735.55
663.059	15716.34
663.409	15681.31
663.76	15748.2
664.11	15715.89
664.461	15670.46
664.811	15734.19
665.161	15770.8
665.511	15699.16
665.862	15731.93
666.212	15817.8
666.562	15831.14
666.912	15831.82
667.262	15745.49
667.612	15765.6
667.962	15733.06
668.312	15829.56
668.662	15914.07
669.011	15843.11
669.361	15931.25
669.711	15833.85
670.06	15785.26
670.41	15780.74
670.76	15797.47
671.109	15861.87
671.459	15799.27
671.808	15746.85
672.157	15866.62
672.507	15756.79
672.856	15764.25
673.205	15823.91
673.554	15957.46
673.904	15717.92
674.253	15854.87
674.602	15793.4
674.951	15583.23
675.3	15559.73
675.649	15760.63
675.998	15799.73
676.346	15827.07
676.695	15781.87
677.044	15722.44
677.393	15796.79
677.741	15871.14
678.09	15737.35
678.438	15825.26
678.787	15792.27
679.135	15760.86
679.484	15768.09
679.832	15803.57
680.181	15783
680.529	15799.95
680.877	15626.85
681.225	15759.05
681.573	15794.08
681.922	15696.9
682.27	15739.61
682.618	15731.03
682.966	15685.83
683.314	15743.46
683.661	15755.89
684.009	15573.97
684.357	15631.14
684.705	15522.67
685.053	15639.73
685.4	15603.35
685.748	15611.71
686.095	15525.38
686.443	15556.79
686.79	15461.2
687.138	15518.83
687.485	15524.03
687.832	15465.72
688.18	15529.68
688.527	15411.04
688.874	15456.68
689.221	15452.16
689.568	15371.71
689.915	15362.68
690.262	15366.97
690.609	15324.94
690.956	15354.77
691.303	15326.97
691.65	15175.34
691.997	15294.2
692.344	15160.19
692.69	15169.46
693.037	15223.24
693.383	15186.86
693.73	15163.81
694.077	15052.17
694.423	15100.54
694.769	15016.7
695.116	15101.67
695.462	15030.03
695.808	14980.31
696.155	14980.76
696.501	14863.25
696.847	14910.94
697.193	14884.95
697.539	14887.21
697.885	14847.21
698.231	14725.18
698.577	14750.04
698.923	14835.01
699.269	14763.37
699.614	14721.34
699.96	14627.78
700.306	14638.63
700.651	14601.57
700.997	14499.42
701.342	14565.18
701.688	14545.75
702.033	14512.08
702.379	14512.3
702.724	14477.05
703.069	14592.53
703.415	14341.01
703.76	14359.99
704.105	14442.02
704.45	14365.41
704.795	14341.23
705.14	14294.68
705.485	14284.29
705.83	14161.12
706.175	14273.21
706.52	14283.83
706.865	14133.55
707.209	14239.31
707.554	14110.5
707.899	14197.51
708.243	14152.31
708.588	14100.34
708.932	13920.23
709.277	13992.99
709.621	14035.7
709.966	14006.33
710.31	13993.67
710.654	13878.42
710.998	13957.51
711.342	13892.43
711.687	13938.98
712.031	13914.58
712.375	13891.75
712.719	13836.39
713.063	13830.74
713.407	13900.79
713.75	13822.6
714.094	13884.75
714.438	13752.32
714.782	13764.07
715.125	13700.12
715.469	13781.02
715.812	13678.43
716.156	13683.85
716.499	13696.96
716.843	13696.96
717.186	13565.21
717.53	13608.37
717.873	13663.96
718.216	13651.53
718.559	13628.48
718.902	13444.53
719.246	13537.19
719.589	13575.15
719.932	13431.65
720.275	13388.04
720.617	13501.71
720.96	13491.99
721.303	13527.02
721.646	13462.84
721.989	13413.57
722.331	13466
722.674	13451.09
723.016	13445.21
723.359	13478.2
723.701	13351.43
724.044	13295.84
724.386	13205.9
724.729	13364.76
725.071	13261.04
725.413	13373.12
725.755	13411.09
726.097	13297.42
726.439	13286.57
726.782	13268.27
727.124	13257.87
727.465	13273.46
727.807	13288.15
728.149	13259.45
728.491	13196.63
728.833	13201.15
729.175	13184.2
729.516	13152.79
729.858	13151.21
730.199	13153.02
730.541	13139.46
730.882	13145.78
731.224	13189.4
731.565	13087.25
731.906	13100.81
732.248	13157.76
732.589	12982.62
732.93	13005.22
733.271	12994.6
733.612	13037.54
733.953	13023.08
734.294	13028.27
734.635	13131.55
734.976	13061.72
735.317	12869.63
735.658	12950.31
735.999	13046.8
736.339	12963.87
736.68	12981.04
737.021	12908.95
737.361	12887.94
737.702	12930.65
738.042	12946.69
738.383	12858.79
738.723	12841.39
739.063	12769.52
739.404	12812.46
739.744	12872.35
740.084	12791.67
740.424	12675.97
740.764	12748.05
741.104	12854.04
741.444	12777.21
741.784	12703.99
742.124	12697.43
742.464	12713.93
742.804	12621.05
743.143	12595.29
743.483	12635.52
743.823	12577.44
744.162	12605.23
744.502	12559.13
744.841	12524.78
745.181	12534.95
745.52	12466.71
745.86	12526.82
746.199	12469.42
746.538	12463.77
746.877	12523.65
747.216	12495.18
747.556	12450.21
747.895	12510.77
748.234	12395.97
748.573	12382.87
748.911	12345.35
749.25	12365.92
749.589	12253.38
749.928	12322.3
750.267	12346.94
750.605	12310.55
750.944	12265.13
751.283	12215.87
751.621	12254.51
751.96	12206.15
752.298	12228.52
752.636	12138.58
752.975	12138.58
753.313	12067.62
753.651	12118.92
753.989	12034.63
754.327	12030.33
754.666	11950.79
755.004	11962.09
755.342	11963.22
755.679	11890.45
756.017	11913.73
756.355	11912.37
756.693	11852.94
757.031	11859.72
757.368	11784.92
757.706	11809.77
758.044	11755.31
758.381	11763.9
758.719	11702.66
759.056	11703.56
759.394	11632.83
759.731	11491.59
760.068	11509.9
760.405	11457.02
760.743	11457.69
761.08	11386.96
761.417	11403.91
761.754	11360.29
762.091	11355.1
762.428	11344.02
762.765	11289.34
763.102	11288.88
763.438	11232.61
763.775	11160.98
764.112	11170.24
764.449	11094.54
764.785	11079.85
765.122	11057.93
765.458	11050.02
765.795	10940.87
766.131	10884.15
766.467	10894.77
766.804	10884.15
767.14	10816.35
767.476	10781.78
767.812	10751.27
768.148	10753.98
768.485	10658.62
768.821	10664.27
769.157	10586.53
769.492	10548.11
769.828	10595.57
770.164	10504.95
770.5	10417.49
770.836	10423.37
771.171	10377.5
771.507	10320.77
771.842	10299.98
772.178	10186.54
772.513	10219.99
772.849	10170.27
773.184	10118.75
773.519	10067.22
773.855	10141.8
774.19	10064.96
774.525	10057.5
774.86	10001.91
775.195	9959.88
775.53	9943.61
775.865	9877.4
776.2	9762.6
776.535	9708.81
776.87	9788.36
777.205	9667.01
777.539	9636.95
777.874	9648.93
778.209	9540
778.543	9612.32
778.878	9491.64
779.212	9506.56
779.547	9438.09
779.881	9467.24
780.215	9399.89
780.55	9401.25
780.884	9308.15
781.218	9279.67
781.552	9283.74
781.886	9223.4
782.22	9111.31
782.554	9137.08
782.888	9079.45
783.222	9029.96
783.556	9011.88
783.889	8977.53
784.223	8883.75
784.557	8816.18
784.89	8877.87
785.224	8883.52
785.557	8779.35
785.891	8780.93
786.224	8728.27
786.558	8763.53
786.891	8609.63
787.224	8561.95
787.557	8595.4
787.891	8534.61
788.224	8550.2
788.557	8543.87
788.89	8519.47
789.223	8479.92
789.556	8416.19
789.888	8418
790.221	8361.5
790.554	8293.48
790.887	8321.5
791.219	8287.38
791.552	8308.17
791.884	8164.22
792.217	8151.34
792.549	8111.11
792.882	8089.87
793.214	8049.65
793.546	8030.66
793.879	8016.43
794.211	7910.22
794.543	7978.46
794.875	7918.35
795.207	7962.19
795.539	7860.5
795.871	7872.7
796.203	7779.82
796.535	7750.45
796.867	7673.16
797.198	7711.12
797.53	7713.61
797.862	7692.59
798.193	7695.76
798.525	7629.55
798.856	7657.79
799.188	7514.75
799.519	7449.21
799.85	7423.9
800.182	7464.8
800.513	7429.78
800.844	7342.1
801.175	7353.62
801.506	7319.72
801.837	7331.02
802.168	7263.45
802.499	7228.2
802.83	7220.97
803.161	7208.31
803.491	7229.78
803.822	7155.21
804.153	7122.67
804.483	7120.63
804.814	7117.24
805.145	7046.06
805.475	6994.99
805.805	7043.35
806.136	6995.44
806.466	6988.88
806.796	6995.89
807.126	6904.82
807.457	6928.32
807.787	6907.3
808.117	6843.58
808.447	6833.18
808.777	6844.26
809.107	6810.81
809.436	6728.1
809.766	6761.09
810.096	6728.55
810.426	6670.93
810.755	6702.79
811.085	6726.74
811.414	6643.58
811.744	6583.02
812.073	6643.81
812.403	6559.52
812.732	6523.13
813.061	6526.07
813.39	6525.85
813.719	6512.51
814.049	6502.34
814.378	6474.1
814.707	6487.43
815.036	6406.07
815.365	6406.75
815.693	6361.56
816.022	6354.78
816.351	6347.54
816.68	6283.37
817.008	6354.1
817.337	6255.12
817.665	6249.02
817.994	6213.54
818.322	6266.87
818.651	6123.82
818.979	6195.91
819.307	6179.41
819.636	6209.92
819.964	6180.77
820.292	6169.02
820.62	6162.24
820.948	6105.74
821.276	6162.69
821.604	6095.8
821.932	6110.72
822.259	6151.62
822.587	6062.13
822.915	6093.99
823.243	6108
823.57	6083.37
823.898	6124.95
824.225	6040.66
824.553	6044.73
824.88	6054.9
825.207	6049.02
825.535	6023.26
825.862	6013.77
826.189	6011.96
826.516	6012.19
826.843	6080.43
827.17	6009.02
827.497	6013.32
827.824	6029.81
828.151	6010.6
828.478	5970.38
828.805	6050.83
829.131	5989.81
829.458	6000.89
829.785	5984.62
830.111	5983.94
830.438	5950.27
830.764	5973.09
831.09	5916.37
831.417	5884.05
831.743	5976.48
832.069	5980.32
832.395	5964.73
832.722	5914.11
833.048	5913.88
833.374	5914.34
833.7	5851.29
834.026	5898.29
834.351	5908.23
834.677	5872.53
835.003	5913.88
835.329	5876.6
835.654	5885.86
835.98	5818.29
836.306	5825.3
836.631	5820.55
836.956	5829.59
837.282	5807.67
837.607	5805.41
837.932	5803.38
838.258	5751.85
838.583	5766.77
838.908	5708.01
839.233	5739.65
839.558	5694
839.883	5683.83
840.208	5705.98
840.533	5651.07
840.858	5661.24
841.182	5659.65
841.507	5664.63
841.832	5643.61
842.156	5638.86
842.481	5621.91
842.805	5617.17
843.13	5608.13
843.454	5567.45
843.778	5545.31
844.103	5542.37
844.427	5526.1
844.751	5457.62
845.075	5517.96
845.399	5463.95
845.723	5455.37
846.047	5458.3
846.371	5400.45
846.695	5372.43
847.019	5382.15
847.343	5346.44
847.666	5316.84
847.99	5299.21
848.313	5294.01
848.637	5238.2
848.96	5209.27
849.284	5185.32
849.607	5194.13
849.931	5189.61
850.254	5140.57
850.577	5092.89
850.9	5111.19
851.223	5099.67
851.546	5055.38
851.869	5033
852.192	5073.68
852.515	4980.8
852.838	5026.68
853.161	4953.01
853.483	4992.1
853.806	4908.49
854.129	4903.97
854.451	4917.07
854.774	4848.6
855.096	4854.25
855.419	4784.42
855.741	4821.03
856.063	4808.38
856.385	4786.46
856.708	4777.42
857.03	4736.29
857.352	4823.29
857.674	4729.73
857.996	4771.09
858.318	4696.97
858.64	4687.7
858.961	4720.7
859.283	4666.69
859.605	4664.2
859.926	4649.74
860.248	4627.14
860.57	4644.31
860.891	4628.27
861.212	4629.17
861.534	4573.81
861.855	4556.41
862.176	4581.04
862.498	4588.04
862.819	4584.65
863.14	4526.12
863.461	4533.81
863.782	4517.54
864.103	4517.99
864.424	4544.2
864.745	4481.83
865.065	4469.85
865.386	4457.43
865.707	4451.78
866.027	4443.41
866.348	4498.33
866.668	4471.66
866.989	4412.45
867.309	4391.44
867.63	4407.03
867.95	4418.1
868.27	4387.37
868.59	4376.75
868.91	4383.98
869.23	4345.79
869.55	4387.37
869.87	4368.39
870.19	4384.66
870.51	4371.78
870.83	4372.91
871.15	4305.79
871.469	4337.88
871.789	4274.61
872.109	4298.33
872.428	4287.26
872.748	4271.67
873.067	4284.77
873.386	4271.22
873.706	4240.71
874.025	4260.37
874.344	4215.62
874.663	4266.92
874.982	4224.66
875.301	4204.55
875.62	4245.68
875.939	4224.66
876.258	4218.11
876.577	4191.67
876.896	4214.72
877.214	4145.34
877.533	4175.4
877.852	4173.36
878.17	4156.42
878.489	4207.26
878.807	4150.54
879.125	4131.11
879.444	4161.16
879.762	4132.46
880.08	4117.77
880.398	4146.02
880.716	4110.32
881.034	4104.21
881.352	4074.84
881.67	4078
881.988	4086.14
882.306	4080.94
882.624	3987.16
882.941	4024.22
883.259	4065.8
883.577	4028.96
883.894	4006.14
884.212	4003.43
884.529	3978.12
884.846	4031.22
885.164	3958.91
885.481	3946.7
885.798	4014.05
886.115	3967.27
886.432	3931.11
886.75	3951
887.067	3914.61
887.383	3898.8
887.7	3925.69
888.017	3910.32
888.334	3890.21
888.651	3840.04
888.967	3842.53
889.284	3821.51
889.6	3827.16
889.917	3797.78
890.233	3847.72
890.55	3830.1
890.866	3824.45
891.182	3806.82
891.498	3780.38
891.815	3776.77
892.131	3730.21
892.447	3759.14
892.763	3673.94
893.079	3723.89
893.395	3716.65
893.71	3706.71
894.026	3703.55
894.342	3718.01
894.657	3682.98
894.973	3671.01
895.289	3674.85
895.604	3679.14
895.92	3612.93
896.235	3621.51
896.55	3611.35
896.865	3607.96
897.181	3609.76
897.496	3600.5
897.811	3602.53
898.126	3572.48
898.441	3562.31
898.756	3543.1
899.071	3506.94
899.386	3520.73
899.7	3488.86
900.015	3496.77
900.33	3473.27
900.644	3463.55
900.959	3499.94
901.273	3469.65
901.588	3449.99
901.902	3445.7
902.216	3424.68
902.531	3373.16
902.845	3454.06
903.159	3386.04
903.473	3369.32
903.787	3335.87
904.101	3330.45
904.415	3352.14
904.729	3320.51
905.042	3290
905.356	3308.53
905.67	3304.46
905.984	3289.32
906.297	3274.41
906.611	3310.11
906.924	3261.07
907.237	3235.54
907.551	3224.24
907.864	3221.98
908.177	3226.05
908.491	3218.81
908.804	3146.95
909.117	3146.73
909.43	3181.75
909.743	3154.86
910.056	3177.91
910.368	3177.01
910.681	3100.62
910.994	3105.37
911.307	3079.61
911.619	3058.82
911.932	3102.88
912.244	3001.64
912.557	3013.85
912.869	3037.35
913.181	3042.32
913.494	3011.14
913.806	2993.51
914.118	2987.41
914.43	2974.75
914.742	2966.39
915.054	2957.58
915.366	2974.75
915.678	2963
915.99	2910.8
916.302	2926.39
916.613	2930.23
916.925	2868.99
917.236	2885.94
917.548	2868.99
917.859	2873.74
918.171	2855.66
918.482	2842.55
918.794	2858.37
919.105	2861.53
919.416	2828.09
919.727	2803.91
920.038	2777.7
920.349	2770.46
920.66	2758.26
920.971	2756.68
921.282	2758.94
921.593	2717.13
921.903	2737.47
922.214	2733.85
922.525	2722.78
922.835	2662.22
923.146	2668.32
923.456	2665.38
923.767	2657.7
924.077	2652.27
924.387	2661.31
924.697	2650.92
925.008	2630.35
925.318	2613.41
925.628	2624.03
925.938	2587.87
926.248	2551.26
926.558	2537.93
926.867	2530.7
927.177	2523.46
927.487	2538.15
927.796	2507.65
928.106	2522.56
928.416	2515.56
928.725	2500.41
929.034	2480.53
929.344	2489.12
929.653	2494.09
929.962	2474.43
930.271	2439.17
930.581	2443.69
930.89	2458.83
931.199	2423.35
931.508	2410.25
931.817	2403.69
932.125	2436.91
932.434	2393.75
932.743	2396.69
933.051	2358.05
933.36	2398.27
933.669	2317.82
933.977	2344.94
934.286	2335.45
934.594	2374.99
934.902	2351.49
935.21	2304.04
935.519	2311.27
935.827	2307.65
936.135	2291.15
936.443	2299.97
936.751	2268.1
937.059	2301.1
937.367	2252.29
937.674	2256.35
937.982	2229.91
938.29	2248.9
938.597	2256.13
938.905	2233.53
939.213	2191.27
939.52	2213.87
939.827	2207.09
940.135	2191.95
940.442	2166.86
940.749	2159.41
941.056	2184.26
941.363	2154.21
941.67	2152.85
941.977	2144.27
942.284	2149.46
942.591	2102.46
942.898	2086.87
943.205	2115.57
943.511	2102.68
943.818	2109.24
944.125	2064.72
944.431	2057.26
944.738	2092.29
945.044	2069.24
945.35	2059.3
945.657	2036.92
945.963	2009.58
946.269	2010.48
946.575	2022.23
946.881	2013.65
947.187	1995.34
947.493	1970.26
947.799	1994.44
948.105	1970.94
948.41	1976.13
948.716	1970.26
949.022	1945.4
949.327	1959.41
949.633	1966.42
949.938	1966.87
950.244	1938.17
950.549	1920.09
950.854	1901.56
951.16	1926.87
951.465	1864.95
951.77	1896.36
952.075	1873.54
952.38	1861.34
952.685	1859.75
952.99	1846.19
953.294	1863.6
953.599	1846.19
953.904	1853.2
954.209	1813.65
954.513	1820.21
954.818	1801.9
955.122	1833.54
955.426	1809.36
955.731	1812.97
956.035	1788.34
956.339	1791.73
956.643	1786.31
956.948	1759.87
957.252	1761.9
957.556	1774.11
957.86	1760.77
958.163	1770.72
958.467	1746.99
958.771	1780.21
959.075	1759.42
959.378	1732.75
959.682	1733.88
959.985	1735.46
960.289	1705.18
960.592	1694.56
960.896	1699.98
961.199	1685.97
961.502	1702.24
961.805	1659.98
962.108	1680.32
962.411	1697.27
962.714	1668.57
963.017	1652.75
963.32	1674
963.623	1643.26
963.926	1648.23
964.228	1625.64
964.531	1604.84
964.833	1629.93
965.136	1642.81
965.438	1603.94
965.741	1580.89
966.043	1597.84
966.345	1615.47
966.648	1560.1
966.95	1583.15
967.252	1568.69
967.554	1592.87
967.856	1569.37
968.158	1557.84
968.46	1548.12
968.761	1520.55
969.063	1536.15
969.365	1538.41
969.666	1547.45
969.968	1517.84
970.269	1530.27
970.571	1511.74
970.872	1509.48
971.174	1487.79
971.475	1491.63
971.776	1489.14
972.077	1509.03
972.378	1492.98
972.679	1489.37
972.98	1471.74
973.281	1457.5
973.582	1473.55
973.883	1424.74
974.183	1452.31
974.484	1438.3
974.785	1435.36
975.085	1416.38
975.386	1463.83
975.686	1442.14
975.986	1429.26
976.287	1413.44
976.587	1384.51
976.887	1406.88
977.187	1418.64
977.487	1419.31
977.787	1371.63
978.087	1355.13
978.387	1389.71
978.687	1395.13
978.987	1370.73
979.286	1361.01
979.586	1384.51
979.885	1372.76
980.185	1345.42
980.484	1353.1
980.784	1324.85
981.083	1322.37
981.382	1309.03
981.682	1295.02
981.981	1333.89
982.28	1306.1
982.579	1302.71
982.878	1296.38
983.177	1304.97
983.475	1324.4
983.774	1291.41
984.073	1278.98
984.372	1276.27
984.67	1265.64
984.969	1293.21
985.267	1280.33
985.566	1264.74
985.864	1276.94
986.162	1241.69
986.461	1249.83
986.759	1232.2
987.057	1228.13
987.355	1272.2
987.653	1224.74
987.951	1228.58
988.249	1216.61
988.547	1203.73
988.844	1195.59
989.142	1209.83
989.44	1207.12
989.737	1205.08
990.035	1203.05
990.332	1175.93
990.63	1182.48
990.927	1188.81
991.224	1167.79
991.521	1170.73
991.819	1189.04
992.116	1184.52
992.413	1161.47
992.71	1166.66
993.006	1155.14
993.303	1158.75
993.6	1152.43
993.897	1161.24
994.193	1131.41
994.49	1146.55
994.787	1119.89
995.083	1096.61
995.379	1142.03
995.676	1096.84
995.972	1113.33
996.268	1118.08
996.565	1095.48
996.861	1068.36
997.157	1077.85
997.453	1089.83
997.749	1070.62
998.044	1057.06
998.34	1100.23
998.636	1069.72
998.932	1043.73
999.227	1062.71
999.523	1074.69
999.818	1056.16
1000.114	1041.47
1000.409	1045.99
1000.704	1048.25
1001	1040.34
1001.295	1041.92
1001.59	1020.45
1001.885	1011.41
1002.18	1024.97
1002.475	1017.74
1002.77	993.34
1003.065	987.46
1003.359	995.37
1003.654	1000.57
1003.949	971.87
1004.243	963.96
1004.538	986.1
1004.832	973.9
1005.127	966.67
1005.421	964.64
1005.715	978.42
1006.009	968.03
1006.304	993.11
1006.598	936.39
1006.892	951.98
1007.186	945.65
1007.48	941.13
1007.773	957.18
1008.067	932.09
1008.361	922.38
1008.655	904.07
1008.948	897.52
1009.242	935.03
1009.535	915.6
1009.829	906.33
1010.122	899.78
1010.415	890.97
1010.708	902.72
1011.001	900.23
1011.295	892.32
1011.588	899.33
1011.881	877.41
1012.173	864.98
1012.466	880.34
1012.759	881.25
1013.052	849.61
1013.344	859.78
1013.637	875.37
1013.93	838.54
1014.222	828.14
1014.514	861.36
1014.807	841.25
1015.099	842.6
1015.391	851.19
1015.683	835.15
1015.976	819.1
1016.268	820.01
1016.56	814.36
1016.851	808.26
1017.143	807.58
1017.435	807.58
1017.727	794.47
1018.018	792.89
1018.31	815.04
1018.602	795.6
1018.893	787.69
1019.185	778.43
1019.476	787.69
1019.767	787.47
1020.058	769.16
1020.35	781.14
1020.641	764.64
1020.932	786.34
1021.223	775.94
1021.514	741.14
1021.804	750.4
1022.095	754.92
1022.386	747.47
1022.677	767.35
1022.967	733
1023.258	726.22
1023.548	755.83
1023.839	740.69
1024.129	719.67
1024.419	718.31
1024.709	724.19
1025	710.18
1025.29	725.55
1025.58	713.12
1025.87	698.43
1026.16	704.3
1026.449	683.51
1026.739	715.15
1027.029	695.72
1027.319	682.84
1027.608	666.34
1027.898	682.38
1028.187	669.95
1028.477	664.53
1028.766	676.96
1029.055	654.59
1029.344	655.94
1029.634	651.65
1029.923	660.01
1030.212	652.55
1030.501	646.45
1030.79	643.06
1031.078	641.03
1031.367	652.1
1031.656	646.23
1031.945	628.37
1032.233	656.62
1032.522	628.6
1032.81	619.79
1033.099	613.68
1033.387	601.93
1033.675	635.6
1033.963	624.98
1034.251	617.07
1034.54	607.58
1034.828	606
1035.116	605.55
1035.403	594.7
1035.691	601.03
1035.979	597.41
1036.267	596.06
1036.554	586.34
1036.842	577.75
1037.129	581.37
1037.417	566.91
1037.704	584.53
1037.992	576.17
1038.279	553.12
1038.566	572.1
1038.853	572.1
1039.14	572.1
