Data from brown_tile_FLMS001491_071.txt Node
Date: Tue Feb 07 10:37:58 GMT 2017
User: dcchb
Spectrometer: FLMS00149
Trigger mode: 0
Integration Time (sec): 2.000000E-2
Scans to average: 10
Electric dark correction enabled: true
Nonlinearity correction enabled: false
Boxcar width: 0
XAxis mode: Wavelengths
Number of Pixels in Spectrum: 2048
>>>>>Begin Spectral Data<<<<<
341.393	-33.53
341.776	-33.53
342.16	-33.53
342.543	-78.27
342.927	-59.29
343.31	-54.77
343.693	-78.95
344.077	-55.9
344.46	-80.99
344.843	-48.45
345.226	-55.68
345.61	-27.65
345.993	-4.6
346.376	-14.1
346.759	16.86
347.142	36.07
347.525	42.4
347.908	35.85
348.291	89.63
348.674	78.78
349.057	121.49
349.44	114.71
349.823	147.03
350.206	158.56
350.588	178.89
350.971	206.92
351.354	205.56
351.737	212.57
352.119	228.84
352.502	255.5
352.884	254.82
353.267	279.91
353.65	266.8
354.032	276.07
354.414	297.31
354.797	263.86
355.179	288.04
355.562	300.02
355.944	323.52
356.326	317.2
356.709	316.52
357.091	297.99
357.473	325.56
357.855	332.34
358.238	341.15
358.62	323.52
359.002	317.65
359.384	323.75
359.766	325.33
360.148	321.49
360.53	312.9
360.912	316.97
361.294	317.87
361.676	325.78
362.057	314.03
362.439	297.76
362.821	319.68
363.203	316.07
363.584	300.7
363.966	310.42
364.348	311.77
364.729	288.5
365.111	316.07
365.493	312.9
365.874	307.03
366.256	307.25
366.637	329.62
367.019	292.11
367.4	307.48
367.781	306.12
368.163	308.16
368.544	305.22
368.925	299.12
369.306	297.99
369.688	312.22
370.069	289.4
370.45	285.33
370.831	309.74
371.212	301.6
371.593	300.25
371.974	297.08
372.355	285.33
372.736	293.47
373.117	292.79
373.498	302.05
373.879	292.56
374.26	309.96
374.641	298.44
375.021	312.68
375.402	322.62
375.783	316.97
376.163	316.29
376.544	286.24
376.925	287.82
377.305	313.81
377.686	314.26
378.066	292.56
378.447	296.63
378.827	307.7
379.208	298.44
379.588	303.64
379.968	319.91
380.349	301.38
380.729	306.8
381.109	314.48
381.489	309.74
381.87	328.49
382.25	329.85
382.63	323.52
383.01	322.17
383.39	331.43
383.77	342.96
384.15	322.17
384.53	314.94
384.91	311.09
385.29	330.98
385.67	336.4
386.049	344.31
386.429	321.94
386.809	336.18
387.189	336.86
387.568	328.95
387.948	336.86
388.328	328.95
388.707	345.44
389.087	343.41
389.466	319.91
389.846	340.47
390.225	330.3
390.605	337.53
390.984	360.36
391.363	344.76
391.743	351.77
392.122	362.84
392.501	365.1
392.881	363.52
393.26	369.4
393.639	361.26
394.018	359.45
394.397	370.75
394.776	358.78
395.155	371.2
395.534	362.62
395.913	349.51
396.292	387.02
396.671	376.63
397.05	353.58
397.429	358.1
397.808	353.8
398.186	358.32
398.565	364.2
398.944	378.66
399.323	393.13
399.701	376.4
400.08	387.48
400.458	356.74
400.837	384.99
401.215	362.39
401.594	385.67
401.972	366.23
402.351	380.02
402.729	370.53
403.107	390.19
403.486	383.63
403.864	425.67
404.242	410.07
404.62	398.1
404.999	383.63
405.377	419.79
405.755	408.04
406.133	418.66
406.511	377.08
406.889	389.28
407.267	394.48
407.645	408.49
408.023	414.82
408.401	390.64
408.779	411.88
409.156	419.79
409.534	421.37
409.912	423.41
410.29	415.05
410.667	419.79
411.045	439
411.422	422.05
411.8	437.42
412.178	433.35
412.555	418.89
412.933	427.47
413.31	443.75
413.687	435.84
414.065	453.69
414.442	441.71
414.819	448.49
415.197	443.52
415.574	460.24
415.951	462.5
416.328	470.64
416.705	464.31
417.082	441.71
417.46	446.91
417.837	470.41
418.214	453.01
418.591	504.08
418.967	471.54
419.344	466.12
419.721	457.98
420.098	502.05
420.475	502.27
420.852	480.81
421.228	506.12
421.605	493.46
421.982	501.82
422.358	478.09
422.735	504.08
423.111	505.21
423.488	504.08
423.864	508.38
424.241	512.9
424.617	501.6
424.994	526.46
425.37	529.17
425.746	514.93
426.123	514.93
426.499	554.93
426.875	529.84
427.251	533.46
427.627	547.25
428.003	537.75
428.379	550.64
428.756	540.47
429.132	544.76
429.507	561.71
429.883	560.58
430.259	583.18
430.635	593.35
431.011	561.93
431.387	580.01
431.763	606.23
432.138	593.12
432.514	596.51
432.89	605.32
433.265	621.82
433.641	625.44
434.016	626.57
434.392	621.59
434.767	619.56
435.143	597.87
435.518	644.42
435.894	630.41
436.269	643.29
436.644	645.77
437.02	623.63
437.395	650.07
437.77	669.05
438.145	673.57
438.52	641.25
438.895	648.03
439.271	666.56
439.646	669.28
440.021	669.95
440.395	676.06
440.77	674.93
441.145	680.58
441.52	694.81
441.895	676.51
442.27	705.89
442.645	707.02
443.019	700.46
443.394	704.3
443.769	707.02
444.143	726.22
444.518	733.68
444.892	735.26
445.267	708.6
445.641	751.08
446.016	720.57
446.39	727.35
446.764	744.98
447.139	717.41
447.513	730.52
447.887	743.85
448.262	772.1
448.636	740.69
449.01	756.28
449.384	774.81
449.758	788.37
450.132	771.19
450.506	770.97
450.88	788.14
451.254	785.88
451.628	786.56
452.002	808.48
452.376	773.68
452.75	791.76
453.123	815.94
453.497	843.28
453.871	820.91
454.244	832.66
454.618	860.68
454.992	843.51
455.365	843.73
455.739	869.95
456.112	906.78
456.486	869.04
456.859	866.56
457.232	908.14
457.606	903.39
457.979	902.26
458.352	901.13
458.725	919.44
459.099	937.52
459.472	946.11
459.845	939.78
460.218	949.04
460.591	960.79
460.964	961.92
461.337	962.38
461.71	991.98
462.083	1000.79
462.456	994.69
462.829	1018.42
463.201	1033.11
463.574	1017.52
463.947	1022.49
464.32	1047.12
464.692	1058.87
465.065	1067.23
465.438	1079.21
465.81	1083.73
466.183	1098.64
466.555	1137.29
466.928	1107.91
467.3	1145.2
467.672	1142.26
468.045	1160.11
468.417	1142.26
468.789	1176.16
469.161	1185.87
469.534	1181.13
469.906	1215.25
470.278	1217.96
470.65	1225.42
471.022	1267.9
471.394	1274.23
471.766	1322.14
472.138	1309.26
472.51	1310.62
472.882	1328.92
473.253	1306.55
473.625	1353.55
473.997	1404.17
474.369	1399.43
474.74	1407.11
475.112	1437.84
475.484	1448.01
475.855	1464.74
476.227	1453.21
476.598	1499.76
476.97	1532.98
477.341	1516.71
477.713	1550.61
478.084	1566.65
478.455	1621.57
478.827	1623.38
479.198	1648.46
479.569	1666.09
479.94	1709.7
480.311	1713.09
480.682	1741.56
481.053	1755.8
481.424	1790.6
481.795	1803.71
482.166	1851.39
482.537	1845.97
482.908	1912.41
483.279	1930.94
483.65	1929.13
484.021	1989.24
484.391	1964.16
484.762	2011.39
485.133	2004.38
485.503	2038.96
485.874	2074.21
486.244	2103.14
486.615	2138.16
486.985	2148.11
487.356	2156.24
487.726	2211.16
488.097	2259.74
488.467	2277.82
488.837	2319.85
489.207	2290.93
489.578	2357.59
489.948	2367.54
490.318	2405.95
490.688	2409.57
491.058	2465.16
491.428	2521.43
491.798	2507.42
492.168	2539.06
492.538	2570.47
492.908	2559.85
493.278	2616.57
493.648	2616.57
494.017	2652.5
494.387	2683.46
494.757	2730.01
495.126	2710.13
495.496	2739.96
495.866	2759.39
496.235	2780.41
496.605	2803.01
496.974	2805.04
497.344	2835.55
497.713	2865.15
498.082	2838.94
498.452	2909.9
498.821	2923.68
499.19	2887.97
499.559	2948.31
499.928	2963.68
500.298	3011.59
500.667	3009.33
501.036	3033.06
501.405	3062.21
501.774	3050.68
502.143	3047.97
502.512	3107.18
502.88	3114.86
503.249	3151.7
503.618	3183.56
503.987	3200.74
504.356	3181.07
504.724	3205.48
505.093	3233.28
505.462	3239.6
505.83	3262.43
506.199	3286.61
506.567	3328.42
506.936	3346.49
507.304	3379.94
507.672	3397.79
508.041	3462.2
508.409	3449.54
508.777	3476.89
509.145	3516.43
509.514	3500.39
509.882	3545.81
510.25	3532.48
510.618	3572.02
510.986	3550.1
511.354	3608.63
511.722	3632.36
512.09	3681.63
512.458	3652.25
512.826	3704
513.193	3759.82
513.561	3757.33
513.929	3832.13
514.297	3840.72
514.664	3859.02
515.032	3895.41
515.4	3884.78
515.767	3920.94
516.135	3918
516.502	3958.68
516.869	4006.14
517.237	3990.32
517.604	3982.86
517.972	4103.08
518.339	4038.45
518.706	4148.28
519.073	4121.16
519.44	4175.85
519.808	4193.93
520.175	4205.45
520.542	4276.19
520.909	4292.91
521.276	4265.57
521.643	4355.28
522.009	4427.6
522.376	4422.4
522.743	4476.18
523.11	4467.14
523.477	4522.96
523.843	4586.46
524.21	4607.7
524.577	4635.5
524.943	4664.88
525.31	4682.73
525.676	4711.88
526.043	4736.29
526.409	4795.95
526.776	4822.39
527.142	4876.17
527.508	4927.7
527.874	4950.75
528.241	4979.45
528.607	4972.44
528.973	5048.82
529.339	5059.22
529.705	5144.64
530.071	5135.15
530.437	5204.3
530.803	5244.75
531.169	5255.6
531.535	5244.75
531.901	5323.62
532.267	5307.35
532.632	5390.51
532.998	5412.43
533.364	5434.35
533.73	5476.38
534.095	5495.82
534.461	5520.9
534.826	5547.57
535.192	5557.96
535.557	5612.2
535.923	5621.91
536.288	5631.18
536.653	5695.58
537.019	5696.49
537.384	5800.21
537.749	5780.1
538.114	5832.08
538.479	5845.64
538.845	5891.96
539.21	5921.34
539.575	5899.2
539.94	5992.3
540.305	6021.68
540.67	5993.66
541.034	6068.68
541.399	6101.9
541.764	6116.36
542.129	6090.38
542.494	6168.11
542.858	6302.35
543.223	6261.67
543.587	6288.56
543.952	6261.67
544.316	6366.3
544.681	6370.14
545.045	6424.15
545.41	6479.74
545.774	6494.21
546.138	6506.41
546.503	6591.61
546.867	6545.96
547.231	6669.8
547.595	6719.96
547.959	6731.94
548.324	6683.58
548.688	6781.21
549.052	6799.28
549.416	6870.92
549.779	6887.64
550.143	6925.38
550.507	7014.65
550.871	7047.64
551.235	7022.56
551.599	7143.46
551.962	7231.36
552.326	7181.87
552.689	7313.4
553.053	7282.21
553.417	7342.1
553.78	7395.2
554.143	7430.23
554.507	7495.99
554.87	7562.43
555.234	7738.24
555.597	7640.39
555.96	7791.12
556.323	7832.25
556.686	7878.8
557.05	7953.15
557.413	8045.58
557.776	7984.56
558.139	8101.4
558.502	8112.24
558.865	8175.97
559.228	8285.8
559.59	8354.5
559.953	8409.41
560.316	8540.48
560.679	8547.49
561.041	8592.01
561.404	8714.94
561.767	8786.12
562.129	8784.54
562.492	8928.27
562.854	9017.53
563.217	9067.02
563.579	9140.69
563.941	9244.42
564.304	9304.08
564.666	9461.14
565.028	9450.29
565.39	9538.65
565.753	9674.24
566.115	9732.54
566.477	9774.35
566.839	9887.79
567.201	9931.41
567.563	9996.94
567.925	10154.9
568.287	10228.12
568.648	10250.04
569.01	10319.64
569.372	10373.43
569.734	10429.47
570.095	10549.69
570.457	10711.95
570.819	10763.02
571.18	10800.08
571.542	10908.1
571.903	10975.9
572.265	11099.96
572.626	11137.7
572.987	11194.88
573.349	11253.4
573.71	11332.72
574.071	11443.91
574.432	11557.8
574.794	11641.87
575.155	11710.34
575.516	11654.98
575.877	11824.24
576.238	11917.57
576.599	11946.27
576.96	12069.43
577.32	12111.01
577.681	12230.55
578.042	12299.7
578.403	12329.08
578.763	12361.17
579.124	12500.83
579.485	12617.44
579.845	12592.58
580.206	12672.8
580.566	12713.25
580.927	12787.15
581.287	12853.14
581.648	12945.79
582.008	12998.9
582.368	13036.18
582.728	13094.26
583.089	13109.85
583.449	13131.77
583.809	13174.03
584.169	13301.49
584.529	13292.9
584.889	13433.91
585.249	13460.8
585.609	13420.13
585.969	13560.01
586.329	13543.29
586.688	13672.78
587.048	13693.11
587.408	13666.45
587.768	13714.81
588.127	13745.77
588.487	13836.84
588.846	13955.48
589.206	13913.22
589.565	13941.02
589.925	14047.23
590.284	13996.84
590.643	14185.98
591.003	14210.84
591.362	14233.89
591.721	14199.54
592.08	14284.29
592.44	14379.42
592.799	14405.41
593.158	14412.42
593.517	14477.05
593.876	14465.98
594.235	14549.36
594.593	14618.74
594.952	14667.33
595.311	14573.77
595.67	14684.27
596.029	14853.99
596.387	14760.66
596.746	14797.94
597.104	14906.87
597.463	14834.1
597.822	14927.88
598.18	14955
598.538	14948.22
598.897	15028.22
599.255	14938.05
599.613	15207.65
599.972	15052.4
600.33	15147.09
600.688	15203.36
601.046	15279.74
601.404	15318.38
601.762	15265.5
602.12	15403.35
602.478	15387.31
602.836	15422.56
603.194	15376.23
603.552	15455.33
603.91	15413.75
604.268	15525.61
604.625	15504.82
604.983	15604.93
605.341	15592.5
605.698	15644.02
606.056	15608.32
606.413	15704.59
606.771	15780.29
607.128	15765.15
607.485	15671.82
607.843	15803.57
608.2	15918.82
608.557	15985.26
608.914	15877.01
609.272	16075.88
609.629	16036.78
609.986	16113.16
610.343	16031.36
610.7	16244.23
611.057	16253.05
611.414	16177.34
611.771	16151.58
612.127	16210.79
612.484	16245.59
612.841	16372.37
613.198	16348.86
613.554	16294.18
613.911	16380.28
614.267	16440.16
614.624	16421.4
614.98	16425.25
615.337	16528.97
615.693	16449.88
616.05	16571.23
616.406	16598.57
616.762	16608.07
617.118	16595.41
617.475	16628.18
617.831	16724.67
618.187	16693.94
618.543	16728.51
618.899	16848.96
619.255	16705.46
619.611	16798.12
619.967	16869.3
620.323	16845.57
620.678	16871.11
621.034	16832.69
621.39	16825.01
621.746	16843.54
622.101	17005.57
622.457	16849.42
622.812	16907.27
623.168	16931.22
623.523	16936.42
623.879	16980.26
624.234	16903.88
624.589	16906.59
624.945	17054.61
625.3	16955.18
625.655	17048.51
626.01	17086.92
626.365	17074.72
626.72	17076.08
627.075	17031.11
627.43	16959.47
627.785	17062.07
628.14	17074.72
628.495	17072.23
628.85	16984.78
629.205	16978.68
629.559	17105.91
629.914	17002.63
630.269	17005.12
630.623	16897.1
630.978	16990.88
631.332	16963.31
631.687	17013.93
632.041	16948.4
632.396	16991.11
632.75	16943.88
633.104	16988.62
633.459	16871.34
633.813	16831.79
634.167	16920.37
634.521	16897.1
634.875	16859.81
635.229	16898.45
635.583	16767.84
635.937	16792.02
636.291	16724.22
636.645	16846.48
636.999	16796.99
637.352	16826.82
637.706	16702.98
638.06	16720.61
638.413	16777.33
638.767	16685.58
639.121	16702.53
639.474	16594.06
639.828	16659.82
640.181	16654.17
640.534	16716.76
640.888	16702.3
641.241	16564.45
641.594	16629.53
641.947	16701.85
642.301	16676.54
642.654	16635.86
643.007	16534.4
643.36	16549.54
643.713	16630.89
644.066	16716.54
644.419	16499.82
644.771	16415.3
645.124	16273.39
645.477	16309.32
645.83	16117.01
646.182	16107.74
646.535	16007.4
646.888	15979.61
647.24	16000.17
647.593	16103.45
647.945	15946.61
648.298	15917.46
648.65	15908.2
649.002	15886.28
649.355	15962.43
649.707	16000.4
650.059	16120.62
650.411	16247.17
650.763	16326.04
651.115	16424.79
651.467	16352.03
651.819	16323.55
652.171	16366.49
652.523	16359.26
652.875	16403.78
653.227	16303.44
653.578	16380.5
653.93	16286.27
654.282	16282.88
654.633	16233.16
654.985	16223.22
655.337	16204.91
655.688	16218.25
656.039	16340.28
656.391	16196.55
656.742	16163.33
657.094	16181.86
657.445	16238.58
657.796	16222.54
658.147	16239.04
658.498	16154.74
658.849	16281.52
659.2	16165.82
659.551	16236.55
659.902	16332.59
660.253	16232.26
660.604	16245.59
660.955	16235.65
661.306	16260.28
661.656	16236.78
662.007	16273.16
662.358	16313.61
662.708	16288.07
663.059	16325.59
663.409	16204.23
663.76	16333.95
664.11	16303.44
664.461	16361.29
664.811	16439.03
665.161	16388.18
665.511	16361.97
665.862	16330.11
666.212	16357.68
666.562	16334.18
666.912	16446.49
667.262	16339.37
667.612	16329.88
667.962	16441.52
668.312	16321.75
668.662	16440.84
669.011	16369.65
669.361	16378.47
669.711	16283.78
670.06	16342.08
670.41	16262.76
670.76	16261.18
671.109	16416.21
671.459	16339.6
671.808	16257.57
672.157	16480.16
672.507	16285.81
672.856	16359.03
673.205	16345.47
673.554	16440.61
673.904	16319.26
674.253	16333.72
674.602	16364
674.951	16109.55
675.3	16038.59
675.649	16391.8
675.998	16288.75
676.346	16352.25
676.695	16492.14
677.044	16319.71
677.393	16352.25
677.741	16442.42
678.09	16374.63
678.438	16369.2
678.787	16415.75
679.135	16372.37
679.484	16292.37
679.832	16313.84
680.181	16265.25
680.529	16364.46
680.877	16341.18
681.225	16272.26
681.573	16418.01
681.922	16261.18
682.27	16269.09
682.618	16331.69
682.966	16270.67
683.314	16318.36
683.661	16246.04
684.009	16202.43
684.357	16088.53
684.705	16100.51
685.053	16205.59
685.4	16140.96
685.748	16093.73
686.095	16077.01
686.443	16079.04
686.79	15960.63
687.138	16072.26
687.485	16096.44
687.832	16037.46
688.18	16062.54
688.527	15957.24
688.874	16035.43
689.221	15937.35
689.568	15912.27
689.915	15934.41
690.262	15967.86
690.609	15905.94
690.956	15792.04
691.303	15807.18
691.65	15777.58
691.997	15733.51
692.344	15680.41
692.69	15636.57
693.037	15707.98
693.383	15612.61
693.73	15650.8
694.077	15562.44
694.423	15482.22
694.769	15541.88
695.116	15513.86
695.462	15519.06
695.808	15423.46
696.155	15510.92
696.501	15375.1
696.847	15397.93
697.193	15196.58
697.539	15385.95
697.885	15270.7
698.231	15237.93
698.577	15259.63
698.923	15157.26
699.269	15106.41
699.614	15079.07
699.96	15110.25
700.306	14974.89
700.651	15057.37
700.997	15042.68
701.342	14954.32
701.688	14977.15
702.033	14936.7
702.379	14962.69
702.724	14946.64
703.069	14926.75
703.415	14730.38
703.76	14788
704.105	14762.69
704.45	14681.79
704.795	14682.24
705.14	14619.64
705.485	14651.51
705.83	14578.74
706.175	14641.11
706.52	14647.21
706.865	14558.63
707.209	14576.48
707.554	14512.53
707.899	14585.75
708.243	14531.06
708.588	14478.4
708.932	14422.81
709.277	14479.76
709.621	14397.95
709.966	14363.15
710.31	14354.57
710.654	14281.12
710.998	14319.99
711.342	14374.68
711.687	14237.73
712.031	14254.68
712.375	14209.26
712.719	14272.76
713.063	14244.96
713.407	14331.74
713.75	14225.3
714.094	14233.89
714.438	14118.19
714.782	14219.2
715.125	14127
715.469	14197.06
715.812	14099.21
716.156	14021.47
716.499	13973.56
716.843	14078.87
717.186	14032.09
717.53	14021.24
717.873	13992.77
718.216	13993.9
718.559	13970.85
718.902	13906.67
719.246	13984.18
719.589	13921.13
719.932	13797.52
720.275	13876.39
720.617	13886.33
720.96	13891.53
721.303	13812.43
721.646	13816.28
721.989	13767.01
722.331	13848.82
722.674	13861.47
723.016	13914.8
723.359	13825.31
723.701	13898.98
724.044	13763.4
724.386	13602.72
724.729	13787.35
725.071	13667.58
725.413	13669.39
725.755	13715.49
726.097	13654.02
726.439	13595.26
726.782	13631.87
727.124	13633.91
727.465	13584.42
727.807	13681.59
728.149	13566.56
728.491	13572.89
728.833	13630.97
729.175	13564.3
729.516	13601.59
729.858	13553.23
730.199	13519.11
730.541	13498.32
730.882	13535.38
731.224	13552.55
731.565	13455.38
731.906	13485.89
732.248	13451.76
732.589	13426.91
732.93	13339.9
733.271	13364.99
733.612	13436.4
733.953	13395.72
734.294	13424.65
734.635	13344.88
734.976	13415.61
735.317	13329.73
735.658	13343.75
735.999	13265.33
736.339	13308.94
736.68	13386.23
737.021	13281.6
737.361	13233.92
737.702	13321.15
738.042	13203.86
738.383	13220.13
738.723	13259.68
739.063	13153.02
739.404	13249.51
739.744	13151.66
740.084	13090.19
740.424	13156.63
740.764	13146.24
741.104	13112.34
741.444	13067.82
741.784	13038.22
742.124	13071.44
742.464	13090.19
742.804	12959.12
743.143	12974.26
743.483	12993.7
743.823	12994.38
744.162	13000.7
744.502	12974.49
744.841	12869.18
745.181	12945.56
745.52	12956.86
745.86	12896.53
746.199	12904.43
746.538	12882.06
746.877	12841.61
747.216	12868.28
747.556	12807.71
747.895	12845.45
748.234	12657.66
748.573	12747.6
748.911	12707.6
749.25	12694.27
749.589	12612.69
749.928	12676.87
750.267	12636.87
750.605	12580.38
750.944	12574.27
751.283	12575.4
751.621	12562.97
751.96	12478.01
752.298	12478.23
752.636	12485.01
752.975	12380.61
753.313	12367.73
753.651	12469.64
753.989	12412.47
754.327	12346.48
754.666	12306.48
755.004	12300.83
755.342	12273.26
755.679	12283.89
756.017	12094.51
756.355	12247.28
756.693	12161.86
757.031	12151.69
757.368	12064.23
757.706	12031.69
758.044	12065.36
758.381	12085.93
758.719	12031.24
759.056	11880.05
759.394	11933.16
759.731	11847.74
760.068	11814.97
760.405	11774.75
760.743	11729.1
761.08	11764.58
761.417	11712.38
761.754	11639.38
762.091	11646.61
762.428	11573.85
762.765	11526.84
763.102	11515.09
763.438	11428.09
763.775	11321.88
764.112	11436.9
764.449	11370.69
764.785	11380.86
765.122	11267.87
765.458	11229.9
765.795	11187.87
766.131	11206.85
766.467	11122.79
766.804	11124.14
767.14	11041.88
767.476	11017.93
767.812	11035.33
768.148	11046.18
768.485	10899.74
768.821	10904.94
769.157	10860.87
769.492	10798.28
769.828	10782.68
770.164	10696.58
770.5	10702.46
770.836	10696.36
771.171	10634.89
771.507	10589.92
771.842	10492.29
772.178	10520.99
772.513	10469.24
772.849	10430.15
773.184	10421.34
773.519	10397.83
773.855	10330.04
774.19	10323.26
774.525	10223.38
774.86	10256.37
775.195	10202.81
775.53	10088.92
775.865	10038.75
776.2	9988.58
776.535	9960.78
776.87	9959.65
777.205	9878.3
777.539	9854.35
777.874	9878.98
778.209	9760.56
778.543	9722.82
778.878	9665.65
779.212	9674.46
779.547	9661.58
779.881	9652.99
780.215	9587.69
780.55	9554.69
780.884	9471.76
781.218	9452.1
781.552	9523.28
781.886	9452.32
782.22	9356.05
782.554	9316.05
782.888	9186.79
783.222	9204.42
783.556	9188.37
783.889	9211.65
784.223	9155.83
784.557	9053.69
784.89	9097.3
785.224	9023.63
785.557	9000.58
785.891	8904.54
786.224	8966.46
786.558	8972.11
786.891	8866.35
787.224	8798.33
787.557	8796.97
787.891	8758.78
788.224	8781.61
788.557	8764.88
788.89	8728.95
789.223	8649.63
789.556	8555.4
789.888	8569.41
790.221	8526.47
790.554	8450.54
790.887	8480.37
791.219	8427.72
791.552	8350.2
791.884	8323.31
792.217	8352.69
792.549	8358.79
792.882	8269.3
793.214	8241.73
793.546	8200.15
793.879	8164.67
794.211	8135.52
794.543	8200.38
794.875	8065.01
795.207	8118.57
795.539	8115.41
795.871	8063.88
796.203	7934.62
796.535	7950.44
796.867	7964.23
797.198	7920.61
797.53	7906.37
797.862	7841.97
798.193	7857.79
798.525	7754.51
798.856	7775.08
799.188	7761.29
799.519	7663.89
799.85	7657.12
800.182	7653.73
800.513	7590
800.844	7568.98
801.175	7632.03
801.506	7571.69
801.837	7444.01
802.168	7459.83
802.499	7444.01
802.83	7421.19
803.161	7398.36
803.491	7408.99
803.822	7384.13
804.153	7307.97
804.483	7306.39
804.814	7248.31
805.145	7242.89
805.475	7283.34
805.805	7224.58
806.136	7217.35
806.466	7205.38
806.796	7175.55
807.126	7085.38
807.457	7003.12
807.787	7086.06
808.117	7031.14
808.447	6997.25
808.777	6967.64
809.107	7009.67
809.436	6974.2
809.766	6901.2
810.096	6898.94
810.426	6875.21
810.755	6860.53
811.085	6833.63
811.414	6837.7
811.744	6761.77
812.073	6805.84
812.403	6705.28
812.732	6703.92
813.061	6754.77
813.39	6680.19
813.719	6715.44
814.049	6682
814.378	6656.92
814.707	6602.45
815.036	6621.21
815.365	6595
815.693	6506.41
816.022	6540.31
816.351	6498.5
816.68	6472.97
817.008	6445.4
817.337	6426.86
817.665	6415.57
817.994	6402.01
818.322	6395.45
818.651	6365.4
818.979	6351.16
819.307	6416.24
819.636	6388.45
819.964	6297.6
820.292	6307.09
820.62	6295.57
820.948	6276.59
821.276	6304.83
821.604	6206.98
821.932	6218.51
822.259	6240.88
822.587	6264.16
822.915	6282.46
823.243	6219.86
823.57	6222.8
823.898	6196.36
824.225	6164.27
824.553	6245.85
824.88	6205.4
825.207	6180.54
825.535	6188
825.862	6209.02
826.189	6150.04
826.516	6188.68
826.843	6161.56
827.17	6209.24
827.497	6160.43
827.824	6148.23
828.151	6213.76
828.478	6183.71
828.805	6157.04
829.131	6158.17
829.458	6165.85
829.785	6139.64
830.111	6103.03
830.438	6111.62
830.764	6095.8
831.09	6117.95
831.417	6076.59
831.743	6112.75
832.069	6076.14
832.395	6039.08
832.722	6068
833.048	5996.14
833.374	6047.44
833.7	6052.86
834.026	6051.73
834.351	6056.71
834.677	5995.92
835.003	6034.33
835.329	5967.22
835.654	5981.9
835.98	6051.06
836.306	5992.07
836.631	5952.53
836.956	5949.36
837.282	5949.14
837.607	5911.62
837.932	5924.73
838.258	5941.45
838.583	5947.56
838.908	5856.26
839.233	5870.72
839.558	5852.42
839.883	5808.58
840.208	5889.93
840.533	5829.14
840.858	5797.5
841.182	5838.41
841.507	5759.09
841.832	5727.67
842.156	5759.09
842.481	5752.98
842.805	5734
843.13	5698.3
843.454	5676.6
843.778	5685.64
844.103	5657.62
844.427	5664.85
844.751	5663.72
845.075	5620.33
845.399	5643.61
845.723	5601.35
846.047	5566.55
846.371	5567.9
846.695	5484.74
847.019	5487
847.343	5498.3
847.666	5439.09
847.99	5437.29
848.313	5445.2
848.637	5343.05
848.96	5384.41
849.284	5367.68
849.607	5271.42
849.931	5324.52
850.254	5264.18
850.577	5243.17
850.9	5195.26
851.223	5186.67
851.546	5136.05
851.869	5145.77
852.192	5149.84
852.515	5141.93
852.838	5057.86
853.161	5118.42
853.483	5078.43
853.806	5013.57
854.129	5034.36
854.451	5011.31
854.774	4998.65
855.096	4999.11
855.419	4952.78
855.741	4992.55
856.063	4900.58
856.385	4864.65
856.708	4933.8
857.03	4856.51
857.352	4880.69
857.674	4839.34
857.996	4817.87
858.318	4799.11
858.64	4787.59
858.961	4773.8
859.283	4765.67
859.605	4778.55
859.926	4760.24
860.248	4776.06
860.57	4704.65
860.891	4721.6
861.212	4730.19
861.534	4673.46
861.855	4695.39
862.176	4646.57
862.498	4659
862.819	4667.14
863.14	4603.18
863.461	4639.34
863.782	4627.59
864.103	4597.53
864.424	4610.19
864.745	4547.59
865.065	4560.47
865.386	4546.01
865.707	4585.33
866.027	4574.03
866.348	4547.14
866.668	4500.14
866.989	4521.38
867.309	4446.35
867.63	4541.04
867.95	4496.75
868.27	4460.14
868.59	4474.37
868.91	4456.75
869.23	4451.32
869.55	4452.68
869.87	4482.74
870.19	4425.11
870.51	4417.2
870.83	4452.45
871.15	4434.37
871.469	4390.08
871.789	4438.22
872.109	4435.5
872.428	4348.28
872.748	4384.66
873.067	4393.02
873.386	4410.42
873.706	4405.45
874.025	4369.74
874.344	4361.38
874.663	4324.1
874.982	4281.16
875.301	4337.65
875.62	4343.08
875.939	4303.3
876.258	4317.32
876.577	4288.16
876.896	4301.05
877.214	4265.11
877.533	4275.74
877.852	4266.47
878.17	4276.64
878.489	4277.77
878.807	4263.08
879.125	4237.77
879.444	4269.86
879.762	4183.99
880.08	4186.92
880.398	4228.73
880.716	4182.86
881.034	4137.89
881.352	4181.73
881.67	4167.94
881.988	4184.66
882.306	4128.39
882.624	4125
882.941	4114.16
883.259	4130.43
883.577	4102.18
883.894	4077.1
884.212	4095.85
884.529	4114.38
884.846	4052.92
885.164	4088.62
885.481	4033.48
885.798	4012.69
886.115	4030.09
886.432	4042.97
886.75	4049.98
887.067	4033.03
887.383	4018.79
887.7	4002.75
888.017	3979.7
888.334	4029.19
888.651	3980.38
888.967	3970.66
889.284	3917.55
889.6	3920.72
889.917	3898.57
890.233	3942.18
890.55	3881.62
890.866	3906.25
891.182	3845.92
891.498	3832.58
891.815	3855.41
892.131	3885.01
892.447	3837.1
892.763	3824.45
893.079	3807.95
893.395	3787.84
893.71	3796.2
894.026	3817.89
894.342	3804.33
894.657	3746.94
894.973	3687.05
895.289	3762.98
895.604	3769.53
895.92	3690.21
896.235	3705.13
896.55	3724.56
896.865	3694.96
897.181	3686.37
897.496	3674.62
897.811	3688.41
898.126	3678.46
898.441	3653.38
898.756	3604.11
899.071	3622.19
899.386	3579.93
899.7	3581.06
900.015	3598.69
900.33	3513.95
900.644	3571.12
900.959	3562.76
901.273	3539.03
901.588	3526.6
901.902	3500.61
902.216	3513.72
902.531	3490.44
902.845	3475.53
903.159	3442.08
903.473	3468.98
903.787	3444.12
904.101	3390.33
904.415	3407.96
904.729	3367.74
905.042	3372.26
905.356	3350.79
905.67	3337.45
905.984	3366.83
906.297	3343.33
906.611	3306.04
906.924	3318.7
907.237	3351.69
907.551	3309.21
907.864	3263.33
908.177	3280.51
908.491	3309.88
908.804	3252.94
909.117	3233.28
909.43	3256.33
909.743	3216.78
910.056	3234.86
910.368	3214.07
910.681	3163.45
910.994	3164.35
911.307	3146.5
911.619	3127.52
911.932	3155.54
912.244	3121.42
912.557	3115.31
912.869	3113.05
913.181	3073.96
913.494	3078.48
913.806	3077.12
914.118	3024.24
914.43	3008.65
914.742	3015.66
915.054	3036.9
915.366	3017.01
915.678	2983.34
915.99	2967.29
916.302	2973.17
916.613	2917.35
916.925	2955.09
917.236	2954.19
917.548	2932.72
917.859	2904.7
918.171	2943.34
918.482	2867.41
918.794	2880.07
919.105	2867.86
919.416	2864.02
919.727	2841.42
920.038	2865.83
920.349	2823.12
920.66	2830.8
920.971	2783.12
921.282	2794.64
921.593	2741.54
921.903	2770.01
922.214	2780.63
922.525	2740.86
922.835	2803.91
923.146	2743.35
923.456	2712.16
923.767	2696.34
924.077	2699.51
924.387	2690.92
924.697	2692.5
925.008	2662.9
925.318	2663.12
925.628	2629.22
925.938	2639.39
926.248	2624.25
926.558	2584.93
926.867	2595.78
927.177	2605.72
927.487	2591.26
927.796	2568.89
928.106	2551.26
928.416	2539.74
928.725	2539.96
929.034	2558.94
929.344	2511.26
929.653	2504.71
929.962	2498.15
930.271	2482.79
930.581	2473.52
930.89	2473.97
931.199	2454.54
931.508	2500.87
931.817	2488.44
932.125	2427.65
932.434	2452.73
932.743	2428.78
933.051	2390.81
933.36	2402.11
933.669	2366.63
933.977	2403.47
934.286	2368.21
934.594	2371.6
934.902	2374.32
935.21	2373.19
935.519	2345.16
935.827	2349.68
936.135	2329.35
936.443	2312.62
936.751	2300.65
937.059	2333.87
937.367	2299.06
937.674	2308.78
937.982	2300.19
938.29	2262.68
938.597	2280.53
938.905	2257.71
939.213	2247.77
939.52	2226.75
939.827	2239.18
940.135	2225.85
940.442	2231.95
940.749	2202.34
941.056	2202.34
941.363	2185.62
941.67	2196.69
941.977	2159.41
942.284	2174.55
942.591	2151.5
942.898	2137.71
943.205	2147.2
943.511	2185.39
943.818	2105.17
944.125	2118.73
944.431	2125.96
944.738	2088.22
945.044	2098.17
945.35	2082.35
945.657	2090.26
945.963	2048.22
946.269	2030.6
946.575	2048.67
946.881	2041.67
947.187	2043.93
947.493	2061.56
947.799	2040.09
948.105	2023.14
948.41	1991.05
948.716	1998.05
949.022	1991.05
949.327	2003.03
949.633	1953.76
949.938	1971.16
950.244	1991.28
950.549	1951.5
950.854	1960.09
951.16	1956.7
951.465	1946.3
951.77	1940.88
952.075	1931.84
952.38	1908.34
952.685	1927.77
952.99	1903.37
953.294	1902.24
953.599	1896.14
953.904	1864.05
954.209	1864.05
954.513	1874.44
954.818	1844.84
955.122	1855.69
955.426	1845.29
955.731	1838.06
956.035	1819.3
956.339	1826.76
956.643	1799.64
956.948	1812.75
957.252	1809.59
957.556	1802.13
957.86	1794.9
958.163	1784.5
958.467	1789.92
958.771	1745.86
959.075	1776.14
959.378	1767.55
959.682	1728.68
959.985	1753.77
960.289	1701.57
960.592	1746.31
960.896	1720.32
961.199	1736.82
961.502	1684.16
961.805	1704.96
962.108	1688.23
962.411	1693.88
962.714	1662.47
963.017	1691.62
963.32	1686.65
963.623	1645.75
963.926	1671.28
964.228	1649.36
964.531	1657.05
964.833	1612.75
965.136	1635.58
965.438	1627.22
965.741	1631.74
966.043	1623.6
966.345	1577.73
966.648	1609.59
966.95	1635.58
967.252	1588.57
967.554	1606.65
967.856	1589.93
968.158	1565.3
968.46	1562.36
968.761	1576.6
969.063	1582.92
969.365	1581.79
969.666	1545.86
969.968	1536.15
970.269	1503.6
970.571	1509.93
970.872	1535.02
971.174	1531.63
971.475	1545.41
971.776	1511.97
972.077	1468.35
972.378	1477.84
972.679	1490.27
972.98	1485.75
973.281	1504.06
973.582	1490.27
973.883	1468.35
974.183	1480.78
974.484	1438.07
974.785	1471.74
975.085	1463.83
975.386	1441.01
975.686	1452.53
975.986	1444.4
976.287	1422.7
976.587	1399.88
976.887	1417.28
977.187	1407.11
977.487	1424.74
977.787	1391.07
978.087	1408.47
978.387	1398.3
978.687	1389.26
978.987	1366.88
979.286	1367.11
979.586	1393.55
979.885	1368.47
980.185	1350.84
980.484	1339.77
980.784	1375.47
981.083	1344.29
981.382	1324.85
981.682	1329.37
981.981	1333.44
982.28	1343.83
982.579	1333.21
982.878	1334.34
983.177	1330.28
983.475	1330.95
983.774	1299.09
984.073	1288.92
984.372	1297.06
984.67	1283.05
984.969	1306.32
985.267	1285.76
985.566	1278.98
985.864	1279.43
986.162	1257.96
986.461	1260.67
986.759	1249.15
987.057	1241.01
987.355	1221.8
987.653	1252.09
987.951	1244.63
988.249	1245.08
988.547	1237.85
988.844	1215.7
989.142	1224.97
989.44	1208.02
989.737	1212.09
990.035	1217.51
990.332	1205.76
990.63	1176.61
990.927	1185.87
991.224	1187.45
991.521	1170.73
991.819	1166.44
992.116	1167.34
992.413	1189.71
992.71	1178.42
993.006	1147.68
993.303	1150.62
993.6	1146.78
993.897	1140.68
994.193	1138.64
994.49	1139.32
994.787	1135.48
995.083	1151.3
995.379	1135.7
995.676	1144.52
995.972	1130.73
996.268	1100.45
996.565	1105.65
996.861	1095.03
997.157	1109.72
997.453	1100
997.749	1085.76
998.044	1061.13
998.34	1093.22
998.636	1081.24
998.932	1088.25
999.227	1088.02
999.523	1089.38
999.818	1066.33
1000.114	1063.84
1000.409	1062.26
1000.704	1050.96
1001	1037.4
1001.295	1049.15
1001.59	1033.11
1001.885	1040.79
1002.18	1061.13
1002.475	1040.57
1002.77	1006.44
1003.065	1005.99
1003.359	1026.33
1003.654	1031.53
1003.949	1000.79
1004.243	988.59
1004.538	980.91
1004.832	997.86
1005.127	998.31
1005.421	995.6
1005.715	978.65
1006.009	975.26
1006.304	957.4
1006.598	953.34
1006.892	953.56
1007.186	957.63
1007.48	954.69
1007.773	949.95
1008.067	919.44
1008.361	909.95
1008.655	950.17
1008.948	932.09
1009.242	914.69
1009.535	918.31
1009.829	910.85
1010.122	897.29
1010.415	885.99
1010.708	915.37
1011.001	883.51
1011.295	909.95
1011.588	890.97
1011.881	875.6
1012.173	883.28
1012.466	906.11
1012.759	890.97
1013.052	867.69
1013.344	864.07
1013.637	870.17
1013.93	864.53
1014.222	852.77
1014.514	853.45
1014.807	854.58
1015.099	832.21
1015.391	824.3
1015.683	801.93
1015.976	826.33
1016.268	827.92
1016.56	817.75
1016.851	826.33
1017.143	821.14
1017.435	834.92
1017.727	822.94
1018.018	823.85
1018.31	808.71
1018.602	805.77
1018.893	813.23
1019.185	794.02
1019.476	801.02
1019.767	780.91
1020.058	784.53
1020.35	760.57
1020.641	761.93
1020.932	760.12
1021.223	749.73
1021.514	763.06
1021.804	753.57
1022.095	752.21
1022.386	761.48
1022.677	751.08
1022.967	722.16
1023.258	741.59
1023.548	736.17
1023.839	745.66
1024.129	733.68
1024.419	735.26
1024.709	709.05
1025	713.12
1025.29	712.89
1025.58	711.08
1025.87	714.7
1026.16	690.74
1026.449	704.08
1026.739	702.04
1027.029	678.77
1027.319	680.58
1027.608	680.58
1027.898	654.59
1028.187	674.93
1028.477	655.94
1028.766	674.02
1029.055	675.38
1029.344	680.8
1029.634	666.56
1029.923	661.59
1030.212	665.66
1030.501	670.86
1030.79	671.54
1031.078	657.07
1031.367	651.88
1031.656	638.32
1031.945	636.51
1032.233	642.38
1032.522	631.31
1032.81	626.11
1033.099	612.78
1033.387	631.54
1033.675	656.62
1033.963	615.72
1034.251	613.01
1034.54	603.97
1034.828	600.35
1035.116	586.57
1035.403	598.32
1035.691	584.31
1035.979	608.03
1036.267	594.02
1036.554	609.39
1036.842	593.12
1037.129	606.45
1037.417	573.01
1037.704	577.98
1037.992	571.88
1038.279	562.84
1038.566	579.34
1038.853	579.34
1039.14	579.34
