Data from brown_tile_FLMS001491_002.txt Node
Date: Tue Feb 07 10:36:59 GMT 2017
User: dcchb
Spectrometer: FLMS00149
Trigger mode: 0
Integration Time (sec): 2.000000E-2
Scans to average: 10
Electric dark correction enabled: true
Nonlinearity correction enabled: false
Boxcar width: 0
XAxis mode: Wavelengths
Number of Pixels in Spectrum: 2048
>>>>>Begin Spectral Data<<<<<
341.393	-34
341.776	-34
342.16	-34
342.543	-50.27
342.927	-66.76
343.31	-75.58
343.693	-63.6
344.077	-52.3
344.46	-65.18
344.843	-48.01
345.226	-30.83
345.61	-39.65
345.993	-29.02
346.376	0.81
346.759	-11.17
347.142	45.32
347.525	30.41
347.908	57.75
348.291	74.25
348.674	96.62
349.057	110.18
349.44	122.84
349.823	126.45
350.206	157.41
350.588	185.43
350.971	183.4
351.354	221.59
351.737	219.33
352.119	226.56
352.502	243.51
352.884	254.36
353.267	271.76
353.65	282.15
354.032	280.35
354.414	307.24
354.797	290.51
355.179	308.59
355.562	310.18
355.944	305.2
356.326	322.83
356.709	336.16
357.091	335.94
357.473	327.58
357.855	329.61
358.238	326.67
358.62	323.73
359.002	325.99
359.384	336.16
359.766	315.37
360.148	325.77
360.53	330.06
360.912	320.57
361.294	311.98
361.676	338.42
362.057	328.71
362.439	309.72
362.821	292.1
363.203	336.39
363.584	306.56
363.966	330.06
364.348	314.7
364.729	313.34
365.111	308.82
365.493	304.53
365.874	303.4
366.256	321.47
366.637	283.51
367.019	303.4
367.4	314.47
367.781	290.97
368.163	304.75
368.544	293.9
368.925	318.31
369.306	313.79
369.688	303.85
370.069	300.68
370.45	295.94
370.831	309.95
371.212	307.01
371.593	316.73
371.974	318.08
372.355	313.57
372.736	300.91
373.117	306.33
373.498	309.05
373.879	296.62
374.26	295.03
374.641	299.55
375.021	316.95
375.402	297.75
375.783	311.98
376.163	307.46
376.544	335.71
376.925	321.47
377.305	313.34
377.686	286.9
378.066	305.88
378.447	313.57
378.827	311.98
379.208	301.59
379.588	308.14
379.968	327.12
380.349	319.89
380.729	327.35
381.109	318.99
381.489	311.31
381.87	324.41
382.25	329.61
382.63	330.74
383.01	333
383.39	330.29
383.77	329.38
384.15	315.6
384.53	316.73
384.91	331.19
385.29	344.3
385.67	334.81
386.049	350.17
386.429	325.99
386.809	345.88
387.189	353.56
387.568	369.38
387.948	334.81
388.328	348.14
388.707	360.8
389.087	334.58
389.466	376.39
389.846	350.63
390.225	365.77
390.605	346.78
390.984	354.69
391.363	353.34
391.743	346.33
392.122	359.67
392.501	366.22
392.881	353.79
393.26	370.06
393.639	348.59
394.018	354.69
394.397	383.62
394.776	362.6
395.155	377.97
395.534	346.78
395.913	380
396.292	377.97
396.671	353.34
397.05	374.58
397.429	374.35
397.808	349.04
398.186	387.46
398.565	391.76
398.944	380.23
399.323	374.13
399.701	375.71
400.08	388.59
400.458	394.02
400.837	375.26
401.215	399.21
401.594	409.38
401.972	386.78
402.351	374.13
402.729	402.15
403.107	382.72
403.486	393.79
403.864	396.05
404.242	397.86
404.62	401.25
404.999	411.42
405.377	419.33
405.755	416.16
406.133	401.02
406.511	405.99
406.889	414.13
407.267	403.05
407.645	432.21
408.023	422.71
408.401	420
408.779	441.47
409.156	433.79
409.534	425.43
409.912	445.54
410.29	461.58
410.667	443.05
411.045	428.36
411.422	440.12
411.8	448.93
412.178	436.27
412.555	452.09
412.933	454.8
413.31	461.81
413.687	481.92
414.065	469.04
414.442	449.61
414.819	458.42
415.197	480.11
415.574	470.17
415.951	466.78
416.328	488.48
416.705	469.27
417.082	477.4
417.46	511.75
417.837	488.48
418.214	504.75
418.591	508.59
418.967	489.83
419.344	492.54
419.721	481.47
420.098	510.62
420.475	498.19
420.852	507.23
421.228	517.85
421.605	515.37
421.982	507.46
422.358	522.15
422.735	524.63
423.111	542.71
423.488	523.5
423.864	536.61
424.241	531.19
424.617	550.17
424.994	536.38
425.37	548.36
425.746	547.46
426.123	547.91
426.499	556.04
426.875	544.52
427.251	562.6
427.627	586.1
428.003	588.81
428.379	585.65
428.756	591.3
429.132	575.71
429.507	587.91
429.883	580.68
430.259	587.68
430.635	602.6
431.011	600.34
431.387	615.93
431.763	602.82
432.138	632.43
432.514	627.91
432.89	645.76
433.265	653.22
433.641	632.2
434.016	643.5
434.392	660
434.767	676.49
435.143	649.6
435.518	664.06
435.894	678.98
436.269	692.31
436.644	666.1
437.02	675.36
437.395	688.7
437.77	680.56
438.145	709.26
438.52	694.35
438.895	701.58
439.271	711.07
439.646	732.31
440.021	710.16
440.395	741.12
440.77	713.33
441.145	725.31
441.52	723.5
441.895	756.27
442.27	735.7
442.645	743.38
443.019	759.2
443.394	753.55
443.769	742.93
444.143	747.23
444.518	766.66
444.892	777.06
445.267	810.28
445.641	805.3
446.016	773.67
446.39	778.64
446.764	787.9
447.139	788.35
447.513	788.13
447.887	811.63
448.262	804.4
448.636	811.41
449.01	818.86
449.384	847.56
449.758	835.59
450.132	855.02
450.506	852.76
450.88	836.49
451.254	835.36
451.628	857.51
452.002	865.42
452.376	852.08
452.75	869.03
453.123	862.03
453.497	863.83
453.871	882.36
454.244	881.01
454.618	899.31
454.992	897.73
455.365	903.61
455.739	924.62
456.112	954.68
456.486	942.02
456.859	943.38
457.232	942.7
457.606	989.93
457.979	961.46
458.352	977.95
458.725	1008.91
459.099	1004.62
459.472	1041.46
459.845	1008.46
460.218	1036.71
460.591	1043.94
460.964	1045.07
461.337	1079.42
461.71	1081.45
462.083	1099.31
462.456	1069.25
462.829	1088.91
463.201	1114
463.574	1082.81
463.947	1119.42
464.32	1123.94
464.692	1178.18
465.065	1149.93
465.438	1153.54
465.81	1160.55
466.183	1186.76
466.555	1213.43
466.928	1214.33
467.3	1227.21
467.672	1245.29
468.045	1255.01
468.417	1228.8
468.789	1272.86
469.161	1289.81
469.534	1277.83
469.906	1323.71
470.278	1344.5
470.65	1324.39
471.022	1350.6
471.394	1358.74
471.766	1371.16
472.138	1407.55
472.51	1429.47
472.882	1450.71
473.253	1470.37
473.625	1459.52
473.997	1469.69
474.369	1506.53
474.74	1530.48
475.112	1520.31
475.484	1538.62
475.855	1576.13
476.227	1585.85
476.598	1650.71
476.97	1645.51
477.341	1686.18
477.713	1677.82
478.084	1715.34
478.455	1738.16
478.827	1755.79
479.198	1776.35
479.569	1802.57
479.94	1825.62
480.311	1870.13
480.682	1919.62
481.053	1909.46
481.424	1924.37
481.795	1968.89
482.166	1993.52
482.537	2013.86
482.908	2041.43
483.279	2084.37
483.65	2080.3
484.021	2158.04
484.391	2172.95
484.762	2206.85
485.133	2210.69
485.503	2230.8
485.874	2274.64
486.244	2324.13
486.615	2339.27
486.985	2383.34
487.356	2405.71
487.726	2411.82
488.097	2436.22
488.467	2465.15
488.837	2506.95
489.207	2551.92
489.578	2548.53
489.948	2535.88
490.318	2628.53
490.688	2614.52
491.058	2682.54
491.428	2707.17
491.798	2729.32
492.168	2776.33
492.538	2782.65
492.908	2810.67
493.278	2811.35
493.648	2857.68
494.017	2868.07
494.387	2914.63
494.757	2957.56
495.126	2982.2
495.496	2949.2
495.866	2978.13
496.235	3048.41
496.605	3071.23
496.974	3108.29
497.344	3124.34
497.713	3122.3
498.082	3179.93
498.452	3171.12
498.821	3177.22
499.19	3200.49
499.559	3249.99
499.928	3272.58
500.298	3258.35
500.667	3329.98
501.036	3320.49
501.405	3329.76
501.774	3369.76
502.143	3398.68
502.512	3437.78
502.88	3414.5
503.249	3436.42
503.618	3488.85
503.987	3443.65
504.356	3459.47
504.724	3535.63
505.093	3518.45
505.462	3555.06
505.83	3619.24
506.199	3619.47
506.567	3660.14
506.936	3621.27
507.304	3713.48
507.672	3739.69
508.041	3733.14
508.409	3833.47
508.777	3791.89
509.145	3828.95
509.514	3820.82
509.882	3897.65
510.25	3852
510.618	3893.58
510.986	3931.55
511.354	3957.99
511.722	4011.55
512.09	4040.7
512.458	4008.84
512.826	4094.93
513.193	4047.03
513.561	4113.47
513.929	4152.56
514.297	4168.15
514.664	4189.85
515.032	4226.91
515.4	4294.93
515.767	4304.42
516.135	4273.01
516.502	4311.43
516.869	4390.52
517.237	4396.62
517.604	4371.76
517.972	4438.65
518.339	4489.27
518.706	4480.24
519.073	4542.15
519.44	4565.88
519.808	4619.89
520.175	4613.79
520.542	4644.52
520.909	4707.8
521.276	4719.78
521.643	4775.14
522.009	4816.27
522.376	4875.25
522.743	4886.1
523.11	4892.2
523.477	5013.33
523.843	4994.35
524.21	5058.3
524.577	5079.77
524.943	5144.4
525.31	5141.23
525.676	5206.32
526.043	5267.79
526.409	5229.14
526.776	5320.89
527.142	5355.24
527.508	5406.54
527.874	5406.31
528.241	5506.87
528.607	5456.03
528.973	5507.33
529.339	5588.68
529.705	5580.77
530.071	5626.42
530.437	5666.64
530.803	5727.89
531.169	5716.81
531.535	5754.55
531.901	5796.58
532.267	5863.93
532.632	5908.9
532.998	5896.7
533.364	5970.14
533.73	5947.77
534.095	6075.67
534.461	6041.1
534.826	6117.48
535.192	6139.17
535.557	6225.05
535.923	6184.15
536.288	6236.35
536.653	6291.94
537.019	6247.65
537.384	6331.94
537.749	6333.29
538.114	6456
538.479	6435.21
538.845	6456.45
539.21	6431.82
539.575	6477.24
539.94	6544.36
540.305	6568.54
540.67	6574.42
541.034	6680.63
541.399	6728.31
541.764	6739.16
542.129	6776.67
542.494	6768.08
542.858	6815.77
543.223	6790.46
543.587	6882.88
543.952	6889.89
544.316	6963.33
544.681	6956.1
545.045	7062.54
545.41	7126.27
545.774	7114.52
546.138	7138.7
546.503	7180.5
546.867	7178.24
547.231	7338.69
547.595	7299.14
547.959	7317.9
548.324	7425.47
548.688	7405.36
549.052	7450.33
549.416	7476.54
549.779	7573.26
550.143	7572.36
550.507	7685.12
550.871	7721.51
551.235	7745.91
551.599	7844.67
551.962	7877.21
552.326	7916.76
552.689	7967.6
553.053	8023.19
553.417	8018.45
553.78	8206.47
554.143	8174.38
554.507	8211.66
554.87	8283.07
555.234	8440.58
555.597	8363.75
555.96	8496.4
556.323	8534.37
556.686	8543.41
557.05	8657.75
557.413	8753.57
557.776	8736.62
558.139	8847.58
558.502	8949.5
558.865	8977.74
559.228	9110.62
559.59	9169.38
559.953	9195.82
560.316	9328.02
560.679	9415.7
561.041	9448.24
561.404	9565.75
561.767	9587.67
562.129	9697.95
562.492	9840.77
562.854	9823.6
563.217	9964.38
563.579	10017.04
563.941	10073.76
564.304	10151.72
564.666	10230.37
565.028	10372.06
565.39	10393.75
565.753	10451.38
566.115	10570.92
566.477	10680.98
566.839	10802.55
567.201	10812.27
567.563	10914.19
567.925	11057.46
568.287	11143.56
568.648	11209.1
569.01	11265.82
569.372	11379.94
569.734	11390.11
570.095	11555.53
570.457	11715.98
570.819	11738.35
571.18	11714.62
571.542	11958.91
571.903	11964.56
572.265	12100.15
572.626	12226.02
572.987	12266.25
573.349	12350.99
573.71	12415.85
574.071	12441.61
574.432	12614.48
574.794	12791.88
575.155	12822.16
575.516	12849.28
575.877	12926.57
576.238	12983.97
576.599	13095.83
576.96	13187.8
577.32	13249.72
577.681	13298.31
578.042	13431.86
578.403	13485.42
578.763	13557.74
579.124	13615.36
579.485	13695.59
579.845	13835.7
580.206	13845.41
580.566	13868.46
580.927	13938.74
581.287	14072.3
581.648	14080.89
582.008	14214.22
582.368	14295.57
582.728	14338.96
583.089	14300.54
583.449	14389.35
583.809	14509.8
584.169	14454.66
584.529	14552.06
584.889	14737.59
585.249	14662.11
585.609	14655.33
585.969	14752.06
586.329	14752.28
586.688	14923.8
587.048	14935.1
587.408	14902.11
587.768	14985.27
588.127	15031.37
588.487	15091.26
588.846	15165.6
589.206	15143.46
589.565	15155.66
589.925	15247.64
590.284	15268.2
590.643	15398.37
591.003	15342.77
591.362	15544.58
591.721	15474.3
592.08	15505.48
592.44	15642.43
592.799	15626.61
593.158	15642.88
593.517	15665.25
593.876	15744.57
594.235	15789.54
594.593	15797.9
594.952	15873.83
595.311	15810.33
595.67	15919.93
596.029	16029.31
596.387	16100.49
596.746	16244.9
597.104	16096.65
597.463	16100.49
597.822	16155.63
598.18	16209.64
598.538	16258.91
598.897	16345.01
599.255	16296.65
599.613	16530.09
599.972	16429.3
600.33	16462.07
600.688	16382.75
601.046	16649.41
601.404	16610.76
601.762	16641.27
602.12	16691.67
602.478	16709.74
602.836	16719.91
603.194	16718.56
603.552	16826.58
603.91	16721.72
604.268	16907.48
604.625	16856.86
604.983	16982.51
605.341	16913.81
605.698	17005.78
606.056	17016.4
606.413	17122.39
606.771	17070.19
607.128	17135.5
607.485	17090.53
607.843	17186.57
608.2	17293.46
608.557	17293.01
608.914	17184.53
609.272	17324.19
609.629	17358.54
609.986	17459.1
610.343	17490.51
610.7	17521.25
611.057	17509.27
611.414	17553.56
611.771	17596.27
612.127	17714.69
612.484	17619.32
612.841	17697.06
613.198	17633.79
613.554	17680.57
613.911	17763.05
614.267	17797.63
614.624	17798.53
614.98	17905.19
615.337	17982.03
615.693	17887.57
616.05	18010.95
616.406	18056.38
616.762	17972.99
617.118	17998.98
617.475	18058.64
617.831	18093.66
618.187	18145.86
618.543	18145.86
618.899	18291.4
619.255	18195.81
619.611	18187.45
619.967	18306.54
620.323	18386.99
620.678	18229.03
621.034	18244.39
621.39	18206.65
621.746	18340.66
622.101	18453.88
622.457	18236.26
622.812	18317.39
623.168	18343.37
623.523	18415.24
623.879	18387.21
624.234	18321.45
624.589	18471.28
624.945	18473.31
625.3	18451.39
625.655	18441.45
626.01	18436.93
626.365	18521
626.72	18391.51
627.075	18406.42
627.43	18522.8
627.785	18434.44
628.14	18554.44
628.495	18490.26
628.85	18462.92
629.205	18370.49
629.559	18544.95
629.914	18344.96
630.269	18484.16
630.623	18477.38
630.978	18404.61
631.332	18516.93
631.687	18509.02
632.041	18395.58
632.396	18495.23
632.75	18290.72
633.104	18355.35
633.459	18370.94
633.813	18348.57
634.167	18377.27
634.521	18297.5
634.875	18361.23
635.229	18261.12
635.583	18157.62
635.937	18202.13
636.291	18177.5
636.645	18150.84
636.999	18236.26
637.352	18251.17
637.706	18167.56
638.06	18152.42
638.413	18170.04
638.767	18139.99
639.121	18235.58
639.474	17979.99
639.828	18099.31
640.181	18098.41
640.534	18082.59
640.888	18001.24
641.241	17981.35
641.594	18075.81
641.947	18051.63
642.301	17937.73
642.654	17972.31
643.007	17957.85
643.36	17949.03
643.713	17909.94
644.066	18102.48
644.419	17876.04
644.771	17744.75
645.124	17621.13
645.477	17705.2
645.83	17614.58
646.182	17484.41
646.535	17388.82
646.888	17518.08
647.24	17320.35
647.593	17468.82
647.945	17423.85
648.298	17415.49
648.65	17358.09
649.002	17307.02
649.355	17459.33
649.707	17402.16
650.059	17467.69
650.411	17659.55
650.763	17655.71
651.115	17811.86
651.467	17828.13
651.819	17679.44
652.171	17727.57
652.523	17709.94
652.875	17782.48
653.227	17653.22
653.578	17788.81
653.93	17551.3
654.282	17665.43
654.633	17512.89
654.985	17615.26
655.337	17608.03
655.688	17724.41
656.039	17756.5
656.391	17486
656.742	17658.42
657.094	17629.27
657.445	17743.39
657.796	17704.07
658.147	17721.47
658.498	17600.34
658.849	17728.02
659.2	17657.29
659.551	17571.64
659.902	17662.94
660.253	17637.18
660.604	17609.83
660.955	17591.98
661.306	17704.52
661.656	17615.48
662.007	17703.39
662.358	17635.82
662.708	17572.09
663.059	17656.84
663.409	17552.43
663.76	17676.5
664.11	17673.56
664.461	17693.9
664.811	17661.58
665.161	17708.59
665.511	17526.22
665.862	17665.43
666.212	17719.44
666.562	17792.43
666.912	17645.99
667.262	17663.84
667.612	17696.61
667.962	17685.99
668.312	17658.42
668.662	17799.21
669.011	17716.05
669.361	17687.8
669.711	17671.98
670.06	17698.87
670.41	17773.45
670.76	17658.65
671.109	17728.93
671.459	17706.55
671.808	17705.2
672.157	17795.59
672.507	17693.45
672.856	17571.64
673.205	17696.16
673.554	17751.07
673.904	17700.23
674.253	17740
674.602	17707.46
674.951	17410.06
675.3	17402.83
675.649	17717.18
675.998	17676.27
676.346	17731.86
676.695	17758.3
677.044	17611.19
677.393	17659.78
677.741	17785.65
678.09	17638.08
678.438	17652.54
678.787	17709.94
679.135	17706.1
679.484	17660.91
679.832	17744.75
680.181	17549.27
680.529	17670.62
680.877	17613
681.225	17578.87
681.573	17712.66
681.922	17509.05
682.27	17566.22
682.618	17610.74
682.966	17544.3
683.314	17742.94
683.661	17528.93
684.009	17507.24
684.357	17403.74
684.705	17448.48
685.053	17468.59
685.4	17460.46
685.748	17367.81
686.095	17445.32
686.443	17312.67
686.79	17280.12
687.138	17321.25
687.485	17307.02
687.832	17406
688.18	17376.85
688.527	17235.83
688.874	17288.26
689.221	17236.06
689.568	17213.91
689.915	17232.44
690.262	17158.09
690.609	17171.88
690.956	17154.25
691.303	17075.61
691.65	17000.58
691.997	17052.79
692.344	16991.54
692.69	16900.47
693.037	16984.09
693.383	16742.29
693.73	16959.23
694.077	16826.13
694.423	16792.68
694.769	16752.23
695.116	16654.15
695.462	16747.26
695.808	16675.17
696.155	16705.22
696.501	16671.33
696.847	16693.47
697.193	16520.37
697.539	16613.48
697.885	16431.33
698.231	16404.44
698.577	16466.36
698.923	16465.23
699.269	16353.82
699.614	16316.08
699.96	16274.73
700.306	16284.9
700.651	16129.65
700.997	16323.31
701.342	16128.29
701.688	16179.14
702.033	16119.93
702.379	16154.05
702.724	16175.07
703.069	16125.8
703.415	16057.56
703.76	16066.82
704.105	16056.43
704.45	16030.89
704.795	15934.4
705.14	15880.61
705.485	15884.23
705.83	15866.38
706.175	15869.09
706.52	15802.88
706.865	15676.33
707.209	15840.16
707.554	15715.42
707.899	15771.92
708.243	15659.38
708.588	15603.33
708.932	15602.88
709.277	15615.08
709.621	15732.82
709.966	15562.88
710.31	15609.89
710.654	15499.61
710.998	15545.03
711.342	15510.23
711.687	15572.6
712.031	15447.63
712.375	15426.39
712.719	15452.15
713.063	15400.85
713.407	15479.04
713.75	15420.74
714.094	15390.68
714.438	15227.75
714.782	15382.55
715.125	15266.62
715.469	15391.36
715.812	15206.73
716.156	15131.71
716.499	15174.19
716.843	15285.83
717.186	15136
717.53	15274.3
717.873	15240.86
718.216	15102.33
718.559	15097.13
718.902	15057.36
719.246	15121.99
719.589	15081.76
719.932	14962.45
720.275	14934.42
720.617	15061.43
720.96	15016.23
721.303	14942.56
721.646	14962.9
721.989	14866.4
722.331	14913.63
722.674	14924.93
723.016	14862.79
723.359	14865.05
723.701	14848.55
724.044	14791.6
724.386	14742.56
724.729	14780.3
725.071	14786.18
725.413	14832.73
725.755	14791.15
726.097	14753.41
726.439	14733.98
726.782	14650.14
727.124	14748.89
727.465	14739.85
727.807	14730.81
728.149	14689.23
728.491	14591.16
728.833	14671.15
729.175	14614.66
729.516	14484.27
729.858	14521.55
730.199	14624.6
730.541	14621.89
730.882	14561.55
731.224	14534.21
731.565	14487.88
731.906	14493.98
732.248	14584.38
732.589	14567.2
732.93	14412.86
733.271	14463.7
733.612	14428.67
733.953	14515.45
734.294	14413.53
734.635	14397.71
734.976	14415.79
735.317	14431.39
735.658	14324.95
735.999	14375.12
736.339	14377.83
736.68	14389.13
737.021	14334.67
737.361	14341.22
737.702	14346.64
738.042	14310.26
738.383	14286.76
738.723	14281.11
739.063	14250.6
739.404	14322.01
739.744	14211.05
740.084	14205.4
740.424	14150.72
740.764	14113.88
741.104	14238.4
741.444	14144.61
741.784	14101.23
742.124	14116.82
742.464	14073.43
742.804	13960.89
743.143	13950.72
743.483	14079.53
743.823	13906.65
744.162	13993.66
744.502	13993.43
744.841	13877.95
745.181	14014.45
745.52	13935.81
745.86	13889.48
746.199	13865.3
746.538	13818.29
746.877	13829.14
747.216	13757.28
747.556	13789.37
747.895	13847.22
748.234	13741.01
748.573	13726.55
748.911	13738.97
749.25	13706.66
749.589	13680.45
749.928	13710.5
750.267	13677.96
750.605	13635.93
750.944	13537.4
751.283	13552.99
751.621	13598.64
751.96	13338.99
752.298	13518.87
752.636	13427.8
752.975	13430.73
753.313	13401.81
753.651	13444.97
753.989	13352.32
754.327	13300.57
754.666	13196.84
755.004	13242.49
755.342	13351.41
755.679	13171.08
756.017	13101.93
756.355	13164.98
756.693	13110.52
757.031	13125.88
757.368	12967.24
757.706	13103.06
758.044	12882.05
758.381	12995.72
758.719	12918.66
759.056	12924.99
759.394	12884.08
759.731	12812.45
760.068	12769.73
760.405	12691.54
760.743	12687.03
761.08	12680.7
761.417	12555.73
761.754	12632.34
762.091	12526.58
762.428	12595.73
762.765	12391.21
763.102	12494.94
763.438	12413.13
763.775	12341.5
764.112	12368.39
764.449	12340.82
764.785	12212.69
765.122	12242.07
765.458	12114.16
765.795	12121.62
766.131	12059.7
766.467	11997.33
766.804	11999.59
767.14	11952.13
767.476	11937.44
767.812	11880.72
768.148	11821.29
768.485	11819.25
768.821	11812.25
769.157	11734.73
769.492	11796.2
769.828	11649.99
770.164	11587.62
770.5	11530.9
770.836	11436.89
771.171	11426.04
771.507	11412.03
771.842	11350.11
772.178	11313.05
772.513	11346.27
772.849	11301.52
773.184	11176.78
773.519	11253.16
773.855	11187.18
774.19	11052.72
774.525	11059.05
774.86	11108.54
775.195	11021.53
775.53	11034.87
775.865	10840.97
776.2	10885.72
776.535	10790.8
776.87	10709.68
777.205	10708.32
777.539	10637.59
777.874	10670.36
778.209	10544.48
778.543	10523.69
778.878	10462
779.212	10569.57
779.547	10467.42
779.881	10418.38
780.215	10300.42
780.55	10337.48
780.884	10283.47
781.218	10207.54
781.552	10255.68
781.886	10139.97
782.22	10110.37
782.554	10061.56
782.888	10046.87
783.222	9919.64
783.556	9934.33
783.889	9863.14
784.223	9806.87
784.557	9831.28
784.89	9802.58
785.224	9730.27
785.557	9712.87
785.891	9745.18
786.224	9639.87
786.558	9687.56
786.891	9496.37
787.224	9499.99
787.557	9497.73
787.891	9455.25
788.224	9428.13
788.557	9408.69
788.89	9343.38
789.223	9315.14
789.556	9295.48
789.888	9287.57
790.221	9246.21
790.554	9192.43
790.887	9144.75
791.219	9134.8
791.552	9071.08
791.884	9016.61
792.217	8975.48
792.549	8978.42
792.882	8889.16
793.214	8840.35
793.546	8859.33
793.879	8826.79
794.211	8754.25
794.543	8794.02
794.875	8768.03
795.207	8782.5
795.539	8640.13
795.871	8666.34
796.203	8552.67
796.535	8566.91
796.867	8534.14
797.198	8537.76
797.53	8470.86
797.862	8445.33
798.193	8457.08
798.525	8382.73
798.856	8450.53
799.188	8315.84
799.519	8312.68
799.85	8304.77
800.182	8314.26
800.513	8234.71
800.844	8146.35
801.175	8159.23
801.506	8083.08
801.837	8139.57
802.168	8094.6
802.499	8056.41
802.83	8020.26
803.161	7928.28
803.491	8001.72
803.822	7928.73
804.153	7984.55
804.483	7878.11
804.814	7905
805.145	7848.96
805.475	7855.29
805.805	7739.81
806.136	7788.85
806.466	7703.88
806.796	7705.46
807.126	7646.48
807.457	7665.91
807.787	7615.75
808.117	7574.62
808.447	7612.81
808.777	7552.92
809.107	7551.79
809.436	7514.28
809.766	7460.95
810.096	7454.17
810.426	7407.16
810.755	7397.67
811.085	7401.06
811.414	7406.03
811.744	7288.98
812.073	7258.69
812.403	7247.17
812.732	7219.37
813.061	7276.77
813.39	7166.27
813.719	7130.56
814.049	7186.15
814.378	7112.03
814.707	7136.89
815.036	7130.79
815.365	7092.6
815.693	7003.78
816.022	7015.31
816.351	6967.63
816.68	6937.57
817.008	6924.69
817.337	6882.43
817.665	6864.81
817.994	6853.51
818.322	6838.37
818.651	6827.97
818.979	6825.26
819.307	6769.89
819.636	6823
819.964	6764.02
820.292	6786.16
820.62	6751.36
820.948	6771.02
821.276	6776.45
821.604	6711.59
821.932	6754.98
822.259	6764.7
822.587	6719.72
822.915	6723.57
823.243	6720.4
823.57	6722.21
823.898	6709.56
824.225	6651.25
824.553	6700.52
824.88	6694.87
825.207	6715.88
825.535	6645.83
825.862	6695.09
826.189	6690.12
826.516	6690.57
826.843	6693.06
827.17	6673.4
827.497	6658.71
827.824	6691.02
828.151	6682.89
828.478	6666.17
828.805	6669.56
829.131	6622.78
829.458	6604.02
829.785	6551.59
830.111	6617.35
830.438	6632.5
830.764	6582.1
831.09	6586.85
831.417	6573.29
831.743	6599.05
832.069	6566.73
832.395	6526.28
832.722	6534.87
833.048	6507.07
833.374	6554.76
833.7	6521.31
834.026	6540.97
834.351	6529.9
834.677	6498.94
835.003	6502.1
835.329	6496.91
835.654	6491.71
835.98	6484.48
836.306	6449.45
836.631	6442.44
836.956	6443.12
837.282	6417.81
837.607	6361.32
837.932	6371.03
838.258	6394.08
838.583	6422.78
838.908	6358.83
839.233	6305.95
839.558	6343.24
839.883	6271.83
840.208	6349.11
840.533	6302.56
840.858	6286.74
841.182	6263.69
841.507	6243.35
841.832	6249.91
842.156	6251.49
842.481	6152.51
842.805	6213.98
843.13	6179.17
843.454	6157.48
843.778	6107.76
844.103	6125.62
844.427	6155.67
844.751	6141.43
845.075	6059.18
845.399	6084.49
845.723	6019.63
846.047	6064.83
846.371	5977.6
846.695	5925.17
847.019	5883.36
847.343	5949.35
847.666	5899.86
847.99	5869.13
848.313	5887.2
848.637	5817.6
848.96	5814.66
849.284	5838.84
849.607	5764.27
849.931	5726.08
850.254	5681.56
850.577	5658.06
850.9	5593.43
851.223	5664.61
851.546	5579.42
851.869	5554.78
852.192	5605.18
852.515	5539.42
852.838	5497.38
853.161	5530.83
853.483	5510.04
853.806	5429.81
854.129	5430.94
854.451	5399.76
854.774	5404.5
855.096	5359.99
855.419	5367.67
855.741	5414.45
856.063	5291.74
856.385	5327.22
856.708	5256.71
857.03	5250.84
857.352	5286.99
857.674	5236.83
857.996	5228.92
858.318	5217.62
858.64	5197.96
858.961	5124.51
859.283	5162.48
859.605	5141.69
859.926	5130.61
860.248	5161.57
860.57	5101.69
860.891	5102.37
861.212	5070.5
861.534	5077.73
861.855	5056.94
862.176	5055.14
862.498	5063.72
862.819	5077.28
863.14	5014.01
863.461	4981.69
863.782	5004.06
864.103	4975.36
864.424	5004.52
864.745	5013.55
865.065	4881.81
865.386	4941.47
865.707	4905.08
866.027	4974.69
866.348	4895.59
866.668	4897.63
866.989	4895.37
867.309	4867.12
867.63	4868.25
867.95	4842.03
868.27	4818.08
868.59	4839.55
868.91	4835.25
869.23	4821.92
869.55	4781.7
869.87	4829.15
870.19	4802.94
870.51	4807.68
870.83	4760.45
871.15	4764.3
871.469	4742.6
871.789	4787.12
872.109	4747.35
872.428	4726.33
872.748	4721.58
873.067	4699.66
873.386	4742.6
873.706	4806.33
874.025	4663.51
874.344	4691.76
874.663	4747.8
874.982	4676.84
875.301	4665.77
875.62	4676.16
875.939	4668.7
876.258	4632.77
876.577	4649.72
876.896	4607.46
877.214	4577.41
877.533	4625.09
877.852	4624.86
878.17	4622.83
878.489	4604.53
878.807	4583.74
879.125	4582.61
879.444	4590.97
879.762	4593.23
880.08	4542.83
880.398	4528.6
880.716	4535.6
881.034	4540.8
881.352	4525.66
881.67	4520.23
881.988	4490.4
882.306	4491.76
882.624	4486.34
882.941	4468.94
883.259	4470.74
883.577	4450.63
883.894	4423.51
884.212	4375.61
884.529	4404.53
884.846	4351.2
885.164	4384.64
885.481	4377.41
885.798	4392.1
886.115	4327.47
886.432	4317.53
886.75	4330.63
887.067	4358.66
887.383	4285.89
887.7	4340.35
888.017	4275.27
888.334	4320.01
888.651	4328.83
888.967	4245.44
889.284	4240.24
889.6	4239.34
889.917	4154.14
890.233	4244.54
890.55	4202.73
890.866	4206.57
891.182	4223.29
891.498	4138.55
891.815	4189.17
892.131	4181.03
892.447	4137.19
892.763	4122.5
893.079	4087.7
893.395	4092.22
893.71	4085.22
894.026	4088.83
894.342	4100.13
894.657	3995.95
894.973	4031.21
895.289	4037.54
895.604	4011.77
895.92	3981.72
896.235	4004.99
896.55	3993.02
896.865	3982.17
897.181	3939.01
897.496	3961.38
897.811	3923.41
898.126	3920.7
898.441	3960.02
898.756	3872.57
899.071	3890.65
899.386	3873.25
899.7	3882.96
900.015	3836.41
900.33	3781.27
900.644	3780.37
900.959	3779.46
901.273	3751.89
901.588	3772.23
901.902	3782.17
902.216	3750.99
902.531	3764.32
902.845	3695.4
903.159	3680.26
903.473	3686.36
903.787	3696.98
904.101	3674.83
904.415	3686.58
904.729	3651.78
905.042	3628.51
905.356	3608.39
905.67	3620.82
905.984	3615.85
906.297	3617.89
906.611	3551.45
906.924	3577.21
907.237	3554.84
907.551	3539.24
907.864	3517.55
908.177	3522.52
908.491	3526.14
908.804	3491.33
909.117	3455.18
909.43	3398.46
909.743	3419.47
910.056	3421.96
910.368	3422.86
910.681	3408.85
910.994	3424.44
911.307	3399.81
911.619	3414.05
911.932	3336.99
912.244	3330.89
912.557	3348.74
912.869	3361.62
913.181	3315.52
913.494	3334.28
913.806	3313.49
914.118	3292.7
914.43	3267.61
914.742	3233.71
915.054	3209.08
915.366	3249.99
915.678	3182.64
915.99	3223.32
916.302	3177.9
916.613	3164.56
916.925	3158.46
917.236	3152.81
917.548	3143.55
917.859	3146.71
918.171	3119.37
918.482	3106.94
918.794	3090.22
919.105	3086.6
919.416	3072.59
919.727	3090.22
920.038	3057.45
920.349	3069.65
920.66	3026.94
920.971	3008.41
921.282	3033.27
921.593	2982.65
921.903	3000.05
922.214	2971.57
922.525	2980.16
922.835	2938.35
923.146	2955.08
923.456	2904.23
923.767	2896.32
924.077	2899.03
924.387	2875.08
924.697	2887.51
925.008	2845.48
925.318	2855.42
925.628	2845.02
925.938	2874.63
926.248	2864.91
926.558	2825.59
926.867	2819.94
927.177	2787.4
927.487	2784.01
927.796	2757.12
928.106	2753.05
928.416	2779.04
928.725	2750.34
929.034	2721.86
929.344	2706.04
929.653	2727.74
929.962	2677.12
930.271	2684.12
930.581	2644.8
930.89	2667.85
931.199	2649.1
931.508	2659.04
931.817	2662.2
932.125	2627.85
932.434	2645.26
932.743	2612.04
933.051	2606.39
933.36	2628.08
933.669	2601.87
933.977	2576.33
934.286	2574.3
934.594	2566.61
934.902	2527.29
935.21	2566.16
935.519	2537.24
935.827	2501.98
936.135	2501.76
936.443	2498.37
936.751	2465.82
937.059	2467.41
937.367	2458.37
937.674	2452.04
937.982	2439.39
938.29	2443.9
938.597	2396.45
938.905	2433.28
939.213	2392.38
939.52	2404.81
939.827	2376.11
940.135	2403
940.442	2347.18
940.749	2362.55
941.056	2388.99
941.363	2327.07
941.67	2339.95
941.977	2348.77
942.284	2309.44
942.591	2322.55
942.898	2272.61
943.205	2303.57
943.511	2258.37
943.818	2298.15
944.125	2238.26
944.431	2249.11
944.738	2244.36
945.044	2275.55
945.35	2225.38
945.657	2248.66
945.963	2220.86
946.269	2209.79
946.575	2223.35
946.881	2213.4
947.187	2199.39
947.493	2159.84
947.799	2173.86
948.105	2151.03
948.41	2137.7
948.716	2132.27
949.022	2134.08
949.327	2110.35
949.633	2061.54
949.938	2122.33
950.244	2103.35
950.549	2091.82
950.854	2074.65
951.16	2071.49
951.465	2054.54
951.77	2084.59
952.075	2033.52
952.38	2042.11
952.685	2053.18
952.99	2040.3
953.294	2022.45
953.599	2003.24
953.904	1983.58
954.209	1985.16
954.513	1983.8
954.818	1998.04
955.122	1976.35
955.426	1942
955.731	1948.1
956.035	1933.64
956.339	1949.91
956.643	1950.58
956.948	1949.91
957.252	1931.15
957.556	1919.17
957.86	1872.17
958.163	1896.12
958.467	1905.84
958.771	1877.37
959.075	1888.89
959.378	1875.33
959.682	1877.37
959.985	1869.91
960.289	1859.97
960.592	1856.8
960.896	1811.15
961.199	1800.53
961.502	1847.99
961.805	1823.36
962.108	1791.27
962.411	1803.47
962.714	1792.17
963.017	1776.35
963.32	1757.82
963.623	1788.78
963.926	1775
964.228	1740.19
964.531	1765.73
964.833	1719.86
965.136	1750.59
965.438	1781.32
965.741	1721.89
966.043	1713.98
966.345	1719.63
966.648	1712.4
966.95	1686.18
967.252	1661.1
967.554	1673.53
967.856	1692.74
968.158	1685.96
968.46	1664.49
968.761	1669.24
969.063	1665.17
969.365	1681.66
969.666	1627.43
969.968	1631.5
970.269	1627.2
970.571	1642.8
970.872	1617.94
971.174	1608.45
971.475	1592.18
971.776	1613.87
972.077	1582.01
972.378	1579.29
972.679	1578.62
972.98	1611.38
973.281	1605.73
973.582	1556.7
973.883	1558.05
974.183	1586.75
974.484	1569.8
974.785	1561.44
975.085	1539.75
975.386	1531.61
975.686	1526.19
975.986	1543.82
976.287	1501.1
976.587	1538.17
976.887	1506.98
977.187	1488.68
977.487	1509.47
977.787	1495.23
978.087	1522.12
978.387	1478.28
978.687	1505.62
978.987	1488.9
979.286	1498.62
979.586	1438.96
979.885	1466.3
980.185	1499.3
980.484	1462.46
980.784	1454.33
981.083	1415.91
981.382	1443.25
981.682	1441.22
981.981	1391.73
982.28	1441.22
982.579	1419.98
982.878	1426.53
983.177	1407.1
983.475	1412.97
983.774	1401.22
984.073	1403.03
984.372	1374.33
984.67	1378.85
984.969	1396.47
985.267	1356.7
985.566	1357.83
985.864	1358.96
986.162	1375.46
986.461	1345.85
986.759	1357.38
987.057	1325.52
987.355	1304.95
987.653	1303.6
987.951	1296.36
988.249	1308.79
988.547	1319.41
988.844	1308.12
989.142	1297.04
989.44	1283.03
989.737	1273.31
990.035	1287.78
990.332	1297.04
990.63	1279.42
990.927	1261.11
991.224	1251.17
991.521	1261.11
991.819	1253.2
992.116	1245.29
992.413	1250.94
992.71	1230.38
993.006	1233.09
993.303	1222.69
993.6	1229.93
993.897	1227.67
994.193	1244.61
994.49	1202.81
994.787	1217.72
995.083	1190.38
995.379	1199.87
995.676	1184.95
995.972	1164.39
996.268	1178.63
996.565	1163.94
996.861	1149.7
997.157	1166.2
997.453	1172.3
997.749	1175.24
998.044	1177.95
998.34	1130.04
998.636	1144.28
998.932	1145.41
999.227	1152.19
999.523	1159.19
999.818	1124.62
1000.114	1112.19
1000.409	1127.56
1000.704	1104.28
1001	1114.9
1001.295	1105.86
1001.59	1124.84
1001.885	1085.3
1002.18	1087.56
1002.475	1093.43
1002.77	1069.25
1003.065	1052.3
1003.359	1069.93
1003.654	1062.7
1003.949	1059.99
1004.243	1037.39
1004.538	1040.33
1004.832	1037.84
1005.127	1045.52
1005.421	1027.67
1005.715	1042.13
1006.009	999.2
1006.304	1012.3
1006.598	1008.01
1006.892	1007.78
1007.186	980.67
1007.48	992.87
1007.773	997.84
1008.067	981.8
1008.361	958.29
1008.655	996.26
1008.948	974.56
1009.242	976.82
1009.535	971.63
1009.829	940.89
1010.122	943.83
1010.415	954
1010.708	973.43
1011.001	940.22
1011.295	943.15
1011.588	943.15
1011.881	948.58
1012.173	917.17
1012.466	897.73
1012.759	881.69
1013.052	909.48
1013.344	927.33
1013.637	909.26
1013.93	908.58
1014.222	924.62
1014.514	879.65
1014.807	895.92
1015.099	904.06
1015.391	879.88
1015.683	874.45
1015.976	885.08
1016.268	870.61
1016.56	844.17
1016.851	848.24
1017.143	870.84
1017.435	848.24
1017.727	834.68
1018.018	835.59
1018.31	841.23
1018.602	845.3
1018.893	828.13
1019.185	847.34
1019.476	835.59
1019.767	821.35
1020.058	806.21
1020.35	812.99
1020.641	817.96
1020.932	823.16
1021.223	801.24
1021.514	812.31
1021.804	778.41
1022.095	780.22
1022.386	781.8
1022.677	782.03
1022.967	799.88
1023.258	767.56
1023.548	758.53
1023.839	775.93
1024.129	763.72
1024.419	752.42
1024.709	752.2
1025	739.09
1025.29	740.9
1025.58	731.41
1025.87	719.2
1026.16	728.92
1026.449	727.57
1026.739	725.31
1027.029	719.2
1027.319	707
1027.608	713.55
1027.898	705.19
1028.187	691.41
1028.477	711.97
1028.766	716.04
1029.055	668.36
1029.344	680.79
1029.634	689.83
1029.923	681.01
1030.212	683.27
1030.501	675.36
1030.79	690.28
1031.078	698.87
1031.367	668.58
1031.656	673.1
1031.945	689.15
1032.233	672.43
1032.522	666.32
1032.81	661.35
1033.099	651.86
1033.387	652.31
1033.675	635.59
1033.963	644.86
1034.251	636.72
1034.54	634.23
1034.828	641.47
1035.116	646.21
1035.403	606.89
1035.691	641.69
1035.979	620.9
1036.267	633.1
1036.554	616.16
1036.842	644.4
1037.129	625.2
1037.417	620.22
1037.704	621.81
1037.992	618.64
1038.279	598.08
1038.566	616.61
1038.853	616.61
1039.14	616.61
