Data from brown_tile_FLMS001491_038.txt Node
Date: Tue Feb 07 10:37:26 GMT 2017
User: dcchb
Spectrometer: FLMS00149
Trigger mode: 0
Integration Time (sec): 2.000000E-2
Scans to average: 10
Electric dark correction enabled: true
Nonlinearity correction enabled: false
Boxcar width: 0
XAxis mode: Wavelengths
Number of Pixels in Spectrum: 2048
>>>>>Begin Spectral Data<<<<<
341.393	-16.77
341.776	-16.77
342.16	-16.77
342.543	-75.97
342.927	-55.41
343.31	-64
343.693	-67.39
344.077	-65.13
344.46	-56.31
344.843	-46.14
345.226	-41.85
345.61	-36.65
345.993	-6.14
346.376	-22.19
346.759	17.36
347.142	27.98
347.525	41.76
347.908	55.78
348.291	72.72
348.674	82.89
349.057	107.3
349.44	131.48
349.823	131.48
350.206	145.94
350.588	192.95
350.971	171.25
351.354	208.31
351.737	218.71
352.119	233.17
352.502	241.99
352.884	274.75
353.267	256.22
353.65	282.66
354.032	270.01
354.414	297.58
354.797	300.29
355.179	293.51
355.562	334.19
355.944	314.75
356.326	300.97
356.709	308.2
357.091	299.61
357.473	339.84
357.855	345.26
358.238	314.75
358.62	333.73
359.002	322.21
359.384	314.53
359.766	324.47
360.148	332.15
360.53	317.24
360.912	323.34
361.294	301.87
361.676	324.02
362.057	332.15
362.439	325.15
362.821	304.36
363.203	309.55
363.584	320.85
363.966	292.38
364.348	305.49
364.729	300.74
365.111	313.85
365.493	290.35
365.874	286.05
366.256	289.67
366.637	304.36
367.019	301.64
367.4	307.75
367.781	320.18
368.163	291.7
368.544	309.1
368.925	277.92
369.306	281.31
369.688	304.58
370.069	312.27
370.45	307.07
370.831	295.77
371.212	285.83
371.593	276.11
371.974	294.41
372.355	275.88
372.736	279.72
373.117	288.09
373.498	301.19
373.879	310.68
374.26	324.69
374.641	298.48
375.021	287.86
375.402	288.09
375.783	295.54
376.163	309.55
376.544	306.39
376.925	310.01
377.305	312.04
377.686	322.21
378.066	305.49
378.447	323.56
378.827	315.88
379.208	317.46
379.588	313.85
379.968	329.21
380.349	293.28
380.729	334.41
381.109	314.53
381.489	303.68
381.87	324.02
382.25	315.2
382.63	304.58
383.01	319.5
383.39	305.71
383.77	327.63
384.15	326.05
384.53	324.47
384.91	330.12
385.29	322.21
385.67	330.12
386.049	328.08
386.429	351.59
386.809	320.18
387.189	350.23
387.568	327.41
387.948	334.64
388.328	312.49
388.707	341.87
389.087	325.15
389.466	324.69
389.846	338.48
390.225	355.65
390.605	342.77
390.984	355.2
391.363	355.2
391.743	351.59
392.122	349.78
392.501	324.24
392.881	347.75
393.26	341.42
393.639	345.94
394.018	344.58
394.397	350.91
394.776	337.12
395.155	347.97
395.534	364.24
395.913	361.76
396.292	363.79
396.671	361.3
397.05	358.37
397.429	376.9
397.808	366.05
398.186	344.13
398.565	351.81
398.944	353.85
399.323	383.68
399.701	356.11
400.08	357.69
400.458	385.48
400.837	395.2
401.215	378.93
401.594	353.62
401.972	375.54
402.351	365.6
402.729	382.32
403.107	367.18
403.486	375.31
403.864	390.23
404.242	384.35
404.62	379.16
404.999	369.44
405.377	405.14
405.755	396.33
406.133	401.53
406.511	401.08
406.889	389.78
407.267	390.46
407.645	392.04
408.023	413.28
408.401	398.82
408.779	415.31
409.156	392.49
409.534	399.5
409.912	410.57
410.29	428.19
410.667	407.86
411.045	433.17
411.422	424.13
411.8	409.21
412.178	412.38
412.555	392.72
412.933	434.97
413.31	423
413.687	444.24
414.065	433.39
414.442	411.7
414.819	439.72
415.197	438.59
415.574	443.56
415.951	425.71
416.328	452.38
416.705	454.41
417.082	448.53
417.46	450.12
417.837	465.71
418.214	447.63
418.591	460.96
418.967	458.48
419.344	465.48
419.721	472.71
420.098	468.65
420.475	471.36
420.852	443.11
421.228	483.11
421.605	481.53
421.982	490.79
422.358	482.43
422.735	474.97
423.111	485.37
423.488	476.1
423.864	477.91
424.241	513.84
424.617	463
424.994	482.2
425.37	498.25
425.746	493.05
426.123	519.27
426.499	510.23
426.875	516.1
427.251	517.46
427.627	523.11
428.003	520.17
428.379	530.34
428.756	544.58
429.132	544.35
429.507	541.41
429.883	521.3
430.259	563.33
430.635	553.84
431.011	573.28
431.387	545.93
431.763	573.95
432.138	557.91
432.514	554.97
432.89	583.45
433.265	575.08
433.641	592.71
434.016	571.02
434.392	584.8
434.767	597.68
435.143	602.43
435.518	603.78
435.894	616.66
436.269	616.89
436.644	613.95
437.02	631.13
437.395	616.66
437.77	641.07
438.145	639.71
438.52	620.51
438.895	627.96
439.271	641.75
439.646	662.77
440.021	669.54
440.395	658.92
440.77	662.99
441.145	644.01
441.52	677.45
441.895	674.97
442.27	681.75
442.645	667.74
443.019	670.67
443.394	657.34
443.769	705.02
444.143	677
444.518	686.04
444.892	690.79
445.267	698.7
445.641	705.7
446.016	695.53
446.39	698.7
446.764	701.63
447.139	691.92
447.513	703.44
447.887	702.09
448.262	703.22
448.636	700.96
449.01	727.4
449.384	730.56
449.758	752.03
450.132	745.93
450.506	754.51
450.88	740.5
451.254	750.45
451.628	758.81
452.002	752.25
452.376	767.85
452.75	764.46
453.123	772.59
453.497	777.34
453.871	779.82
454.244	797.9
454.618	798.58
454.992	816.66
455.365	827.51
455.739	821.4
456.112	831.57
456.486	873.16
456.859	853.04
457.232	833.38
457.606	844.46
457.979	864.12
458.352	880.84
458.725	892.14
459.099	857.11
459.472	876.32
459.845	920.84
460.218	887.17
460.591	909.09
460.964	922.19
461.337	926.03
461.71	942.31
462.083	931.46
462.456	959.48
462.829	928.29
463.201	972.81
463.574	933.94
463.947	931.23
464.32	989.31
464.692	1015.07
465.065	1027.73
465.438	1007.39
465.81	1029.76
466.183	1041.51
466.555	1064.79
466.928	1057.33
467.3	1070.44
467.672	1069.76
468.045	1105.24
468.417	1093.49
468.789	1092.58
469.161	1113.6
469.534	1119.02
469.906	1138.68
470.278	1168.06
470.65	1150.21
471.022	1183.2
471.394	1161.73
471.766	1194.73
472.138	1221.85
472.51	1202.41
472.882	1226.37
473.253	1256.2
473.625	1265.46
473.997	1287.83
474.369	1301.84
474.74	1310.21
475.112	1311.56
475.484	1337.32
475.855	1360.37
476.227	1360.83
476.598	1392.46
476.97	1421.62
477.341	1433.82
477.713	1477.66
478.084	1470.2
478.455	1491.22
478.827	1495.96
479.198	1550.43
479.569	1559.24
479.94	1577.09
480.311	1611.44
480.682	1631.55
481.053	1634.26
481.424	1633.36
481.795	1667.03
482.166	1686.24
482.537	1740.02
482.908	1744.54
483.279	1780.93
483.65	1821.6
484.021	1834.94
484.391	1833.58
484.762	1889.17
485.133	1878.55
485.503	1933.24
485.874	1923.3
486.244	1952.22
486.615	1972.79
486.985	2023.63
487.356	2036.29
487.726	2043.07
488.097	2100.02
488.467	2097.08
488.837	2147.7
489.207	2195.83
489.578	2190.86
489.948	2160.58
490.318	2249.84
490.688	2208.71
491.058	2294.36
491.428	2329.16
491.798	2316.51
492.168	2330.74
492.538	2397.86
492.908	2369.84
493.278	2405.09
493.648	2442.61
494.017	2461.59
494.387	2448.25
494.757	2504.98
495.126	2533.22
495.496	2567.57
495.866	2524.41
496.235	2573
496.605	2612.54
496.974	2583.17
497.344	2651.19
497.713	2632.88
498.082	2699.77
498.452	2688.93
498.821	2723.73
499.19	2715.82
499.559	2720.11
499.928	2804.18
500.298	2758.53
500.667	2829.26
501.036	2798.98
501.405	2821.8
501.774	2844.63
502.143	2864.97
502.512	2860.67
502.88	2902.48
503.249	2926.66
503.618	2948.13
503.987	2928.69
504.356	2991.97
504.724	2984.51
505.093	2991.52
505.462	3030.84
505.83	3008.24
506.199	3057.5
506.567	3094.79
506.936	3094.11
507.304	3130.95
507.672	3095.47
508.041	3150.16
508.409	3200.55
508.777	3221.34
509.145	3253.88
509.514	3218.4
509.882	3239.19
510.25	3257.27
510.618	3312.41
510.986	3317.38
511.354	3331.62
511.722	3385.41
512.09	3399.64
512.458	3383.15
512.826	3408
513.193	3484.61
513.561	3468.79
513.929	3513.31
514.297	3510.83
514.664	3569.36
515.032	3605.29
515.4	3616.36
515.767	3633.53
516.135	3657.26
516.502	3655.91
516.869	3716.7
517.237	3718.96
517.604	3726.19
517.972	3802.12
518.339	3808.9
518.706	3814.09
519.073	3763.47
519.44	3905.17
519.808	3906.07
520.175	3901.32
520.542	3965.96
520.909	3998.04
521.276	4011.6
521.643	4036.69
522.009	4057.25
522.376	4061.32
522.743	4168.66
523.11	4197.14
523.477	4214.76
523.843	4242.56
524.21	4247.53
524.577	4303.35
524.943	4331.6
525.31	4369.33
525.676	4391.93
526.043	4446.85
526.409	4467.18
526.776	4549.67
527.142	4537.01
527.508	4580.18
527.874	4607.97
528.241	4600.97
528.607	4644.58
528.973	4708.31
529.339	4677.8
529.705	4759.83
530.071	4818.81
530.437	4831.47
530.803	4831.02
531.169	4898.59
531.535	4847.06
531.901	4927.51
532.267	4970.9
532.632	4925.93
532.998	5058.36
533.364	5041.86
533.73	5057.45
534.095	5057.45
534.461	5142.65
534.826	5187.62
535.192	5187.39
535.557	5205.24
535.923	5253.15
536.288	5252.02
536.653	5338.8
537.019	5341.74
537.384	5313.72
537.749	5419.48
538.114	5454.05
538.479	5388.29
538.845	5429.19
539.21	5455.41
539.575	5492.47
539.94	5571.11
540.305	5563.2
540.67	5583.77
541.034	5629.41
541.399	5672.12
541.764	5716.42
542.129	5748.96
542.494	5769.75
542.858	5840.71
543.223	5787.15
543.587	5887.03
543.952	5880.48
544.316	5871.44
544.681	5930.88
545.045	5996.18
545.41	6004.55
545.774	6057.43
546.138	6024.43
546.503	6091.1
546.867	6150.53
547.231	6172
547.595	6200.7
547.959	6294.93
548.324	6293.35
548.688	6335.16
549.052	6387.13
549.416	6375.38
549.779	6437.08
550.143	6448.83
550.507	6521.37
550.871	6524.08
551.235	6587.13
551.599	6674.81
551.962	6700.35
552.326	6674.36
552.689	6727.92
553.053	6793.45
553.417	6795.49
553.78	6954.8
554.143	6965.88
554.507	7057.63
554.87	7060.11
555.234	7211.29
555.597	7194.57
555.96	7190.05
556.323	7247.9
556.686	7327.9
557.05	7430.72
557.413	7485.64
557.776	7533.09
558.139	7594.11
558.502	7606.99
558.865	7695.35
559.228	7748
559.59	7796.14
559.953	7847.43
560.316	7974.89
560.679	7984.61
561.041	8074.77
561.404	8146.64
561.767	8240.19
562.129	8300.98
562.492	8360.42
562.854	8375.33
563.217	8501.88
563.579	8569.68
563.941	8649
564.304	8717.02
564.666	8778.03
565.028	8827.52
565.39	8889.67
565.753	9009.44
566.115	9095.09
566.477	9158.81
566.839	9238.13
567.201	9334.18
567.563	9360.84
567.925	9547.5
568.287	9544.57
568.648	9613.26
569.01	9678.35
569.372	9822.98
569.734	9894.16
570.095	9963.76
570.457	9992.92
570.819	10116.3
571.18	10229.52
571.542	10288.05
571.903	10388.61
572.265	10352.23
572.626	10469.74
572.987	10582.28
573.349	10641.94
573.71	10775.27
574.071	10786.57
574.432	10902.04
574.794	11021.14
575.155	11016.17
575.516	11040.12
575.877	11143.85
576.238	11277.18
576.599	11325.99
576.96	11396.49
577.32	11444.63
577.681	11551.97
578.042	11666.77
578.403	11742.93
578.763	11890.94
579.124	11859.98
579.485	11925.52
579.845	11984.95
580.206	11936.14
580.566	12136.14
580.927	12233.53
581.287	12227.43
581.648	12284.38
582.008	12356.69
582.368	12395.79
582.728	12485.51
583.089	12489.12
583.449	12549.01
583.809	12552.17
584.169	12675.1
584.529	12743.8
584.889	12918.49
585.249	12878.49
585.609	12867.42
585.969	12937.02
586.329	13015.66
586.688	13055.43
587.048	13098.14
587.408	13092.95
587.768	13187.41
588.127	13213.85
588.487	13208.2
588.846	13298.14
589.206	13239.16
589.565	13286.84
589.925	13475.99
590.284	13457
590.643	13497.46
591.003	13600.5
591.362	13552.6
591.721	13605.25
592.08	13691.58
592.44	13728.86
592.799	13759.82
593.158	13804.79
593.517	13807.73
593.876	13816.09
594.235	13903.09
594.593	13929.99
594.952	13951.91
595.311	13995.07
595.67	14085.46
596.029	14088.17
596.387	14232.8
596.746	14222.86
597.104	14184.44
597.463	14171.79
597.822	14305.8
598.18	14249.53
598.538	14282.97
598.897	14413.36
599.255	14343.31
599.613	14609.97
599.972	14499.69
600.33	14539.69
600.688	14484.55
601.046	14555.73
601.404	14642.96
601.762	14631.21
602.12	14772.68
602.478	14761.83
602.836	14703.98
603.194	14708.95
603.552	14830.3
603.91	14769.51
604.268	14870.53
604.625	14880.92
604.983	14949.17
605.341	14936.06
605.698	15043.86
606.056	15118.66
606.413	15095.15
606.771	15179.22
607.128	15233.68
607.485	15110.29
607.843	15173.34
608.2	15169.5
608.557	15359.78
608.914	15219.44
609.272	15375.6
609.629	15327.69
609.986	15424.18
610.343	15243.85
610.7	15503.73
611.057	15502.83
611.414	15390.97
611.771	15562.03
612.127	15685.65
612.484	15593.22
612.841	15701.01
613.198	15600.9
613.554	15659.43
613.911	15729.71
614.267	15699.43
614.624	15810.84
614.98	15710.05
615.337	15879.09
615.693	15859.43
616.05	15805.64
616.406	15887.45
616.762	15904.17
617.118	15858.98
617.475	15877.05
617.831	16011.29
618.187	16075.24
618.543	15998.41
618.899	16135.58
619.255	16044.96
619.611	16090.38
619.967	16162.92
620.323	16195.92
620.678	16110.49
621.034	16099.65
621.39	16115.01
621.746	16098.29
622.101	16268.46
622.457	16189.81
622.812	16236.14
623.168	16308.91
623.523	16294.44
623.879	16311.62
624.234	16146.65
624.589	16326.31
624.945	16288.79
625.3	16306.87
625.655	16246.76
626.01	16281.79
626.365	16381.22
626.72	16400.43
627.075	16418.96
627.43	16353.65
627.785	16287.66
628.14	16376.93
628.495	16338.74
628.85	16332.64
629.205	16272.07
629.559	16359.3
629.914	16338.29
630.269	16329.7
630.623	16329.47
630.978	16327.89
631.332	16363.6
631.687	16326.76
632.041	16316.36
632.396	16370.83
632.75	16222.13
633.104	16313.88
633.459	16289.7
633.813	16184.16
634.167	16257.84
634.521	16264.84
634.875	16227.1
635.229	16234.56
635.583	16182.81
635.937	16150.49
636.291	16205.63
636.645	16218.06
636.999	16122.92
637.352	16242.92
637.706	16162.92
638.06	16182.36
638.413	16155.01
638.767	16147.33
639.121	16213.77
639.474	16042.93
639.828	16048.58
640.181	16123.38
640.534	15984.85
640.888	16088.8
641.241	15975.36
641.594	16000.44
641.947	16100.33
642.301	15947.11
642.654	16004.06
643.007	15996.15
643.36	15973.1
643.713	15942.36
644.066	15987.33
644.419	15904.62
644.771	15855.81
645.124	15663.05
645.477	15635.25
645.83	15623.28
646.182	15470.51
646.535	15465.09
646.888	15476.84
647.24	15440.46
647.593	15518.42
647.945	15487.91
648.298	15355.71
648.65	15368.14
649.002	15322.27
649.355	15523.84
649.707	15358.42
650.059	15515.71
650.411	15683.16
650.763	15624.18
651.115	15800.45
651.467	15722.26
651.819	15794.57
652.171	15692.43
652.523	15710.5
652.875	15724.97
653.227	15642.03
653.578	15767.45
653.93	15694.46
654.282	15647.23
654.633	15636.61
654.985	15666.66
655.337	15705.76
655.688	15781.46
656.039	15807.23
656.391	15650.39
656.742	15673.9
657.094	15692.2
657.445	15769.71
657.796	15688.13
658.147	15668.92
658.498	15691.75
658.849	15709.38
659.2	15659.88
659.551	15640.68
659.902	15729.26
660.253	15665.53
660.604	15723.84
660.955	15633.22
661.306	15727.91
661.656	15746.21
662.007	15660.79
662.358	15731.75
662.708	15702.82
663.059	15719.54
663.409	15676.16
663.76	15751.86
664.11	15667.12
664.461	15816.49
664.811	15748.92
665.161	15796.15
665.511	15729.04
665.862	15748.02
666.212	15891.74
666.562	15830.5
666.912	15844.96
667.262	15771.75
667.612	15845.87
667.962	15860.56
668.312	15826.89
668.662	15868.69
669.011	15885.19
669.361	15753.89
669.711	15832.76
670.06	15762.48
670.41	15774.91
670.76	15792.54
671.109	15785.76
671.459	15847
671.808	15787.57
672.157	15798.19
672.507	15733.1
672.856	15831.18
673.205	15778.3
673.554	15865.3
673.904	15740.79
674.253	15870.5
674.602	15762.03
674.951	15602.03
675.3	15569.27
675.649	15746.66
675.998	15721.13
676.346	15731.3
676.695	15790.5
677.044	15659.43
677.393	15764.74
677.741	15873.66
678.09	15785.98
678.438	15749.15
678.787	15784.18
679.135	15825.76
679.484	15651.98
679.832	15760.22
680.181	15724.29
680.529	15809.03
680.877	15727.91
681.225	15792.31
681.573	15838.19
681.922	15685.42
682.27	15737.62
682.618	15752.76
682.966	15683.84
683.314	15748.7
683.661	15715.02
684.009	15682.03
684.357	15604.07
684.705	15573.11
685.053	15627.57
685.4	15676.83
685.748	15543.5
686.095	15566.78
686.443	15527.68
686.79	15498.31
687.138	15524.97
687.485	15562.94
687.832	15527.01
688.18	15539.21
688.527	15405.43
688.874	15494.92
689.221	15480
689.568	15334.24
689.915	15369.5
690.262	15341.48
690.609	15364.75
690.956	15274.36
691.303	15381.02
691.65	15208.15
691.997	15214.92
692.344	15139.45
692.69	15179.45
693.037	15247.92
693.383	15050.64
693.73	15171.31
694.077	15077.08
694.423	15087.47
694.769	15119.33
695.116	15032.33
695.462	14985.1
695.808	14921.37
696.155	15019.45
696.501	14945.1
696.847	14897.19
697.193	14859.45
697.539	14879.34
697.885	14750.08
698.231	14813.35
698.577	14775.39
698.923	14748.72
699.269	14668.72
699.614	14661.04
699.96	14584.66
700.306	14658.78
700.651	14606.58
700.997	14506.92
701.342	14656.75
701.688	14554.15
702.033	14468.5
702.379	14455.17
702.724	14419.92
703.069	14535.39
703.415	14317.77
703.76	14287.27
704.105	14406.58
704.45	14449.97
704.795	14238.23
705.14	14249.3
705.485	14259.24
705.83	14103.99
706.175	14225.12
706.52	14210.21
706.865	14199.36
707.209	14118
707.554	14156.42
707.899	14147.38
708.243	14044.56
708.588	14124.33
708.932	14006.59
709.277	14104.45
709.621	13995.52
709.966	13934.51
710.31	14047.05
710.654	13856.77
710.998	14003.66
711.342	14015.18
711.687	13957.1
712.031	13943.32
712.375	13802.31
712.719	13816.54
713.063	13819.71
713.407	13928.18
713.75	13852.02
714.094	13849.31
714.438	13763.66
714.782	13767.28
715.125	13703.55
715.469	13741.07
715.812	13748.07
716.156	13683.21
716.499	13748.52
716.843	13737.68
717.186	13599.6
717.53	13638.7
717.873	13712.59
718.216	13633.95
718.559	13548.98
718.902	13515.31
719.246	13612.71
719.589	13505.82
719.932	13539.04
720.275	13489.32
720.617	13447.97
720.96	13438.02
721.303	13437.57
721.646	13522.54
721.989	13429.21
722.331	13402.32
722.674	13424.92
723.016	13412.49
723.359	13312.38
723.701	13419.72
724.044	13341.75
724.386	13325.26
724.729	13348.31
725.071	13315.77
725.413	13352.6
725.755	13331.13
726.097	13288.87
726.439	13170.91
726.782	13287.29
727.124	13315.99
727.465	13242.32
727.807	13332.04
728.149	13172.49
728.491	13251.36
728.833	13268.08
729.175	13167.97
729.516	13181.76
729.858	13195.54
730.199	13134.98
730.541	13109.22
730.882	13091.14
731.224	13212.94
731.565	13086.85
731.906	13172.27
732.248	13077.13
732.589	13083.23
732.93	13113.96
733.271	12968.2
733.612	13043.91
733.953	13068.09
734.294	13019.73
734.635	13046.39
734.976	13077.58
735.317	13045.04
735.658	12978.83
735.999	12998.94
736.339	12933.63
736.68	12930.69
737.021	12915.32
737.361	12901.99
737.702	12976.34
738.042	12847.3
738.383	12874.2
738.723	12830.13
739.063	12746.52
739.404	12888.88
739.744	12813.86
740.084	12734.09
740.424	12776.12
740.764	12753.07
741.104	12767.08
741.444	12642.56
741.784	12693.86
742.124	12764.59
742.464	12708.32
742.804	12678.04
743.143	12643.02
743.483	12607.54
743.823	12651.15
744.162	12502.91
744.502	12633.3
744.841	12523.47
745.181	12577.25
745.52	12532.28
745.86	12511.49
746.199	12579.29
746.538	12468.78
746.877	12529.12
747.216	12465.62
747.556	12470.36
747.895	12411.16
748.234	12414.77
748.573	12440.76
748.911	12356.92
749.25	12342.68
749.589	12362.8
749.928	12365.51
750.267	12271.73
750.605	12233.76
750.944	12336.36
751.283	12256.58
751.621	12239.64
751.96	12103.14
752.298	12219.98
752.636	12167.55
752.975	12092.07
753.313	12120.09
753.651	12128.68
753.989	12018.4
754.327	12025.86
754.666	11965.52
755.004	12018.4
755.342	12026.31
755.679	11916.25
756.017	11895.01
756.355	11847.78
756.693	11852.08
757.031	11792.87
757.368	11815.69
757.706	11823.83
758.044	11820.44
758.381	11670.84
758.719	11674
759.056	11674.23
759.394	11652.53
759.731	11594.23
760.068	11533.44
760.405	11469.26
760.743	11461.35
761.08	11469.94
761.417	11356.04
761.754	11381.58
762.091	11357.4
762.428	11259.77
762.765	11281.92
763.102	11307.68
763.438	11228.59
763.775	11134.58
764.112	11098.87
764.449	11126.44
764.785	11014.36
765.122	10970.74
765.458	10856.17
765.795	11011.42
766.131	10881.25
766.467	10887.13
766.804	10833.8
767.14	10786.34
767.476	10806.23
767.812	10699.56
768.148	10775.72
768.485	10698.66
768.821	10677.87
769.157	10549.96
769.492	10491.89
769.828	10515.84
770.164	10428.38
770.5	10444.43
770.836	10382.51
771.171	10375.28
771.507	10316.97
771.842	10258.22
772.178	10329.18
772.513	10185.23
772.849	10208.95
773.184	10136.41
773.519	10151.56
773.855	10034.27
774.19	10033.59
774.525	9978.45
774.86	9991.56
775.195	9986.14
775.53	9858
775.865	9901.17
776.2	9788.63
776.535	9726.03
776.87	9762.64
777.205	9688.06
777.539	9567.16
777.874	9596.09
778.209	9531.01
778.543	9564.68
778.878	9479.93
779.212	9471.35
779.547	9404.91
779.881	9471.12
780.215	9347.96
780.55	9397.45
780.884	9327.4
781.218	9288.07
781.552	9265.48
781.886	9276.1
782.22	9188.64
782.554	9206.5
782.888	9100.06
783.222	9013.96
783.556	8973.28
783.889	8956.56
784.223	8928.31
784.557	8873.17
784.89	8926.05
785.224	8839.27
785.557	8760.63
785.891	8741.65
786.224	8653.74
786.558	8721.08
786.891	8650.35
787.224	8669.33
787.557	8536.23
787.891	8508.89
788.224	8538.04
788.557	8547.3
788.89	8531.71
789.223	8486.29
789.556	8388.44
789.888	8339.85
790.221	8413.97
790.554	8266.18
790.887	8215.79
791.219	8337.14
791.552	8221.89
791.884	8218.27
792.217	8178.5
792.549	8129.91
792.882	8055.79
793.214	8022.8
793.546	8028
793.879	7991.84
794.211	7977.15
794.543	7893.31
794.875	7996.13
795.207	7901.67
795.539	7841.79
795.871	7850.82
796.203	7803.37
796.535	7786.65
796.867	7755.01
797.198	7684.95
797.53	7693.77
797.862	7624.84
798.193	7621.23
798.525	7593.88
798.856	7610.6
799.188	7558.85
799.519	7486.31
799.85	7477.5
800.182	7440.89
800.513	7405.64
800.844	7396.6
801.175	7414.23
801.506	7381.46
801.837	7334.45
802.168	7265.98
802.499	7274.34
802.83	7208.81
803.161	7178.3
803.491	7213.55
803.822	7169.03
804.153	7156.83
804.483	7084.52
804.814	7043.61
805.145	7036.61
805.475	7076.38
805.805	7001.36
806.136	6987.57
806.466	7066.44
806.796	6973.33
807.126	6931.53
807.457	6908.25
807.787	6871.42
808.117	6825.09
808.447	6851.3
808.777	6813.11
809.107	6805.43
809.436	6799.33
809.766	6711.65
810.096	6724.75
810.426	6677.75
810.755	6742.15
811.085	6684.53
811.414	6681.14
811.744	6578.09
812.073	6639.11
812.403	6580.12
812.732	6553.01
813.061	6550.52
813.39	6490.41
813.719	6517.75
814.049	6513.23
814.378	6488.37
814.707	6456.29
815.036	6438.43
815.365	6409.05
815.693	6385.78
816.022	6363.18
816.351	6367.02
816.68	6278.66
817.008	6359.34
817.337	6258.55
817.665	6252.9
817.994	6208.83
818.322	6228.49
818.651	6199.79
818.979	6200.47
819.307	6227.36
819.636	6220.59
819.964	6130.19
820.292	6181.04
820.62	6163.19
820.948	6109.63
821.276	6128.38
821.604	6122.06
821.932	6151.66
822.259	6077.76
822.587	6082.28
822.915	6106.92
823.243	6112.11
823.57	6108.72
823.898	6068.5
824.225	6099.91
824.553	6079.35
824.88	6038.22
825.207	6056.75
825.535	6015.84
825.862	6057.43
826.189	5994.6
826.516	6066.92
826.843	6027.37
827.17	6028.05
827.497	6065.56
827.824	6021.04
828.151	5987.37
828.478	6008.16
828.805	6009.74
829.131	6033.25
829.458	5991.21
829.785	5932.01
830.111	5962.29
830.438	6007.48
830.764	5973.36
831.09	5970.42
831.417	5903.53
831.743	5940.59
832.069	5935.17
832.395	5941.27
832.722	5892.91
833.048	5863.98
833.374	5908.73
833.7	5937.88
834.026	5896.98
834.351	5909.41
834.677	5890.42
835.003	5877.32
835.329	5857.88
835.654	5868.28
835.98	5841.16
836.306	5875.74
836.631	5828.73
836.956	5843.42
837.282	5792.8
837.607	5774.27
837.932	5845.91
838.258	5748.06
838.583	5763.87
838.908	5736.98
839.233	5729.98
839.558	5703.54
839.883	5662.41
840.208	5680.49
840.533	5661.73
840.858	5713.48
841.182	5621.05
841.507	5614.05
841.832	5588.06
842.156	5670.54
842.481	5584.44
842.805	5574.05
843.13	5549.64
843.454	5612.24
843.778	5534.95
844.103	5533.37
844.427	5494.73
844.751	5567.95
845.075	5487.5
845.399	5467.84
845.723	5440.27
846.047	5443.43
846.371	5397.33
846.695	5434.17
847.019	5348.07
847.343	5335.18
847.666	5268.29
847.99	5305.13
848.313	5320.72
848.637	5240.27
848.96	5191.46
849.284	5233.49
849.607	5182.42
849.931	5176.77
850.254	5133.16
850.577	5105.13
850.9	5031.46
851.223	5071.91
851.546	5068.75
851.869	5018.13
852.192	5044.57
852.515	4977.68
852.838	4970
853.161	4961.41
853.483	4976.55
853.806	4925.7
854.129	4909.66
854.451	4908.08
854.774	4859.04
855.096	4860.39
855.419	4813.39
855.741	4864.46
856.063	4858.81
856.385	4833.73
856.708	4778.59
857.03	4749.89
857.352	4748.76
857.674	4789.89
857.996	4736.33
858.318	4707.86
858.64	4701.98
858.961	4736.78
859.283	4666.28
859.605	4651.81
859.926	4659.95
860.248	4627.63
860.57	4588.99
860.891	4554.87
861.212	4609.33
861.534	4605.26
861.855	4582.21
862.176	4576.56
862.498	4570.91
862.819	4581.08
863.14	4513.96
863.461	4515.09
863.782	4499.73
864.103	4533.17
864.424	4517.35
864.745	4478.48
865.065	4509.22
865.386	4447.98
865.707	4467.41
866.027	4487.07
866.348	4438.71
866.668	4422.89
866.989	4403.46
867.309	4383.8
867.63	4427.86
867.95	4391.48
868.27	4351.71
868.59	4372.72
868.91	4386.96
869.23	4406.85
869.55	4278.26
869.87	4355.78
870.19	4354.42
870.51	4349.9
870.83	4342.44
871.15	4305.16
871.469	4318.49
871.789	4315.32
872.109	4297.25
872.428	4319.17
872.748	4302.44
873.067	4261.54
873.386	4254.08
873.706	4286.62
874.025	4210.92
874.344	4247.3
874.663	4243.01
874.982	4203.01
875.301	4233.07
875.62	4226.74
875.939	4178.38
876.258	4171.15
876.577	4184.71
876.896	4207.76
877.214	4184.25
877.533	4182.67
877.852	4180.41
878.17	4228.55
878.489	4202.11
878.807	4159.85
879.125	4125.27
879.444	4085.5
879.762	4130.7
880.08	4139.06
880.398	4053.64
880.716	4114.2
881.034	4065.84
881.352	4073.07
881.67	4071.04
881.988	4085.5
882.306	4085.05
882.624	4041.89
882.941	4005.05
883.259	4036.46
883.577	4020.64
883.894	3983.13
884.212	4017.03
884.529	4000.08
884.846	3970.25
885.164	3981.77
885.481	3933.41
885.798	3976.58
886.115	3996.01
886.432	3956.92
886.75	3909.23
887.067	3920.98
887.383	3927.76
887.7	3913.75
888.017	3909.46
888.334	3871.49
888.651	3865.39
888.967	3883.92
889.284	3851.83
889.6	3844.6
889.917	3823.59
890.233	3812.06
890.55	3861.1
890.866	3826.52
891.182	3781.1
891.498	3774.1
891.815	3798.95
892.131	3739.07
892.447	3723.48
892.763	3710.59
893.079	3707.2
893.395	3690.26
893.71	3692.52
894.026	3673.53
894.342	3712.18
894.657	3688.45
894.973	3657.94
895.289	3671.95
895.604	3690.71
895.92	3631.27
896.235	3603.7
896.55	3659.52
896.865	3632.18
897.181	3627.43
897.496	3641.67
897.811	3598.28
898.126	3574.33
898.441	3535.01
898.756	3567.77
899.071	3572.29
899.386	3486.42
899.7	3507.44
900.015	3467.21
900.33	3474.89
900.644	3461.11
900.959	3482.13
901.273	3450.94
901.588	3486.87
901.902	3403.94
902.216	3442.58
902.531	3410.04
902.845	3399.19
903.159	3361.23
903.473	3336.37
903.787	3351.73
904.101	3323.03
904.415	3398.06
904.729	3350.83
905.042	3289.14
905.356	3315.12
905.67	3319.42
905.984	3280.55
906.297	3275.58
906.611	3284.62
906.924	3247.56
907.237	3242.13
907.551	3231.74
907.864	3186.31
908.177	3236.48
908.491	3241.91
908.804	3212.08
909.117	3179.76
909.43	3137.95
909.743	3128.24
910.056	3155.13
910.368	3142.02
910.681	3153.77
910.994	3107.9
911.307	3083.94
911.619	3094.11
911.932	3068.8
912.244	3032.42
912.557	3069.03
912.869	3025.87
913.181	3059.54
913.494	3013.66
913.806	2973.89
914.118	2974.79
914.43	2964.85
914.742	2940.67
915.054	2963.27
915.366	2953.78
915.678	2925.98
915.99	2903.61
916.302	2869.94
916.613	2917.17
916.925	2901.35
917.236	2849.6
917.548	2840.79
917.859	2888.24
918.171	2857.06
918.482	2804.4
918.794	2821.8
919.105	2811.18
919.416	2795.14
919.727	2836.04
920.038	2815.7
920.349	2783.39
920.66	2782.71
920.971	2757.63
921.282	2751.52
921.593	2714.69
921.903	2725.54
922.214	2710.17
922.525	2716.04
922.835	2692.32
923.146	2669.04
923.456	2675.82
923.767	2665.65
924.077	2621.81
924.387	2653
924.697	2629.94
925.008	2617.52
925.318	2648.25
925.628	2594.69
925.938	2635.14
926.248	2565.09
926.558	2555.6
926.867	2592.43
927.177	2541.81
927.487	2540.46
927.796	2517.63
928.106	2523.51
928.416	2517.63
928.725	2515.15
929.034	2474.69
929.344	2472.66
929.653	2491.42
929.962	2475.82
930.271	2463.62
930.581	2432.89
930.89	2408.26
931.199	2405.09
931.508	2432.89
931.817	2412.78
932.125	2421.81
932.434	2403.06
932.743	2390.4
933.051	2363.74
933.36	2349.95
933.669	2367.58
933.977	2351.31
934.286	2333.23
934.594	2330.97
934.902	2331.87
935.21	2314.25
935.519	2293
935.827	2282.84
936.135	2281.25
936.443	2295.72
936.751	2255.49
937.059	2268.37
937.367	2232.44
937.674	2270.41
937.982	2221.59
938.29	2234.48
938.597	2223.63
938.905	2154.03
939.213	2173.46
939.52	2179.11
939.827	2194.02
940.135	2162.84
940.442	2182.27
940.749	2156.51
941.056	2183.4
941.363	2154.93
941.67	2153.12
941.977	2119.22
942.284	2130.52
942.591	2101.82
942.898	2095.72
943.205	2102.95
943.511	2117.19
943.818	2072.9
944.125	2078.1
944.431	2085.78
944.738	2052.11
945.044	2047.59
945.35	2048.94
945.657	2067.93
945.963	2045.1
946.269	2034.03
946.575	2040.36
946.881	2016.85
947.187	1986.35
947.493	1978.21
947.799	2002.84
948.105	1965.78
948.41	1943.64
948.716	1975.5
949.022	1947.48
949.327	1928.27
949.633	1962.84
949.938	1941.6
950.244	1913.58
950.549	1930.53
950.854	1920.81
951.16	1879.91
951.465	1932.56
951.77	1907.48
952.075	1896.63
952.38	1868.84
952.685	1873.13
952.99	1869.29
953.294	1860.7
953.599	1873.13
953.904	1841.94
954.209	1815.28
954.513	1830.87
954.818	1813.02
955.122	1803.98
955.426	1816.63
955.731	1824.32
956.035	1801.49
956.339	1781.61
956.643	1821.83
956.948	1789.52
957.252	1761.04
957.556	1785.67
957.86	1747.93
958.163	1746.13
958.467	1766.92
958.771	1751.78
959.075	1707.03
959.378	1707.03
959.682	1749.29
959.985	1721.49
960.289	1721.04
960.592	1728.05
960.896	1705.45
961.199	1703.64
961.502	1659.58
961.805	1660.03
962.108	1691.89
962.411	1647.37
962.714	1639.46
963.017	1694.15
963.32	1658.45
963.623	1623.19
963.926	1643.53
964.228	1631.55
964.531	1617.99
964.833	1605.79
965.136	1584.32
965.438	1614.6
965.741	1598.79
966.043	1600.14
966.345	1561.72
966.648	1595.85
966.95	1584.55
967.252	1590.42
967.554	1559.92
967.856	1575.74
968.158	1561.72
968.46	1563.08
968.761	1543.87
969.063	1556.07
969.365	1532.35
969.666	1519.47
969.968	1507.94
970.269	1495.51
970.571	1520.37
970.872	1518.79
971.174	1511.56
971.475	1520.14
971.776	1472.24
972.077	1499.35
972.378	1489.41
972.679	1467.94
972.98	1468.39
973.281	1465
973.582	1471.78
973.883	1459.58
974.183	1428.39
974.484	1439.69
974.785	1445.12
975.085	1432.24
975.386	1432.01
975.686	1425.23
975.986	1429.52
976.287	1414.16
976.587	1385.01
976.887	1384.55
977.187	1395.63
977.487	1403.31
977.787	1400.82
978.087	1366.48
978.387	1408.73
978.687	1392.46
978.987	1356.31
979.286	1370.54
979.586	1362.41
979.885	1346.81
980.185	1339.81
980.484	1341.17
980.784	1334.61
981.083	1332.8
981.382	1342.75
981.682	1322.63
981.981	1302.52
982.28	1316.08
982.579	1308.4
982.878	1296.87
983.177	1266.37
983.475	1310.88
983.774	1294.39
984.073	1291.9
984.372	1266.37
984.67	1286.93
984.969	1249.19
985.267	1281.05
985.566	1257.1
985.864	1259.36
986.162	1267.49
986.461	1238.8
986.759	1249.19
987.057	1250.09
987.355	1236.08
987.653	1231.34
987.951	1216.87
988.249	1222.3
988.547	1240.15
988.844	1200.83
989.142	1214.61
989.44	1216.87
989.737	1169.64
990.035	1192.92
990.332	1160.38
990.63	1187.05
990.927	1178.01
991.224	1156.31
991.521	1155.86
991.819	1168.97
992.116	1147.05
992.413	1178.91
992.71	1174.62
993.006	1145.01
993.303	1150.44
993.6	1155.41
993.897	1135.75
994.193	1150.89
994.49	1124.67
994.787	1147.27
995.083	1109.76
995.379	1112.92
995.676	1106.37
995.972	1098.91
996.268	1116.31
996.565	1081.06
996.861	1082.42
997.157	1100.27
997.453	1080.61
997.749	1076.99
998.044	1091.91
998.34	1065.69
998.636	1067.27
998.932	1056.2
999.227	1077.67
999.523	1049.65
999.818	1058.91
1000.114	1045.58
1000.409	1063.21
1000.704	1022.76
1001	999.25
1001.295	1059.59
1001.59	1022.76
1001.885	1028.18
1002.18	998.58
1002.475	1021.4
1002.77	1000.38
1003.065	1001.97
1003.359	966.49
1003.654	988.18
1003.949	1002.87
1004.243	985.69
1004.538	993.6
1004.832	978.46
1005.127	988.63
1005.421	951.8
1005.715	977.79
1006.009	967.62
1006.304	956.77
1006.598	935.07
1006.892	951.8
1007.186	944.57
1007.48	932.14
1007.773	944.11
1008.067	934.17
1008.361	932.81
1008.655	958.58
1008.948	925.58
1009.242	914.06
1009.535	896.88
1009.829	906.83
1010.122	915.19
1010.415	884
1010.708	893.72
1011.001	889.43
1011.295	902.98
1011.588	900.5
1011.881	874.74
1012.173	900.05
1012.466	872.03
1012.759	858.69
1013.052	874.74
1013.344	878.13
1013.637	851.91
1013.93	844
1014.222	845.13
1014.514	837
1014.807	839.48
1015.099	821.18
1015.391	825.25
1015.683	793.84
1015.976	824.12
1016.268	834.96
1016.56	810.11
1016.851	782.99
1017.143	807.17
1017.435	805.81
1017.727	810.78
1018.018	799.03
1018.31	795.64
1018.602	788.86
1018.893	782.76
1019.185	790.22
1019.476	782.76
1019.767	785.7
1020.058	780.05
1020.35	767.4
1020.641	756.1
1020.932	769.2
1021.223	757.9
1021.514	763.33
1021.804	733.05
1022.095	708.19
1022.386	716.1
1022.677	749.99
1022.967	751.12
1023.258	700.5
1023.548	753.61
1023.839	702.54
1024.129	704.35
1024.419	742.09
1024.709	704.35
1025	730.56
1025.29	704.12
1025.58	694.63
1025.87	681.3
1026.16	690.33
1026.449	690.79
1026.739	695.53
1027.029	680.39
1027.319	676.55
1027.608	678.81
1027.898	691.01
1028.187	653.5
1028.477	686.49
1028.766	671.8
1029.055	663.67
1029.344	662.99
1029.634	661.86
1029.923	653.05
1030.212	650.11
1030.501	651.01
1030.79	650.11
1031.078	641.3
1031.367	650.79
1031.656	646.27
1031.945	619.83
1032.233	626.83
1032.522	630.68
1032.81	596.33
1033.099	613.95
1033.387	616.44
1033.675	638.36
1033.963	624.57
1034.251	597.23
1034.54	610.56
1034.828	592.94
1035.116	619.83
1035.403	598.59
1035.691	604.69
1035.979	593.39
1036.267	617.57
1036.554	596.33
1036.842	587.06
1037.129	583.67
1037.417	589.09
1037.704	571.92
1037.992	581.41
1038.279	576.89
1038.566	575.76
1038.853	575.76
1039.14	575.76
