Data from brown_tile_FLMS001491_100.txt Node
Date: Tue Feb 07 10:38:17 GMT 2017
User: dcchb
Spectrometer: FLMS00149
Trigger mode: 0
Integration Time (sec): 2.000000E-2
Scans to average: 10
Electric dark correction enabled: true
Nonlinearity correction enabled: false
Boxcar width: 0
XAxis mode: Wavelengths
Number of Pixels in Spectrum: 2048
>>>>>Begin Spectral Data<<<<<
341.393	-14.45
341.776	-14.45
342.16	-14.45
342.543	-70.72
342.927	-73.66
343.31	-60.1
343.693	-73.88
344.077	-47.89
344.46	-51.28
344.843	-70.04
345.226	-35.47
345.61	-21.45
345.993	-44.28
346.376	-7.9
346.759	-7.22
347.142	36.85
347.525	44.53
347.908	49.5
348.291	77.75
348.674	95.15
349.057	115.72
349.44	140.8
349.823	168.6
350.206	162.72
350.588	157.98
350.971	182.16
351.354	210.4
351.737	224.42
352.119	229.39
352.502	244.3
352.884	264.41
353.267	278.42
353.65	279.33
354.032	281.36
354.414	290.4
354.797	280.91
355.179	290.63
355.562	287.92
355.944	290.4
356.326	317.75
356.709	311.87
357.091	314.36
357.473	313.23
357.855	317.75
358.238	322.27
358.62	325.66
359.002	327.92
359.384	320.68
359.766	335.82
360.148	303.06
360.53	315.94
360.912	309.84
361.294	320.46
361.676	292.89
362.057	309.61
362.439	325.88
362.821	298.31
363.203	315.49
363.584	310.51
363.966	316.39
364.348	318.88
364.729	310.29
365.111	285.88
365.493	289.95
365.874	278.65
366.256	289.95
366.637	293.34
367.019	304.19
367.4	298.76
367.781	297.86
368.163	286.56
368.544	271.87
368.925	287.92
369.306	331.3
369.688	308.25
370.069	292.21
370.45	315.94
370.831	308.03
371.212	293.57
371.593	287.69
371.974	270.97
372.355	292.66
372.736	299.67
373.117	296.96
373.498	300.12
373.879	303.96
374.26	294.02
374.641	307.12
375.021	288.82
375.402	297.41
375.783	315.49
376.163	309.38
376.544	309.84
376.925	290.63
377.305	305.77
377.686	308.93
378.066	321.81
378.447	300.57
378.827	318.88
379.208	311.87
379.588	336.05
379.968	324.07
380.349	330.17
380.729	299.89
381.109	314.13
381.489	303.73
381.87	338.08
382.25	334.02
382.63	326.79
383.01	310.97
383.39	323.62
383.77	318.65
384.15	340.8
384.53	314.58
384.91	353.9
385.29	326.11
385.67	326.56
386.049	323.4
386.429	325.2
386.809	334.92
387.189	321.59
387.568	331.53
387.948	363.85
388.328	348.48
388.707	333.56
389.087	329.27
389.466	342.83
389.846	327.69
390.225	341.25
390.605	339.67
390.984	327.46
391.363	344.19
391.743	345.54
392.122	368.14
392.501	355.94
392.881	356.39
393.26	349.16
393.639	375.6
394.018	349.84
394.397	358.42
394.776	380.8
395.155	338.99
395.534	353.68
395.913	353.68
396.292	341.47
396.671	347.58
397.05	360.68
397.429	362.94
397.808	385.54
398.186	367.24
398.565	388.25
398.944	373.11
399.323	372.89
399.701	378.31
400.08	357.74
400.458	356.39
400.837	375.82
401.215	365.43
401.594	383.51
401.972	390.06
402.351	389.61
402.729	400.46
403.107	360.23
403.486	391.19
403.864	356.16
404.242	402.04
404.62	404.98
404.999	392.77
405.377	351.64
405.755	386.9
406.133	398.42
406.511	415.82
406.889	398.87
407.267	410.4
407.645	401.36
408.023	410.17
408.401	421.92
408.779	418.53
409.156	410.85
409.534	405.65
409.912	410.62
410.29	405.43
410.667	428.93
411.045	426.22
411.422	427.8
411.8	437.06
412.178	439.55
412.555	428.03
412.933	450.17
413.31	429.61
413.687	435.71
414.065	448.59
414.442	428.93
414.819	453.56
415.197	444.3
415.574	449.72
415.951	440.91
416.328	451.75
416.705	471.41
417.082	469.38
417.46	454.24
417.837	463.05
418.214	484.07
418.591	462.6
418.967	472.32
419.344	462.37
419.721	466.44
420.098	474.8
420.475	475.03
420.852	454.69
421.228	515.48
421.605	465.31
421.982	498.76
422.358	487.68
422.735	484.07
423.111	504.86
423.488	500.79
423.864	491.07
424.241	487.01
424.617	498.98
424.994	522.26
425.37	508.7
425.746	520.68
426.123	513.9
426.499	486.33
426.875	508.48
427.251	540.56
427.627	540.34
428.003	533.33
428.379	536.05
428.756	553.9
429.132	562.03
429.507	560.23
429.883	565.87
430.259	538.76
430.635	560.45
431.011	564.07
431.387	556.84
431.763	558.87
432.138	578.08
432.514	591.19
432.89	589.6
433.265	587.34
433.641	601.81
434.016	604.52
434.392	610.62
434.767	612.88
435.143	602.26
435.518	613.56
435.894	613.33
436.269	639.77
436.644	617.63
437.02	631.64
437.395	626.44
437.77	663.95
438.145	645.87
438.52	646.32
438.895	669.83
439.271	655.14
439.646	672.76
440.021	676.61
440.395	644.29
440.77	657.4
441.145	675.02
441.52	687
441.895	672.54
442.27	694.46
442.645	659.88
443.019	691.07
443.394	670.05
443.769	707.34
444.143	674.12
444.518	698.53
444.892	687.68
445.267	705.98
445.641	715.48
446.016	710.96
446.39	732.65
446.764	749.6
447.139	740.11
447.513	736.27
447.887	728.13
448.262	741.92
448.636	741.01
449.01	753.21
449.384	737.62
449.758	766.1
450.132	761.12
450.506	774.01
450.88	749.6
451.254	763.61
451.628	796.15
452.002	772.65
452.376	795.47
452.75	776.72
453.123	775.59
453.497	796.38
453.871	810.39
454.244	825.3
454.618	821.46
454.992	853.78
455.365	814.46
455.739	850.39
456.112	864.17
456.486	860.78
456.859	861.01
457.232	894
457.606	886.32
457.979	878.18
458.352	897.17
458.725	906.66
459.099	929.71
459.472	922.93
459.845	928.58
460.218	949.37
460.591	941.91
460.964	947.11
461.337	962.7
461.71	971.06
462.083	988.01
462.456	985.98
462.829	984.85
463.201	977.39
463.574	1035.69
463.947	999.99
464.32	1005.86
464.692	1056.26
465.065	1085.64
465.438	1081.79
465.81	1056.71
466.183	1082.25
466.555	1098.97
466.928	1097.61
467.3	1083.6
467.672	1117.05
468.045	1146.65
468.417	1152.53
468.789	1135.58
469.161	1138.74
469.534	1175.58
469.906	1191.85
470.278	1189.14
470.65	1214.9
471.022	1212.64
471.394	1240.66
471.766	1250.83
472.138	1256.48
472.51	1296.03
472.882	1293.54
473.253	1323.82
473.625	1331.73
473.997	1332.18
474.369	1377.15
474.74	1370.6
475.112	1368.11
475.484	1412.63
475.855	1432.07
476.227	1430.03
476.598	1463.03
476.97	1456.02
477.341	1532.63
477.713	1517.04
478.084	1514.55
478.455	1572.85
478.827	1572.63
479.198	1589.35
479.569	1621.44
479.94	1647.88
480.311	1628.22
480.682	1691.72
481.053	1721.1
481.424	1734.88
481.795	1755.67
482.166	1758.61
482.537	1787.31
482.908	1815.33
483.279	1837.25
483.65	1887.87
484.021	1894.43
484.391	1940.98
484.762	1946.18
485.133	1955.44
485.503	2008.77
485.874	2042.9
486.244	2027.53
486.615	2080.64
486.985	2077.93
487.356	2123.35
487.726	2121.09
488.097	2177.13
488.467	2190.92
488.837	2221.88
489.207	2251.93
489.578	2258.26
489.948	2320.86
490.318	2327.86
490.688	2305.26
491.058	2382.1
491.428	2381.19
491.798	2451.93
492.168	2480.17
492.538	2492.6
492.908	2538.03
493.278	2531.25
493.648	2533.05
494.017	2548.42
494.387	2583
494.757	2602.66
495.126	2608.76
495.496	2640.17
495.866	2670.23
496.235	2688.76
496.605	2690.11
496.974	2739.6
497.344	2731.69
497.713	2743.67
498.082	2792.03
498.452	2819.6
498.821	2836.32
499.19	2827.96
499.559	2836.32
499.928	2839.71
500.298	2874.29
500.667	2949.54
501.036	2900.28
501.405	2944.34
501.774	2946.38
502.143	3018.92
502.512	3025.47
502.88	3045.13
503.249	3001.97
503.618	3074.28
503.987	3088.75
504.356	3105.24
504.724	3077.45
505.093	3145.69
505.462	3165.35
505.83	3142.53
506.199	3218.23
506.567	3242.87
506.936	3261.62
507.304	3260.49
507.672	3292.81
508.041	3309.31
508.409	3355.86
508.777	3377.55
509.145	3350.66
509.514	3404.9
509.882	3400.83
510.25	3391.11
510.618	3480.15
510.986	3489.19
511.354	3509.53
511.722	3548.62
512.09	3585.91
512.458	3600.82
512.826	3620.03
513.193	3636.3
513.561	3636.75
513.929	3712.23
514.297	3684.89
514.664	3718.79
515.032	3756.75
515.4	3759.92
515.767	3790.2
516.135	3778.45
516.502	3815.73
516.869	3878.33
517.237	3913.58
517.604	3926.24
517.972	3974.6
518.339	3959.68
518.706	3991.77
519.073	4004.43
519.44	4035.84
519.808	4100.25
520.175	4092.34
520.542	4117.65
520.909	4210.75
521.276	4150.41
521.643	4251.2
522.009	4258.66
522.376	4317.19
522.743	4331.2
523.11	4403.97
523.477	4414.14
523.843	4429.95
524.21	4428.6
524.577	4520.57
524.943	4518.09
525.31	4594.92
525.676	4587.01
526.043	4675.82
526.409	4692.09
526.776	4727.35
527.142	4777.06
527.508	4784.97
527.874	4808.7
528.241	4846.89
528.607	4883.28
528.973	4941.81
529.339	4935.48
529.705	4974.35
530.071	5007.57
530.437	5094.34
530.803	5087.56
531.169	5071.97
531.535	5123.5
531.901	5169.14
532.267	5182.7
532.632	5245.53
532.998	5210.05
533.364	5294.56
533.73	5330.72
534.095	5385.86
534.461	5410.27
534.826	5409.14
535.192	5483.03
535.557	5488.68
535.923	5496.14
536.288	5514.45
536.653	5596.7
537.019	5582.24
537.384	5604.61
537.749	5644.16
538.114	5620.66
538.479	5688.9
538.845	5719.19
539.21	5720.09
539.575	5755.79
539.94	5787.43
540.305	5855
540.67	5864.94
541.034	5896.36
541.399	5948.78
541.764	5982.23
542.129	5980.65
542.494	6029.46
542.858	6126.86
543.223	6092.28
543.587	6134.99
543.952	6135.9
544.316	6208.21
544.681	6203.92
545.045	6247.99
545.41	6329.79
545.774	6318.27
546.138	6342.67
546.503	6378.15
546.867	6413.18
547.231	6484.59
547.595	6418.15
547.959	6535.21
548.324	6566.62
548.688	6580.63
549.052	6625.15
549.416	6665.15
549.779	6729.78
550.143	6810.68
550.507	6816.56
550.871	6928.87
551.235	6938.81
551.599	6986.05
551.962	6984.92
552.326	7050.68
552.689	7116.66
553.053	7122.31
553.417	7193.72
553.78	7233.04
554.143	7318.24
554.507	7391.68
554.87	7363.21
555.234	7486.14
555.597	7479.14
555.96	7528.63
556.323	7687.5
556.686	7664.9
557.05	7752.35
557.413	7817.44
557.776	7819.7
558.139	7925.23
558.502	8015.4
558.865	8020.14
559.228	8115.05
559.59	8163.19
559.953	8234.15
560.316	8357.31
560.679	8388.72
561.041	8478.21
561.404	8538.55
561.767	8619
562.129	8626.23
562.492	8799.56
562.854	8828.48
563.217	8874.36
563.579	8919.1
563.941	9127.23
564.304	9127.91
564.666	9237.51
565.028	9251.07
565.39	9404.06
565.753	9462.82
566.115	9575.81
566.477	9646.09
566.839	9649.03
567.201	9764.05
567.563	9813.77
567.925	9959.53
568.287	9998.62
568.648	10083.14
569.01	10148.22
569.372	10301.89
569.734	10253.3
570.095	10378.5
570.457	10486.52
570.819	10591.37
571.18	10615.55
571.542	10733.74
571.903	10818.03
572.265	10847.86
572.626	11012.15
572.987	11040.4
573.349	11094.19
573.71	11205.6
574.071	11271.13
574.432	11373.73
574.794	11452.14
575.155	11512.03
575.516	11604.45
575.877	11686.26
576.238	11744.11
576.599	11833.6
576.96	11953.15
577.32	11922.19
577.681	12055.74
578.042	12131.22
578.403	12168.28
578.763	12242.18
579.124	12331.89
579.485	12393.59
579.845	12448.95
580.206	12493.47
580.566	12524.2
580.927	12639.91
581.287	12666.12
581.648	12723.52
582.008	12839
582.368	12885.1
582.728	12912.22
583.089	12940.46
583.449	13072.66
583.809	13015.04
584.169	13143.62
584.529	13207.12
584.889	13356.5
585.249	13309.27
585.609	13298.2
585.969	13501.81
586.329	13455.93
586.688	13438.3
587.048	13600.79
587.408	13624.06
587.768	13681.01
588.127	13653.44
588.487	13684.85
588.846	13779.99
589.206	13804.62
589.565	13822.7
589.925	13948.12
590.284	13900.21
590.643	14034.45
591.003	14000.55
591.362	14152.18
591.721	14219.3
592.08	14135.69
592.44	14297.94
592.799	14317.83
593.158	14201.22
593.517	14382.01
593.876	14410.93
594.235	14364.38
594.593	14554.89
594.952	14509.69
595.311	14474.89
595.67	14615.9
596.029	14792.85
596.387	14732.73
596.746	14707.2
597.104	14706.07
597.463	14773.64
597.822	14820.19
598.18	14857.93
598.538	14775.67
598.897	14963.91
599.255	14800.53
599.613	15104.48
599.972	15025.83
600.33	15091.14
600.688	15067.87
601.046	15084.14
601.404	15129.79
601.762	15220.18
602.12	15288.43
602.478	15316.22
602.836	15316.22
603.194	15267.86
603.552	15295.21
603.91	15293.62
604.268	15382.21
604.625	15466.5
604.983	15574.07
605.341	15504.24
605.698	15553.28
606.056	15541.07
606.413	15650.68
606.771	15761.63
607.128	15738.13
607.485	15721.63
607.843	15642.31
608.2	15883.66
608.557	15907.62
608.914	15828.98
609.272	15910.56
609.629	15978.13
609.986	16048.18
610.343	15994.62
610.7	16081.4
611.057	16024
611.414	16148.74
611.771	16180.61
612.127	16155.3
612.484	16251.56
612.841	16240.49
613.198	16209.53
613.554	16371.79
613.911	16277.78
614.267	16322.07
614.624	16401.62
614.98	16383.09
615.337	16538.56
615.693	16508.28
616.05	16480.71
616.406	16531.1
616.762	16480.71
617.118	16527.94
617.475	16537.66
617.831	16594.15
618.187	16727.03
618.543	16698.78
618.899	16785.56
619.255	16669.18
619.611	16752.12
619.967	16784.21
620.323	16784.21
620.678	16876.86
621.034	16679.12
621.39	16664.66
621.746	16806.8
622.101	16998.21
622.457	16762.29
622.812	16878.44
623.168	16889.74
623.523	16974.26
623.879	16984.65
624.234	16825.33
624.589	16924.99
624.945	17028.72
625.3	16942.85
625.655	16983.3
626.01	17036.4
626.365	17028.72
626.72	16949.62
627.075	17031.66
627.43	16939.46
627.785	16877.08
628.14	17078.44
628.495	16899.68
628.85	17009.74
629.205	16980.81
629.559	17077.31
629.914	17031.66
630.269	17082.73
630.623	16993.92
630.978	16897.42
631.332	17024.43
631.687	17062.84
632.041	16852.45
632.396	17052.9
632.75	16939.68
633.104	17034.82
633.459	16785.34
633.813	16909.63
634.167	16858.1
634.521	16951.43
634.875	16944.2
635.229	16910.76
635.583	16928.83
635.937	16896.29
636.291	16812.45
636.645	16744.88
636.999	16796.18
637.352	16830.53
637.706	16700.59
638.06	16809.97
638.413	16825.33
638.767	16788.95
639.121	16797.54
639.474	16679.8
639.828	16808.61
640.181	16641.16
640.534	16739.01
640.888	16676.64
641.241	16627.6
641.594	16714.6
641.947	16717.09
642.301	16531.1
642.654	16666.24
643.007	16664.89
643.36	16562.06
643.713	16577.43
644.066	16676.19
644.419	16479.35
644.771	16400.03
645.124	16307.16
645.477	16339.7
645.83	16145.58
646.182	16145.13
646.535	16111.23
646.888	16160.95
647.24	16060.38
647.593	16177.22
647.945	16152.58
648.298	16110.55
648.65	16028.75
649.002	15950.1
649.355	16065.35
649.707	16047.05
650.059	16189.87
650.411	16216.31
650.763	16302.41
651.115	16512.12
651.467	16464.21
651.819	16416.53
652.171	16455.85
652.523	16490.43
652.875	16415.4
653.227	16324.33
653.578	16463.08
653.93	16379.7
654.282	16344.44
654.633	16235.75
654.985	16428.96
655.337	16317.1
655.688	16319.59
656.039	16356.42
656.391	16221.51
656.742	16276.87
657.094	16268.74
657.445	16292.47
657.796	16330.43
658.147	16295.4
658.498	16319.81
658.849	16363.2
659.2	16351.67
659.551	16274.84
659.902	16327.27
660.253	16371.34
660.604	16403.2
660.955	16236.65
661.306	16359.36
661.656	16369.53
662.007	16333.14
662.358	16326.14
662.708	16261.96
663.059	16292.47
663.409	16227.84
663.76	16348.51
664.11	16423.09
664.461	16378.34
664.811	16393.03
665.161	16422.41
665.511	16310.55
665.862	16405.68
666.212	16461.05
666.562	16400.49
666.912	16416.76
667.262	16392.35
667.612	16487.72
667.962	16414.05
668.312	16412.92
668.662	16568.17
669.011	16385.57
669.361	16343.54
669.711	16406.36
670.06	16527.04
670.41	16378.57
670.76	16412.92
671.109	16388.28
671.459	16440.26
671.808	16338.34
672.157	16475.29
672.507	16234.62
672.856	16462.86
673.205	16390.77
673.554	16448.17
673.904	16327.72
674.253	16581.05
674.602	16426.7
674.951	16298.57
675.3	16167.05
675.649	16437.32
675.998	16353.03
676.346	16463.54
676.695	16507.83
677.044	16392.8
677.393	16449.07
677.741	16431.9
678.09	16391
678.438	16376.98
678.787	16418.34
679.135	16540.14
679.484	16341.96
679.832	16390.54
680.181	16269.64
680.529	16458.34
680.877	16308.96
681.225	16289.76
681.573	16360.04
681.922	16285.91
682.27	16286.59
682.618	16287.95
682.966	16298.57
683.314	16272.13
683.661	16226.03
684.009	16244.78
684.357	16169.31
684.705	16265.58
685.053	16152.58
685.4	16181.06
685.748	16078.46
686.095	16118.46
686.443	16094.73
686.79	16073.04
687.138	16026.26
687.485	16024.45
687.832	15974.74
688.18	16005.02
688.527	16019.48
688.874	15969.76
689.221	15947.62
689.568	15984.9
689.915	15990.33
690.262	15873.04
690.609	15968.63
690.956	15804.12
691.303	15838.02
691.65	15802.31
691.997	15796.21
692.344	15817
692.69	15671.69
693.037	15671.69
693.383	15652.71
693.73	15715.76
694.077	15687.96
694.423	15694.29
694.769	15636.89
695.116	15610.9
695.462	15642.54
695.808	15579.49
696.155	15562.77
696.501	15418.14
696.847	15433.05
697.193	15418.37
697.539	15601.86
697.885	15411.36
698.231	15316
698.577	15328.2
698.923	15422.43
699.269	15337.24
699.614	15177.47
699.96	15105.15
700.306	15163.68
700.651	15135.89
700.997	15093.4
701.342	15148.09
701.688	15132.05
702.033	15026.29
702.379	15059.51
702.724	15045.95
703.069	15083.01
703.415	14871.71
703.76	14942.45
704.105	14941.09
704.45	14927.31
704.795	14810.02
705.14	14821.32
705.485	14809.34
705.83	14808.66
706.175	14765.28
706.52	14767.54
706.865	14714.43
707.209	14695.67
707.554	14716.69
707.899	14683.24
708.243	14644.83
708.588	14633.98
708.932	14569.12
709.277	14496.36
709.621	14662.68
709.966	14467.66
710.31	14503.59
710.654	14451.16
710.998	14456.13
711.342	14493.42
711.687	14407.09
712.031	14434.66
712.375	14322.58
712.719	14395.34
713.063	14359.64
713.407	14481.22
713.75	14364.16
714.094	14332.74
714.438	14374.78
714.782	14289.13
715.125	14281.22
715.469	14287.77
715.812	14222.01
716.156	14194.67
716.499	14135.69
716.843	14203.48
717.186	14084.62
717.53	14243.26
717.873	14242.13
718.216	14207.78
718.559	14135.69
718.902	14022.24
719.246	14018.18
719.589	14071.51
719.932	14011.17
720.275	13964.62
720.617	14059.53
720.96	14002.58
721.303	14040.55
721.646	13993.32
721.989	13966.65
722.331	14018.4
722.674	13967.33
723.016	13966.65
723.359	13877.62
723.701	13976.14
724.044	13851.85
724.386	13773.89
724.729	13879.88
725.071	13830.84
725.413	13783.61
725.755	13836.49
726.097	13741.35
726.439	13722.59
726.782	13673.78
727.124	13877.39
727.465	13714.91
727.807	13742.03
728.149	13725.3
728.491	13756.26
728.833	13674.91
729.175	13677.39
729.516	13639.43
729.858	13565.53
730.199	13618.64
730.541	13736.38
730.882	13545.87
731.224	13628.58
731.565	13580.45
731.906	13547.23
732.248	13608.47
732.589	13527.79
732.93	13473.56
733.271	13549.71
733.612	13550.62
733.953	13556.49
734.294	13578.64
734.635	13451.64
734.976	13446.21
735.317	13443.95
735.658	13443.73
735.999	13467.68
736.339	13441.47
736.68	13432.2
737.021	13434.24
737.361	13322.38
737.702	13416.84
738.042	13320.79
738.383	13347.91
738.723	13306.1
739.063	13390.17
739.404	13403.73
739.744	13245.32
740.084	13220.46
740.424	13317.4
740.764	13203.51
741.104	13294.58
741.444	13224.07
741.784	13210.29
742.124	13240.12
742.464	13144.3
742.804	13161.02
743.143	13125.54
743.483	13149.05
743.823	13050.07
744.162	13022.5
744.502	13027.24
744.841	13013.91
745.181	13051.2
745.52	13032.67
745.86	13087.13
746.199	13026.34
746.538	13024.3
746.877	12977.75
747.216	13037.86
747.556	12965.1
747.895	12962.61
748.234	12880.58
748.573	12865.44
748.911	12788.83
749.25	12863.63
749.589	12759
749.928	12655.05
750.267	12841.03
750.605	12766.68
750.944	12710.19
751.283	12677.65
751.621	12764.2
751.96	12552.9
752.298	12564.88
752.636	12592.23
752.975	12599.68
753.313	12495.73
753.651	12487.14
753.989	12477.43
754.327	12472.23
754.666	12387.94
755.004	12502.51
755.342	12490.53
755.679	12415.28
756.017	12337.32
756.355	12350.88
756.693	12354.94
757.031	12335.51
757.368	12200.6
757.706	12187.04
758.044	12121.5
758.381	12175.29
758.719	12095.97
759.056	12157.43
759.394	12061.84
759.731	11987.95
760.068	12011.9
760.405	11889.42
760.743	11866.59
761.08	11916.99
761.417	11782.76
761.754	11757.67
762.091	11771.46
762.428	11729.88
762.765	11633.61
763.102	11712.7
763.438	11665.7
763.775	11573.27
764.112	11481.75
764.449	11566.94
764.785	11502.99
765.122	11408.98
765.458	11353.39
765.795	11385.7
766.131	11337.57
766.467	11231.81
766.804	11246.5
767.14	11268.64
767.476	11163.34
767.812	11135.54
768.148	11188.42
768.485	11037.69
768.821	10985.26
769.157	10985.71
769.492	10944.59
769.828	10943.68
770.164	10924.47
770.5	10873.17
770.836	10780.07
771.171	10801.99
771.507	10656.23
771.842	10609
772.178	10608.55
772.513	10692.39
772.849	10612.62
773.184	10525.39
773.519	10510.25
773.855	10502.56
774.19	10419.4
774.525	10368.1
774.86	10316.13
775.195	10294.88
775.53	10334.66
775.865	10223.7
776.2	10196.81
776.535	10088.34
776.87	10123.82
777.205	10060.99
777.539	10089.24
777.874	10041.11
778.209	9937.61
778.543	9912.75
778.878	9853.54
779.212	9839.3
779.547	9833.2
779.881	9777.16
780.215	9755.46
780.55	9746.88
780.884	9713.88
781.218	9608.8
781.552	9587.56
781.886	9553.21
782.22	9532.42
782.554	9513.44
782.888	9363.61
783.222	9365.64
783.556	9332.88
783.889	9317.96
784.223	9168.36
784.557	9257.17
784.89	9220.34
785.224	9190.05
785.557	9123.16
785.891	9129.72
786.224	9077.06
786.558	9070.06
786.891	8973.11
787.224	8931.98
787.557	8959.78
787.891	8943.28
788.224	8868.26
788.557	8865.32
788.89	8788.48
789.223	8788.03
789.556	8764.76
789.888	8724.08
790.221	8685.44
790.554	8587.58
790.887	8671.88
791.219	8593.91
791.552	8569.28
791.884	8549.85
792.217	8507.59
792.549	8390.53
792.882	8343.3
793.214	8366.35
793.546	8363.86
793.879	8273.69
794.211	8248.84
794.543	8206.58
794.875	8212.91
795.207	8226.92
795.539	8187.6
795.871	8135.62
796.203	8098.33
796.535	7976.75
796.867	8045
797.198	8035.51
797.53	7975.62
797.862	7962.06
798.193	7903.54
798.525	7867.38
798.856	7858.34
799.188	7726.59
799.519	7745.57
799.85	7769.3
800.182	7749.19
800.513	7714.16
800.844	7700.83
801.175	7707.16
801.506	7690.89
801.837	7599.14
802.168	7616.54
802.499	7592.58
802.83	7552.58
803.161	7463.55
803.491	7487.73
803.822	7531.57
804.153	7450.67
804.483	7352.82
804.814	7355.75
805.145	7320.95
805.475	7247.96
805.805	7294.74
806.136	7296.55
806.466	7280.27
806.796	7251.8
807.126	7240.28
807.457	7149.43
807.787	7191.24
808.117	7149.2
808.447	7118.25
808.777	7130.67
809.107	7069.88
809.436	7035.31
809.766	7003.22
810.096	7054.97
810.426	6967.51
810.755	6984.92
811.085	7007.74
811.414	6913.28
811.744	6826.95
812.073	6919.83
812.403	6886.84
812.732	6857.46
813.061	6804.13
813.39	6760.29
813.719	6777.69
814.049	6778.37
814.378	6682.32
814.707	6702.66
815.036	6679.39
815.365	6648.43
815.693	6567.75
816.022	6619.28
816.351	6583.34
816.68	6518.26
817.008	6519.39
817.337	6479.62
817.665	6488.21
817.994	6520.97
818.322	6500.63
818.651	6450.24
818.979	6410.69
819.307	6424.25
819.636	6415.21
819.964	6347.42
820.292	6391.03
820.62	6356.68
820.948	6343.35
821.276	6347.64
821.604	6318.94
821.932	6337.7
822.259	6363.46
822.587	6339.51
822.915	6307.64
823.243	6266.74
823.57	6334.99
823.898	6306.29
824.225	6289.79
824.553	6287.76
824.88	6239.4
825.207	6282.33
825.535	6276.46
825.862	6254.99
826.189	6223.35
826.516	6266.29
826.843	6275.1
827.17	6295.67
827.497	6310.36
827.824	6229.91
828.151	6274.88
828.478	6272.62
828.805	6257.02
829.131	6240.75
829.458	6198.5
829.785	6170.7
830.111	6220.42
830.438	6231.49
830.764	6179.96
831.09	6215.22
831.417	6145.16
831.743	6170.7
832.069	6155.56
832.395	6140.87
832.722	6144.71
833.048	6144.03
833.374	6113.3
833.7	6112.85
834.026	6070.81
834.351	6106.75
834.677	6079.85
835.003	6110.36
835.329	6093.64
835.654	6117.82
835.98	6033.98
836.306	6015.68
836.631	5999.63
836.956	6005.51
837.282	5994.21
837.607	5950.82
837.932	5997.6
838.258	6040.99
838.583	5991.95
838.908	5959.18
839.233	5960.31
839.558	5953.76
839.883	5913.98
840.208	5896.36
840.533	5910.59
840.858	5920.76
841.182	5854.1
841.507	5875.11
841.832	5856.36
842.156	5814.1
842.481	5809.35
842.805	5825.62
843.13	5764.61
843.454	5802.8
843.778	5752.18
844.103	5743.82
844.427	5680.32
844.751	5706.3
845.075	5680.77
845.399	5700.2
845.723	5660.2
846.047	5674.67
846.371	5614.33
846.695	5562.35
847.019	5528.23
847.343	5499.08
847.666	5462.92
847.99	5483.03
848.313	5430.83
848.637	5466.09
848.96	5390.15
849.284	5440.78
849.607	5398.74
849.931	5381.34
850.254	5338.18
850.577	5304.28
850.9	5270.84
851.223	5284.17
851.546	5250.72
851.869	5181.8
852.192	5208.46
852.515	5195.13
852.838	5155.36
853.161	5147
853.483	5122.37
853.806	5076.04
854.129	5118.3
854.451	5125.08
854.774	5050.05
855.096	5072.65
855.419	5040.56
855.741	5025.64
856.063	4988.36
856.385	4996.27
856.708	4951.97
857.03	4950.39
857.352	4935.7
857.674	4971.41
857.996	4913.78
858.318	4850.96
858.64	4874.01
858.961	4910.39
859.283	4850.51
859.605	4815.03
859.926	4849.6
860.248	4819.55
860.57	4772.09
860.891	4808.48
861.212	4727.57
861.534	4792.43
861.855	4723.05
862.176	4778.87
862.498	4731.87
862.819	4736.39
863.14	4697.74
863.461	4698.42
863.782	4669.04
864.103	4667.69
864.424	4684.86
864.745	4689.83
865.065	4643.28
865.386	4621.36
865.707	4624.98
866.027	4599.67
866.348	4613
866.668	4607.35
866.989	4575.26
867.309	4524.64
867.63	4598.54
867.95	4584.07
868.27	4573
868.59	4559.67
868.91	4522.61
869.23	4521.03
869.55	4518.09
869.87	4581.14
870.19	4467.69
870.51	4532.1
870.83	4479.22
871.15	4456.85
871.469	4524.87
871.789	4523.51
872.109	4475.6
872.428	4453.68
872.748	4481.7
873.067	4482.61
873.386	4460.01
873.706	4416.85
874.025	4404.19
874.344	4421.59
874.663	4386.79
874.982	4356.51
875.301	4440.35
875.62	4372.55
875.939	4367.58
876.258	4334.14
876.577	4368.94
876.896	4324.42
877.214	4308.38
877.533	4316.51
877.852	4306.34
878.17	4311.54
878.489	4289.84
878.807	4281.71
879.125	4314.93
879.444	4300.01
879.762	4243.52
880.08	4255.27
880.398	4267.7
880.716	4275.61
881.034	4220.92
881.352	4269.05
881.67	4263.4
881.988	4254.82
882.306	4238.09
882.624	4214.59
882.941	4173.01
883.259	4170.07
883.577	4180.92
883.894	4145.44
884.212	4092.34
884.529	4168.72
884.846	4092.34
885.164	4133.46
885.481	4106.35
885.798	4143.18
886.115	4097.53
886.432	4115.61
886.75	4028.38
887.067	4090.98
887.383	4054.14
887.7	4064.77
888.017	4038.55
888.334	4053.47
888.651	4020.47
888.967	3974.82
889.284	4022.51
889.6	4026.35
889.917	3968.5
890.233	3966.01
890.55	3966.92
890.866	3925.11
891.182	3894.83
891.498	3918.78
891.815	3926.24
892.131	3885.34
892.447	3907.03
892.763	3854.83
893.079	3852.12
893.395	3867.94
893.71	3814.83
894.026	3841.72
894.342	3838.33
894.657	3796.98
894.973	3796.3
895.289	3775.28
895.604	3816.18
895.92	3729.41
896.235	3744.1
896.55	3762.85
896.865	3791.78
897.181	3729.41
897.496	3716.07
897.811	3702.74
898.126	3667.26
898.441	3662.74
898.756	3669.97
899.071	3692.35
899.386	3675.17
899.7	3623.2
900.015	3598.11
900.33	3595.85
900.644	3593.59
900.959	3587.94
901.273	3579.58
901.588	3571.9
901.902	3507.72
902.216	3561.05
902.531	3556.53
902.845	3512.46
903.159	3536.87
903.473	3492.58
903.787	3486.7
904.101	3462.07
904.415	3467.49
904.729	3428.85
905.042	3425.01
905.356	3411.22
905.67	3405.12
905.984	3413.71
906.297	3356.31
906.611	3352.69
906.924	3391.56
907.237	3377.1
907.551	3360.38
907.864	3330.55
908.177	3355.63
908.491	3356.08
908.804	3295.29
909.117	3287.39
909.43	3270.21
909.743	3273.15
910.056	3232.92
910.368	3251
910.681	3236.77
910.994	3185.47
911.307	3201.29
911.619	3208.29
911.932	3192.92
912.244	3135.3
912.557	3194.51
912.869	3159.03
913.181	3143.43
913.494	3151.8
913.806	3092.14
914.118	3113.83
914.43	3083.55
914.742	3065.02
915.054	3090.55
915.366	3022.76
915.678	3051.01
915.99	3068.63
916.302	3037
916.613	3003.55
916.925	3004.68
917.236	3019.6
917.548	2970.33
917.859	2981.86
918.171	2974.63
918.482	2952.48
918.794	2911.58
919.105	2918.58
919.416	2913.84
919.727	2884.68
920.038	2897.79
920.349	2905.25
920.66	2864.35
920.971	2850.11
921.282	2857.11
921.593	2833.16
921.903	2804.01
922.214	2831.58
922.525	2815.99
922.835	2797.23
923.146	2787.74
923.456	2828.19
923.767	2733.95
924.077	2775.08
924.387	2747.06
924.697	2727.17
925.008	2714.07
925.318	2719.94
925.628	2694.63
925.938	2679.94
926.248	2639.04
926.558	2655.76
926.867	2631.13
927.177	2613.5
927.487	2616.67
927.796	2615.54
928.106	2624.13
928.416	2585.93
928.725	2601.3
929.034	2566.73
929.344	2579.16
929.653	2557.01
929.962	2549.33
930.271	2528.99
930.581	2538.48
930.89	2515.43
931.199	2526.05
931.508	2458.93
931.817	2484.69
932.125	2480.63
932.434	2486.5
932.743	2513.39
933.051	2462.55
933.36	2421.87
933.669	2414.64
933.977	2434.75
934.286	2412.61
934.594	2383.68
934.902	2404.92
935.21	2392.95
935.519	2392.72
935.827	2384.81
936.135	2384.36
936.443	2336
936.751	2386.39
937.059	2351.36
937.367	2344.59
937.674	2322.89
937.982	2297.35
938.29	2332.38
938.597	2310.69
938.905	2272.04
939.213	2284.47
939.52	2261.2
939.827	2285.38
940.135	2262.78
940.442	2256.68
940.749	2237.24
941.056	2209.67
941.363	2222.33
941.67	2223.46
941.977	2202.89
942.284	2178.71
942.591	2148.66
942.898	2194.98
943.205	2170.35
943.511	2190.24
943.818	2147.98
944.125	2116.79
944.431	2169.45
944.738	2148.21
945.044	2110.02
945.35	2138.49
945.657	2110.47
945.963	2096.91
946.269	2074.54
946.575	2083.12
946.881	2072.5
947.187	2070.69
947.493	2036.12
947.799	2019.85
948.105	2045.38
948.41	2017.14
948.716	2033.63
949.022	1997.7
949.327	2017.14
949.633	1990.02
949.938	2032.96
950.244	1983.01
950.549	1966.29
950.854	1967.42
951.16	1970.81
951.465	1935.33
951.77	1936.46
952.075	1924.48
952.38	1958.38
952.685	1921.55
952.99	1913.64
953.294	1924.94
953.599	1903.01
953.904	1905.5
954.209	1898.04
954.513	1897.82
954.818	1890.81
955.122	1856.46
955.426	1869.8
955.731	1865.28
956.035	1850.13
956.339	1843.58
956.643	1832.51
956.948	1860.76
957.252	1845.39
957.556	1872.73
957.86	1808.1
958.163	1813.75
958.467	1783.02
958.771	1790.25
959.075	1764.71
959.378	1805.39
959.682	1798.16
959.985	1767.88
960.289	1773.3
960.592	1774.2
960.896	1764.04
961.199	1748.22
961.502	1739.18
961.805	1698.73
962.108	1759.74
962.411	1734.66
962.714	1701.44
963.017	1713.19
963.32	1737.82
963.623	1667.77
963.926	1697.82
964.228	1672.96
964.531	1662.34
964.833	1677.48
965.136	1654.66
965.438	1653.3
965.741	1610.37
966.043	1642.46
966.345	1614.89
966.648	1639.97
966.95	1649.46
967.252	1611.05
967.554	1590.93
967.856	1617.6
968.158	1586.87
968.46	1579.63
968.761	1594.1
969.063	1587.09
969.365	1573.53
969.666	1584.83
969.968	1555.91
970.269	1564.27
970.571	1569.46
970.872	1538.05
971.174	1556.36
971.475	1547.77
971.776	1524.49
972.077	1535.57
972.378	1513.19
972.679	1521.1
972.98	1512.52
973.281	1519.52
973.582	1500.54
973.883	1516.81
974.183	1493.76
974.484	1501.9
974.785	1486.53
975.085	1455.57
975.386	1475
975.686	1492.4
975.986	1466.64
976.287	1456.25
976.587	1461.44
976.887	1440.88
977.187	1443.37
977.487	1415.12
977.787	1419.64
978.087	1427.55
978.387	1416.7
978.687	1434.78
978.987	1402.01
979.286	1427.77
979.586	1404.95
979.885	1402.24
980.185	1405.63
980.484	1374.44
980.784	1383.25
981.083	1381.9
981.382	1371.5
981.682	1357.27
981.981	1349.58
982.28	1347.55
982.579	1323.37
982.878	1347.32
983.177	1341
983.475	1328.57
983.774	1320.21
984.073	1289.92
984.372	1312.3
984.67	1310.94
984.969	1315.23
985.267	1290.38
985.566	1284.95
985.864	1299.41
986.162	1305.06
986.461	1270.49
986.759	1274.33
987.057	1273.2
987.355	1277.04
987.653	1254.67
987.951	1268.23
988.249	1246.99
988.547	1276.82
988.844	1264.84
989.142	1225.52
989.44	1231.39
989.737	1249.25
990.035	1208.57
990.332	1204.28
990.63	1221.45
990.927	1230.94
991.224	1208.12
991.521	1172.19
991.819	1177.38
992.116	1174.67
992.413	1194.78
992.71	1189.14
993.006	1206.54
993.303	1157.5
993.6	1201.34
993.897	1169.25
994.193	1158.4
994.49	1144.62
994.787	1147.1
995.083	1140.1
995.379	1131.74
995.676	1150.72
995.972	1122.24
996.268	1113.21
996.565	1142.58
996.861	1118.85
997.157	1130.83
997.453	1116.37
997.749	1101
998.044	1105.3
998.34	1087.9
998.636	1071.85
998.932	1109.82
999.227	1078.63
999.523	1070.72
999.818	1080.66
1000.114	1070.95
1000.409	1084.28
1000.704	1061
1001	1062.13
1001.295	1037.95
1001.59	1057.61
1001.885	1032.3
1002.18	1036.6
1002.475	1052.19
1002.77	1038.86
1003.065	1028.46
1003.359	1028.69
1003.654	1018.97
1003.949	1014.9
1004.243	1032.76
1004.538	1018.74
1004.832	972.42
1005.127	982.59
1005.421	997.28
1005.715	972.64
1006.009	974
1006.304	970.38
1006.598	966.99
1006.892	972.42
1007.186	967.67
1007.48	962.7
1007.773	961.8
1008.067	955.47
1008.361	952.98
1008.655	941.23
1008.948	954.34
1009.242	925.19
1009.535	927.22
1009.829	943.04
1010.122	928.58
1010.415	926.32
1010.708	896.94
1011.001	912.08
1011.295	901.01
1011.588	925.41
1011.881	879.99
1012.173	891.29
1012.466	902.36
1012.759	906.2
1013.052	885.87
1013.344	873.21
1013.637	863.95
1013.93	876.83
1014.222	885.87
1014.514	856.71
1014.807	846.55
1015.099	870.95
1015.391	841.57
1015.683	864.17
1015.976	825.53
1016.268	841.8
1016.56	855.13
1016.851	820.56
1017.143	829.6
1017.435	807.22
1017.727	822.82
1018.018	801.57
1018.31	833.66
1018.602	808.58
1018.893	790.73
1019.185	809.26
1019.476	788.47
1019.767	802.7
1020.058	809.03
1020.35	797.06
1020.641	792.08
1020.932	785.3
1021.223	793.44
1021.514	783.5
1021.804	755.7
1022.095	783.5
1022.386	750.73
1022.677	755.7
1022.967	753.21
1023.258	748.7
1023.548	730.62
1023.839	748.24
1024.129	741.92
1024.419	745.53
1024.709	749.82
1025	705.53
1025.29	715.7
1025.58	717.96
1025.87	696.94
1026.16	720.9
1026.449	708.7
1026.739	700.79
1027.029	708.24
1027.319	703.72
1027.608	700.79
1027.898	709.37
1028.187	682.93
1028.477	700.33
1028.766	695.14
1029.055	656.04
1029.344	672.31
1029.634	647.23
1029.923	656.27
1030.212	665.08
1030.501	663.73
1030.79	678.19
1031.078	655.36
1031.367	655.36
1031.656	650.62
1031.945	641.81
1032.233	641.58
1032.522	622.82
1032.81	624.18
1033.099	630.05
1033.387	631.64
1033.675	614.91
1033.963	619.43
1034.251	619.21
1034.54	624.4
1034.828	618.08
1035.116	603.39
1035.403	612.88
1035.691	606.78
1035.979	615.37
1036.267	617.85
1036.554	592.31
1036.842	597.51
1037.129	595.25
1037.417	576.27
1037.704	579.89
1037.992	591.41
1038.279	586.44
1038.566	555.48
1038.853	555.48
1039.14	555.48
