Data from brown_tile_FLMS001491_062.txt Node
Date: Tue Feb 07 10:37:49 GMT 2017
User: dcchb
Spectrometer: FLMS00149
Trigger mode: 0
Integration Time (sec): 2.000000E-2
Scans to average: 10
Electric dark correction enabled: true
Nonlinearity correction enabled: false
Boxcar width: 0
XAxis mode: Wavelengths
Number of Pixels in Spectrum: 2048
>>>>>Begin Spectral Data<<<<<
341.393	-15.42
341.776	-15.42
342.16	-15.42
342.543	-64.46
342.927	-58.13
343.31	-65.59
343.693	-77.34
344.077	-65.59
344.46	-72.6
344.843	-39.15
345.226	-43.9
345.61	-39.6
345.993	-45.03
346.376	-22.88
346.759	2.88
347.142	42.88
347.525	50.79
347.908	85.36
348.291	70.68
348.674	102.99
349.057	116.1
349.44	114.06
349.823	128.08
350.206	142.99
350.588	170.79
350.971	197.9
351.354	208.3
351.737	228.19
352.119	236.32
352.502	259.37
352.884	252.14
353.267	251.69
353.65	279.48
354.032	294.85
354.414	288.52
354.797	290.56
355.179	302.53
355.562	321.74
355.944	286.72
356.326	312.7
356.709	319.48
357.091	297.79
357.473	319.26
357.855	325.58
358.238	308.64
358.62	319.94
359.002	324.91
359.384	326.71
359.766	348.41
360.148	327.39
360.53	320.61
360.912	298.47
361.294	339.6
361.676	323.78
362.057	323.1
362.439	302.76
362.821	306.38
363.203	328.07
363.584	310.67
363.966	295.53
364.348	304.12
364.729	311.35
365.111	309.31
365.493	287.85
365.874	316.32
366.256	309.54
366.637	292.14
367.019	288.75
367.4	302.31
367.781	270.44
368.163	277.68
368.544	280.61
368.925	308.18
369.306	294.17
369.688	303.89
370.069	293.04
370.45	305.47
370.831	304.57
371.212	300.5
371.593	280.39
371.974	280.16
372.355	293.04
372.736	296.66
373.117	311.35
373.498	305.47
373.879	289.43
374.26	299.82
374.641	304.12
375.021	308.64
375.402	308.41
375.783	313.83
376.163	288.07
376.544	301.4
376.925	303.89
377.305	307.73
377.686	284.68
378.066	310.9
378.447	286.04
378.827	307.51
379.208	311.35
379.588	326.71
379.968	303.21
380.349	320.61
380.729	317.68
381.109	316.55
381.489	342.31
381.87	333.04
382.25	316.55
382.63	310.9
383.01	317.9
383.39	317.22
383.77	340.95
384.15	317.68
384.53	320.84
384.91	333.04
385.29	336.43
385.67	312.25
386.049	330.1
386.429	337.56
386.809	331.46
387.189	325.36
387.568	316.55
387.948	334.17
388.328	328.07
388.707	318.58
389.087	320.61
389.466	333.04
389.846	333.27
390.225	333.27
390.605	327.84
390.984	349.31
391.363	365.58
391.743	337.11
392.122	360.16
392.501	363.78
392.881	351.35
393.26	354.28
393.639	353.38
394.018	342.31
394.397	348.41
394.776	361.06
395.155	357.9
395.534	339.82
395.913	348.41
396.292	357.67
396.671	357.67
397.05	363.78
397.429	356.77
397.808	367.62
398.186	334.85
398.565	366.26
398.944	349.76
399.323	370.56
399.701	368.3
400.08	373.72
400.458	389.76
400.837	365.81
401.215	389.54
401.594	374.85
401.972	372.14
402.351	384.79
402.729	373.04
403.107	376.66
403.486	375.07
403.864	374.4
404.242	357.67
404.62	383.66
404.999	387.73
405.377	399.71
405.755	410.55
406.133	402.42
406.511	400.16
406.889	390.22
407.267	392.25
407.645	410.1
408.023	422.98
408.401	413.72
408.779	402.64
409.156	391.8
409.534	425.02
409.912	408.29
410.29	405.13
410.667	408.97
411.045	414.17
411.422	395.64
411.8	412.59
412.178	426.37
412.555	400.61
412.933	438.58
413.31	424.79
413.687	446.26
414.065	419.37
414.442	441.51
414.819	427.28
415.197	443.55
415.574	441.51
415.951	420.95
416.328	447.84
416.705	455.98
417.082	483.55
417.46	453.04
417.837	464.34
418.214	469.54
418.591	436.09
418.967	447.39
419.344	467.5
419.721	463.43
420.098	467.05
420.475	470.67
420.852	488.29
421.228	498.46
421.605	458.24
421.982	487.84
422.358	493.04
422.735	489.65
423.111	485.13
423.488	481.29
423.864	490.1
424.241	501.4
424.617	493.04
424.994	499.14
425.37	495.75
425.746	478.12
426.123	521.51
426.499	509.99
426.875	514.28
427.251	532.81
427.627	526.94
428.003	513.38
428.379	521.06
428.756	517.67
429.132	535.3
429.507	557.22
429.883	545.92
430.259	558.35
430.635	551.12
431.011	546.82
431.387	569.65
431.763	561.96
432.138	548.86
432.514	595.86
432.89	562.41
433.265	582.75
433.641	589.31
434.016	581.4
434.392	601.06
434.767	625.01
435.143	605.8
435.518	588.18
435.894	581.62
436.269	621.62
436.644	604.9
437.02	646.71
437.395	615.52
437.77	625.24
438.145	615.52
438.52	633.37
438.895	636.31
439.271	646.93
439.646	662.75
440.021	641.96
440.395	655.29
440.77	652.81
441.145	664.56
441.52	670.89
441.895	686.03
442.27	658.68
442.645	680.6
443.019	693.94
443.394	682.64
443.769	684.67
444.143	697.1
444.518	694.39
444.892	713.82
445.267	717.89
445.641	703.65
446.016	690.32
446.39	703.43
446.764	715.4
447.139	715.4
447.513	714.05
447.887	726.48
448.262	719.47
448.636	717.21
449.01	738.68
449.384	735.07
449.758	739.81
450.132	758.34
450.506	731.45
450.88	735.74
451.254	768.28
451.628	774.39
452.002	767.61
452.376	755.4
452.75	749.98
453.123	790.43
453.497	773.93
453.871	781.39
454.244	789.75
454.618	803.76
454.992	829.07
455.365	814.39
455.739	828.4
456.112	832.01
456.486	841.28
456.859	858
457.232	870.66
457.606	856.87
457.979	853.48
458.352	866.36
458.725	902.29
459.099	880.6
459.472	899.58
459.845	886.47
460.218	928.28
460.591	928.28
460.964	941.16
461.337	924.66
461.71	946.59
462.083	972.12
462.456	949.07
462.829	980.93
463.201	985.23
463.574	975.29
463.947	1005.57
464.32	1012.8
464.692	1009.18
465.065	1034.94
465.438	1029.07
465.81	1033.59
466.183	1041.05
466.555	1088.28
466.928	1053.93
467.3	1061.38
467.672	1086.02
468.045	1094.38
468.417	1111.33
468.789	1098.67
469.161	1123.3
469.534	1158.11
469.906	1194.94
470.278	1183.19
470.65	1151.78
471.022	1181.16
471.394	1180.7
471.766	1217.76
472.138	1220.25
472.51	1200.59
472.882	1267.48
473.253	1264.77
473.625	1293.69
473.997	1295.05
474.369	1310.64
474.74	1345.22
475.112	1336.18
475.484	1357.42
475.855	1381.83
476.227	1412.34
476.598	1456.63
476.97	1453.69
477.341	1424.76
477.713	1498.21
478.084	1524.2
478.455	1535.72
478.827	1533.69
479.198	1584.53
479.569	1592.67
479.94	1597.42
480.311	1622.05
480.682	1653.01
481.053	1677.41
481.424	1709.28
481.795	1748.82
482.166	1754.7
482.537	1759.9
482.908	1763.74
483.279	1798.09
483.65	1821.82
484.021	1841.93
484.391	1857.52
484.762	1912.21
485.133	1904.75
485.503	1945.66
485.874	1984.75
486.244	1989.27
486.615	2022.04
486.985	2043.28
487.356	2093.45
487.726	2094.13
488.097	2141.13
488.467	2144.75
488.837	2161.24
489.207	2212.54
489.578	2214.8
489.948	2265.87
490.318	2245.08
490.688	2264.97
491.058	2318.3
491.428	2339.54
491.798	2336.83
492.168	2402.37
492.538	2406.66
492.908	2429.48
493.278	2450.27
493.648	2495.02
494.017	2495.7
494.387	2544.74
494.757	2541.57
495.126	2513.78
495.496	2583.83
495.866	2597.84
496.235	2608.24
496.605	2639.87
496.974	2671.51
497.344	2702.47
497.713	2658.18
498.082	2685.52
498.452	2733.66
498.821	2747.67
499.19	2797.38
499.559	2801.45
499.928	2796.93
500.298	2794.67
500.667	2835.58
501.036	2836.71
501.405	2866.08
501.774	2886.65
502.143	2921
502.512	2925.74
502.88	2960.09
503.249	2988.57
503.618	2961.67
503.987	3015.46
504.356	3025.63
504.724	3025.63
505.093	3024.27
505.462	3069.69
505.83	3078.28
506.199	3113.31
506.567	3106.98
506.936	3175.23
507.304	3196.7
507.672	3189.69
508.041	3236.69
508.409	3238.95
508.777	3274.43
509.145	3264.72
509.514	3291.83
509.882	3301.33
510.25	3328.67
510.618	3368.22
510.986	3359.4
511.354	3378.84
511.722	3445.73
512.09	3483.69
512.458	3465.84
512.826	3532.51
513.193	3542.9
513.561	3510.81
513.929	3580.87
514.297	3576.57
514.664	3623.35
515.032	3661.77
515.4	3674.42
515.767	3702.67
516.135	3721.65
516.502	3732.73
516.869	3783.35
517.237	3812.95
517.604	3793.97
517.972	3888.65
518.339	3928.43
518.706	3863.57
519.073	3903.12
519.44	3941.76
519.808	3979.95
520.175	3981.08
520.542	4054.98
520.909	4028.54
521.276	4110.8
521.643	4104.24
522.009	4163.22
522.376	4210
522.743	4250
523.11	4262.2
523.477	4290.45
523.843	4314.86
524.21	4337.91
524.577	4381.98
524.943	4448.64
525.31	4436.21
525.676	4481.18
526.043	4505.36
526.409	4512.37
526.776	4555.98
527.142	4581.74
527.508	4678.69
527.874	4678.69
528.241	4741.06
528.607	4715.3
528.973	4836.88
529.339	4818.57
529.705	4874.17
530.071	4872.81
530.437	4881.17
530.803	4946.71
531.169	4996.2
531.535	4975.41
531.901	5028.06
532.267	5103.09
532.632	5115.29
532.998	5119.13
533.364	5117.55
533.73	5154.61
534.095	5221.5
534.461	5240.03
534.826	5266.7
535.192	5319.35
535.557	5332.46
535.923	5327.71
536.288	5363.42
536.653	5371.78
537.019	5426.02
537.384	5457.88
537.749	5519.8
538.114	5522.96
538.479	5495.84
538.845	5588.5
539.21	5572
539.575	5618.78
539.94	5671.88
540.305	5714.14
540.67	5716.4
541.034	5790.07
541.399	5778.1
541.764	5801.15
542.129	5784.65
542.494	5847.7
542.858	5886.12
543.223	5902.61
543.587	5953.69
543.952	5907.36
544.316	5992.55
544.681	6023.06
545.045	6077.98
545.41	6088.15
545.774	6149.39
546.138	6220.8
546.503	6204.75
546.867	6189.39
547.231	6310.29
547.595	6336.73
547.959	6338.31
548.324	6373.56
548.688	6465.08
549.052	6436.84
549.416	6538.08
549.779	6537.17
550.143	6576.27
550.507	6612.43
550.871	6615.59
551.235	6680.22
551.599	6785.3
551.962	6832.53
552.326	6821.69
552.689	6887.9
553.053	6897.84
553.417	6922.7
553.78	6990.49
554.143	7024.62
554.507	7110.04
554.87	7165.4
555.234	7288.57
555.597	7262.35
555.96	7350.26
556.323	7405.62
556.686	7405.62
557.05	7431.39
557.413	7592.29
557.776	7626.86
558.139	7702.79
558.502	7708.67
558.865	7724.03
559.228	7845.39
559.59	7920.19
559.953	7987.76
560.316	8058.71
560.679	8070.01
561.041	8138.03
561.404	8276.34
561.767	8343.45
562.129	8345.03
562.492	8520.4
562.854	8522.88
563.217	8518.36
563.579	8630.45
563.941	8739.37
564.304	8833.38
564.666	8863.21
565.028	8936.66
565.39	9034.06
565.753	9150.89
566.115	9166.26
566.477	9295.07
566.839	9399.7
567.201	9420.71
567.563	9487.83
567.925	9563.53
568.287	9674.49
568.648	9683.76
569.01	9888.5
569.372	9881.72
569.734	9902.73
570.095	10013.01
570.457	10106.57
570.819	10146.34
571.18	10180.92
571.542	10269.96
571.903	10413.46
572.265	10409.39
572.626	10585.2
572.987	10693
573.349	10653.9
573.71	10787.91
574.071	10873.1
574.432	10936.61
574.794	11020.67
575.155	11077.39
575.516	11119.65
575.877	11226.77
576.238	11269.7
576.599	11424.73
576.96	11416.82
577.32	11495.23
577.681	11602.35
578.042	11665.17
578.403	11744.72
578.763	11841.21
579.124	11911.04
579.485	11928.22
579.845	11952.85
580.206	11975.67
580.566	12097.25
580.927	12134.77
581.287	12210.47
581.648	12227.42
582.008	12397.36
582.368	12334.08
582.728	12474.87
583.089	12480.75
583.449	12544.92
583.809	12607.3
584.169	12665.37
584.529	12684.13
584.889	12777.91
585.249	12753.73
585.609	12763.68
585.969	12913.95
586.329	12874.41
586.688	13002.09
587.048	13037.57
587.408	13081.86
587.768	13072.37
588.127	13113.05
588.487	13147.39
588.846	13330.67
589.206	13138.58
589.565	13240.95
589.925	13374.28
590.284	13338.35
590.643	13413.83
591.003	13546.71
591.362	13599.13
591.721	13568.63
592.08	13595.07
592.44	13735.85
592.799	13642.07
593.158	13679.58
593.517	13736.76
593.876	13826.7
594.235	13819.47
594.593	13848.17
594.952	13947.6
595.311	13871.44
595.67	13954.83
596.029	14040.93
596.387	14114.15
596.746	14123.87
597.104	14159.57
597.463	14085.67
597.822	14178.55
598.18	14157.54
598.538	14234.15
598.897	14323.63
599.255	14211.77
599.613	14485.89
599.972	14406.57
600.33	14432.11
600.688	14395.95
601.046	14440.47
601.404	14531.76
601.762	14571.76
602.12	14681.14
602.478	14620.12
602.836	14785.09
603.194	14608.6
603.552	14750.97
603.91	14719.1
604.268	14764.08
604.625	14783.51
604.983	14846.11
605.341	14811.53
605.698	14950.28
606.056	15039.1
606.413	14960.45
606.771	15044.29
607.128	15094.46
607.485	14993.22
607.843	14997.52
608.2	15117.29
608.557	15259.88
608.914	15149.6
609.272	15247.9
609.629	15261.69
609.986	15303.95
610.343	15200.45
610.7	15448.8
611.057	15352.76
611.414	15371.29
611.771	15451.97
612.127	15424.4
612.484	15459.65
612.841	15502.13
613.198	15485.86
613.554	15578.97
613.911	15569.93
614.267	15589.14
614.624	15566.31
614.98	15701.23
615.337	15694.45
615.693	15705.75
616.05	15750.04
616.406	15747.1
616.762	15715.69
617.118	15786.87
617.475	15783.26
617.831	15821.45
618.187	15906.64
618.543	15903.48
618.899	15992.97
619.255	15960.43
619.611	15942.8
619.967	16047.88
620.323	16102.57
620.678	16087.88
621.034	15939.64
621.39	16044.95
621.746	16024.15
622.101	16137.82
622.457	16120.88
622.812	16131.04
623.168	16215.34
623.523	16216.92
623.879	16255.56
624.234	16167.2
624.589	16138.95
624.945	16204.26
625.3	16207.2
625.655	16180.08
626.01	16177.82
626.365	16217.14
626.72	16155.9
627.075	16253.3
627.43	16231.16
627.785	16122.01
628.14	16203.36
628.495	16290.36
628.85	16249.01
629.205	16207.88
629.559	16237.48
629.914	16151.84
630.269	16210.82
630.623	16240.42
630.978	16199.29
631.332	16158.61
631.687	16109.8
632.041	16189.8
632.396	16264.83
632.75	16160.87
633.104	16120.2
633.459	16036.36
633.813	16060.09
634.167	16063.93
634.521	16027.09
634.875	16128.11
635.229	16119.97
635.583	15983.93
635.937	16062.8
636.291	15958.17
636.645	16132.17
636.999	15977.15
637.352	16090.14
637.706	15889.92
638.06	16009.47
638.413	15937.15
638.767	15856.93
639.121	15912.29
639.474	15836.59
639.828	15938.28
640.181	15978.51
640.534	15917.04
640.888	15864.16
641.241	15783.94
641.594	15807.66
641.947	15835.46
642.301	15810.15
642.654	15853.54
643.007	15873.65
643.36	15818.74
643.713	15839.98
644.066	15899.86
644.419	15739.87
644.771	15610.83
645.124	15608.8
645.477	15566.77
645.83	15420.55
646.182	15378.97
646.535	15401.35
646.888	15290.16
647.24	15317.96
647.593	15423.94
647.945	15343.27
648.298	15306.43
648.65	15175.36
649.002	15212.2
649.355	15255.36
649.707	15240.22
650.059	15293.78
650.411	15584.17
650.763	15608.12
651.115	15755.69
651.467	15681.57
651.819	15668.01
652.171	15653.32
652.523	15602.02
652.875	15552.75
653.227	15436.15
653.578	15659.87
653.93	15641.57
654.282	15562.25
654.633	15562.47
654.985	15521.12
655.337	15547.33
655.688	15577.39
656.039	15585.52
656.391	15473.66
656.742	15493.55
657.094	15556.37
657.445	15571.96
657.796	15567.44
658.147	15566.99
658.498	15543.26
658.849	15648.12
659.2	15505.07
659.551	15550.72
659.902	15558.4
660.253	15481.8
660.604	15582.13
660.955	15485.64
661.306	15544.17
661.656	15519.54
662.007	15570.38
662.358	15620.32
662.708	15488.35
663.059	15576.26
663.409	15497.16
663.76	15608.57
664.11	15528.35
664.461	15622.13
664.811	15575.13
665.161	15524.06
665.511	15625.3
665.862	15603.15
666.212	15680.44
666.562	15624.84
666.912	15660.32
667.262	15578.29
667.612	15588.69
667.962	15621.68
668.312	15623.94
668.662	15673.43
669.011	15592.98
669.361	15671.4
669.711	15614
670.06	15670.04
670.41	15613.32
670.76	15621.91
671.109	15628.91
671.459	15592.53
671.808	15582.13
672.157	15726.54
672.507	15547.78
672.856	15720.66
673.205	15574.9
673.554	15675.69
673.904	15704.62
674.253	15749.36
674.602	15623.94
674.951	15469.59
675.3	15390.05
675.649	15573.77
675.998	15657.16
676.346	15658.29
676.695	15628.91
677.044	15522.93
677.393	15717.95
677.741	15670.49
678.09	15604.05
678.438	15640.21
678.787	15632.3
679.135	15701
679.484	15516.6
679.832	15601.12
680.181	15521.57
680.529	15604.05
680.877	15591.4
681.225	15562.7
681.573	15630.72
681.922	15614.67
682.27	15556.6
682.618	15528.35
682.966	15602.47
683.314	15606.09
683.661	15597.05
684.009	15510.5
684.357	15524.73
684.705	15480.89
685.053	15469.14
685.4	15475.92
685.748	15331.52
686.095	15470.5
686.443	15330.61
686.79	15387.56
687.138	15425.53
687.485	15427.11
687.832	15352.99
688.18	15305.76
688.527	15277.73
688.874	15319.99
689.221	15265.76
689.568	15300.33
689.915	15242.48
690.262	15165.65
690.609	15195.7
690.956	15174.23
691.303	15146.89
691.65	15067.12
691.997	15154.57
692.344	15037.97
692.69	14992.54
693.037	15062.82
693.383	14912.55
693.73	14998.65
694.077	14865.54
694.423	14949.38
694.769	14903.51
695.116	14865.09
695.462	14808.59
695.808	14760.01
696.155	14932.43
696.501	14742.38
696.847	14765.66
697.193	14676.85
697.539	14724.98
697.885	14536.06
698.231	14585.32
698.577	14621.25
698.923	14598.43
699.269	14551.88
699.614	14544.19
699.96	14505.55
700.306	14446.34
700.651	14382.16
700.997	14413.12
701.342	14330.41
701.688	14476.85
702.033	14342.62
702.379	14355.27
702.724	14279.12
703.069	14371.99
703.415	14261.72
703.76	14229.4
704.105	14252.68
704.45	14219.68
704.795	14090.87
705.14	14108.5
705.485	14083.87
705.83	14109.4
706.175	14109.4
706.52	14021.5
706.865	14043.64
707.209	14053.81
707.554	14020.37
707.899	14010.42
708.243	13903.76
708.588	13956.19
708.932	13860.82
709.277	13909.18
709.621	13937.88
709.966	13781.95
710.31	13784.44
710.654	13621.51
710.998	13763.88
711.342	13830.77
711.687	13729.07
712.031	13732.24
712.375	13608.63
712.719	13790.54
713.063	13698.11
713.407	13737.66
713.75	13646.36
714.094	13678.91
714.438	13539.02
714.782	13665.35
715.125	13561.17
715.469	13603.2
715.812	13572.69
716.156	13518.01
716.499	13512.13
716.843	13503.09
717.186	13484.79
717.53	13468.52
717.873	13519.36
718.216	13475.97
718.559	13410.89
718.902	13377.22
719.246	13364.34
719.589	13381.51
719.932	13365.47
720.275	13364.34
720.617	13344.68
720.96	13335.19
721.303	13374.73
721.646	13287.73
721.989	13304.9
722.331	13305.13
722.674	13370.89
723.016	13338.58
723.359	13269.43
723.701	13275.07
724.044	13278.69
724.386	13156.89
724.729	13194.62
725.071	13237.11
725.413	13211.57
725.755	13289.09
726.097	13129.54
726.439	13178.81
726.782	13180.39
727.124	13216.09
727.465	13110.79
727.807	13133.38
728.149	13073.05
728.491	13007.29
728.833	13094.97
729.175	13067.85
729.516	12948.08
729.858	12974.29
730.199	12996.89
730.541	12935.2
730.882	12946.72
731.224	13007.29
731.565	12795.09
731.906	12897.91
732.248	12958.02
732.589	12948.98
732.93	12850
733.271	12913.73
733.612	12859.04
733.953	12913.05
734.294	12917.12
734.635	12771.59
734.976	12874.63
735.317	12856.78
735.658	12758.93
735.999	12799.83
736.339	12806.61
736.68	12794.18
737.021	12771.36
737.361	12661.98
737.702	12841.41
738.042	12749.89
738.383	12757.8
738.723	12790.34
739.063	12697.69
739.404	12693.62
739.744	12707.18
740.084	12620.18
740.424	12647.07
740.764	12610.91
741.104	12701.76
741.444	12510.8
741.784	12500.86
742.124	12583.12
742.464	12546.28
742.804	12617.01
743.143	12525.04
743.483	12438.49
743.823	12449.11
744.162	12403.91
744.502	12454.98
744.841	12370.47
745.181	12430.8
745.52	12309.68
745.86	12348.77
746.199	12314.42
746.538	12306.96
746.877	12335.21
747.216	12323.46
747.556	12265.38
747.895	12235.78
748.234	12230.81
748.573	12243.69
748.911	12197.59
749.25	12260.86
749.589	12201.66
749.928	12158.72
750.267	12167.53
750.605	12137.93
750.944	12050.25
751.283	12027.2
751.621	12119.17
751.96	11987.42
752.298	12044.6
752.636	11981.55
752.975	11906.98
753.313	11921.66
753.651	11967.99
753.989	11890.48
754.327	11872.4
754.666	11841.67
755.004	11802.8
755.342	11831.72
755.679	11687.09
756.017	11706.53
756.355	11689.13
756.693	11701.78
757.031	11695.23
757.368	11576.36
757.706	11519.64
758.044	11548.79
758.381	11580.88
758.719	11460.89
759.056	11465.4
759.394	11431.28
759.731	11362.36
760.068	11346.99
760.405	11309.7
760.743	11298.86
761.08	11308.35
761.417	11232.19
761.754	11165.53
762.091	11127.79
762.428	11151.06
762.765	11070.16
763.102	11088.24
763.438	10996.04
763.775	10983.16
764.112	10964.63
764.449	10973.44
764.785	10932.54
765.122	10831.07
765.458	10812.54
765.795	10815.7
766.131	10828.36
766.467	10731.86
766.804	10690.96
767.14	10597.4
767.476	10573
767.812	10569.38
768.148	10533.9
768.485	10490.06
768.821	10400.57
769.157	10436.96
769.492	10382.04
769.828	10407.35
770.164	10239.45
770.5	10265.89
770.836	10298.2
771.171	10141.15
771.507	10138.43
771.842	10112.45
772.178	10088.04
772.513	10077.87
772.849	10003.07
773.184	9957.65
773.519	9976.4
773.855	9953.58
774.19	9877.88
774.525	9879.23
774.86	9831.1
775.195	9820.93
775.53	9704.1
775.865	9719.46
776.2	9643.08
776.535	9594.27
776.87	9606.7
777.205	9600.37
777.539	9564.21
777.874	9576.87
778.209	9457.77
778.543	9421.16
778.878	9340.49
779.212	9323.31
779.547	9266.14
779.881	9298.91
780.215	9296.65
780.55	9295.52
780.884	9117.9
781.218	9208.74
781.552	9150.44
781.886	9069.76
782.22	9042.19
782.554	8972.14
782.888	8879.71
783.222	8868.64
783.556	8847.17
783.889	8818.02
784.223	8774.4
784.557	8767.17
784.89	8740.5
785.224	8714.52
785.557	8643.33
785.891	8584.12
786.224	8587.97
786.558	8527.18
786.891	8496.22
787.224	8441.98
787.557	8447.86
787.891	8449.21
788.224	8346.39
788.557	8449.44
788.89	8362.89
789.223	8344.13
789.556	8251.48
789.888	8231.14
790.221	8112.27
790.554	8153.18
790.887	8153.85
791.219	8124.93
791.552	8102.78
791.884	8009.9
792.217	8039.96
792.549	8024.59
792.882	7957.93
793.214	7840.42
793.546	7895.1
793.879	7891.04
794.211	7828.89
794.543	7875.22
794.875	7798.16
795.207	7797.03
795.539	7750.7
795.871	7754.32
796.203	7627.99
796.535	7683.58
796.867	7614.43
797.198	7567.2
797.53	7588.67
797.862	7532.85
798.193	7553.87
798.525	7504.6
798.856	7530.14
799.188	7346.19
799.519	7368.11
799.85	7303.03
800.182	7328.34
800.513	7366.53
800.844	7237.27
801.175	7293.54
801.506	7226.42
801.837	7235.23
802.168	7183.94
802.499	7182.58
802.83	7119.76
803.161	7145.74
803.491	7040.44
803.822	7153.2
804.153	7057.84
804.483	6980.55
804.814	6982.13
805.145	6945.75
805.475	6941.23
805.805	6925.19
806.136	6933.77
806.466	6894.23
806.796	6914.79
807.126	6869.37
807.457	6762.7
807.787	6856.26
808.117	6769.48
808.447	6760.22
808.777	6730.84
809.107	6775.81
809.436	6652.88
809.766	6684.29
810.096	6675.93
810.426	6643.38
810.755	6603.61
811.085	6639.09
811.414	6512.77
811.744	6531.75
812.073	6507.34
812.403	6543.27
812.732	6439.32
813.061	6434.35
813.39	6440
813.719	6396.84
814.049	6466.44
814.378	6378.53
814.707	6335.82
815.036	6302.6
815.365	6307.8
815.693	6255.6
816.022	6318.87
816.351	6294.24
816.68	6186.45
817.008	6201.14
817.337	6163.62
817.665	6189.84
817.994	6184.19
818.322	6163.4
818.651	6124.3
818.979	6113.91
819.307	6119.1
819.636	6082.04
819.964	6082.5
820.292	6093.34
820.62	6084.3
820.948	6030.29
821.276	6120.23
821.604	6047.47
821.932	6067.35
822.259	6019.67
822.587	6074.81
822.915	6017.86
823.243	6016.73
823.57	6022.61
823.898	5985.1
824.225	6026.9
824.553	6000.92
824.88	5957.3
825.207	5964.53
825.535	5980.8
825.862	5969.73
826.189	5939.67
826.516	5949.39
826.843	6015.15
827.17	5979.45
827.497	5964.31
827.824	5968.83
828.151	5929.28
828.478	5945.55
828.805	5974.93
829.131	5937.19
829.458	5890.41
829.785	5945.1
830.111	5917.08
830.438	5977.19
830.764	5899
831.09	5896.74
831.417	5880.92
831.743	5923.18
832.069	5888.15
832.395	5828.26
832.722	5859.22
833.048	5877.76
833.374	5870.75
833.7	5804.54
834.026	5857.87
834.351	5822.84
834.677	5841.82
835.003	5815.84
835.329	5850.86
835.654	5788.72
835.98	5807.7
836.306	5761.15
836.631	5805.67
836.956	5766.35
837.282	5769.28
837.607	5721.15
837.932	5700.36
838.258	5694.94
838.583	5703.07
838.908	5655.39
839.233	5645.67
839.558	5658.1
839.883	5607.93
840.208	5580.59
840.533	5649.74
840.858	5575.16
841.182	5575.16
841.507	5602.73
841.832	5572.68
842.156	5573.36
842.481	5531.78
842.805	5538.33
843.13	5490.65
843.454	5486.8
843.778	5450.2
844.103	5475.96
844.427	5465.79
844.751	5464.88
845.075	5448.16
845.399	5410.42
845.723	5410.2
846.047	5409.07
846.371	5394.83
846.695	5326.81
847.019	5309.86
847.343	5259.24
847.666	5254.49
847.99	5206.59
848.313	5235.29
848.637	5233.48
848.96	5195.29
849.284	5137.66
849.607	5141.28
849.931	5112.35
850.254	5065.35
850.577	5091.79
850.9	5007.04
851.223	5040.71
851.546	5030.32
851.869	4988.74
852.192	4980.15
852.515	4920.04
852.838	4956.42
853.161	4911
853.483	4899.25
853.806	4823.32
854.129	4882.53
854.451	4818.57
854.774	4801.4
855.096	4830.55
855.419	4823.09
855.741	4782.64
856.063	4762.98
856.385	4731.8
856.708	4717.33
857.03	4708.97
857.352	4711.01
857.674	4726.15
857.996	4668.97
858.318	4656.09
858.64	4628.3
858.961	4613.16
859.283	4637.34
859.605	4612.93
859.926	4630.33
860.248	4552.82
860.57	4564.57
860.891	4599.6
861.212	4527.06
861.534	4546.26
861.855	4492.48
862.176	4518.47
862.498	4484.12
862.819	4546.26
863.14	4494.74
863.461	4435.31
863.782	4482.99
864.103	4459.94
864.424	4432.6
864.745	4460.84
865.065	4420.17
865.386	4399.83
865.707	4441.86
866.027	4429.66
866.348	4388.08
866.668	4420.84
866.989	4338.13
867.309	4343.56
867.63	4345.82
867.95	4298.36
868.27	4304.24
868.59	4321.19
868.91	4320.06
869.23	4291.13
869.55	4324.35
869.87	4344.91
870.19	4299.04
870.51	4328.64
870.83	4264.46
871.15	4263.11
871.469	4268.98
871.789	4267.18
872.109	4267.18
872.428	4222.66
872.748	4232.83
873.067	4251.36
873.386	4245.93
873.706	4199.16
874.025	4247.97
874.344	4207.74
874.663	4187.18
874.982	4188.08
875.301	4170.46
875.62	4195.99
875.939	4102.21
876.258	4152.83
876.577	4149.66
876.896	4125.71
877.214	4119.16
877.533	4155.31
877.852	4089.1
878.17	4128.2
878.489	4137.46
878.807	4089.55
879.125	4100.85
879.444	4044.13
879.762	4083.23
880.08	4072.38
880.398	4023.79
880.716	4045.49
881.034	4020.63
881.352	4058.14
881.67	4064.47
881.988	4002.1
882.306	4001.65
882.624	4025.6
882.941	3972.04
883.259	3960.74
883.577	3966.84
883.894	3967.52
884.212	3952.38
884.529	3948.31
884.846	3914.64
885.164	3936.34
885.481	3862.89
885.798	3981.08
886.115	3906.73
886.432	3909.45
886.75	3899.28
887.067	3873.06
887.383	3851.37
887.7	3866.96
888.017	3796.91
888.334	3871.25
888.651	3822.44
888.967	3821.99
889.284	3824.25
889.6	3798.94
889.917	3767.08
890.233	3778.38
890.55	3782.67
890.866	3762.78
891.182	3716.46
891.498	3729.79
891.815	3756
892.131	3714.2
892.447	3721.65
892.763	3718.04
893.079	3691.15
893.395	3676.46
893.71	3661.99
894.026	3640.07
894.342	3676.23
894.657	3612.96
894.973	3627.42
895.289	3600.53
895.604	3602.56
895.92	3574.99
896.235	3569.34
896.55	3577.02
896.865	3534.77
897.181	3592.17
897.496	3547.65
897.811	3574.09
898.126	3533.18
898.441	3496.12
898.756	3448.21
899.071	3484.37
899.386	3503.81
899.7	3478.95
900.015	3464.94
900.33	3401.66
900.644	3440.53
900.959	3431.94
901.273	3422.68
901.588	3402.34
901.902	3397.59
902.216	3356.24
902.531	3388.55
902.845	3384.49
903.159	3337.03
903.473	3332.74
903.787	3334.32
904.101	3287.99
904.415	3285.51
904.729	3270.14
905.042	3266.75
905.356	3291.83
905.67	3267.2
905.984	3268.78
906.297	3257.94
906.611	3205.96
906.924	3196.47
907.237	3210.48
907.551	3232.17
907.864	3186.07
908.177	3188.56
908.491	3138.84
908.804	3187.43
909.117	3132.29
909.43	3091.84
909.743	3139.07
910.056	3090.94
910.368	3096.81
910.681	3079.86
910.994	3071.5
911.307	3059.3
911.619	3026.98
911.932	3012.52
912.244	3007.55
912.557	3009.13
912.869	2978.4
913.181	2996.25
913.494	2988.79
913.806	2963.26
914.118	3004.38
914.43	2932.07
914.742	2956.02
915.054	2911.05
915.366	2949.47
915.678	2912.64
915.99	2926.87
916.302	2882.81
916.613	2875.57
916.925	2873.09
917.236	2831.28
917.548	2847.55
917.859	2805.07
918.171	2816.37
918.482	2801
918.794	2765.97
919.105	2796.71
919.416	2813.43
919.727	2751.06
920.038	2758.52
920.349	2737.72
920.66	2736.59
920.971	2736.82
921.282	2723.04
921.593	2694.34
921.903	2686.43
922.214	2673.77
922.525	2674
922.835	2659.99
923.146	2684.17
923.456	2674.45
923.767	2639.2
924.077	2604.39
924.387	2605.3
924.697	2587.9
925.008	2588.12
925.318	2615.24
925.628	2577.5
925.938	2563.49
926.248	2532.76
926.558	2545.64
926.867	2513.78
927.177	2526.43
927.487	2515.36
927.796	2493.66
928.106	2496.6
928.416	2503.83
928.725	2471.29
929.034	2514.45
929.344	2453.89
929.653	2474
929.962	2467.9
930.271	2443.5
930.581	2426.77
930.89	2398.07
931.199	2389.26
931.508	2392.2
931.817	2383.84
932.125	2394.23
932.434	2372.54
932.743	2365.08
933.051	2375.02
933.36	2344.74
933.669	2330.5
933.977	2316.04
934.286	2325.08
934.594	2334.35
934.902	2289.37
935.21	2298.19
935.519	2243.95
935.827	2244.4
936.135	2251.18
936.443	2241.01
936.751	2278.08
937.059	2250.96
937.367	2234.01
937.674	2231.3
937.982	2231.07
938.29	2189.72
938.597	2218.19
938.905	2187.68
939.213	2195.14
939.52	2185.65
939.827	2179.32
940.135	2181.13
940.442	2151.3
940.749	2154.01
941.056	2127.35
941.363	2135.93
941.67	2127.57
941.977	2106.55
942.284	2087.8
942.591	2108.81
942.898	2071.08
943.205	2032.43
943.511	2059.1
943.818	2050.51
944.125	2003.05
944.431	2053.22
944.738	2056.16
945.044	2053.9
945.35	2033.11
945.657	2002.38
945.963	2009.61
946.269	2003.73
946.575	1993.56
946.881	1988.82
947.187	2000.57
947.493	1986.11
947.799	1978.42
948.105	1984.3
948.41	1965.99
948.716	1975.26
949.022	1925.32
949.327	1967.8
949.633	1907.69
949.938	1927.58
950.244	1932.32
950.549	1905.88
950.854	1877.18
951.16	1876.28
951.465	1880.57
951.77	1886.45
952.075	1874.7
952.38	1878.09
952.685	1850.52
952.99	1842.38
953.294	1851.65
953.599	1796.73
953.904	1824.3
954.209	1827.69
954.513	1801.7
954.818	1831.99
955.122	1801.48
955.426	1799.44
955.731	1786.11
956.035	1787.24
956.339	1773.46
956.643	1742.5
956.948	1746.34
957.252	1757.41
957.556	1758.99
957.86	1756.96
958.163	1742.95
958.467	1752.67
958.771	1705.21
959.075	1699.79
959.378	1723.29
959.682	1721.93
959.985	1668.6
960.289	1694.59
960.592	1705.89
960.896	1693.68
961.199	1689.62
961.502	1654.36
961.805	1653.46
962.108	1620.01
962.411	1640.58
962.714	1623.86
963.017	1638.32
963.32	1628.83
963.623	1597.64
963.926	1635.61
964.228	1632.44
964.531	1613.91
964.833	1601.48
965.136	1610.07
965.438	1626.57
965.741	1585.89
966.043	1564.87
966.345	1582.05
966.648	1560.81
966.95	1527.59
967.252	1563.29
967.554	1559.22
967.856	1542.28
968.158	1542.28
968.46	1502.95
968.761	1533.69
969.063	1515.84
969.365	1532.56
969.666	1496.85
969.968	1513.8
970.269	1512.45
970.571	1475.38
970.872	1483.07
971.174	1463.63
971.475	1458.89
971.776	1462.05
972.077	1474.93
972.378	1448.49
972.679	1471.32
972.98	1453.01
973.281	1450.75
973.582	1448.04
973.883	1462.05
974.183	1462.5
974.484	1420.02
974.785	1415.05
975.085	1412.34
975.386	1440.58
975.686	1405.56
975.986	1391.09
976.287	1417.31
976.587	1401.49
976.887	1382.96
977.187	1399.68
977.487	1379.57
977.787	1382.28
978.087	1378.89
978.387	1353.58
978.687	1348.38
978.987	1367.37
979.286	1336.41
979.586	1318.33
979.885	1318.1
980.185	1299.34
980.484	1340.25
980.784	1341.6
981.083	1304.09
981.382	1285.11
981.682	1319
981.981	1302.06
982.28	1300.93
982.579	1287.37
982.878	1294.37
983.177	1315.84
983.475	1287.37
983.774	1281.49
984.073	1288.5
984.372	1259.12
984.67	1262.51
984.969	1252.79
985.267	1270.64
985.566	1235.62
985.864	1245.33
986.162	1214.37
986.461	1228.61
986.759	1240.36
987.057	1242.85
987.355	1241.27
987.653	1233.36
987.951	1219.12
988.249	1218.22
988.547	1194.49
988.844	1187.48
989.142	1186.13
989.44	1203.75
989.737	1181.16
990.035	1177.99
990.332	1177.31
990.63	1152.91
990.927	1183.19
991.224	1165.79
991.521	1152.23
991.819	1145.22
992.116	1180.48
992.413	1134.83
992.71	1133.92
993.006	1151.1
993.303	1146.81
993.6	1132.34
993.897	1112.46
994.193	1096.41
994.49	1122.63
994.787	1091.21
995.083	1088.95
995.379	1091.67
995.676	1082.63
995.972	1059.8
996.268	1102.51
996.565	1081.27
996.861	1085.56
997.157	1087.82
997.453	1057.09
997.749	1077.43
998.044	1038.11
998.34	1090.31
998.636	1043.08
998.932	1068.39
999.227	1041.95
999.523	1049.63
999.818	1040.37
1000.114	1040.37
1000.409	1020.93
1000.704	1005.57
1001	1025
1001.295	1008.96
1001.59	1017.32
1001.885	1007.37
1002.18	1010.76
1002.475	1019.58
1002.77	991.33
1003.065	978.67
1003.359	997.66
1003.654	982.06
1003.949	965.34
1004.243	955.62
1004.538	969.64
1004.832	965.79
1005.127	958.79
1005.421	968.73
1005.715	967.83
1006.009	954.95
1006.304	963.76
1006.598	948.62
1006.892	959.01
1007.186	934.38
1007.48	933.93
1007.773	924.21
1008.067	925.79
1008.361	923.54
1008.655	902.29
1008.948	901.39
1009.242	898
1009.535	895.06
1009.829	910.2
1010.122	889.41
1010.415	884.44
1010.708	895.06
1011.001	881.73
1011.295	875.63
1011.588	872.91
1011.881	856.64
1012.173	837.89
1012.466	852.8
1012.759	845.35
1013.052	847.38
1013.344	825.91
1013.637	867.49
1013.93	827.04
1014.222	831.79
1014.514	824.55
1014.807	834.95
1015.099	826.59
1015.391	833.14
1015.683	825.68
1015.976	827.72
1016.268	805.8
1016.56	816.87
1016.851	794.5
1017.143	818
1017.435	791.56
1017.727	783.2
1018.018	791.56
1018.31	789.53
1018.602	796.76
1018.893	778.23
1019.185	777.1
1019.476	762.64
1019.767	774.61
1020.058	749.08
1020.35	749.08
1020.641	763.99
1020.932	749.08
1021.223	735.29
1021.514	731.68
1021.804	707.95
1022.095	746.59
1022.386	742.52
1022.677	729.42
1022.967	711.79
1023.258	723.09
1023.548	745.91
1023.839	724.22
1024.129	698
1024.419	731.68
1024.709	723.54
1025	685.35
1025.29	705.01
1025.58	690.55
1025.87	707.27
1026.16	699.81
1026.449	694.39
1026.739	702.98
1027.029	670.66
1027.319	653.26
1027.608	669.76
1027.898	669.76
1028.187	662.75
1028.477	678.57
1028.766	645.12
1029.055	633.6
1029.344	637.89
1029.634	676.76
1029.923	643.99
1030.212	646.25
1030.501	644.45
1030.79	629.98
1031.078	622.3
1031.367	633.37
1031.656	654.16
1031.945	651.45
1032.233	621.4
1032.522	605.58
1032.81	608.74
1033.099	626.37
1033.387	612.81
1033.675	599.02
1033.963	600.61
1034.251	587.72
1034.54	613.49
1034.828	602.41
1035.116	606.48
1035.403	598.8
1035.691	597.67
1035.979	602.64
1036.267	591.79
1036.554	564
1036.842	579.36
1037.129	578.23
1037.417	581.4
1037.704	582.08
1037.992	550.44
1038.279	577.56
1038.566	595.63
1038.853	595.63
1039.14	595.63
