Data from brown_tile_FLMS001491_026.txt Node
Date: Tue Feb 07 10:37:17 GMT 2017
User: dcchb
Spectrometer: FLMS00149
Trigger mode: 0
Integration Time (sec): 2.000000E-2
Scans to average: 10
Electric dark correction enabled: true
Nonlinearity correction enabled: false
Boxcar width: 0
XAxis mode: Wavelengths
Number of Pixels in Spectrum: 2048
>>>>>Begin Spectral Data<<<<<
341.393	-3.7
341.776	-3.7
342.16	-3.7
342.543	-68.56
342.927	-70.37
343.31	-77.6
343.693	-75.79
344.077	-64.26
344.46	-53.19
344.843	-69.01
345.226	-41.67
345.61	-47.99
345.993	-29.01
346.376	-3.47
346.759	25.68
347.142	38.56
347.525	53.02
347.908	65.45
348.291	79.46
348.674	91.21
349.057	108.61
349.44	130.31
349.823	132.57
350.206	136.63
350.588	183.87
350.971	186.58
351.354	217.31
351.737	228.38
352.119	220.7
352.502	253.47
352.884	264.99
353.267	256.41
353.65	273.13
354.032	285.11
354.414	284.65
354.797	290.53
355.179	293.47
355.562	292.34
355.944	296.18
356.326	302.05
356.709	309.51
357.091	320.81
357.473	340.25
357.855	318.1
358.238	329.4
358.62	334.14
359.002	328.49
359.384	324.88
359.766	332.56
360.148	318.55
360.53	310.87
360.912	308.83
361.294	316.97
361.676	297.99
362.057	317.65
362.439	296.86
362.821	311.32
363.203	311.32
363.584	304.99
363.966	316.97
364.348	289.17
364.729	281.72
365.111	285.33
365.493	284.65
365.874	311.77
366.256	283.52
366.637	313.81
367.019	296.86
367.4	285.78
367.781	308.38
368.163	327.59
368.544	320.13
368.925	297.99
369.306	283.75
369.688	291.88
370.069	299.12
370.45	297.76
370.831	287.37
371.212	306.35
371.593	302.05
371.974	306.57
372.355	317.65
372.736	304.31
373.117	293.24
373.498	287.14
373.879	281.26
374.26	293.69
374.641	291.66
375.021	304.99
375.402	321.94
375.783	309.74
376.163	297.53
376.544	307.48
376.925	322.39
377.305	302.05
377.686	309.74
378.066	317.2
378.447	302.28
378.827	312
379.208	314.26
379.588	312.9
379.968	304.99
380.349	289.17
380.729	313.81
381.109	302.51
381.489	327.59
381.87	328.95
382.25	299.79
382.63	330.98
383.01	318.32
383.39	335.27
383.77	313.13
384.15	307.93
384.53	327.14
384.91	297.53
385.29	326.91
385.67	307.48
386.049	331.43
386.429	327.59
386.809	337.53
387.189	348.61
387.568	349.28
387.948	328.95
388.328	328.49
388.707	336.18
389.087	353.13
389.466	331.66
389.846	324.2
390.225	344.31
390.605	331.88
390.984	343.86
391.363	361.94
391.743	320.81
392.122	334.82
392.501	353.58
392.881	363.52
393.26	341.15
393.639	333.69
394.018	335.27
394.397	357.19
394.776	353.8
395.155	365.1
395.534	379.34
395.913	351.77
396.292	360.36
396.671	371.88
397.05	388.38
397.429	361.04
397.808	363.97
398.186	370.53
398.565	374.59
398.944	380.02
399.323	362.39
399.701	352.22
400.08	378.21
400.458	351.32
400.837	372.33
401.215	375.95
401.594	359
401.972	392
402.351	387.25
402.729	388.61
403.107	388.61
403.486	387.02
403.864	386.12
404.242	377.31
404.62	385.89
404.999	422.05
405.377	374.82
405.755	375.95
406.133	386.35
406.511	384.99
406.889	423.63
407.267	384.99
407.645	387.02
408.023	403.52
408.401	388.83
408.779	404.42
409.156	415.27
409.534	398.77
409.912	412.79
410.29	425.21
410.667	407.81
411.045	402.16
411.422	400.81
411.8	418.44
412.178	435.61
412.555	430.41
412.933	422.05
413.31	422.95
413.687	442.84
414.065	438.1
414.442	432.67
414.819	441.03
415.197	468.6
415.574	438.55
415.951	453.24
416.328	454.59
416.705	431.09
417.082	450.07
417.46	450.75
417.837	457.53
418.214	453.24
418.591	432.22
418.967	459.79
419.344	442.84
419.721	473.35
420.098	484.87
420.475	488.26
420.852	480.81
421.228	469.28
421.605	472.9
421.982	487.59
422.358	497.08
422.735	490.75
423.111	490.52
423.488	488.94
423.864	490.52
424.241	502.27
424.617	511.31
424.994	496.17
425.37	499.56
425.746	488.49
426.123	516.51
426.499	492.78
426.875	487.36
427.251	507.25
427.627	507.7
428.003	520.81
428.379	514.25
428.756	539.56
429.132	544.53
429.507	537.3
429.883	544.76
430.259	558.77
430.635	540.92
431.011	543.18
431.387	547.7
431.763	569.62
432.138	566.68
432.514	569.62
432.89	596.06
433.265	591.99
433.641	582.72
434.016	596.51
434.392	596.28
434.767	589.96
435.143	596.51
435.518	597.87
435.894	605.32
436.269	583.18
436.644	603.29
437.02	636.28
437.395	633.12
437.77	623.4
438.145	622.27
438.52	638.09
438.895	617.53
439.271	624.98
439.646	643.51
440.021	643.51
440.395	638.77
440.77	630.41
441.145	647.58
441.52	644.64
441.895	671.76
442.27	645.1
442.645	648.49
443.019	668.15
443.394	667.69
443.769	675.6
444.143	699.78
444.518	695.94
444.892	665.89
445.267	692.33
445.641	674.7
446.016	697.75
446.39	691.2
446.764	716.05
447.139	697.07
447.513	719.67
447.887	727.81
448.262	726.22
448.636	716.28
449.01	695.72
449.384	726
449.758	731.87
450.132	737.52
450.506	745.21
450.88	736.62
451.254	734.13
451.628	737.3
452.002	746.79
452.376	750.4
452.75	766.9
453.123	794.02
453.497	778.2
453.871	771.19
454.244	794.92
454.618	813.91
454.992	817.97
455.365	802.61
455.739	811.87
456.112	824.07
456.486	813.45
456.859	857.29
457.232	871.53
457.606	831.98
457.979	860.46
458.352	862.72
458.725	880.34
459.099	875.82
459.472	871.76
459.845	896.61
460.218	896.16
460.591	895.94
460.964	904.75
461.337	928.7
461.71	918.76
462.083	934.13
462.456	933
462.829	965.54
463.201	979.32
463.574	962.83
463.947	985.65
464.32	1010.96
464.692	994.92
465.065	1007.35
465.438	990.85
465.81	1037.85
466.183	1027.46
466.555	1051.19
466.928	1036.95
467.3	1036.5
467.672	1057.74
468.045	1081.69
468.417	1088.02
468.789	1082.82
469.161	1120.11
469.534	1104.29
469.906	1118.08
470.278	1150.39
470.65	1149.72
471.022	1162.37
471.394	1186.1
471.766	1196.49
472.138	1183.61
472.51	1202.37
472.882	1248.02
473.253	1254.8
473.625	1255.02
473.997	1276.94
474.369	1276.27
474.74	1304.29
475.112	1324.4
475.484	1341.12
475.855	1374.79
476.227	1369.6
476.598	1381.8
476.97	1408.24
477.341	1414.79
477.713	1447.79
478.084	1430.61
478.455	1463.61
478.827	1487.33
479.198	1532.76
479.569	1529.14
479.94	1566.88
480.311	1568.91
480.682	1597.39
481.053	1672.41
481.424	1656.82
481.795	1665.41
482.166	1683.71
482.537	1727.78
482.908	1756.48
483.279	1705.41
483.65	1757.16
484.021	1793.09
484.391	1807.55
484.762	1836.03
485.133	1836.93
485.503	1871.73
485.874	1902.46
486.244	1899.53
486.615	1947.66
486.985	1956.02
487.356	2020.88
487.726	2001.9
488.097	2080.09
488.467	2079.18
488.837	2091.84
489.207	2133.64
489.578	2178.39
489.948	2180.65
490.318	2164.6
490.688	2226.98
491.058	2228.11
491.428	2219.74
491.798	2290.25
492.168	2339.06
492.538	2334.54
492.908	2332.51
493.278	2375.67
493.648	2415.9
494.017	2426.74
494.387	2461.77
494.757	2444.82
495.126	2509.23
495.496	2511.49
495.866	2493.18
496.235	2532.73
496.605	2518.49
496.974	2525.72
497.344	2567.08
497.713	2600.98
498.082	2637.13
498.452	2666.96
498.821	2638.49
499.19	2683.01
499.559	2700.64
499.928	2719.17
500.298	2729.34
500.667	2737.7
501.036	2767.75
501.405	2800.52
501.774	2809.11
502.143	2854.53
502.512	2821.99
502.88	2846.62
503.249	2853.63
503.618	2851.59
503.987	2910.35
504.356	2939.72
504.724	2916
505.093	2941.53
505.462	2965.04
505.83	2977.01
506.199	3022.21
506.567	3050
506.936	3040.97
507.304	3090.91
507.672	3058.37
508.041	3093.62
508.409	3143.79
508.777	3133.62
509.145	3183.56
509.514	3200.28
509.882	3215.42
510.25	3181.53
510.618	3242.77
510.986	3274.18
511.354	3295.87
511.722	3294.74
512.09	3357.79
512.458	3365.25
512.826	3362.54
513.193	3400.73
513.561	3430.11
513.929	3439.15
514.297	3515.76
514.664	3503.33
515.032	3535.19
515.4	3533.16
515.767	3548.3
516.135	3577.22
516.502	3580.16
516.869	3667.16
517.237	3679.14
517.604	3642.08
517.972	3712.59
518.339	3705.13
518.706	3712.13
519.073	3737.44
519.44	3756.88
519.808	3833.26
520.175	3845.01
520.542	3873.71
520.909	3856.76
521.276	3909.64
521.643	3983.09
522.009	3984.9
522.376	3985.8
522.743	4102.63
523.11	4102.41
523.477	4127.26
523.843	4143.54
524.21	4203.42
524.577	4249.97
524.943	4246.81
525.31	4300.82
525.676	4339.01
526.043	4352.8
526.409	4354.6
526.776	4392.34
527.142	4429.4
527.508	4465.33
527.874	4517.54
528.241	4536.52
528.607	4560.7
528.973	4615.61
529.339	4611.55
529.705	4706.01
530.071	4770.86
530.437	4725.67
530.803	4731.99
531.169	4823.52
531.535	4848.83
531.901	4866.68
532.267	4884.31
532.632	4928.15
532.998	4922.27
533.364	4956.17
533.73	4996.17
534.095	5025.32
534.461	5030.52
534.826	5058.09
535.192	5102.61
535.557	5155.26
535.923	5161.59
536.288	5236.61
536.653	5201.36
537.019	5207.69
537.384	5272.32
537.749	5277.06
538.114	5316.84
538.479	5358.87
538.845	5355.71
539.21	5406.78
539.575	5418.53
539.94	5451.3
540.305	5456.04
540.67	5529.26
541.034	5542.59
541.399	5621.24
541.764	5618.3
542.129	5609.49
542.494	5637.28
542.858	5695.81
543.223	5698.52
543.587	5787.56
543.952	5827.78
544.316	5819.88
544.681	5801.57
545.045	5866.65
545.41	5852.19
545.774	5936.93
546.138	5935.58
546.503	6010.6
546.867	6067.33
547.231	6095.8
547.595	6103.03
547.959	6157.04
548.324	6194.33
548.688	6195.23
549.052	6182.58
549.416	6343.25
549.779	6317.26
550.143	6358.84
550.507	6430.03
550.871	6491.04
551.235	6460.99
551.599	6570.59
551.962	6547.77
552.326	6645.62
552.689	6648.1
553.053	6654.43
553.417	6745.05
553.78	6844.03
554.143	6870.7
554.507	6919.51
554.87	6974.65
555.234	7035.21
555.597	7030.69
555.96	7117.47
556.323	7118.15
556.686	7195.43
557.05	7265.71
557.413	7336.22
557.776	7368.08
558.139	7430.91
558.502	7513.16
558.865	7548.64
559.228	7691.69
559.59	7692.59
559.953	7728.53
560.316	7820.27
560.679	7916.54
561.041	7999.03
561.404	8065.01
561.767	8103.66
562.129	8156.99
562.492	8262.07
562.854	8259.36
563.217	8308.17
563.579	8444.21
563.941	8452.35
564.304	8585
564.666	8670.87
565.028	8764.2
565.39	8820.93
565.753	8896.63
566.115	8961.04
566.477	9055.95
566.839	9140.47
567.201	9194.02
567.563	9283.51
567.925	9378.88
568.287	9453.68
568.648	9454.13
569.01	9529.16
569.372	9735.7
569.734	9657.74
570.095	9864.06
570.457	9845.76
570.819	9965.3
571.18	10055.24
571.542	10126.43
571.903	10166.2
572.265	10219.76
572.626	10373.43
572.987	10443.26
573.349	10568.9
573.71	10621.56
574.071	10641.9
574.432	10708.56
574.794	10832.17
575.155	10902.23
575.516	10943.36
575.877	10987.65
576.238	11099.74
576.599	11153.07
576.96	11229.9
577.32	11325.49
577.681	11412.5
578.042	11424.02
578.403	11544.02
578.763	11609.55
579.124	11566.84
579.485	11771.58
579.845	11833.28
580.206	11847.97
580.566	11907.85
580.927	11987.17
581.287	12070.56
581.648	12045.47
582.008	12133.38
582.368	12185.58
582.728	12270.55
583.089	12275.07
583.449	12353.94
583.809	12423.32
584.169	12440.04
584.529	12432.81
584.889	12650.2
585.249	12600.26
585.609	12578.79
585.969	12666.25
586.329	12696.53
586.688	12732.91
587.048	12827.37
587.408	12908.05
587.768	12852.68
588.127	12928.61
588.487	12940.59
588.846	13090.19
589.206	12975.39
589.565	13108.72
589.925	13103.3
590.284	13111.89
590.643	13284.31
591.003	13263.3
591.362	13308.04
591.721	13356.63
592.08	13316.4
592.44	13479.79
592.799	13485.44
593.158	13571.08
593.517	13634.58
593.876	13590.97
594.235	13559.11
594.593	13655.83
594.952	13653.34
595.311	13687.46
595.67	13787.35
596.029	13870.96
596.387	13834.81
596.746	13958.87
597.104	13923.62
597.463	13964.97
597.822	14014.24
598.18	13956.84
598.538	13935.37
598.897	14072.54
599.255	14082.03
599.613	14206.32
599.972	14162.71
600.33	14213.55
600.688	14158.86
601.046	14315.92
601.404	14366.09
601.762	14297.39
602.12	14431.17
602.478	14443.15
602.836	14453.09
603.194	14398.41
603.552	14479.76
603.91	14482.25
604.268	14570.15
604.625	14526.54
604.983	14705.07
605.341	14483.83
605.698	14698.74
606.056	14733.54
606.413	14722.69
606.771	14832.75
607.128	14870.71
607.485	14798.17
607.843	14694.67
608.2	14842.24
608.557	15006.75
608.914	14954.78
609.272	15027.77
609.629	15010.14
609.986	15154.09
610.343	14984.38
610.7	15176.01
611.057	15172.4
611.414	15215.56
611.771	15127.2
612.127	15309.12
612.484	15197.26
612.841	15328.55
613.198	15278.38
613.554	15345.73
613.911	15429.34
614.267	15430.47
614.624	15438.15
614.98	15473.86
615.337	15567.64
615.693	15552.05
616.05	15493.52
616.406	15645.15
616.762	15602.67
617.118	15539.39
617.475	15548.43
617.831	15631.37
618.187	15718.15
618.543	15608.32
618.899	15726.51
619.255	15720.18
619.611	15698.26
619.967	15801.53
620.323	15872.04
620.678	15838.59
621.034	15793.62
621.39	15773.51
621.746	15831.59
622.101	16033.84
622.457	15878.82
622.812	15906.39
623.168	15944.81
623.523	16005.6
623.879	15992.26
624.234	15886.96
624.589	16004.24
624.945	16009.44
625.3	16039.04
625.655	16044.69
626.01	15921.3
626.365	15960.63
626.72	16026.16
627.075	15928.08
627.43	15884.47
627.785	15962.66
628.14	16067.52
628.495	16022.09
628.85	16003.56
629.205	15949.1
629.559	16060.96
629.914	15965.15
630.269	16137.57
630.623	16012.15
630.978	15977.57
631.332	16020.74
631.687	16126.72
632.041	16022.77
632.396	15985.26
632.75	15984.81
633.104	15989.55
633.459	15867.97
633.813	15858.26
634.167	15922.21
634.521	15910.68
634.875	15932.38
635.229	15854.41
635.583	15834.53
635.937	15929.44
636.291	15910.46
636.645	15851.7
636.999	15752.95
637.352	15846.96
637.706	15832.49
638.06	15792.27
638.413	15790.01
638.767	15797.01
639.121	15806.51
639.474	15614.42
639.828	15776
640.181	15777.58
640.534	15666.17
640.888	15747.3
641.241	15674.53
641.594	15679.28
641.947	15640.41
642.301	15615.78
642.654	15701.88
643.007	15713.17
643.36	15647.41
643.713	15643.8
644.066	15655.32
644.419	15655.32
644.771	15425.05
645.124	15340.53
645.477	15332.39
645.83	15343.01
646.182	15253.98
646.535	15139.86
646.888	15287.2
647.24	15157.93
647.593	15258.72
647.945	15252.62
648.298	15128.56
648.65	15060.31
649.002	15061.89
649.355	15061.89
649.707	15168.33
650.059	15129.23
650.411	15317.25
650.763	15370.13
651.115	15464.59
651.467	15435.44
651.819	15484.48
652.171	15435.89
652.523	15381.43
652.875	15370.36
653.227	15352.73
653.578	15461.2
653.93	15333.75
654.282	15333.98
654.633	15412.84
654.985	15453.97
655.337	15352.96
655.688	15414.65
656.039	15464.59
656.391	15257.14
656.742	15239.51
657.094	15381.21
657.445	15398.15
657.796	15407.19
658.147	15305.05
658.498	15348.21
658.849	15363.81
659.2	15400.19
659.551	15295.11
659.902	15373.52
660.253	15326.97
660.604	15420.98
660.955	15318.16
661.306	15418.27
661.656	15380.53
662.007	15359.96
662.358	15421.2
662.708	15354.31
663.059	15441.54
663.409	15217.82
663.76	15476.57
664.11	15399.51
664.461	15446.74
664.811	15492.84
665.161	15371.94
665.511	15379.17
665.862	15373.07
666.212	15443.58
666.562	15449.23
666.912	15447.19
667.262	15404.71
667.612	15377.59
667.962	15367.42
668.312	15475.67
668.662	15454.88
669.011	15524.7
669.361	15528.09
669.711	15445.38
670.06	15434.54
670.41	15408.1
670.76	15429.57
671.109	15437.93
671.459	15500.52
671.808	15340.3
672.157	15486.51
672.507	15455.55
672.856	15409
673.205	15409.68
673.554	15383.24
673.904	15435.44
674.253	15460.53
674.602	15512.5
674.951	15304.6
675.3	15075.23
675.649	15483.35
675.998	15432.5
676.346	15381.43
676.695	15475.44
677.044	15402.67
677.393	15479.51
677.741	15402.45
678.09	15414.65
678.438	15432.5
678.787	15460.75
679.135	15429.11
679.484	15329.68
679.832	15356.35
680.181	15376.23
680.529	15394.54
680.877	15345.27
681.225	15299.17
681.573	15481.99
681.922	15346.4
682.27	15258.05
682.618	15324.71
682.966	15266.41
683.314	15385.73
683.661	15242.23
684.009	15236.12
684.357	15234.77
684.705	15178.95
685.053	15254.88
685.4	15257.37
685.748	15214.43
686.095	15190.25
686.443	15178.95
686.79	15059.63
687.138	15116.81
687.485	15088.56
687.832	15075.9
688.18	15106.86
688.527	15041.33
688.874	15076.13
689.221	15043.14
689.568	14912.52
689.915	14969.69
690.262	15001.78
690.609	14943.03
690.956	14964.95
691.303	14876.36
691.65	14832.29
691.997	14830.03
692.344	14804.27
692.69	14842.91
693.037	14805.63
693.383	14733.54
693.73	14721.11
694.077	14654.9
694.423	14764.72
694.769	14680.21
695.116	14668.23
695.462	14633.43
695.808	14678.17
696.155	14617.84
696.501	14500.32
696.847	14548.46
697.193	14468.91
697.539	14576.26
697.885	14422.13
698.231	14403.15
698.577	14477.73
698.923	14370.16
699.269	14370.38
699.614	14312.31
699.96	14269.82
700.306	14309.14
700.651	14184.18
700.997	14156.38
701.342	14166.77
701.688	14181.24
702.033	14182.82
702.379	14162.25
702.724	14215.13
703.069	14133.78
703.415	14064.63
703.76	14016.72
704.105	13982.37
704.45	14046.78
704.795	13947.12
705.14	13921.13
705.485	14014.01
705.83	13881.13
706.175	14002.03
706.52	13883.62
706.865	13908.7
707.209	13943.73
707.554	13859.21
707.899	13970.62
708.243	13823.73
708.588	13817.18
708.932	13727.69
709.277	13794.81
709.621	13782.15
709.966	13673.45
710.31	13743.06
710.654	13601.82
710.998	13636.39
711.342	13638.65
711.687	13590.29
712.031	13605.43
712.375	13546.45
712.719	13571.99
713.063	13554.36
713.407	13583.06
713.75	13564.08
714.094	13550.75
714.438	13441.6
714.782	13488.15
715.125	13477.75
715.469	13559.11
715.812	13379
716.156	13364.76
716.499	13407.92
716.843	13375.61
717.186	13385.78
717.53	13375.16
717.873	13334.71
718.216	13334.48
718.559	13290.64
718.902	13263.52
719.246	13300.81
719.589	13259.23
719.932	13155.05
720.275	13204.99
720.617	13203.41
720.96	13186.69
721.303	13218.55
721.646	13270.75
721.989	13140.13
722.331	13174.48
722.674	13172
723.016	13085.45
723.359	13152.56
723.701	13096.75
724.044	13002.06
724.386	13038.67
724.729	13120.47
725.071	12979.01
725.413	13115.05
725.755	13140.36
726.097	13046.58
726.439	12927.03
726.782	13059.01
727.124	13065.33
727.465	12960.25
727.807	12935.85
728.149	12980.36
728.491	12959.8
728.833	12967.03
729.175	12890.65
729.516	12863.08
729.858	12859.24
730.199	12936.52
730.541	12855.85
730.882	12852.91
731.224	12846.13
731.565	12826.7
731.906	12797.09
732.248	12834.83
732.589	12765.91
732.93	12739.24
733.271	12795.29
733.612	12815.85
733.953	12769.07
734.294	12734.72
734.635	12741.28
734.976	12766.59
735.317	12619.24
735.658	12691.78
735.999	12618.11
736.339	12698.56
736.68	12645.46
737.021	12654.72
737.361	12566.36
737.702	12639.13
738.042	12638
738.383	12569.3
738.723	12581.05
739.063	12550.09
739.404	12554.16
739.744	12494.73
740.084	12488.63
740.424	12438.23
740.764	12433.03
741.104	12519.81
741.444	12384.9
741.784	12416.09
742.124	12367.27
742.464	12348.52
742.804	12370.66
743.143	12355.75
743.483	12373.83
743.823	12298.8
744.162	12361.62
744.502	12284.56
744.841	12268.07
745.181	12280.04
745.52	12204.57
745.86	12260.38
746.199	12136.55
746.538	12231.01
746.877	12151.01
747.216	12258.35
747.556	12149.88
747.895	12166.83
748.234	12139.26
748.573	12064.46
748.911	12041.41
749.25	12016.32
749.589	11999.6
749.928	12081.86
750.267	12027.17
750.605	12036.66
750.944	11991.69
751.283	11952.82
751.621	11955.99
751.96	11785.37
752.298	11899.94
752.636	11900.62
752.975	11858.36
753.313	11784.69
753.651	11849.55
753.989	11669.66
754.327	11723.22
754.666	11695.43
755.004	11592.38
755.342	11667.18
755.679	11638.03
756.017	11510.8
756.355	11594.64
756.693	11552.38
757.031	11595.99
757.368	11497.92
757.706	11430.35
758.044	11382.89
758.381	11435.09
758.719	11403.01
759.056	11389.45
759.394	11348.32
759.731	11258.15
760.068	11289.11
760.405	11229.9
760.743	11110.36
761.08	11150.58
761.417	11085.27
761.754	11071.49
762.091	11094.54
762.428	11029.91
762.765	10997.82
763.102	11063.81
763.438	10960.08
763.775	10867.43
764.112	10897.26
764.449	10925.73
764.785	10836.47
765.122	10771.84
765.458	10708.79
765.795	10636.7
766.131	10659.52
766.467	10606.64
766.804	10541.78
767.14	10499.07
767.476	10479.41
767.812	10509.7
768.148	10456.82
768.485	10477.38
768.821	10375.01
769.157	10332.98
769.492	10309.93
769.828	10264.05
770.164	10178.86
770.5	10234.45
770.836	10160.1
771.171	10043.94
771.507	10087.33
771.842	9989.48
772.178	10009.6
772.513	10014.57
772.849	9927.56
773.184	9909.94
773.519	9822.03
773.855	9834.01
774.19	9779.77
774.525	9728.25
774.86	9720.34
775.195	9620.68
775.53	9691.41
775.865	9612.77
776.2	9526.67
776.535	9469.27
776.87	9445.54
777.205	9429.72
777.539	9450.74
777.874	9357.64
778.209	9363.96
778.543	9258.43
778.878	9240.35
779.212	9229.96
779.547	9188.6
779.881	9223.85
780.215	9138.88
780.55	9149.05
780.884	9104.53
781.218	9011.43
781.552	9106.34
781.886	8934.37
782.22	8907.25
782.554	8873.58
782.888	8808.27
783.222	8847.37
783.556	8810.76
783.889	8743.64
784.223	8678.78
784.557	8685.79
784.89	8624.55
785.224	8630.65
785.557	8536.64
785.891	8563.76
786.224	8494.61
786.558	8518.56
786.891	8356.31
787.224	8377.1
787.557	8366.25
787.891	8362.18
788.224	8332.13
788.557	8271.11
788.89	8302.07
789.223	8260.94
789.556	8172.81
789.888	8162.64
790.221	8110.66
790.554	8038.57
790.887	8073.15
791.219	8019.82
791.552	7961.51
791.884	7952.25
792.217	7928.29
792.549	7957.22
792.882	7862.08
793.214	7860.05
793.546	7824.12
793.879	7798.35
794.211	7722.88
794.543	7818.24
794.875	7709.77
795.207	7701.18
795.539	7626.83
795.871	7681.07
796.203	7580.96
796.535	7540.51
796.867	7521.53
797.198	7515.65
797.53	7465.03
797.862	7444.47
798.193	7488.31
798.525	7365.37
798.856	7406.73
799.188	7269.78
799.519	7312.72
799.85	7275.2
800.182	7303.23
800.513	7257.8
800.844	7205.15
801.175	7204.92
801.506	7182.55
801.837	7100.07
802.168	7091.93
802.499	7127.19
802.83	7056
803.161	7053.74
803.491	7024.59
803.822	7051.71
804.153	6978.04
804.483	6973.29
804.814	6910.69
805.145	6893.75
805.475	6922.22
805.805	6828.21
806.136	6845.38
806.466	6876.57
806.796	6792.51
807.126	6769.68
807.457	6742.11
807.787	6766.74
808.117	6724.48
808.447	6708.44
808.777	6710.25
809.107	6634.77
809.436	6667.54
809.766	6590.48
810.096	6621.21
810.426	6577.82
810.755	6570.36
811.085	6466.64
811.414	6530.82
811.744	6482
812.073	6437.49
812.403	6457.15
812.732	6440.2
813.061	6379.41
813.39	6401.33
813.719	6296.47
814.049	6355.23
814.378	6304.83
814.707	6330.14
815.036	6276.59
815.365	6245.4
815.693	6239.75
816.022	6183.03
816.351	6174.22
816.68	6124.05
817.008	6182.58
817.337	6093.54
817.665	6060.77
817.994	6109.13
818.322	6089.02
818.651	6050.6
818.979	6054.45
819.307	6045.41
819.636	6066.42
819.964	6007.89
820.292	6055.35
820.62	6014.22
820.948	5976.03
821.276	6025.07
821.604	5994.33
821.932	5981.68
822.259	5989.14
822.587	5974.9
822.915	5919.53
823.243	5929.02
823.57	5922.92
823.898	5945.3
824.225	5917.73
824.553	5874.11
824.88	5877.05
825.207	5894.45
825.535	5853.55
825.862	5920.66
826.189	5930.38
826.516	5903.49
826.843	5945.3
827.17	5899.65
827.497	5907.78
827.824	5891.29
828.151	5932.87
828.478	5910.04
828.805	5936.26
829.131	5853.32
829.458	5829.82
829.785	5856.26
830.111	5820.33
830.438	5876.14
830.764	5816.03
831.09	5872.53
831.417	5816.94
831.743	5821.01
832.069	5818.75
832.395	5803.15
832.722	5791.85
833.048	5820.78
833.374	5785.53
833.7	5769.26
834.026	5772.42
834.351	5741.91
834.677	5757.05
835.003	5799.54
835.329	5710.05
835.654	5745.98
835.98	5701.91
836.306	5684.51
836.631	5692.42
836.956	5676.83
837.282	5694.91
837.607	5652.2
837.932	5656.94
838.258	5648.13
838.583	5625.3
838.908	5570.62
839.233	5634.34
839.558	5591.18
839.883	5555.93
840.208	5562.71
840.533	5562.48
840.858	5522.26
841.182	5553.44
841.507	5553.22
841.832	5514.12
842.156	5480.22
842.481	5517.51
842.805	5473.22
843.13	5470.73
843.454	5447
843.778	5437.51
844.103	5400.45
844.427	5422.82
844.751	5411.98
845.075	5374.01
845.399	5358.87
845.723	5355.25
846.047	5334.24
846.371	5290.62
846.695	5305.54
847.019	5242.26
847.343	5199.78
847.666	5187.12
847.99	5150.51
848.313	5187.12
848.637	5107.58
848.96	5136.28
849.284	5098.76
849.607	5078.88
849.931	5044.3
850.254	5052.66
850.577	4967.69
850.9	4984.87
851.223	4925.44
851.546	4953.01
851.869	4934.47
852.192	4924.08
852.515	4909.62
852.838	4839.11
853.161	4862.84
853.483	4846.12
853.806	4809.51
854.129	4782.16
854.451	4755.72
854.774	4742.62
855.096	4712.33
855.419	4728.15
855.741	4714.59
856.063	4699.9
856.385	4664.65
856.708	4701.26
857.03	4665.1
857.352	4634.6
857.674	4627.36
857.996	4600.02
858.318	4564.77
858.64	4558.44
858.961	4599.57
859.283	4555.05
859.605	4533.36
859.926	4545.11
860.248	4510.53
860.57	4491.1
860.891	4467.14
861.212	4477.09
861.534	4514.37
861.855	4480.48
862.176	4445
862.498	4446.13
862.819	4423.98
863.14	4439.57
863.461	4376.3
863.782	4391.21
864.103	4387.37
864.424	4410.19
864.745	4385.79
865.065	4379.24
865.386	4374.49
865.707	4365.9
866.027	4340.37
866.348	4326.13
866.668	4319.8
866.989	4344.21
867.309	4238.9
867.63	4322.51
867.95	4337.88
868.27	4232.8
868.59	4271.44
868.91	4290.42
869.23	4283.87
869.55	4239.13
869.87	4246.36
870.19	4244.55
870.51	4229.86
870.83	4256.53
871.15	4177.43
871.469	4209.75
871.789	4222.4
872.109	4226.02
872.428	4174.49
872.748	4185.34
873.067	4177.21
873.386	4210.2
873.706	4172.69
874.025	4166.13
874.344	4149.64
874.663	4152.35
874.982	4108.06
875.301	4118.23
875.62	4158.68
875.939	4120.71
876.258	4072.8
876.577	4114.61
876.896	4084.33
877.214	4070.99
877.533	4110.99
877.852	4110.09
878.17	4054.5
878.489	4058.11
878.807	4061.73
879.125	4054.95
879.444	4041.62
879.762	4031.67
880.08	3994.61
880.398	4043.88
880.716	4036.65
881.034	4025.12
881.352	4010.88
881.67	4014.95
881.988	3980.38
882.306	3984.9
882.624	3961.62
882.941	3915.97
883.259	3913.94
883.577	3921.62
883.894	3932.92
884.212	3938.57
884.529	3895.63
884.846	3911.45
885.164	3889.98
885.481	3873.49
885.798	3845.46
886.115	3878.46
886.432	3901.28
886.75	3871
887.067	3848.85
887.383	3798.91
887.7	3835.97
888.017	3821.74
888.334	3834.62
888.651	3808.4
888.967	3849.53
889.284	3795.07
889.6	3768.18
889.917	3765.24
890.233	3773.15
890.55	3729.99
890.866	3733.15
891.182	3703.32
891.498	3706.48
891.815	3681.63
892.131	3667.16
892.447	3679.59
892.763	3672.81
893.079	3604.79
893.395	3638.24
893.71	3625.13
894.026	3660.84
894.342	3561.4
894.657	3572.7
894.973	3558.47
895.289	3569.76
895.604	3595.07
895.92	3509.43
896.235	3545.58
896.55	3539.48
896.865	3521.63
897.181	3531.57
897.496	3532.93
897.811	3487.06
898.126	3466.04
898.441	3475.76
898.756	3477.56
899.071	3422.42
899.386	3436.21
899.7	3391.46
900.015	3418.81
900.33	3387.4
900.644	3364.35
900.959	3392.14
901.273	3360.96
901.588	3365.02
901.902	3310.56
902.216	3327.74
902.531	3306.95
902.845	3301.98
903.159	3283.9
903.473	3282.77
903.787	3274.63
904.101	3237.12
904.415	3245.48
904.729	3223.33
905.042	3247.06
905.356	3250
905.67	3177.01
905.984	3203.45
906.297	3217.01
906.611	3191.24
906.924	3180.62
907.237	3139.49
907.551	3111.02
907.864	3115.54
908.177	3105.82
908.491	3112.6
908.804	3088.2
909.117	3066.5
909.43	3061.98
909.743	3083
910.056	3083
910.368	3043.45
910.681	3022.66
910.994	3028.54
911.307	2967.52
911.619	2963.91
911.932	3012.49
912.244	2978.59
912.557	2988.31
912.869	2960.74
913.181	2947.41
913.494	2941.76
913.806	2909.67
914.118	2887.52
914.43	2904.7
914.742	2876
915.054	2889.33
915.366	2884.81
915.678	2831.48
915.99	2848.43
916.302	2850.24
916.613	2861.76
916.925	2798.94
917.236	2807.3
917.548	2778.15
917.859	2824.7
918.171	2777.47
918.482	2745.38
918.794	2767.75
919.105	2773.63
919.416	2696.57
919.727	2759.16
920.038	2695.66
920.349	2709.22
920.66	2692.05
920.971	2702.22
921.282	2678.04
921.593	2641.65
921.903	2659.05
922.214	2641.43
922.525	2614.54
922.835	2622.67
923.146	2605.04
923.456	2607.98
923.767	2586.06
924.077	2599.39
924.387	2548.32
924.697	2565.05
925.008	2556.01
925.318	2544.48
925.628	2543.8
925.938	2508.78
926.248	2527.98
926.558	2490.47
926.867	2510.13
927.177	2505.84
927.487	2470.81
927.796	2426.52
928.106	2443.92
928.416	2458.16
928.725	2450.92
929.034	2423.58
929.344	2416.35
929.653	2405.28
929.962	2400.76
930.271	2411.6
930.581	2376.58
930.89	2383.58
931.199	2386.07
931.508	2335.22
931.817	2351.72
932.125	2353.75
932.434	2345.84
932.743	2317.59
933.051	2342.9
933.36	2307.88
933.669	2332.28
933.977	2291.15
934.286	2280.53
934.594	2307.43
934.902	2270.82
935.21	2239.18
935.519	2297.03
935.827	2255.45
936.135	2248.44
936.443	2236.01
936.751	2216.81
937.059	2226.75
937.367	2188.33
937.674	2204.83
937.982	2192.85
938.29	2199.18
938.597	2153.08
938.905	2145.85
939.213	2161.21
939.52	2129.58
939.827	2125.28
940.135	2146.98
940.442	2145.85
940.749	2113.76
941.056	2126.86
941.363	2115.34
941.67	2124.38
941.977	2065.85
942.284	2062.91
942.591	2056.58
942.898	2037.38
943.205	2071.5
943.511	2030.14
943.818	2034.44
944.125	2050.48
944.431	2039.64
944.738	2027.66
945.044	2036.25
945.35	2021.11
945.657	1993.76
945.963	1997.38
946.269	1971.16
946.575	1975
946.881	1961.45
947.187	1986.08
947.493	1928
947.799	1954.21
948.105	1932.52
948.41	1942.92
948.716	1944.95
949.022	1906.98
949.327	1919.64
949.633	1930.03
949.938	1916.02
950.244	1836.7
950.549	1886.87
950.854	1863.82
951.16	1868.11
951.465	1888
951.77	1856.59
952.075	1855.46
952.38	1835.57
952.685	1830.6
952.99	1801.45
953.294	1814.1
953.599	1816.82
953.904	1801.22
954.209	1770.94
954.513	1815.69
954.818	1785.63
955.122	1767.33
955.426	1758.06
955.731	1801
956.035	1785.18
956.339	1771.85
956.643	1758.74
956.948	1737.72
957.252	1737.27
957.556	1756.71
957.86	1744.05
958.163	1712.86
958.467	1714.9
958.771	1710.38
959.075	1684.16
959.378	1690.72
959.682	1689.81
959.985	1697.05
960.289	1690.72
960.592	1667.67
960.896	1676.71
961.199	1666.31
961.502	1668.12
961.805	1652.53
962.108	1618.4
962.411	1637.16
962.714	1611.17
963.017	1608.91
963.32	1619.31
963.623	1631.28
963.926	1580.89
964.228	1622.47
964.531	1591.96
964.833	1586.09
965.136	1572.3
965.438	1560.1
965.741	1564.62
966.043	1560.1
966.345	1553.77
966.648	1540.21
966.95	1535.92
967.252	1544.51
967.554	1530.04
967.856	1553.09
968.158	1546.77
968.46	1537.5
968.761	1518.29
969.063	1545.64
969.365	1504.06
969.666	1495.24
969.968	1512.64
970.269	1499.54
970.571	1467.67
970.872	1502.47
971.174	1479.42
971.475	1467
971.776	1415.25
972.077	1455.24
972.378	1463.83
972.679	1474
972.98	1466.77
973.281	1433.32
973.582	1418.18
973.883	1428.13
974.183	1417.28
974.484	1450.95
974.785	1438.75
975.085	1405.53
975.386	1400.78
975.686	1401.46
975.986	1398.97
976.287	1379.09
976.587	1365.08
976.887	1377.73
977.187	1386.32
977.487	1376.6
977.787	1349.48
978.087	1346.32
978.387	1370.05
978.687	1356.72
978.987	1349.26
979.286	1359.65
979.586	1341.8
979.885	1364.85
980.185	1321.91
980.484	1311.52
980.784	1301.12
981.083	1308.81
981.382	1320.11
981.682	1303.61
981.981	1301.8
982.28	1255.93
982.579	1274.01
982.878	1287.34
983.177	1267.23
983.475	1271.97
983.774	1247.11
984.073	1281.24
984.372	1279.43
984.67	1218.41
984.969	1241.92
985.267	1214.12
985.566	1256.83
985.864	1234.46
986.162	1230.39
986.461	1215.7
986.759	1226.1
987.057	1204.18
987.355	1207.34
987.653	1205.08
987.951	1201.47
988.249	1210.28
988.547	1180.45
988.844	1190.62
989.142	1184.97
989.44	1159.43
989.737	1171.18
990.035	1189.04
990.332	1179.77
990.63	1169.38
990.927	1174.57
991.224	1148.36
991.521	1178.87
991.819	1143.84
992.116	1169.83
992.413	1147
992.71	1136.83
993.006	1155.82
993.303	1153.33
993.6	1142.26
993.897	1108.13
994.193	1106.78
994.49	1090.28
994.787	1104.97
995.083	1078.3
995.379	1108.36
995.676	1088.47
995.972	1115.82
996.268	1085.31
996.565	1064.97
996.861	1078.98
997.157	1057.29
997.453	1061.81
997.749	1066.1
998.044	1072.66
998.34	1044.63
998.636	1030.85
998.932	1045.76
999.227	1040.79
999.523	1041.92
999.818	1025.65
1000.114	1027.91
1000.409	1030.85
1000.704	1019.78
1001	1021.58
1001.295	1013.45
1001.59	1037.4
1001.885	994.01
1002.18	996.05
1002.475	1000.34
1002.77	972.77
1003.065	987.23
1003.359	983.84
1003.654	977.74
1003.949	975.03
1004.243	966.22
1004.538	973.22
1004.832	954.24
1005.127	952.88
1005.421	932.32
1005.715	949.49
1006.009	931.87
1006.304	941.36
1006.598	944.52
1006.892	923.28
1007.186	929.83
1007.48	901.36
1007.773	932.32
1008.067	923.51
1008.361	924.41
1008.655	929.16
1008.948	899.55
1009.242	910.85
1009.535	878.08
1009.829	914.24
1010.122	897.74
1010.415	895.94
1010.708	889.16
1011.001	882.83
1011.295	884.19
1011.588	892.55
1011.881	845.09
1012.173	841.02
1012.466	856.84
1012.759	848.48
1013.052	847.12
1013.344	827.24
1013.637	849.61
1013.93	861.81
1014.222	842.15
1014.514	835.83
1014.807	841.25
1015.099	829.95
1015.391	824.07
1015.683	815.04
1015.976	826.33
1016.268	834.7
1016.56	801.93
1016.851	826.56
1017.143	803.96
1017.435	794.24
1017.727	773
1018.018	796.28
1018.31	783.62
1018.602	800.35
1018.893	773.45
1019.185	762.38
1019.476	773.23
1019.767	766.9
1020.058	760.12
1020.35	741.59
1020.641	755.83
1020.932	739.33
1021.223	739.33
1021.514	759.44
1021.804	730.52
1022.095	732.78
1022.386	729.16
1022.677	753.79
1022.967	729.16
1023.258	722.61
1023.548	729.16
1023.839	706.11
1024.129	711.76
1024.419	718.31
1024.709	701.37
1025	711.31
1025.29	699.11
1025.58	677.64
1025.87	681.25
1026.16	684.64
1026.449	678.99
1026.739	682.16
1027.029	678.77
1027.319	697.52
1027.608	689.39
1027.898	669.95
1028.187	683.29
1028.477	657.53
1028.766	658.65
1029.055	662.04
1029.344	653.68
1029.634	642.61
1029.923	635.83
1030.212	612.55
1030.501	625.66
1030.79	639.22
1031.078	626.34
1031.367	633.34
1031.656	630.41
1031.945	620.01
1032.233	630.41
1032.522	599.45
1032.81	625.21
1033.099	603.52
1033.387	615.27
1033.675	605.78
1033.963	592.22
1034.251	614.14
1034.54	594.7
1034.828	604.19
1035.116	592.22
1035.403	562.39
1035.691	588.83
1035.979	596.51
1036.267	610.75
1036.554	586.34
1036.842	563.52
1037.129	589.28
1037.417	571.2
1037.704	591.76
1037.992	574.82
1038.279	578.21
1038.566	578.88
1038.853	578.88
1039.14	578.88
