Data from brown_tile_FLMS001491_008.txt Node
Date: Tue Feb 07 10:37:00 GMT 2017
User: dcchb
Spectrometer: FLMS00149
Trigger mode: 0
Integration Time (sec): 2.000000E-2
Scans to average: 10
Electric dark correction enabled: true
Nonlinearity correction enabled: false
Boxcar width: 0
XAxis mode: Wavelengths
Number of Pixels in Spectrum: 2048
>>>>>Begin Spectral Data<<<<<
341.393	-16.02
341.776	-16.02
342.16	-16.02
342.543	-79.07
342.927	-69.35
343.31	-53.3
343.693	-59.18
344.077	-66.18
344.46	-58.28
344.843	-62.12
345.226	-42.91
345.61	-37.71
345.993	-4.72
346.376	0.48
346.759	-15.34
347.142	19.69
347.525	24.89
347.908	66.47
348.291	77.99
348.674	108.5
349.057	101.72
349.44	111.44
349.823	138.33
350.206	152.34
350.588	193.24
350.971	191.21
351.354	206.12
351.737	217.88
352.119	229.85
352.502	253.81
352.884	274.15
353.267	263.07
353.65	255.84
354.032	305.56
354.414	309.4
354.797	309.85
355.179	310.08
355.562	316.63
355.944	301.26
356.326	315.27
356.709	321.6
357.091	319.79
357.473	332.45
357.855	326.57
358.238	329.29
358.62	321.6
359.002	317.53
359.384	331.54
359.766	332.9
360.148	330.42
360.53	324.54
360.912	342.62
361.294	329.96
361.676	315.5
362.057	337.65
362.439	329.06
362.821	301.04
363.203	311.43
363.584	285.44
363.966	312.56
364.348	309.4
364.729	313.69
365.111	283.18
365.493	312.56
365.874	294.94
366.256	299
366.637	301.72
367.019	303.07
367.4	309.4
367.781	316.63
368.163	306.23
368.544	323.64
368.925	308.72
369.306	294.71
369.688	290.42
370.069	306.69
370.45	317.99
370.831	297.2
371.212	298.1
371.593	315.27
371.974	317.31
372.355	298.78
372.736	318.66
373.117	287.03
373.498	306.69
373.879	308.49
374.26	282.51
374.641	305.78
375.021	306.69
375.402	308.95
375.783	323.41
376.163	330.64
376.544	317.99
376.925	314.6
377.305	310.98
377.686	333.58
378.066	326.8
378.447	323.64
378.827	320.47
379.208	329.29
379.588	313.01
379.968	322.05
380.349	321.38
380.729	315.05
381.109	330.42
381.489	331.09
381.87	320.47
382.25	344.88
382.63	324.31
383.01	360.02
383.39	333.8
383.77	332.22
384.15	341.04
384.53	331.54
384.91	326.12
385.29	333.13
385.67	354.82
386.049	333.13
386.429	352.34
386.809	346.91
387.189	321.6
387.568	324.99
387.948	353.92
388.328	355.27
388.707	346.69
389.087	367.02
389.466	376.97
389.846	360.24
390.225	340.13
390.605	362.28
390.984	366.8
391.363	362.96
391.743	360.7
392.122	378.32
392.501	353.69
392.881	353.69
393.26	361.6
393.639	375.16
394.018	353.47
394.397	361.6
394.776	376.97
395.155	366.57
395.534	388.72
395.913	367.93
396.292	381.94
396.671	373.35
397.05	380.36
397.429	368.15
397.808	360.47
398.186	392.11
398.565	365.67
398.944	368.83
399.323	412.22
399.701	408.61
400.08	406.8
400.458	391.43
400.837	401.37
401.215	410.86
401.594	408.83
401.972	389.17
402.351	395.05
402.729	407.93
403.107	382.62
403.486	409.73
403.864	393.01
404.242	412.9
404.62	408.83
404.999	425.55
405.377	414.93
405.755	429.85
406.133	410.41
406.511	403.86
406.889	419
407.267	436.63
407.645	422.16
408.023	410.19
408.401	449.96
408.779	437.3
409.156	444.08
409.534	433.24
409.912	453.35
410.29	468.49
410.667	447.25
411.045	437.76
411.422	426.23
411.8	456.06
412.178	455.38
412.555	469.85
412.933	464.42
413.31	452.67
413.687	462.84
414.065	462.84
414.442	454.71
414.819	480.02
415.197	473.46
415.574	470.75
415.951	475.95
416.328	467.36
416.705	476.4
417.082	475.5
417.46	463.52
417.837	501.03
418.214	489.96
418.591	506
418.967	484.76
419.344	512.56
419.721	511.65
420.098	520.69
420.475	518.21
420.852	528.38
421.228	511.2
421.605	524.08
421.982	538.32
422.358	515.72
422.735	522.5
423.111	522.27
423.488	546.91
423.864	544.19
424.241	536.74
424.617	538.32
424.994	529.73
425.37	558.43
425.746	521.14
426.123	562.73
426.499	561.6
426.875	563.4
427.251	560.24
427.627	560.69
428.003	556.85
428.379	579
428.756	589.84
429.132	574.7
429.507	605.44
429.883	592.33
430.259	610.86
430.635	615.83
431.011	593.46
431.387	589.84
431.763	628.49
432.138	602.72
432.514	636.62
432.89	634.81
433.265	654.25
433.641	652.44
434.016	652.44
434.392	658.77
434.767	659.67
435.143	661.71
435.518	688.37
435.894	673.23
436.269	644.98
436.644	708.26
437.02	708.26
437.395	701.48
437.77	689.73
438.145	700.57
438.52	706.68
438.895	698.09
439.271	722.72
439.646	704.64
440.021	705.77
440.395	730.86
440.77	756.17
441.145	711.2
441.52	753.23
441.895	733.79
442.27	760.46
442.645	737.86
443.019	764.98
443.394	759.78
443.769	750.74
444.143	753.23
444.518	758.2
444.892	766.79
445.267	790.97
445.641	771.31
446.016	759.56
446.39	780.35
446.764	810.85
447.139	781.48
447.513	816.05
447.887	800.46
448.262	806.56
448.636	819.67
449.01	814.7
449.384	826.9
449.758	830.74
450.132	837.97
450.506	829.61
450.88	831.87
451.254	834.13
451.628	845.2
452.002	858.31
452.376	856.28
452.75	863.28
453.123	887.24
453.497	895.37
453.871	883.85
454.244	885.65
454.618	898.08
454.992	916.61
455.365	924.3
455.739	915.48
456.112	939.89
456.486	950.51
456.859	941.7
457.232	952.77
457.606	970.62
457.979	960.45
458.352	978.08
458.725	983.73
459.099	1001.58
459.472	1011.08
459.845	1033.22
460.218	1038.65
460.591	1033
460.964	1034.35
461.337	1052.88
461.71	1062.15
462.083	1091.98
462.456	1072.54
462.829	1098.53
463.201	1104.63
463.574	1122.26
463.947	1113.67
464.32	1156.61
464.692	1162.71
465.065	1181.69
465.438	1175.59
465.81	1183.27
466.183	1197.74
466.555	1221.47
466.928	1188.47
467.3	1217.85
467.672	1219.66
468.045	1268.24
468.417	1262.59
468.789	1267.79
469.161	1263.72
469.534	1298.98
469.906	1308.02
470.278	1309.82
470.65	1324.74
471.022	1368.13
471.394	1408.58
471.766	1418.07
472.138	1425.53
472.51	1436.15
472.882	1431.86
473.253	1421.91
473.625	1461.46
473.997	1491.97
474.369	1496.94
474.74	1530.38
475.112	1560.67
475.484	1543.94
475.855	1599.76
476.227	1599.99
476.598	1645.86
476.97	1647.89
477.341	1673.43
477.713	1706.65
478.084	1696.93
478.455	1748.46
478.827	1783.71
479.198	1798.63
479.569	1801.11
479.94	1847.21
480.311	1856.02
480.682	1909.81
481.053	1952.52
481.424	1958.62
481.795	1989.35
482.166	1966.76
482.537	2017.83
482.908	2065.51
483.279	2078.84
483.65	2130.82
484.021	2117.49
484.391	2164.72
484.762	2178.05
485.133	2192.96
485.503	2216.92
485.874	2270.7
486.244	2296.47
486.615	2340.53
486.985	2343.92
487.356	2386.18
487.726	2414.43
488.097	2442.45
488.467	2463.47
488.837	2511.6
489.207	2537.59
489.578	2557.48
489.948	2580.98
490.318	2631.82
490.688	2632.5
491.058	2669.34
491.428	2711.6
491.798	2758.15
492.168	2763.12
492.538	2775.77
492.908	2812.61
493.278	2847.64
493.648	2872.27
494.017	2905.04
494.387	2939.39
494.757	2943.68
495.126	2951.14
495.496	2965.37
495.866	3044.47
496.235	3051.47
496.605	3034.3
496.974	3083.11
497.344	3135.31
497.713	3122.43
498.082	3147.52
498.452	3206.27
498.821	3235.42
499.19	3227.51
499.559	3226.61
499.928	3268.87
500.298	3244.69
500.667	3300.51
501.036	3347.74
501.405	3354.29
501.774	3344.57
502.143	3374.4
502.512	3417.57
502.88	3402.2
503.249	3440.62
503.618	3509.09
503.987	3506.15
504.356	3494.4
504.724	3536.21
505.093	3566.94
505.462	3557
505.83	3559.03
506.199	3622.98
506.567	3654.85
506.936	3664.79
507.304	3698.24
507.672	3691
508.041	3748.4
508.409	3768.74
508.777	3769.87
509.145	3805.58
509.514	3818.23
509.882	3835.41
510.25	3861.4
510.618	3901.62
510.986	3948.4
511.354	3957.44
511.722	3970.09
512.09	4025.01
512.458	4061.16
512.826	4053.93
513.193	4088.51
513.561	4135.06
513.929	4161.27
514.297	4166.02
514.664	4198.34
515.032	4272.23
515.4	4275.17
515.767	4252.8
516.135	4309.75
516.502	4304.77
516.869	4393.59
517.237	4366.02
517.604	4396.75
517.972	4439.91
518.339	4477.2
518.706	4504.32
519.073	4516.75
519.44	4555.84
519.808	4589.29
520.175	4631.32
520.542	4667.48
520.909	4737.98
521.276	4736.63
521.643	4796.74
522.009	4821.6
522.376	4847.81
522.743	4895.04
523.11	4956.28
523.477	4977.07
523.843	4985.21
524.21	5037.86
524.577	5068.82
524.943	5109.05
525.31	5136.16
525.676	5208.03
526.043	5226.11
526.409	5292.32
526.776	5406.67
527.142	5372.77
527.508	5390.85
527.874	5425.2
528.241	5481.92
528.607	5502.93
528.973	5512.88
529.339	5562.14
529.705	5629.03
530.071	5684.62
530.437	5667
530.803	5748.58
531.169	5761.01
531.535	5736.15
531.901	5793.77
532.267	5839.87
532.632	5880.78
532.998	5935.01
533.364	6000.32
533.73	5972.53
534.095	6046.65
534.461	6057.72
534.826	6092.52
535.192	6136.82
535.557	6219.3
535.923	6246.87
536.288	6248.45
536.653	6266.76
537.019	6284.38
537.384	6369.13
537.749	6363.48
538.114	6341.33
538.479	6405.96
538.845	6425.62
539.21	6440.76
539.575	6533.87
539.94	6518.95
540.305	6586.52
540.67	6598.05
541.034	6620.42
541.399	6645.5
541.764	6734.09
542.129	6779.29
542.494	6771.15
542.858	6888.43
543.223	6860.86
543.587	6901.54
543.952	6922.33
544.316	6926.17
544.681	6933.41
545.045	7014.31
545.41	7080.29
545.774	7130.91
546.138	7142.21
546.503	7143.34
546.867	7233.28
547.231	7323.9
547.595	7326.16
547.959	7374.3
548.324	7363.45
548.688	7431.92
549.052	7491.36
549.416	7472.83
549.779	7563.45
550.143	7638.7
550.507	7676.89
550.871	7729.09
551.235	7735.87
551.599	7861.52
551.962	7939.48
552.326	7927.05
552.689	8047.27
553.053	7959.59
553.417	8062.42
553.78	8168.18
554.143	8151.45
554.507	8199.59
554.87	8302.18
555.234	8453.82
555.597	8397.1
555.96	8443.87
556.323	8530.88
556.686	8575.4
557.05	8642.74
557.413	8736.3
557.776	8746.69
558.139	8901.26
558.502	8962.5
558.865	8997.31
559.228	9087.92
559.59	9127.47
559.953	9191.65
560.316	9297.64
560.679	9373.12
561.041	9517.07
561.404	9519.78
561.767	9655.82
562.129	9680.68
562.492	9871.86
562.854	9828.02
563.217	9877.51
563.579	9946.21
563.941	10058.52
564.304	10192.3
564.666	10216.26
565.028	10330.83
565.39	10364.05
565.753	10554.55
566.115	10638.62
566.477	10675.91
566.839	10719.29
567.201	10866.41
567.563	10963.13
567.925	11050.81
568.287	11102.34
568.648	11145.95
569.01	11315.21
569.372	11380.07
569.734	11453.74
570.095	11536.67
570.457	11700.29
570.819	11726.5
571.18	11769.21
571.542	11904.35
571.903	12012.14
572.265	12017.34
572.626	12094.17
572.987	12233.83
573.349	12372.36
573.71	12402.41
574.071	12507.95
574.432	12623.2
574.794	12768.51
575.155	12777.77
575.516	12872.46
575.877	12966.02
576.238	12941.83
576.599	13099.8
576.96	13165.11
577.32	13225.44
577.681	13339.11
578.042	13407.81
578.403	13466.34
578.763	13504.31
579.124	13637.18
579.485	13785.88
579.845	13846.22
580.206	13820.46
580.566	13904.97
580.927	13937.74
581.287	14081.01
581.648	14130.05
582.008	14184.97
582.368	14183.84
582.728	14316.26
583.089	14292.31
583.449	14442.13
583.809	14467.67
584.169	14506.54
584.529	14547.22
584.889	14677.16
585.249	14594.45
585.609	14690.72
585.969	14787.21
586.329	14803.03
586.688	14829.02
587.048	14853.42
587.408	14930.94
587.768	14989.01
588.127	15069.01
588.487	15102.46
588.846	15186.52
589.206	15089.35
589.565	15107.65
589.925	15223.36
590.284	15267.88
590.643	15406.85
591.003	15426.52
591.362	15472.62
591.721	15497.25
592.08	15485.95
592.44	15532.73
592.799	15652.95
593.158	15587.42
593.517	15672.38
593.876	15801.65
594.235	15741.08
594.593	15803.68
594.952	15941.76
595.311	15866.96
595.67	15896.33
596.029	16088.87
596.387	16079.61
596.746	16065.82
597.104	16065.37
597.463	16118.93
597.822	16181.3
598.18	16215.42
598.538	16242.09
598.897	16334.06
599.255	16280.05
599.613	16463.55
599.972	16452.93
600.33	16580.61
600.688	16398.24
601.046	16564.11
601.404	16643.43
601.762	16649.76
602.12	16743.32
602.478	16756.65
602.836	16856.76
603.194	16636.43
603.552	16735.18
603.91	16740.83
604.268	16851.11
604.625	16827.83
604.983	16902.86
605.341	16963.88
605.698	16962.75
606.056	17074.61
606.413	17053.14
606.771	17118.45
607.128	17083.65
607.485	17144.66
607.843	17167.71
608.2	17146.47
608.557	17324.32
608.914	17243.64
609.272	17405.45
609.629	17416.07
609.986	17482.05
610.343	17426.46
610.7	17547.36
611.057	17561.15
611.414	17508.27
611.771	17568.38
612.127	17629.62
612.484	17629.17
612.841	17716.62
613.198	17629.4
613.554	17637.53
613.911	17799.56
614.267	17806.11
614.624	17827.36
614.98	17838.43
615.337	17844.98
615.693	17950.97
616.05	17901.25
616.406	18021.25
616.762	17964.98
617.118	17972.21
617.475	18010.18
617.831	18204.3
618.187	18113.9
618.543	18148.7
618.899	18318.42
619.255	18273.67
619.611	18254.92
619.967	18263.95
620.323	18410.39
620.678	18281.81
621.034	18348.47
621.39	18259.89
621.746	18177.18
622.101	18402.03
622.457	18354.57
622.812	18378.08
623.168	18333.33
623.523	18335.37
623.879	18452.65
624.234	18368.13
624.589	18456.27
624.945	18399.32
625.3	18503.95
625.655	18463.72
626.01	18510.73
626.365	18472.31
626.72	18503.04
627.075	18461.46
627.43	18457.62
627.785	18389.6
628.14	18467.79
628.495	18475.93
628.85	18545.76
629.205	18409.26
629.559	18537.85
629.914	18453.33
630.269	18387.34
630.623	18370.17
630.978	18404.29
631.332	18438.87
631.687	18614
632.041	18388.47
632.396	18428.92
632.75	18346.44
633.104	18445.19
633.459	18325.42
633.813	18301.02
634.167	18369.04
634.521	18312.99
634.875	18412.88
635.229	18317.29
635.583	18163.39
635.937	18306.21
636.291	18193.9
636.645	18230.51
636.999	18077.75
637.352	18181.02
637.706	18098.54
638.06	18177.63
638.413	18110.51
638.767	18140.57
639.121	18162.04
639.474	18065.99
639.828	18118.65
640.181	18105.99
640.534	18159.78
640.888	17956.62
641.241	17939.67
641.594	17993.23
641.947	18046.56
642.301	18009.95
642.654	18096.28
643.007	18049.72
643.36	18028.71
643.713	18023.74
644.066	18091.53
644.419	17935.83
644.771	17735.61
645.124	17506.91
645.477	17635.95
645.83	17511.66
646.182	17439.8
646.535	17424.43
646.888	17499.68
647.24	17424.2
647.593	17553.01
647.945	17401.83
648.298	17405.22
648.65	17369.52
649.002	17233.25
649.355	17257.43
649.707	17389.18
650.059	17449.51
650.411	17637.76
650.763	17748.49
651.115	17884.3
651.467	17816.96
651.819	17775.83
652.171	17745.1
652.523	17724.76
652.875	17637.98
653.227	17647.93
653.578	17741.03
653.93	17719.79
654.282	17711.43
654.633	17681.37
654.985	17631.2
655.337	17716.62
655.688	17712.1
656.039	17695.16
656.391	17582.16
656.742	17601.15
657.094	17682.5
657.445	17775.83
657.796	17710.3
658.147	17653.35
658.498	17704.2
658.849	17647.7
659.2	17642.95
659.551	17618.55
659.902	17689.73
660.253	17668.94
660.604	17660.35
660.955	17620.58
661.306	17650.41
661.656	17720.92
662.007	17653.35
662.358	17630.53
662.708	17636.4
663.059	17670.07
663.409	17470.08
663.76	17642.95
664.11	17735.16
664.461	17679.11
664.811	17626.01
665.161	17688.6
665.511	17626.68
665.862	17645.67
666.212	17662.84
666.562	17772.22
666.912	17651.77
667.262	17719.34
667.612	17638.21
667.962	17688.15
668.312	17685.44
668.662	17886.34
669.011	17736.74
669.361	17756.17
669.711	17692.22
670.06	17743.97
670.41	17764.76
670.76	17728.15
671.109	17748.04
671.459	17750.52
671.808	17682.5
672.157	17889.28
672.507	17651.09
672.856	17662.16
673.205	17753.46
673.554	17712.1
673.904	17705.55
674.253	17788.26
674.602	17736.96
674.951	17477.76
675.3	17359.12
675.649	17686.79
675.998	17690.18
676.346	17682.95
676.695	17807.47
677.044	17671.88
677.393	17640.24
677.741	17662.16
678.09	17679.34
678.438	17694.93
678.787	17727.25
679.135	17821.93
679.484	17531.09
679.832	17624.88
680.181	17536.52
680.529	17632.33
680.877	17690.86
681.225	17599.79
681.573	17753.91
681.922	17680.24
682.27	17574.93
682.618	17527.48
682.966	17609.51
683.314	17571.77
683.661	17537.42
684.009	17485.22
684.357	17406.35
684.705	17463.98
685.053	17496.97
685.4	17426.46
685.748	17434.6
686.095	17379.23
686.443	17395.96
686.79	17312.57
687.138	17403.41
687.485	17318.44
687.832	17271.44
688.18	17321.83
688.527	17346.24
688.874	17230.54
689.221	17226.47
689.568	17282.74
689.915	17125.68
690.262	17196.19
690.609	17074.38
690.956	17189.86
691.303	17127.49
691.65	16983.76
691.997	17072.35
692.344	16875.06
692.69	17040.71
693.037	16965.46
693.383	16840.49
693.73	16873.71
694.077	16809.08
694.423	16821.05
694.769	16794.16
695.116	16709.65
695.462	16774.05
695.808	16639.14
696.155	16722.75
696.501	16617.44
696.847	16648.4
697.193	16520.27
697.539	16589.65
697.885	16535.41
698.231	16473.04
698.577	16417.9
698.923	16528.63
699.269	16265.82
699.614	16281.41
699.96	16295.19
700.306	16334.74
700.651	16234.63
700.997	16265.82
701.342	16157.34
701.688	16077.57
702.033	16122.32
702.379	16216.78
702.724	16099.27
703.069	16244.8
703.415	15983.56
703.76	16050.91
704.105	16026.27
704.45	16007.29
704.795	15894.98
705.14	15935.88
705.485	15903.11
705.83	15892.49
706.175	15873.74
706.52	15871.48
706.865	15788.09
707.209	15813.17
707.554	15840.06
707.899	15875.32
708.243	15680.07
708.588	15681.2
708.932	15597.81
709.277	15633.52
709.621	15624.02
709.966	15580.64
710.31	15586.29
710.654	15481.88
710.998	15546.51
711.342	15523.01
711.687	15407.08
712.031	15508.77
712.375	15404.14
712.719	15400.98
713.063	15452.73
713.407	15471.26
713.75	15378.15
714.094	15427.19
714.438	15315.11
714.782	15420.87
715.125	15297.25
715.469	15324.15
715.812	15304.48
716.156	15077.6
716.499	15207.09
716.843	15159.18
717.186	15171.61
717.53	15322.79
717.873	15149.01
718.216	15182
718.559	15123.25
718.902	15125.28
719.246	15123.7
719.589	15071.27
719.932	15054.77
720.275	14940.65
720.617	15057.94
720.96	14998.05
721.303	14988.56
721.646	14979.07
721.989	14857.49
722.331	14922.57
722.674	14931.16
723.016	14908.34
723.359	14909.92
723.701	14929.13
724.044	14800.77
724.386	14734.56
724.729	14882.57
725.071	14916.02
725.413	14801.9
725.755	14846.42
726.097	14777.94
726.439	14755.8
726.782	14742.47
727.124	14717.16
727.465	14637.16
727.807	14684.16
728.149	14696.14
728.491	14668.57
728.833	14723.48
729.175	14615.24
729.516	14558.52
729.858	14560.78
730.199	14682.35
730.541	14617.5
730.882	14576.14
731.224	14603.03
731.565	14557.16
731.906	14530.04
732.248	14514.67
732.589	14485.75
732.93	14397.62
733.271	14486.2
733.612	14494.56
733.953	14513.32
734.294	14467.67
734.635	14449.37
734.976	14465.64
735.317	14463.15
735.658	14414.56
735.999	14417.73
736.339	14308.13
736.68	14319.88
737.021	14346.32
737.361	14274.23
737.702	14387.45
738.042	14207.56
738.383	14309.03
738.723	14300.22
739.063	14307.45
739.404	14319.88
739.744	14206.66
740.084	14135.02
740.424	14218.19
740.764	14203.72
741.104	14232.87
741.444	14121.92
741.784	14083.5
742.124	14169.83
742.464	14108.13
742.804	14044.18
743.143	14000.34
743.483	14055.48
743.823	13902.26
744.162	13881.25
744.502	13954.24
744.841	13874.24
745.181	13952.2
745.52	13887.35
745.86	13886.44
746.199	13843.05
746.538	13922.6
746.877	13844.41
747.216	13862.94
747.556	13782.26
747.895	13740.01
748.234	13695.49
748.573	13703.17
748.911	13744.53
749.25	13681.7
749.589	13666.11
749.928	13629.5
750.267	13630.63
750.605	13643.74
750.944	13532.78
751.283	13494.59
751.621	13481.71
751.96	13494.14
752.298	13370.3
752.636	13464.76
752.975	13331.88
753.313	13280.81
753.651	13387.25
753.989	13363.07
754.327	13348.15
754.666	13208.49
755.004	13267.02
755.342	13280.36
755.679	13220.47
756.017	13137.08
756.355	13179.57
756.693	13088.05
757.031	13149.74
757.368	13003.98
757.706	13044.43
758.044	12978.22
758.381	13024.54
758.719	12945.45
759.056	12882.4
759.394	12854.83
759.731	12765.12
760.068	12762.18
760.405	12716.76
760.743	12683.76
761.08	12715.63
761.417	12689.64
761.754	12584.33
762.091	12542.07
762.428	12520.83
762.765	12476.31
763.102	12460.27
763.438	12419.14
763.775	12306.37
764.112	12338.46
764.449	12378.69
764.785	12263.21
765.122	12197.67
765.458	12117.22
765.795	12132.14
766.131	12233.6
766.467	12070.45
766.804	11969.43
767.14	11936.21
767.476	11940.73
767.812	11921.97
768.148	11873.39
768.485	11793.84
768.821	11723.79
769.157	11780.74
769.492	11703.45
769.828	11681.08
770.164	11584.13
770.5	11528.54
770.836	11573.74
771.171	11519.95
771.507	11498.48
771.842	11297.81
772.178	11375.1
772.513	11340.3
772.849	11255.78
773.184	11252.39
773.519	11181.66
773.855	11141.43
774.19	11134.88
774.525	10981.66
774.86	11063.47
775.195	11028.21
775.53	10917.03
775.865	10853.75
776.2	10735.57
776.535	10726.75
776.87	10753.87
777.205	10737.83
777.539	10656.25
777.874	10655.34
778.209	10604.5
778.543	10529.24
778.878	10474.33
779.212	10456.7
779.547	10363.6
779.881	10499.87
780.215	10341.23
780.55	10315.69
780.884	10338.51
781.218	10328.57
781.552	10229.59
781.886	10204.96
782.22	10150.27
782.554	10078.18
782.888	9995.92
783.222	9958.41
783.556	9954.12
783.889	9914.57
784.223	9781.24
784.557	9779.88
784.89	9854.46
785.224	9778.98
785.557	9652.88
785.891	9700.79
786.224	9618.31
786.558	9615.82
786.891	9491.3
787.224	9517.52
787.557	9468.25
787.891	9426
788.224	9479.33
788.557	9397.52
788.89	9328.6
789.223	9435.26
789.556	9287.47
789.888	9264.19
790.221	9254.47
790.554	9166.34
790.887	9137.87
791.219	9044.08
791.552	9052.22
791.884	9056.97
792.217	9007.48
792.549	8981.71
792.882	8852.45
793.214	8867.82
793.546	8884.77
793.879	8809.06
794.211	8755.05
794.543	8804.09
794.875	8743.75
795.207	8761.38
795.539	8696.3
795.871	8648.39
796.203	8587.83
796.535	8516.87
796.867	8586.47
797.198	8491.56
797.53	8478.22
797.862	8446.59
798.193	8420.15
798.525	8413.82
798.856	8343.76
799.188	8295.18
799.519	8295.18
799.85	8192.13
800.182	8251.56
800.513	8231
800.844	8132.24
801.175	8210.21
801.506	8135.86
801.837	8133.15
802.168	8115.52
802.499	8049.76
802.83	7988.52
803.161	8014.05
803.491	7992.81
803.822	7943.1
804.153	7946.26
804.483	7824.23
804.814	7803.21
805.145	7803.66
805.475	7786.26
805.805	7758.47
806.136	7736.77
806.466	7760.28
806.796	7742.2
807.126	7633.27
807.457	7659.04
807.787	7656.1
808.117	7668.53
808.447	7523.9
808.777	7622.43
809.107	7530.45
809.436	7484.58
809.766	7483.67
810.096	7507.85
810.426	7410
810.755	7405.26
811.085	7339.95
811.414	7402.09
811.744	7295.88
812.073	7283
812.403	7299.27
812.732	7278.71
813.061	7193.74
813.39	7222.21
813.719	7123.46
814.049	7164.36
814.378	7142.67
814.707	7129.11
815.036	7056.57
815.365	7122.33
815.693	7040.97
816.022	7029.45
816.351	6961.2
816.68	6940.18
817.008	6904.48
817.337	6885.5
817.665	6878.72
817.994	6876.23
818.322	6857.25
818.651	6860.86
818.979	6828.55
819.307	6834.42
819.636	6843.69
819.964	6776.12
820.292	6812.5
820.62	6818.38
820.948	6744.71
821.276	6809.11
821.604	6800.53
821.932	6791.26
822.259	6718.04
822.587	6734.09
822.915	6713.75
823.243	6729.57
823.57	6713.07
823.898	6698.84
824.225	6664.26
824.553	6655.67
824.88	6661.32
825.207	6681.43
825.535	6665.62
825.862	6645.73
826.189	6625.84
826.516	6656.12
826.843	6725.95
827.17	6633.75
827.497	6686.41
827.824	6636.92
828.151	6671.04
828.478	6689.57
828.805	6687.76
829.131	6664.03
829.458	6577.48
829.785	6622.9
830.111	6624.49
830.438	6610.02
830.764	6654.32
831.09	6573.19
831.417	6555.34
831.743	6557.37
832.069	6573.19
832.395	6518.5
832.722	6556.47
833.048	6518.73
833.374	6517.6
833.7	6493.19
834.026	6552.17
834.351	6541.78
834.677	6511.72
835.003	6496.35
835.329	6521.44
835.654	6495.9
835.98	6513.3
836.306	6475.79
836.631	6466.52
836.956	6406.19
837.282	6482.12
837.607	6423.59
837.932	6365.51
838.258	6415.68
838.583	6357.15
838.908	6338.39
839.233	6345.4
839.558	6275.12
839.883	6309.69
840.208	6320.31
840.533	6319.64
840.858	6273.08
841.182	6284.38
841.507	6271.05
841.832	6291.16
842.156	6231.73
842.481	6182.69
842.805	6211.62
843.13	6176.59
843.454	6163.26
843.778	6142.01
844.103	6148.34
844.427	6099.98
844.751	6126.19
845.075	6116.7
845.399	6076.48
845.723	6024.05
846.047	6061.11
846.371	5986.76
846.695	6007.1
847.019	5945.18
847.343	5969.59
847.666	5871.51
847.99	5902.47
848.313	5832.64
848.637	5773.89
848.96	5825.64
849.284	5791.97
849.607	5769.82
849.931	5765.98
850.254	5675.13
850.577	5663.38
850.9	5627.22
851.223	5641.91
851.546	5597.4
851.869	5568.92
852.192	5575.7
852.515	5478.53
852.838	5520.56
853.161	5474.46
853.483	5438.08
853.806	5443.05
854.129	5435.37
854.451	5419.32
854.774	5403.05
855.096	5325.99
855.419	5371.41
855.741	5342.03
856.063	5319.44
856.385	5343.84
856.708	5308.14
857.03	5273.79
857.352	5303.84
857.674	5241.47
857.996	5260.23
858.318	5171.87
858.64	5210.51
858.961	5188.37
859.283	5217.52
859.605	5110.63
859.926	5149.05
860.248	5154.92
860.57	5099.1
860.891	5060.69
861.212	5117.18
861.534	5079.67
861.855	5032.21
862.176	5054.13
862.498	5058.65
862.819	5060.46
863.14	5010.07
863.461	4989.95
863.782	4975.94
864.103	5040.12
864.424	4968.03
864.745	5001.03
865.065	4928.03
865.386	4924.87
865.707	4920.58
866.027	4961.93
866.348	4862.95
866.668	4919.45
866.989	4871.99
867.309	4844.19
867.63	4883.97
867.95	4846.91
868.27	4837.87
868.59	4815.95
868.91	4815.04
869.23	4804.42
869.55	4788.6
869.87	4841.03
870.19	4795.38
870.51	4776.17
870.83	4799.68
871.15	4761.94
871.469	4771.43
871.789	4800.81
872.109	4792.9
872.428	4740.24
872.748	4742.73
873.067	4757.19
873.386	4724.2
873.706	4733.01
874.025	4695.72
874.344	4700.02
874.663	4707.7
874.982	4646.69
875.301	4650.53
875.62	4653.47
875.939	4657.98
876.258	4681.71
876.577	4569.4
876.896	4637.65
877.214	4579.57
877.533	4634.48
877.852	4604.65
878.17	4632
878.489	4618.66
878.807	4617.31
879.125	4539.12
879.444	4521.27
879.762	4577.08
880.08	4562.85
880.398	4476.29
880.716	4553.58
881.034	4501.38
881.352	4489.4
881.67	4500.47
881.988	4526.46
882.306	4488.05
882.624	4448.95
882.941	4458.44
883.259	4454.83
883.577	4412.79
883.894	4428.16
884.212	4409.18
884.529	4430.42
884.846	4406.47
885.164	4372.57
885.481	4381.61
885.798	4345.45
886.115	4390.87
886.432	4410.31
886.75	4349.52
887.067	4352.46
887.383	4268.39
887.7	4314.27
888.017	4283.53
888.334	4283.98
888.651	4276.53
888.967	4254.38
889.284	4248.73
889.6	4238.79
889.917	4217.77
890.233	4234.04
890.55	4204.44
890.866	4206.25
891.182	4249.63
891.498	4143.87
891.815	4140.71
892.131	4133.03
892.447	4130.77
892.763	4139.35
893.079	4096.19
893.395	4084.44
893.71	4139.81
894.026	4080.6
894.342	4067.94
894.657	4072.92
894.973	4069.53
895.289	4055.06
895.604	4048.74
895.92	4012.13
896.235	4001.05
896.55	4012.13
896.865	3959.92
897.181	3986.82
897.496	3981.62
897.811	3972.81
898.126	3924.44
898.441	3862.3
898.756	3937.78
899.071	3895.29
899.386	3883.09
899.7	3845.58
900.015	3832.24
900.33	3812.36
900.644	3832.92
900.959	3820.04
901.273	3779.36
901.588	3799.93
901.902	3793.37
902.216	3751.34
902.531	3749.53
902.845	3737.56
903.159	3745.92
903.473	3701.4
903.787	3655.07
904.101	3687.16
904.415	3676.32
904.729	3655.07
905.042	3662.53
905.356	3590.22
905.67	3625.7
905.984	3563.32
906.297	3579.82
906.611	3547.28
906.924	3571.01
907.237	3548.41
907.551	3545.02
907.864	3506.15
908.177	3522.87
908.491	3526.49
908.804	3509.31
909.117	3506.15
909.43	3442.2
909.743	3420.05
910.056	3470.45
910.368	3430.9
910.681	3435.42
910.994	3432.48
911.307	3409.66
911.619	3333.5
911.932	3370.79
912.244	3358.58
912.557	3329.88
912.869	3324.23
913.181	3272.03
913.494	3325.59
913.806	3268.87
914.118	3307.06
914.43	3269.32
914.742	3234.29
915.054	3232.94
915.366	3250.34
915.678	3222.32
915.99	3188.42
916.302	3186.39
916.613	3183.67
916.925	3136.44
917.236	3181.19
917.548	3144.13
917.859	3162.2
918.171	3148.65
918.482	3145.71
918.794	3087.86
919.105	3104.81
919.416	3097.12
919.727	3075.43
920.038	3071.13
920.349	3063.9
920.66	3027.75
920.971	3048.99
921.282	3021.87
921.593	3011.47
921.903	2968.31
922.214	2963.34
922.525	2959.5
922.835	2943.68
923.146	2939.61
923.456	2922.89
923.767	2945.71
924.077	2925.15
924.387	2927.86
924.697	2919.95
925.008	2874.75
925.318	2835.21
925.628	2894.42
925.938	2846.73
926.248	2811.25
926.558	2810.35
926.867	2816.68
927.177	2820.75
927.487	2780.07
927.796	2787.07
928.106	2774.87
928.416	2750.46
928.725	2768.32
929.034	2763.8
929.344	2732.39
929.653	2729.45
929.962	2733.97
930.271	2687.19
930.581	2669.79
930.89	2661.88
931.199	2642.44
931.508	2655.1
931.817	2646.29
932.125	2655.1
932.434	2645.83
932.743	2590.47
933.051	2590.47
933.36	2596.34
933.669	2588.89
933.977	2571.03
934.286	2568.77
934.594	2546.85
934.902	2518.83
935.21	2548.66
935.519	2551.83
935.827	2555.44
936.135	2486.52
936.443	2492.39
936.751	2457.59
937.059	2496.91
937.367	2413.3
937.674	2424.37
937.982	2452.62
938.29	2440.64
938.597	2479.96
938.905	2378.95
939.213	2424.37
939.52	2399.97
939.827	2412.85
940.135	2325.39
940.442	2366.97
940.749	2357.25
941.056	2357.25
941.363	2333.75
941.67	2317.71
941.977	2326.75
942.284	2320.19
942.591	2310.25
942.898	2291.49
943.205	2329.01
943.511	2285.62
943.818	2246.52
944.125	2275
944.431	2254.43
944.738	2270.93
945.044	2249.46
945.35	2238.39
945.657	2227.99
945.963	2207.65
946.269	2176.02
946.575	2218.05
946.881	2180.54
947.187	2199.07
947.493	2146.19
947.799	2161.78
948.105	2162.68
948.41	2158.62
948.716	2121.1
949.022	2123.59
949.327	2099.86
949.633	2127.2
949.938	2114.77
950.244	2079.52
950.549	2141.89
950.854	2104.83
951.16	2083.36
951.465	2065.74
951.77	2052.86
952.075	2026.64
952.38	2061.67
952.685	2057.38
952.99	2030.94
953.294	2027.77
953.599	2026.42
953.904	2021.9
954.209	2014.21
954.513	2018.51
954.818	2032.52
955.122	2008.11
955.426	1978.06
955.731	1948
956.035	1960.43
956.339	1935.34
956.643	1926.76
956.948	1935.57
957.252	1920.43
957.556	1901.67
957.86	1916.36
958.163	1904.16
958.467	1917.94
958.771	1877.94
959.075	1890.37
959.378	1867.32
959.682	1842.69
959.985	1865.52
960.289	1851.28
960.592	1851.5
960.896	1834.78
961.199	1805.63
961.502	1838.62
961.805	1840.43
962.108	1799.75
962.411	1811.28
962.714	1786.2
963.017	1802.47
963.32	1785.97
963.623	1781.45
963.926	1809.47
964.228	1783.03
964.531	1781.22
964.833	1766.99
965.136	1738.06
965.438	1728.57
965.741	1721.11
966.043	1745.29
966.345	1720.43
966.648	1711.85
966.95	1716.59
967.252	1711.62
967.554	1674.79
967.856	1684.73
968.158	1675.92
968.46	1678.18
968.761	1672.07
969.063	1692.19
969.365	1672.53
969.666	1654.9
969.968	1662.58
970.269	1621.23
970.571	1651.51
970.872	1661.91
971.174	1631.62
971.475	1640.89
971.776	1612.19
972.077	1614.45
972.378	1595.01
972.679	1582.59
972.98	1606.54
973.281	1573.32
973.582	1600.89
973.883	1551.17
974.183	1591.17
974.484	1567.44
974.785	1552.76
975.085	1555.24
975.386	1547.78
975.686	1526.99
975.986	1542.59
976.287	1535.13
976.587	1509.14
976.887	1517.73
977.187	1513.21
977.487	1486.09
977.787	1472.76
978.087	1501.01
978.387	1484.96
978.687	1458.29
978.987	1486.54
979.286	1481.57
979.586	1472.53
979.885	1456.94
980.185	1452.19
980.484	1465.3
980.784	1466.2
981.083	1435.24
981.382	1416.94
981.682	1430.5
981.981	1433.21
982.28	1418.97
982.579	1423.04
982.878	1422.14
983.177	1401.57
983.475	1413.55
983.774	1372.2
984.073	1380.56
984.372	1350.05
984.67	1397.73
984.969	1366.77
985.267	1369.26
985.566	1332.2
985.864	1364.51
986.162	1350.5
986.461	1354.12
986.759	1329.94
987.057	1349.37
987.355	1331.07
987.653	1307.11
987.951	1302.37
988.249	1308.24
988.547	1310.28
988.844	1297.17
989.142	1312.99
989.44	1293.55
989.737	1279.99
990.035	1268.47
990.332	1275.02
990.63	1271.86
990.927	1284.51
991.224	1276.83
991.521	1248.81
991.819	1248.81
992.116	1266.21
992.413	1231.86
992.71	1260.11
993.006	1245.19
993.303	1237.51
993.6	1204.52
993.897	1231.86
994.193	1197.28
994.49	1192.54
994.787	1238.41
995.083	1202.93
995.379	1234.35
995.676	1177.4
995.972	1200.22
996.268	1143.28
996.565	1163.84
996.861	1181.69
997.157	1170.39
997.453	1177.4
997.749	1149.6
998.044	1139.21
998.34	1160.9
998.636	1132.2
998.932	1141.69
999.227	1122.94
999.523	1115.48
999.818	1133.56
1000.114	1119.77
1000.409	1121.35
1000.704	1108.47
1001	1118.19
1001.295	1101.02
1001.59	1075.25
1001.885	1082.03
1002.18	1123.39
1002.475	1083.62
1002.77	1089.27
1003.065	1079.1
1003.359	1079.55
1003.654	1054.69
1003.949	1061.47
1004.243	1030.28
1004.538	1054.69
1004.832	1061.24
1005.127	1016.05
1005.421	1041.81
1005.715	1051.98
1006.009	1009.04
1006.304	1032.09
1006.598	1008.14
1006.892	1000.45
1007.186	1023.28
1007.48	982.6
1007.773	1017.18
1008.067	1002.94
1008.361	984.64
1008.655	982.6
1008.948	960.45
1009.242	989.15
1009.535	985.09
1009.829	967.01
1010.122	924.75
1010.415	974.69
1010.708	958.87
1011.001	959.78
1011.295	938.31
1011.588	945.99
1011.881	924.3
1012.173	919.33
1012.466	940.12
1012.759	941.47
1013.052	922.26
1013.344	934.01
1013.637	918.87
1013.93	917.07
1014.222	920
1014.514	893.34
1014.807	877.75
1015.099	892.66
1015.391	893.79
1015.683	873
1015.976	875.03
1016.268	854.7
1016.56	861.93
1016.851	865.32
1017.143	857.63
1017.435	835.26
1017.727	876.84
1018.018	854.24
1018.31	851.53
1018.602	838.65
1018.893	853.57
1019.185	833.68
1019.476	809.5
1019.767	839.33
1020.058	810.63
1020.35	830.29
1020.641	809.72
1020.932	807.69
1021.223	821.93
1021.514	809.05
1021.804	802.04
1022.095	803.17
1022.386	788.48
1022.677	762.04
1022.967	750.29
1023.258	765.21
1023.548	779.67
1023.839	734.25
1024.129	762.95
1024.419	722.72
1024.709	727.01
1025	739.44
1025.29	762.95
1025.58	743.06
1025.87	721.37
1026.16	730.4
1026.449	751.42
1026.739	751.42
1027.029	729.95
1027.319	725.43
1027.608	725.43
1027.898	718.65
1028.187	699.67
1028.477	721.37
1028.766	732.21
1029.055	685.21
1029.344	709.84
1029.634	686.56
1029.923	665.55
1030.212	708.26
1030.501	687.69
1030.79	675.94
1031.078	693.12
1031.367	683.17
1031.656	675.49
1031.945	684.3
1032.233	668.71
1032.522	653.8
1032.81	646.79
1033.099	658.99
1033.387	672.33
1033.675	646.79
1033.963	650.41
1034.251	661.93
1034.54	647.92
1034.828	626.68
1035.116	631.2
1035.403	627.58
1035.691	625.55
1035.979	618.54
1036.267	623.74
1036.554	623.74
1036.842	622.84
1037.129	624.42
1037.417	596.17
1037.704	617.19
1037.992	617.19
1038.279	601.59
1038.566	589.17
1038.853	589.17
1039.14	589.17
