Data from brown_tile_FLMS001491_024.txt Node
Date: Tue Feb 07 10:37:17 GMT 2017
User: dcchb
Spectrometer: FLMS00149
Trigger mode: 0
Integration Time (sec): 2.000000E-2
Scans to average: 10
Electric dark correction enabled: true
Nonlinearity correction enabled: false
Boxcar width: 0
XAxis mode: Wavelengths
Number of Pixels in Spectrum: 2048
>>>>>Begin Spectral Data<<<<<
341.393	-11.29
341.776	-11.29
342.16	-11.29
342.543	-74.33
342.927	-63.04
343.31	-67.1
343.693	-79.98
344.077	-36.37
344.46	-46.76
344.843	-47.67
345.226	-48.8
345.61	-34.56
345.993	-27.78
346.376	-2.25
346.759	18.54
347.142	32.33
347.525	47.7
347.908	43.4
348.291	80.24
348.674	62.61
349.057	106.45
349.44	102.16
349.823	127.02
350.206	155.04
350.588	169.73
350.971	186.68
351.354	211.08
351.737	216.73
352.119	237.75
352.502	252.44
352.884	257.86
353.267	272.1
353.65	284.75
354.032	283.62
354.414	286.79
354.797	303.06
355.179	274.36
355.562	303.51
355.944	311.87
356.326	295.83
356.709	305.32
357.091	306.22
357.473	305.99
357.855	319.1
358.238	315.49
358.62	331.3
359.002	332.21
359.384	309.38
359.766	328.37
360.148	311.64
360.53	327.01
360.912	332.66
361.294	327.92
361.676	305.77
362.057	339.44
362.439	319.78
362.821	320.01
363.203	297.86
363.584	293.79
363.966	313.45
364.348	314.13
364.729	297.41
365.111	308.03
365.493	326.79
365.874	311.87
366.256	297.86
366.637	296.05
367.019	296.73
367.4	306.67
367.781	284.75
368.163	292.89
368.544	291.08
368.925	304.86
369.306	302.38
369.688	278.65
370.069	280.01
370.45	303.51
370.831	285.43
371.212	291.08
371.593	289.5
371.974	307.35
372.355	300.12
372.736	284.53
373.117	296.73
373.498	283.17
373.879	289.95
374.26	300.35
374.641	296.5
375.021	287.24
375.402	305.99
375.783	309.16
376.163	306.22
376.544	315.49
376.925	278.42
377.305	301.48
377.686	299.89
378.066	312.32
378.447	309.84
378.827	306.45
379.208	303.06
379.588	334.92
379.968	329.72
380.349	316.39
380.729	299.44
381.109	332.43
381.489	315.49
381.87	316.39
382.25	319.33
382.63	310.74
383.01	316.39
383.39	312.1
383.77	320.91
384.15	336.05
384.53	313.9
384.91	303.06
385.29	322.94
385.67	305.09
386.049	346.67
386.429	339.67
386.809	342.15
387.189	338.99
387.568	340.34
387.948	327.24
388.328	348.03
388.707	310.51
389.087	327.69
389.466	334.24
389.846	333.34
390.225	358.87
390.605	338.76
390.984	325.88
391.363	333.34
391.743	334.24
392.122	357.52
392.501	356.16
392.881	360.46
393.26	344.41
393.639	345.54
394.018	343.96
394.397	368.37
394.776	330.17
395.155	340.57
395.534	349.16
395.913	362.04
396.292	351.42
396.671	364.52
397.05	364.98
397.429	381.7
397.808	356.61
398.186	362.94
398.565	375.37
398.944	367.24
399.323	353.45
399.701	372.43
400.08	348.25
400.458	348.25
400.837	377.86
401.215	366.33
401.594	372.66
401.972	375.6
402.351	379.21
402.729	382.15
403.107	375.37
403.486	377.41
403.864	391.87
404.242	391.42
404.62	390.74
404.999	406.56
405.377	391.87
405.755	389.38
406.133	382.38
406.511	406.78
406.889	370.4
407.267	404.98
407.645	404.3
408.023	395.48
408.401	403.39
408.779	400.46
409.156	413.34
409.534	420.12
409.912	421.47
410.29	427.35
410.667	425.31
411.045	385.31
411.422	418.99
411.8	426.44
412.178	418.53
412.555	447.91
412.933	426.22
413.31	415.82
413.687	408.82
414.065	438.19
414.442	433.9
414.819	445.88
415.197	453.11
415.574	460.79
415.951	457.86
416.328	447.46
416.705	478.65
417.082	466.44
417.46	456.95
417.837	458.08
418.214	458.76
418.591	461.7
418.967	454.24
419.344	476.16
419.721	460.12
420.098	456.5
420.475	471.41
420.852	470.28
421.228	466.44
421.605	480.23
421.982	485.88
422.358	469.15
422.735	493.33
423.111	477.52
423.488	469.38
423.864	478.19
424.241	489.49
424.617	484.52
424.994	476.39
425.37	502.83
425.746	486.1
426.123	498.98
426.499	505.99
426.875	514.35
427.251	505.76
427.627	505.31
428.003	503.05
428.379	543.05
428.756	524.75
429.132	521.13
429.507	521.36
429.883	531.07
430.259	556.84
430.635	543.5
431.011	574.24
431.387	559.1
431.763	580.34
432.138	569.04
432.514	556.38
432.89	563.62
433.265	587.8
433.641	571.75
434.016	582.6
434.392	596.38
434.767	595.93
435.143	569.04
435.518	593.22
435.894	602.48
436.269	606.33
436.644	588.47
437.02	601.35
437.395	633.9
437.77	619.88
438.145	628.92
438.52	614.91
438.895	636.61
439.271	610.17
439.646	647.91
440.021	656.72
440.395	633.67
440.77	668.7
441.145	664.18
441.52	640.45
441.895	652.43
442.27	648.36
442.645	662.37
443.019	677.96
443.394	655.14
443.769	692.2
444.143	678.87
444.518	664.4
444.892	663.95
445.267	688.36
445.641	708.47
446.016	691.07
446.39	715.7
446.764	712.54
447.139	695.82
447.513	682.48
447.887	716.15
448.262	712.31
448.636	686.32
449.01	683.16
449.384	725.42
449.758	726.1
450.132	722.48
450.506	717.06
450.88	762.03
451.254	749.37
451.628	754.12
452.002	769.03
452.376	747.79
452.75	760.67
453.123	770.62
453.497	775.36
453.871	761.58
454.244	799.32
454.618	780.11
454.992	806.55
455.365	799.54
455.739	798.19
456.112	801.57
456.486	804.96
456.859	852.87
457.232	833.66
457.606	850.39
457.979	850.39
458.352	842.7
458.725	875.47
459.099	867.34
459.472	876.38
459.845	898.75
460.218	883.15
460.591	927
460.964	909.82
461.337	911.63
461.71	926.32
462.083	951.18
462.456	937.84
462.829	937.84
463.201	973.1
463.574	964.51
463.947	983.72
464.32	1001.8
464.692	978.29
465.065	993.21
465.438	992.76
465.81	1003.38
466.183	1019.65
466.555	1056.94
466.928	1023.72
467.3	1020.1
467.672	1054.9
468.045	1074.79
468.417	1071.85
468.789	1088.12
469.161	1115.01
469.534	1098.06
469.906	1112.3
470.278	1141.68
470.65	1150.04
471.022	1149.81
471.394	1173.77
471.766	1206.08
472.138	1192.75
472.51	1226.65
472.882	1222.58
473.253	1256.25
473.625	1260.32
473.997	1278.62
474.369	1262.81
474.74	1282.47
475.112	1309.13
475.484	1333.99
475.855	1350.04
476.227	1381.45
476.598	1375.8
476.97	1408.34
477.341	1442.46
477.713	1456.92
478.084	1465.29
478.455	1479.52
478.827	1494.44
479.198	1522.01
479.569	1559.07
479.94	1555
480.311	1577.15
480.682	1604.72
481.053	1618.05
481.424	1645.62
481.795	1646.52
482.166	1651.27
482.537	1687.65
482.908	1743.47
483.279	1755.45
483.65	1766.75
484.021	1773.07
484.391	1830.25
484.762	1839.51
485.133	1879.06
485.503	1850.13
485.874	1890.13
486.244	1911.6
486.615	1960.87
486.985	2002.9
487.356	2022.56
487.726	2012.84
488.097	2081.99
488.467	2051.26
488.837	2099.62
489.207	2138.26
489.578	2143.23
489.948	2164.93
490.318	2214.19
490.688	2181.43
491.058	2219.62
491.428	2277.02
491.798	2299.39
492.168	2344.81
492.538	2332.61
492.908	2383.91
493.278	2380.52
493.648	2377.58
494.017	2448.09
494.387	2399.73
494.757	2434.07
495.126	2462.77
495.496	2454.19
495.866	2508.2
496.235	2508.2
496.605	2546.39
496.974	2558.36
497.344	2578.03
497.713	2605.6
498.082	2645.82
498.452	2638.36
498.821	2656.22
499.19	2635.2
499.559	2686.27
499.928	2712.49
500.298	2754.07
500.667	2754.07
501.036	2764.01
501.405	2765.37
501.774	2752.03
502.143	2831.8
502.512	2824.8
502.88	2865.7
503.249	2899.37
503.618	2906.15
503.987	2881.07
504.356	2937.79
504.724	2935.76
505.093	2970.56
505.462	2945.02
505.83	2970.56
506.199	3016.88
506.567	3040.39
506.936	3022.99
507.304	3034.51
507.672	3088.52
508.041	3130.33
508.409	3164
508.777	3162.64
509.145	3184.79
509.514	3181.17
509.882	3196.77
510.25	3180.27
510.618	3236.09
510.986	3252.81
511.354	3323.77
511.722	3324.9
512.09	3348.4
512.458	3350.66
512.826	3355.41
513.193	3384.11
513.561	3414.39
513.929	3425.23
514.297	3451.22
514.664	3541.84
515.032	3514.72
515.4	3534.61
515.767	3559.24
516.135	3599.02
516.502	3575.06
516.869	3644.44
517.237	3650.54
517.604	3700.93
517.972	3694.83
518.339	3760.14
518.706	3731.44
519.073	3768.28
519.44	3756.75
519.808	3798.33
520.175	3792
520.542	3866.13
520.909	3931.21
521.276	3918.78
521.643	3990.19
522.009	4004.43
522.376	4015.28
522.743	4062.51
523.11	4068.38
523.477	4089.85
523.843	4147.7
524.21	4173.92
524.577	4247.59
524.943	4300.92
525.31	4305.66
525.676	4276.06
526.043	4365.55
526.409	4359.67
526.776	4425.66
527.142	4443.29
527.508	4451.87
527.874	4534.36
528.241	4519.22
528.607	4566
528.973	4639.67
529.339	4595.15
529.705	4643.51
530.071	4693.45
530.437	4707.23
530.803	4687.57
531.169	4783.62
531.535	4809.61
531.901	4812.99
532.267	4914.24
532.632	4883.73
532.998	4908.13
533.364	4931.41
533.73	4951.07
534.095	4972.76
534.461	5074.23
534.826	5102.03
535.192	5126.43
535.557	5117.39
535.923	5143.83
536.288	5186.54
536.653	5238.75
537.019	5264.73
537.384	5227.67
537.749	5302.93
538.114	5330.72
538.479	5396.71
538.845	5402.36
539.21	5415.46
539.575	5450.72
539.94	5477.38
540.305	5505.63
540.67	5528.68
541.034	5552.41
541.399	5573.43
541.764	5614.1
542.129	5634.89
542.494	5653.42
542.858	5692.29
543.223	5766.42
543.587	5780.65
543.952	5781.11
544.316	5804.38
544.681	5775.68
545.045	5854.78
545.41	5918.73
545.774	5930.48
546.138	5988.78
546.503	5955.79
546.867	6005.96
547.231	6092.06
547.595	6127.31
547.959	6133.41
548.324	6168.89
548.688	6188.33
549.052	6263.13
549.416	6283.01
549.779	6365.27
550.143	6328.44
550.507	6413.18
550.871	6469.67
551.235	6491.37
551.599	6565.27
551.962	6548.99
552.326	6612.5
552.689	6668.09
553.053	6645.94
553.417	6712.38
553.78	6833.28
554.143	6844.13
554.507	6942.88
554.87	6930.68
555.234	7038.93
555.597	7067.85
555.96	7074.4
556.323	7177.9
556.686	7204.12
557.05	7240.28
557.413	7327.73
557.776	7388.29
558.139	7440.27
558.502	7561.62
558.865	7566.14
559.228	7589.87
559.59	7722.3
559.953	7722.75
560.316	7873.93
560.679	7950.54
561.041	7991.67
561.404	8003.19
561.767	8096.98
562.129	8109.63
562.492	8245
562.854	8246.12
563.217	8344.88
563.579	8429.62
563.941	8449.74
564.304	8516.4
564.666	8673.23
565.028	8750.74
565.39	8844.53
565.753	8853.57
566.115	9039.78
566.477	9004.52
566.839	9098.98
567.201	9232.99
567.563	9219.66
567.925	9310.96
568.287	9461.91
568.648	9493.32
569.01	9557.95
569.372	9681.79
569.734	9687.67
570.095	9795.24
570.457	9888.34
570.819	9911.84
571.18	10006.98
571.542	10144.83
571.903	10235.23
572.265	10310.7
572.626	10422.56
572.987	10383.7
573.349	10545.05
573.71	10576.69
574.071	10729.22
574.432	10737.13
574.794	10883.57
575.155	10859.84
575.516	10909.33
575.877	10962.66
576.238	11090.34
576.599	11189.32
576.96	11236.33
577.32	11273.84
577.681	11420.5
578.042	11481.52
578.403	11530.33
578.763	11640.61
579.124	11645.36
579.485	11810.33
579.845	11821.62
580.206	11829.99
580.566	11938.23
580.927	11990.21
581.287	12073.82
581.648	12071.34
582.008	12143.88
582.368	12176.19
582.728	12266.13
583.089	12271.1
583.449	12250.31
583.809	12425.22
584.169	12381.84
584.529	12501.38
584.889	12639.68
585.249	12561.72
585.609	12551.55
585.969	12716.06
586.329	12745.89
586.688	12737.08
587.048	12909.05
587.408	12839
587.768	12871.09
588.127	12900.01
588.487	12954.48
588.846	13137.52
589.206	13018.88
589.565	13031.08
589.925	13227.46
590.284	13136.84
590.643	13209.84
591.003	13288.25
591.362	13327.8
591.721	13387.46
592.08	13396.95
592.44	13408.02
592.799	13522.37
593.158	13520.79
593.517	13522.14
593.876	13584.97
594.235	13573.44
594.593	13740.22
594.952	13682.14
595.311	13781.12
595.67	13749.26
596.029	13832.19
596.387	13819.76
596.746	13903.83
597.104	13949.7
597.463	13857.28
597.822	14060.44
598.18	14020.21
598.538	14019.08
598.897	14125.74
599.255	14055.24
599.613	14221.79
599.972	14154.67
600.33	14184.05
600.688	14214.78
601.046	14335.68
601.404	14344.5
601.762	14353.99
602.12	14436.24
602.478	14340.43
602.836	14514.21
603.194	14458.39
603.552	14434.66
603.91	14479.41
604.268	14629.23
604.625	14514.21
604.983	14569.8
605.341	14636.24
605.698	14598.05
606.056	14740.64
606.413	14668.33
606.771	14795.56
607.128	14800.98
607.485	14812.28
607.843	14748.78
608.2	14997.36
608.557	14945.61
608.914	14928.44
609.272	14994.2
609.629	15028.55
609.986	15058.6
610.343	15041.65
610.7	15183.8
611.057	15162.33
611.414	15167.52
611.771	15141.08
612.127	15262.66
612.484	15297.47
612.841	15369.78
613.198	15272.38
613.554	15324.81
613.911	15413.62
614.267	15431.25
614.624	15426.28
614.98	15504.24
615.337	15514.63
615.693	15488.42
616.05	15470.34
616.406	15670.79
616.762	15542.2
617.118	15529.78
617.475	15665.59
617.831	15660.85
618.187	15655.87
618.543	15703.1
618.899	15801.63
619.255	15733.39
619.611	15702.65
619.967	15813.61
620.323	15817.9
620.678	15825.36
621.034	15744.23
621.39	15844.57
621.746	15797.79
622.101	16023.1
622.457	15755.53
622.812	15943.1
623.168	15929.54
623.523	15959.82
623.879	15961.85
624.234	15911.91
624.589	15945.58
624.945	15934.96
625.3	16032.13
625.655	15983.77
626.01	16010.21
626.365	16053.6
626.72	15981.51
627.075	15929.54
627.43	15998.01
627.785	16011.8
628.14	16023.77
628.495	16020.38
628.85	16023.1
629.205	16071.68
629.559	16021.51
629.914	15982.19
630.269	16013.83
630.623	16058.35
630.978	15912.59
631.332	16024.68
631.687	16091.79
632.041	15966.37
632.396	16056.54
632.75	15929.99
633.104	15956.43
633.459	15896.09
633.813	15977.45
634.167	16001.4
634.521	15888.64
634.875	15962.53
635.229	15862.87
635.583	15865.13
635.937	15868.07
636.291	15801.63
636.645	15847.51
636.999	15808.64
637.352	15829.65
637.706	15727.51
638.06	15833.04
638.413	15854.96
638.767	15791.01
639.121	15802.31
639.474	15667.17
639.828	15733.61
640.181	15724.8
640.534	15696.55
640.888	15677.12
641.241	15617
641.594	15689.32
641.947	15649.32
642.301	15641.64
642.654	15638.25
643.007	15683.67
643.36	15696.55
643.713	15616.1
644.066	15744.68
644.419	15656.78
644.771	15542.2
645.124	15301.08
645.477	15384.02
645.83	15321.87
646.182	15212.5
646.535	15208.65
646.888	15129.33
647.24	15129.11
647.593	15246.39
647.945	15174.3
648.298	15032.16
648.65	15082.33
649.002	15115.1
649.355	15089.11
649.707	15120.52
650.059	15182.89
650.411	15300.63
650.763	15339.95
651.115	15489.78
651.467	15460.62
651.819	15447.97
652.171	15449.78
652.523	15465.37
652.875	15474.86
653.227	15405.26
653.578	15468.53
653.93	15343.11
654.282	15363.45
654.633	15316
654.985	15364.13
655.337	15300.4
655.688	15412.04
656.039	15401.19
656.391	15268.54
656.742	15363.45
657.094	15364.81
657.445	15364.13
657.796	15310.12
658.147	15337.69
658.498	15318.48
658.849	15408.2
659.2	15358.93
659.551	15363.9
659.902	15361.87
660.253	15317.13
660.604	15398.03
660.955	15273.74
661.306	15398.71
661.656	15417.46
662.007	15383.11
662.358	15411.59
662.708	15371.81
663.059	15412.94
663.409	15221.76
663.76	15420.85
664.11	15383.11
664.461	15433.73
664.811	15389.44
665.161	15441.87
665.511	15436.22
665.862	15463.34
666.212	15493.17
666.562	15393.28
666.912	15426.73
667.262	15407.52
667.612	15504.24
667.962	15339.72
668.312	15415.2
668.662	15546.5
669.011	15467.18
669.361	15477.8
669.711	15398.71
670.06	15427.41
670.41	15419.95
670.76	15363
671.109	15446.61
671.459	15478.48
671.808	15351.7
672.157	15425.37
672.507	15424.69
672.856	15414.98
673.205	15455.43
673.554	15570.23
673.904	15440.51
674.253	15463.34
674.602	15427.18
674.951	15125.94
675.3	15191.48
675.649	15407.52
675.998	15348.09
676.346	15419.72
676.695	15477.8
677.044	15272.83
677.393	15465.14
677.741	15403.68
678.09	15467.4
678.438	15386.05
678.787	15441.42
679.135	15463.56
679.484	15320.06
679.832	15451.59
680.181	15368.88
680.529	15412.26
680.877	15432.38
681.225	15305.6
681.573	15429.66
681.922	15337.92
682.27	15288.2
682.618	15278.03
682.966	15359.16
683.314	15338.82
683.661	15285.04
684.009	15212.04
684.357	15139.05
684.705	15231.7
685.053	15222.66
685.4	15188.99
685.748	15149.45
686.095	15207.98
686.443	15123.23
686.79	15093.4
687.138	15187.64
687.485	15181.08
687.832	15120.52
688.18	15079.62
688.527	14989
688.874	15066.06
689.221	15033.29
689.568	14971.15
689.915	15067.19
690.262	14967.3
690.609	14903.8
690.956	14942.67
691.303	14960.52
691.65	14940.64
691.997	14885.27
692.344	14744.71
692.69	14754.88
693.037	14810.47
693.383	14780.42
693.73	14812.28
694.077	14664.94
694.423	14693.64
694.769	14701.77
695.116	14741.55
695.462	14639.86
695.808	14654.77
696.155	14614.55
696.501	14583.13
696.847	14599.4
697.193	14481.89
697.539	14556.92
697.885	14430.6
698.231	14368.68
698.577	14441.22
698.923	14448.67
699.269	14335.91
699.614	14318.51
699.96	14297.04
700.306	14329.81
700.651	14234.67
700.997	14198.74
701.342	14239.87
701.688	14229.47
702.033	14197.38
702.379	14167.33
702.724	14153.31
703.069	14151.28
703.415	13978.18
703.76	13979.08
704.105	14000.55
704.45	14077.84
704.795	14023.6
705.14	13975.47
705.485	14037.61
705.83	14004.17
706.175	13965.07
706.52	13870.16
706.865	13878.07
707.209	13842.81
707.554	13837.84
707.899	13888.91
708.243	13786.77
708.588	13856.37
708.932	13834.9
709.277	13785.41
709.621	13799.2
709.966	13607.79
710.31	13773.66
710.654	13595.36
710.998	13625.42
711.342	13637.17
711.687	13699.09
712.031	13628.13
712.375	13499.77
712.719	13553.56
713.063	13553.33
713.407	13584.52
713.75	13546.1
714.094	13511.98
714.438	13424.52
714.782	13554.01
715.125	13464.97
715.469	13503.61
715.812	13412.77
716.156	13324.64
716.499	13361.92
716.843	13452.99
717.186	13278.31
717.53	13378.19
717.873	13327.8
718.216	13337.29
718.559	13353.56
718.902	13244.64
719.246	13259.78
719.589	13220.68
719.932	13212.1
720.275	13213
720.617	13221.36
720.96	13177.97
721.303	13161.7
721.646	13225.43
721.989	13098.2
722.331	13207.8
722.674	13198.09
723.016	13076.96
723.359	13111.08
723.701	13090.29
724.044	13052.78
724.386	13077.41
724.729	13049.16
725.071	13039.45
725.413	13022.27
725.755	13077.64
726.097	13062.72
726.439	12972.1
726.782	12940.24
727.124	13013.68
727.465	12960.35
727.807	12894.59
728.149	12937.98
728.491	12938.88
728.833	12891.88
729.175	12905.21
729.516	12855.72
729.858	12804.88
730.199	12942.95
730.541	12823.41
730.882	12884.87
731.224	12812.78
731.565	12730.98
731.906	12779.79
732.248	12783.18
732.589	12744.99
732.93	12627.7
733.271	12737.98
733.612	12774.82
733.953	12753.35
734.294	12750.64
734.635	12671.77
734.976	12778.66
735.317	12620.02
735.658	12642.39
735.999	12652.79
736.339	12591.1
736.68	12670.87
737.021	12597.87
737.361	12516.3
737.702	12681.71
738.042	12558.78
738.383	12479.46
738.723	12594.26
739.063	12560.59
739.404	12558.33
739.744	12554.71
740.084	12485.79
740.424	12543.87
740.764	12405.34
741.104	12513.36
741.444	12332.57
741.784	12388.16
742.124	12446.47
742.464	12338.9
742.804	12325.79
743.143	12399.91
743.483	12347.26
743.823	12341.61
744.162	12248.96
744.502	12319.69
744.841	12248.28
745.181	12280.6
745.52	12234.72
745.86	12245.57
746.199	12248.73
746.538	12229.52
746.877	12184.1
747.216	12205.79
747.556	12106.81
747.895	12220.48
748.234	12103.65
748.573	12122.41
748.911	12091.9
749.25	12064.1
749.589	12051.9
749.928	12051.45
750.267	12042.41
750.605	11968.74
750.944	11952.24
751.283	11979.59
751.621	11946.14
751.96	11860.27
752.298	11924.67
752.636	11929.87
752.975	11886.03
753.313	11714.73
753.651	11799.48
753.989	11785.47
754.327	11696.66
754.666	11664.11
755.004	11688.29
755.342	11682.42
755.679	11699.37
756.017	11602.42
756.355	11604.23
756.693	11535.98
757.031	11517.68
757.368	11490.79
757.706	11450.33
758.044	11419.15
758.381	11386.83
758.719	11319.72
759.056	11326.95
759.394	11346.61
759.731	11311.81
760.068	11228.42
760.405	11210.79
760.743	11156.33
761.08	11138.7
761.417	11084.02
761.754	11099.61
762.091	11079.5
762.428	11025.49
762.765	10958.82
763.102	11020.52
763.438	10935.55
763.775	10899.84
764.112	10860.29
764.449	10844.02
764.785	10799.05
765.122	10736.91
765.458	10694.65
765.795	10630.47
766.131	10700.07
766.467	10572.62
766.804	10550.92
767.14	10576.46
767.476	10540.53
767.812	10497.37
768.148	10512.51
768.485	10421.89
768.821	10364.94
769.157	10316.13
769.492	10280.65
769.828	10303.92
770.164	10253.76
770.5	10191.38
770.836	10186.64
771.171	10098.73
771.507	10072.97
771.842	9949.58
772.178	9984.16
772.513	9990.03
772.849	9847.89
773.184	9884.27
773.519	9865.52
773.855	9809.25
774.19	9803.37
774.525	9754.79
774.86	9708.46
775.195	9692.87
775.53	9630.95
775.865	9589.37
776.2	9588.24
776.535	9472.31
776.87	9451.97
777.205	9396.6
777.539	9394.34
777.874	9409.94
778.209	9371.07
778.543	9348.24
778.878	9258.3
779.212	9233.22
779.547	9206.1
779.881	9209.26
780.215	9095.59
780.55	9178.76
780.884	9109.38
781.218	9059.66
781.552	9106.89
781.886	8951.42
782.22	8901.25
782.554	8928.59
782.888	8833.91
783.222	8777.64
783.556	8786.22
783.889	8767.02
784.223	8685.66
784.557	8698.77
784.89	8655.15
785.224	8599.34
785.557	8596.85
785.891	8468.72
786.224	8502.39
786.558	8484.08
786.891	8386.23
787.224	8350.08
787.557	8373.58
787.891	8332
788.224	8300.13
788.557	8320.7
788.89	8202.96
789.223	8176.52
789.556	8192.79
789.888	8119.12
790.221	8098.11
790.554	8030.99
790.887	8076.41
791.219	8037.54
791.552	8013.81
791.884	7998.45
792.217	7978.56
792.549	7929.52
792.882	7870.09
793.214	7864.67
793.546	7855.63
793.879	7738.57
794.211	7746.7
794.543	7694.5
794.875	7706.48
795.207	7684.11
795.539	7692.02
795.871	7672.35
796.203	7546.03
796.535	7531.12
796.867	7527.27
797.198	7483.21
797.53	7486.82
797.862	7419.25
798.193	7404.11
798.525	7360.5
798.856	7369.99
799.188	7308.3
799.519	7309.65
799.85	7240.5
800.182	7231.24
800.513	7281.4
800.844	7185.81
801.175	7246.15
801.506	7146.72
801.837	7081.41
802.168	7095.65
802.499	7049.32
802.83	7079.6
803.161	7071.01
803.491	6948.08
803.822	7053.61
804.153	6976.33
804.483	6958.7
804.814	6941.98
805.145	6927.06
805.475	6888.65
805.805	6828.76
806.136	6843.9
806.466	6829.44
806.796	6796.67
807.126	6715.32
807.457	6745.6
807.787	6709.89
808.117	6706.96
808.447	6710.57
808.777	6706.96
809.107	6626.05
809.436	6620.18
809.766	6640.74
810.096	6640.07
810.426	6528.66
810.755	6552.38
811.085	6551.71
811.414	6529.56
811.744	6468.54
812.073	6508.09
812.403	6423.57
812.732	6421.77
813.061	6388.09
813.39	6355.33
813.719	6328.66
814.049	6346.74
814.378	6314.42
814.707	6278.27
815.036	6281.66
815.365	6224.94
815.693	6215.44
816.022	6214.99
816.351	6180.42
816.68	6115.79
817.008	6194.65
817.337	6113.53
817.665	6081.66
817.994	6138.16
818.322	6043.25
818.651	6056.58
818.979	6035.56
819.307	6118.27
819.636	6065.84
819.964	6007.99
820.292	6064.04
820.62	5975.68
820.948	5984.72
821.276	5996.69
821.604	5967.31
821.932	5958.73
822.259	6015.9
822.587	5955.79
822.915	5939.97
823.243	5951.04
823.57	5960.08
823.898	5930.71
824.225	5904.27
824.553	5907.43
824.88	5891.38
825.207	5906.07
825.535	5865.62
825.862	5912.63
826.189	5906.98
826.516	5906.07
826.843	5889.58
827.17	5920.54
827.497	5909.69
827.824	5905.4
828.151	5964.15
828.478	5904.27
828.805	5923.93
829.131	5893.19
829.458	5837.15
829.785	5829.01
830.111	5868.79
830.438	5858.39
830.764	5843.48
831.09	5815.45
831.417	5830.37
831.743	5821.33
832.069	5799.41
832.395	5767.77
832.722	5806.42
833.048	5825.62
833.374	5789.92
833.7	5785.17
834.026	5765.51
834.351	5756.92
834.677	5750.6
835.003	5750.6
835.329	5782.91
835.654	5701.33
835.98	5656.14
836.306	5744.72
836.631	5647.78
836.956	5633.09
837.282	5676.02
837.607	5671.96
837.932	5671.96
838.258	5666.08
838.583	5676.48
838.908	5563.94
839.233	5587.21
839.558	5598.51
839.883	5619.08
840.208	5529.13
840.533	5567.1
840.858	5561.68
841.182	5517.84
841.507	5568
841.832	5476.93
842.156	5480.32
842.481	5472.86
842.805	5487.1
843.13	5440.1
843.454	5434.9
843.778	5412.3
844.103	5416.59
844.427	5358.29
844.751	5384.28
845.075	5348.8
845.399	5366.43
845.723	5323.04
846.047	5343.38
846.371	5288.01
846.695	5309.25
847.019	5251.18
847.343	5213.89
847.666	5228.8
847.99	5146.77
848.313	5169.37
848.637	5165.75
848.96	5189.03
849.284	5069.49
849.607	5086.43
849.931	5039.43
850.254	5044.18
850.577	4984.06
850.9	4973.44
851.223	4970.5
851.546	4956.27
851.869	4883.73
852.192	4923.05
852.515	4844.41
852.838	4831.07
853.161	4881.02
853.483	4822.94
853.806	4778.65
854.129	4833.11
854.451	4767.57
854.774	4749.04
855.096	4725.99
855.419	4757.86
855.741	4749.27
856.063	4704.52
856.385	4655.94
856.708	4677.41
857.03	4611.19
857.352	4617.07
857.674	4636.73
857.996	4594.92
858.318	4590.85
858.64	4571.65
858.961	4579.78
859.283	4543.4
859.605	4531.87
859.926	4543.62
860.248	4554.24
860.57	4533.23
860.891	4533.91
861.212	4497.3
861.534	4503.85
861.855	4485.77
862.176	4528.03
862.498	4483.96
862.819	4440.12
863.14	4406.23
863.461	4415.27
863.782	4379.33
864.103	4409.84
864.424	4382.95
864.745	4407.36
865.065	4353.57
865.386	4356.28
865.707	4376.62
866.027	4351.99
866.348	4403.29
866.668	4344.53
866.989	4339.56
867.309	4294.36
867.63	4281.71
867.95	4270.64
868.27	4250.07
868.59	4249.17
868.91	4293.69
869.23	4279.9
869.55	4235.61
869.87	4266.79
870.19	4239
870.51	4243.29
870.83	4231.77
871.15	4237.42
871.469	4217.3
871.789	4220.69
872.109	4208.72
872.428	4162.84
872.748	4252.33
873.067	4204.65
873.386	4162.39
873.706	4170.53
874.025	4191.09
874.344	4181.37
874.663	4157.42
874.982	4127.82
875.301	4146.12
875.62	4155.61
875.939	4153.35
876.258	4104.09
876.577	4130.3
876.896	4076.74
877.214	4046.01
877.533	4076.52
877.852	4091.66
878.17	4078.55
878.489	4078.55
878.807	4107.48
879.125	4048.72
879.444	4047.37
879.762	4024.54
880.08	4030.42
880.398	4021.83
880.716	4025.45
881.034	3992.9
881.352	3940.02
881.67	3995.16
881.988	3960.36
882.306	3977.99
882.624	3992
882.941	3942.06
883.259	3947.71
883.577	3925.11
883.894	3935.28
884.212	3914.94
884.529	3900.25
884.846	3892.12
885.164	3897.54
885.481	3876.52
885.798	3883.53
886.115	3880.82
886.432	3894.83
886.75	3838.56
887.067	3844.43
887.383	3829.07
887.7	3820.7
888.017	3817.09
888.334	3828.39
888.651	3814.83
888.967	3812.57
889.284	3745.68
889.6	3773.25
889.917	3745
890.233	3750.2
890.55	3720.37
890.866	3706.36
891.182	3701.16
891.498	3717.66
891.815	3694.83
892.131	3679.47
892.447	3673.59
892.763	3675.62
893.079	3637.66
893.395	3632.01
893.71	3657.77
894.026	3589.52
894.342	3617.09
894.657	3571.45
894.973	3596.3
895.289	3623.42
895.604	3547.72
895.92	3546.36
896.235	3549.07
896.55	3542.29
896.865	3483.31
897.181	3477.21
897.496	3500.71
897.811	3473.37
898.126	3497.78
898.441	3455.52
898.756	3467.49
899.071	3464.1
899.386	3449.41
899.7	3430.43
900.015	3403.31
900.33	3362.41
900.644	3387.95
900.959	3407.83
901.273	3337.55
901.588	3367.84
901.902	3339.36
902.216	3322.19
902.531	3315.18
902.845	3289.87
903.159	3295.29
903.473	3291
903.787	3259.59
904.101	3281.06
904.415	3256.65
904.729	3227.27
905.042	3216.65
905.356	3228.18
905.67	3206.03
905.984	3226.6
906.297	3166.94
906.611	3172.59
906.924	3148.41
907.237	3155.19
907.551	3140.04
907.864	3133.27
908.177	3145.47
908.491	3115.41
908.804	3106.37
909.117	3106.15
909.43	3067.96
909.743	3074.28
910.056	3067.5
910.368	3044.91
910.681	3009.43
910.994	2995.19
911.307	2996.32
911.619	2975.3
911.932	2951.8
912.244	2986.38
912.557	2964.68
912.869	2951.57
913.181	2941.41
913.494	2942.08
913.806	2894.18
914.118	2933.04
914.43	2895.98
914.742	2869.54
915.054	2864.12
915.366	2871.35
915.678	2872.71
915.99	2822.76
916.302	2820.96
916.613	2826.83
916.925	2835.65
917.236	2824.12
917.548	2778.25
917.859	2769.88
918.171	2798.13
918.482	2756.1
918.794	2772.14
919.105	2719.72
919.416	2714.52
919.727	2764.24
920.038	2711.81
920.349	2707.06
920.66	2667.29
920.971	2662.99
921.282	2701.19
921.593	2654.41
921.903	2712.71
922.214	2706.38
922.525	2645.59
922.835	2621.87
923.146	2620.51
923.456	2567.63
923.767	2573.05
924.077	2571.47
924.387	2569.89
924.697	2555.88
925.008	2541.42
925.318	2574.18
925.628	2533.96
925.938	2550.46
926.248	2512.72
926.558	2463.68
926.867	2488.99
927.177	2520.17
927.487	2473.17
927.796	2460.74
928.106	2472.04
928.416	2418.93
928.725	2457.58
929.034	2441.08
929.344	2393.17
929.653	2408.76
929.962	2365.38
930.271	2403.11
930.581	2378.48
930.89	2395.88
931.199	2365.38
931.508	2369.9
931.817	2381.42
932.125	2363.34
932.434	2377.35
932.743	2347.75
933.051	2326.51
933.36	2313.17
933.669	2292.61
933.977	2305.04
934.286	2290.8
934.594	2332.61
934.902	2246.73
935.21	2256
935.519	2252.38
935.827	2225.49
936.135	2239.28
936.443	2216.23
936.751	2201.99
937.059	2207.64
937.367	2218.03
937.674	2169.9
937.982	2181.2
938.29	2180.07
938.597	2182.78
938.905	2180.75
939.213	2146.85
939.52	2140.07
939.827	2150.01
940.135	2125.38
940.442	2141.2
940.749	2075.44
941.056	2127.42
941.363	2077.7
941.67	2110.02
941.977	2089.68
942.284	2074.08
942.591	2058.04
942.898	2061.65
943.205	2059.4
943.511	2033.18
943.818	2025.95
944.125	2038.6
944.431	2007.87
944.738	2026.18
945.044	2016.01
945.35	2022.11
945.657	2011.03
945.963	2017.14
946.269	1980.08
946.575	1967.19
946.881	1958.83
947.187	1971.94
947.493	1932.39
947.799	1938.49
948.105	1938.04
948.41	1949.34
948.716	1918.61
949.022	1904.82
949.327	1891.72
949.633	1906.18
949.938	1891.94
950.244	1881.77
950.549	1906.18
950.854	1909.79
951.16	1863.69
951.465	1879.74
951.77	1851.94
952.075	1853.52
952.38	1850.81
952.685	1834.54
952.99	1841.55
953.294	1831.6
953.599	1819.4
953.904	1800.87
954.209	1798.61
954.513	1828.89
954.818	1786.41
955.122	1769.01
955.426	1770.59
955.731	1757.26
956.035	1764.49
956.339	1768.56
956.643	1745.5
956.948	1754.32
957.252	1720.87
957.556	1732.4
957.86	1730.82
958.163	1692.62
958.467	1711.38
958.771	1701.21
959.075	1697.82
959.378	1692.62
959.682	1679.52
959.985	1680.42
960.289	1665.51
960.592	1666.64
960.896	1682.91
961.199	1663.47
961.502	1640.87
961.805	1627.99
962.108	1620.08
962.411	1641.1
962.714	1622.34
963.017	1596.36
963.32	1631.38
963.623	1585.96
963.926	1610.82
964.228	1598.84
964.531	1601.1
964.833	1565.62
965.136	1594.55
965.438	1558.39
965.741	1572.85
966.043	1575.57
966.345	1590.71
966.648	1560.2
966.95	1540.99
967.252	1525.4
967.554	1538.5
967.856	1529.47
968.158	1499.86
968.46	1522.23
968.761	1511.61
969.063	1477.04
969.365	1517.71
969.666	1494.66
969.968	1488.79
970.269	1497.83
970.571	1471.84
970.872	1465.51
971.174	1476.13
971.475	1488.11
971.776	1469.35
972.077	1478.85
972.378	1450.15
972.679	1456.47
972.98	1441.33
973.281	1458.28
973.582	1427.77
973.883	1417.83
974.183	1443.82
974.484	1407.43
974.785	1420.99
975.085	1410.82
975.386	1411.5
975.686	1385.29
975.986	1418.51
976.287	1389.36
976.587	1388.68
976.887	1354.78
977.187	1394.33
977.487	1372.18
977.787	1365.18
978.087	1348.91
978.387	1359.07
978.687	1334.89
978.987	1348.45
979.286	1312.97
979.586	1322.24
979.885	1337.61
980.185	1279.53
980.484	1329.02
980.784	1301
981.083	1328.57
981.382	1301
981.682	1308.68
981.981	1318.62
982.28	1310.94
982.579	1273.88
982.878	1301
983.177	1289.02
983.475	1267.55
983.774	1280.21
984.073	1272.3
984.372	1247.21
984.67	1244.28
984.969	1264.84
985.267	1262.13
985.566	1234.11
985.864	1224.16
986.162	1233.65
986.461	1208.8
986.759	1235.91
987.057	1183.94
987.355	1225.52
987.653	1215.8
987.951	1194.78
988.249	1201.56
988.547	1184.39
988.844	1194.78
989.142	1165.86
989.44	1165.86
989.737	1167.89
990.035	1166.76
990.332	1169.02
990.63	1192.98
990.927	1181.68
991.224	1173.32
991.521	1125.86
991.819	1135.58
992.116	1141.23
992.413	1167.22
992.71	1151.4
993.006	1119.31
993.303	1125.18
993.6	1112.53
993.897	1104.84
994.193	1100.1
994.49	1110.27
994.787	1126.99
995.083	1101.91
995.379	1093.54
995.676	1089.48
995.972	1098.06
996.268	1071.62
996.565	1068.23
996.861	1084.51
997.157	1050.38
997.453	1065.97
997.749	1069.82
998.044	1061.23
998.34	1074.56
998.636	1034.34
998.932	1052.19
999.227	1026.2
999.523	1016.94
999.818	1027.11
1000.114	1015.81
1000.409	1037.5
1000.704	1021
1001	1013.55
1001.295	968.35
1001.59	1007.67
1001.885	1020.78
1002.18	998.63
1002.475	1017.84
1002.77	1011.06
1003.065	994.11
1003.359	971.06
1003.654	988.69
1003.949	979.65
1004.243	970.38
1004.538	957.96
1004.832	949.82
1005.127	958.18
1005.421	956.15
1005.715	965.19
1006.009	918.86
1006.304	932.87
1006.598	947.56
1006.892	907.56
1007.186	940.1
1007.48	918.63
1007.773	932.64
1008.067	933.32
1008.361	901.46
1008.655	883.83
1008.948	899.43
1009.242	884.51
1009.535	886.54
1009.829	885.87
1010.122	898.07
1010.415	887.45
1010.708	860.56
1011.001	891.06
1011.295	863.49
1011.588	868.92
1011.881	872.53
1012.173	857.62
1012.466	871.63
1012.759	869.6
1013.052	844.96
1013.344	862.59
1013.637	818.3
1013.93	834.57
1014.222	823.5
1014.514	834.12
1014.807	828.69
1015.099	831.86
1015.391	824.63
1015.683	797.73
1015.976	824.17
1016.268	806.55
1016.56	807.9
1016.851	778.98
1017.143	774.91
1017.435	779.2
1017.727	778.98
1018.018	769.71
1018.31	778.98
1018.602	773.55
1018.893	769.49
1019.185	773.33
1019.476	769.03
1019.767	772.65
1020.058	762.48
1020.35	745.53
1020.641	742.59
1020.932	752.76
1021.223	747.34
1021.514	727.68
1021.804	736.49
1022.095	738.98
1022.386	720.22
1022.677	745.98
1022.967	727.23
1023.258	705.76
1023.548	719.32
1023.839	719.09
1024.129	700.33
1024.419	717.28
1024.709	714.12
1025	708.92
1025.29	694.69
1025.58	687
1025.87	670.96
1026.16	679.09
1026.449	686.32
1026.739	684.97
1027.029	707.34
1027.319	663.5
1027.608	682.71
1027.898	666.89
1028.187	649.26
1028.477	674.35
1028.766	665.31
1029.055	658.75
1029.344	655.14
1029.634	647.91
1029.923	641.13
1030.212	670.96
1030.501	661.47
1030.79	630.51
1031.078	653.33
1031.367	634.8
1031.656	619.88
1031.945	637.06
1032.233	639.32
1032.522	599.32
1032.81	604.29
1033.099	601.81
1033.387	637.29
1033.675	616.5
1033.963	605.42
1034.251	616.95
1034.54	569.49
1034.828	593.9
1035.116	578.53
1035.403	584.63
1035.691	583.5
1035.979	602.94
1036.267	589.6
1036.554	594.12
1036.842	590.51
1037.129	579.89
1037.417	577.85
1037.704	580.11
1037.992	575.82
1038.279	581.47
1038.566	547.57
1038.853	547.57
1039.14	547.57
