Data from brown_tile_FLMS001491_021.txt Node
Date: Tue Feb 07 10:37:16 GMT 2017
User: dcchb
Spectrometer: FLMS00149
Trigger mode: 0
Integration Time (sec): 2.000000E-2
Scans to average: 10
Electric dark correction enabled: true
Nonlinearity correction enabled: false
Boxcar width: 0
XAxis mode: Wavelengths
Number of Pixels in Spectrum: 2048
>>>>>Begin Spectral Data<<<<<
341.393	-13.88
341.776	-13.88
342.16	-13.88
342.543	-50.72
342.927	-55.24
343.31	-52.53
343.693	-67.67
344.077	-55.69
344.46	-56.82
344.843	-60.21
345.226	-36.03
345.61	-18.63
345.993	-14.34
346.376	-6.43
346.759	-3.71
347.142	29.28
347.525	40.13
347.908	51.2
348.291	80.13
348.674	63.4
349.057	107.92
349.44	127.81
349.823	154.7
350.206	153.34
350.588	174.81
350.971	191.31
351.354	205.77
351.737	228.6
352.119	231.99
352.502	244.87
352.884	262.27
353.267	247.8
353.65	275.83
354.032	288.93
354.414	271.76
354.797	307.92
355.179	297.29
355.562	301.59
355.944	300.46
356.326	305.66
356.709	326.45
357.091	318.76
357.473	297.52
357.855	312.89
358.238	322.15
358.62	330.06
359.002	337.97
359.384	316.28
359.766	339.33
360.148	299.1
360.53	326.22
360.912	318.31
361.294	305.66
361.676	327.58
362.057	317.86
362.439	324.41
362.821	302.27
363.203	286
363.584	312.44
363.966	307.69
364.348	307.92
364.729	304.3
365.111	293.23
365.493	317.41
365.874	301.81
366.256	307.24
366.637	293.9
367.019	293.23
367.4	293.9
367.781	303.62
368.163	306.11
368.544	288.71
368.925	275.6
369.306	297.52
369.688	299.78
370.069	290.06
370.45	300.01
370.831	310.18
371.212	296.39
371.593	293.9
371.974	311.98
372.355	295.03
372.736	283.06
373.117	300.01
373.498	288.71
373.879	287.8
374.26	300.68
374.641	288.26
375.021	299.1
375.402	289.16
375.783	302.94
376.163	298.42
376.544	293
376.925	287.13
377.305	311.31
377.686	308.59
378.066	299.78
378.447	306.33
378.827	325.99
379.208	315.83
379.588	294.58
379.968	312.89
380.349	335.71
380.729	319.89
381.109	300.46
381.489	322.38
381.87	314.02
382.25	318.76
382.63	345.43
383.01	325.77
383.39	322.6
383.77	324.64
384.15	318.31
384.53	310.18
384.91	320.12
385.29	315.83
385.67	322.38
386.049	332.32
386.429	332.1
386.809	323.96
387.189	339.1
387.568	325.99
387.948	338.88
388.328	339.33
388.707	327.58
389.087	342.49
389.466	345.43
389.846	325.99
390.225	328.93
390.605	330.97
390.984	339.33
391.363	347.01
391.743	345.43
392.122	339.78
392.501	335.03
392.881	356.28
393.26	351.98
393.639	352.21
394.018	337.97
394.397	347.91
394.776	361.47
395.155	355.37
395.534	352.43
395.913	368.03
396.292	359.67
396.671	350.85
397.05	376.16
397.429	375.03
397.808	382.04
398.186	378.42
398.565	359.21
398.944	352.89
399.323	357.63
399.701	358.31
400.08	360.12
400.458	378.2
400.837	380.23
401.215	380.46
401.594	368.7
401.972	356.05
402.351	382.49
402.729	372.77
403.107	365.77
403.486	392.43
403.864	380
404.242	388.37
404.62	391.08
404.999	389.72
405.377	390.4
405.755	373.68
406.133	384.98
406.511	401.25
406.889	372.32
407.267	392.43
407.645	412.55
408.023	393.11
408.401	418.87
408.779	410.96
409.156	406.44
409.534	394.92
409.912	401.25
410.29	403.28
410.667	418.2
411.045	427.01
411.422	433.11
411.8	413.45
412.178	413.45
412.555	427.01
412.933	429.72
413.31	427.23
413.687	438.99
414.065	414.13
414.442	410.96
414.819	448.25
415.197	437.4
415.574	439.44
415.951	460.45
416.328	462.26
416.705	445.77
417.082	467.46
417.46	447.57
417.837	456.39
418.214	455.71
418.591	457.74
418.967	446.22
419.344	462.71
419.721	458.65
420.098	471.98
420.475	464.07
420.852	480.57
421.228	474.01
421.605	478.31
421.982	497.74
422.358	478.31
422.735	487.12
423.111	469.72
423.488	493.22
423.864	492.54
424.241	495.26
424.617	499.32
424.994	502.49
425.37	498.65
425.746	504.07
426.123	497.74
426.499	505.65
426.875	502.71
427.251	514.01
427.627	502.71
428.003	516.05
428.379	533.22
428.756	514.24
429.132	543.84
429.507	545.65
429.883	542.94
430.259	536.84
430.635	574.12
431.011	549.27
431.387	567.12
431.763	549.04
432.138	561.69
432.514	566.44
432.89	570.96
433.265	573.45
433.641	588.59
434.016	597.17
434.392	581.35
434.767	601.24
435.143	605.08
435.518	587
435.894	598.53
436.269	607.57
436.644	599.43
437.02	607.12
437.395	626.1
437.77	623.84
438.145	634.23
438.52	627
438.895	624.97
439.271	622.26
439.646	667.91
440.021	645.08
440.395	644.18
440.77	654.57
441.145	659.09
441.52	682.37
441.895	669.71
442.27	651.18
442.645	691.18
443.019	703.61
443.394	670.84
443.769	671.75
444.143	701.8
444.518	707.45
444.892	679.88
445.267	684.63
445.641	706.78
446.016	710.84
446.39	708.58
446.764	710.39
447.139	699.32
447.513	702.93
447.887	689.37
448.262	706.55
448.636	716.04
449.01	708.81
449.384	705.87
449.758	707.45
450.132	707
450.506	737.28
450.88	740.9
451.254	703.16
451.628	728.24
452.002	761.91
452.376	756.04
452.75	757.85
453.123	768.24
453.497	765.08
453.871	765.76
454.244	792.42
454.618	792.2
454.992	798.07
455.365	799.65
455.739	792.87
456.112	822.25
456.486	821.57
456.859	826.55
457.232	846.88
457.606	824.06
457.979	836.94
458.352	872.19
458.725	859.77
459.099	890.27
459.472	899.99
459.845	866.77
460.218	909.93
460.591	878.07
460.964	911.29
461.337	925.98
461.71	922.36
462.083	937.96
462.456	951.97
462.829	932.31
463.201	953.77
463.574	949.48
463.947	949.25
464.32	970.5
464.692	1000.78
465.065	996.26
465.438	1029.7
465.81	1031.06
466.183	1009.14
466.555	1055.69
466.928	1048.91
467.3	1045.75
467.672	1029.25
468.045	1097.5
468.417	1086.65
468.789	1078.06
469.161	1084.84
469.534	1108.35
469.906	1134.33
470.278	1142.47
470.65	1122.36
471.022	1147.44
471.394	1169.59
471.766	1201.45
472.138	1210.04
472.51	1224.73
472.882	1249.36
473.253	1244.16
473.625	1251.85
473.997	1285.74
474.369	1274.22
474.74	1309.47
475.112	1312.18
475.484	1324.16
475.855	1373.65
476.227	1348.79
476.598	1373.2
476.97	1403.25
477.341	1396.93
477.713	1425.85
478.084	1441.9
478.455	1466.3
478.827	1464.72
479.198	1507.21
479.569	1511.27
479.94	1565.96
480.311	1571.16
480.682	1614.32
481.053	1616.58
481.424	1630.37
481.795	1639.63
482.166	1693.19
482.537	1693.19
482.908	1744.71
483.279	1735.22
483.65	1770.93
484.021	1803.24
484.391	1842.11
484.762	1866.74
485.133	1851.38
485.503	1882.56
485.874	1913.3
486.244	1951.26
486.615	1953.52
486.985	1970.92
487.356	2009.11
487.726	2044.82
488.097	2040.53
488.467	2057.02
488.837	2106.51
489.207	2162.56
489.578	2135.44
489.948	2183.8
490.318	2210.24
490.688	2223.57
491.058	2225.61
491.428	2257.02
491.798	2280.07
492.168	2294.76
492.538	2330.91
492.908	2353.29
493.278	2360.74
493.648	2420.4
494.017	2421.08
494.387	2460.85
494.757	2447.75
495.126	2449.33
495.496	2469.44
495.866	2503.79
496.235	2510.57
496.605	2538.14
496.974	2588.08
497.344	2582.88
497.713	2574.52
498.082	2573.39
498.452	2686.16
498.821	2663.79
499.19	2692.94
499.559	2683.45
499.928	2708.53
500.298	2779.49
500.667	2727.29
501.036	2766.38
501.405	2773.61
501.774	2782.2
502.143	2821.52
502.512	2841.63
502.88	2856.1
503.249	2896.77
503.618	2903.33
503.987	2904.23
504.356	2925.7
504.724	2969.31
505.093	2960.95
505.462	2994.62
505.83	2964.12
506.199	2963.21
506.567	3017.9
506.936	3035.98
507.304	3099.71
507.672	3086.83
508.041	3141.97
508.409	3095.64
508.777	3155.52
509.145	3156.43
509.514	3146.94
509.882	3216.31
510.25	3236.43
510.618	3230.78
510.986	3253.37
511.354	3293.6
511.722	3320.27
512.09	3317.55
512.458	3359.81
512.826	3373.37
513.193	3384.44
513.561	3431.9
513.929	3433.26
514.297	3489.98
514.664	3493.37
515.032	3504.89
515.4	3532.46
515.767	3561.16
516.135	3601.84
516.502	3534.72
516.869	3652.69
517.237	3702.85
517.604	3629.86
517.972	3715.74
518.339	3728.16
518.706	3761.38
519.073	3767.03
519.44	3762.29
519.808	3795.06
520.175	3829.4
520.542	3858.56
520.909	3896.97
521.276	3907.59
521.643	3913.7
522.009	3997.31
522.376	4032.11
522.743	4063.98
523.11	4071.88
523.477	4160.24
523.843	4128.15
524.21	4169.96
524.577	4209.51
524.943	4216.97
525.31	4260.35
525.676	4336.74
526.043	4400.46
526.409	4369.96
526.776	4421.93
527.142	4437.98
527.508	4519.33
527.874	4528.37
528.241	4572.44
528.607	4595.03
528.973	4625.54
529.339	4669.61
529.705	4702.15
530.071	4703.05
530.437	4764.3
530.803	4766.56
531.169	4784.86
531.535	4818.08
531.901	4802.94
532.267	4910.51
532.632	4955.7
532.998	4890.85
533.364	4968.81
533.73	4957.28
534.095	5041.12
534.461	5066.66
534.826	5055.36
535.192	5066.89
535.557	5102.37
535.923	5153.89
536.288	5157.05
536.653	5250.61
537.019	5239.09
537.384	5270.27
537.749	5306.88
538.114	5302.13
538.479	5330.61
538.845	5371.74
539.21	5386.43
539.575	5466.42
539.94	5415.58
540.305	5487.21
540.67	5509.59
541.034	5585.52
541.399	5594.33
541.764	5613.99
542.129	5627.55
542.494	5665.06
542.858	5759.75
543.223	5710.49
543.587	5799.52
543.952	5773.76
544.316	5830.03
544.681	5851.95
545.045	5876.58
545.41	5882.46
545.774	5955.68
546.138	5952.96
546.503	6007.65
546.867	6124.71
547.231	6078.16
547.595	6093.53
547.959	6184.6
548.324	6128.55
548.688	6235.9
549.052	6196.35
549.416	6257.36
549.779	6328.32
550.143	6410.58
550.507	6479.96
550.871	6470.01
551.235	6419.39
551.599	6562.67
551.962	6556.56
552.326	6618.26
552.689	6644.7
553.053	6691.93
553.417	6756.79
553.78	6811.7
554.143	6845.82
554.507	6897.35
554.87	6907.74
555.234	7009.43
555.597	6998.14
555.96	7075.65
556.323	7142.99
556.686	7201.97
557.05	7297.34
557.413	7303.66
557.776	7392.93
558.139	7508.4
558.502	7516.31
558.865	7529.42
559.228	7663.2
559.59	7753.82
559.953	7795.63
560.316	7893.03
560.679	7906.36
561.041	7997.2
561.404	7987.26
561.767	8136.41
562.129	8129.18
562.492	8238.78
562.854	8283.3
563.217	8342.73
563.579	8456.18
563.941	8509.73
564.304	8535.04
564.666	8713.34
565.028	8745.66
565.39	8767.35
565.753	8862.72
566.115	8985.88
566.477	9045.31
566.839	9099.77
567.201	9174.58
567.563	9311.07
567.925	9354.68
568.287	9446.21
568.648	9511.74
569.01	9596.48
569.372	9728.23
569.734	9647.11
570.095	9832.41
570.457	9883.26
570.819	9920.09
571.18	10023.82
571.542	10146.53
571.903	10227.88
572.265	10259.29
572.626	10331.38
572.987	10422.68
573.349	10554.2
573.71	10577.48
574.071	10643.01
574.432	10713.29
574.794	10858.15
575.155	10953.51
575.516	10893.17
575.877	11116.44
576.238	11108.31
576.599	11250.23
576.96	11216.33
577.32	11379.94
577.681	11466.04
578.042	11445.48
578.403	11507.4
578.763	11580.16
579.124	11627.39
579.485	11696.09
579.845	11802.98
580.206	11764.56
580.566	11946.25
580.927	11926.82
581.287	12018.79
581.648	12054.05
582.008	12064.89
582.368	12077.32
582.728	12277.54
583.089	12245
583.449	12294.72
583.809	12337.43
584.169	12522.74
584.529	12454.26
584.889	12654.94
585.249	12618.78
585.609	12581.49
585.969	12724.09
586.329	12657.2
586.688	12837.3
587.048	12825.55
587.408	12857.19
587.768	12870.07
588.127	12949.39
588.487	12998.2
588.846	13097.41
589.206	12981.03
589.565	13080.46
589.925	13228.71
590.284	13139.22
590.643	13255.37
591.003	13258.54
591.362	13386.67
591.721	13415.37
592.08	13372.88
592.44	13427.8
592.799	13481.81
593.158	13471.86
593.517	13556.38
593.876	13625.76
594.235	13547.57
594.593	13629.83
594.952	13728.58
595.311	13634.57
595.67	13743.95
596.029	13868.01
596.387	13922.7
596.746	13990.95
597.104	13946.2
597.463	13924.05
597.822	14035.46
598.18	13946.65
598.538	13972.87
598.897	14113.88
599.255	14063.49
599.613	14228.23
599.972	14201.56
600.33	14252.63
600.688	14160.88
601.046	14340.32
601.404	14365.85
601.762	14339.19
602.12	14458.05
602.478	14454.44
602.836	14465.74
603.194	14476.58
603.552	14532.17
603.91	14517.26
604.268	14561.55
604.625	14577.37
604.983	14612.85
605.341	14639.97
605.698	14663.7
606.056	14674.32
606.413	14776.46
606.771	14779.4
607.128	14808.33
607.485	14842
607.843	14845.61
608.2	15003.12
608.557	14908.44
608.914	14979.39
609.272	15079.05
609.629	14957.47
609.986	15150.46
610.343	15092.39
610.7	15129.45
611.057	15121.76
611.414	15124.93
611.771	15239.27
612.127	15242.89
612.484	15234.3
612.841	15303.23
613.198	15292.38
613.554	15383.9
613.911	15456.22
614.267	15408.31
614.624	15436.33
614.98	15470.91
615.337	15517.69
615.693	15493.51
616.05	15539.83
616.406	15595.88
616.762	15514.52
617.118	15565.14
617.475	15599.26
617.831	15761.07
618.187	15713.16
618.543	15652.6
618.899	15774.18
619.255	15735.98
619.611	15779.37
619.967	15847.62
620.323	15937.56
620.678	15833.38
621.034	15725.82
621.39	15836.32
621.746	15775.53
622.101	16023.66
622.457	15859.37
622.812	15874.96
623.168	15983.66
623.523	15888.07
623.879	16012.81
624.234	15895.08
624.589	16042.19
624.945	15997.22
625.3	15995.64
625.655	16057.56
626.01	16001.51
626.365	16077.67
626.72	16012.14
627.075	15921.06
627.43	15990.67
627.785	16061.17
628.14	16074.96
628.495	16036.77
628.85	16064.79
629.205	15954.74
629.559	16074.96
629.914	16041.06
630.269	16008.52
630.623	15933.49
630.978	15878.58
631.332	16032.25
631.687	16066.82
632.041	16019.82
632.396	15972.81
632.75	15978.92
633.104	15933.27
633.459	15971.91
633.813	15912.93
634.167	15894.85
634.521	15934.17
634.875	15976.43
635.229	15809.88
635.583	15913.83
635.937	15843.78
636.291	15755.87
636.645	15850.33
636.999	15808.75
637.352	15833.38
637.706	15778.24
638.06	15935.3
638.413	15752.26
638.767	15780.96
639.121	15792.25
639.474	15689.43
639.828	15746.61
640.181	15673.84
640.534	15731.24
640.888	15667.51
641.241	15746.38
641.594	15717.91
641.947	15699.83
642.301	15674.74
642.654	15558.59
643.007	15775.31
643.36	15716.1
643.713	15606.5
644.066	15768.3
644.419	15635.87
644.771	15499.38
645.124	15447.4
645.477	15307.3
645.83	15241.08
646.182	15178.49
646.535	15186.39
646.888	15202.89
647.24	15099.62
647.593	15200.86
647.945	15200.41
648.298	15036.57
648.65	15129.45
649.002	15073.63
649.355	15104.36
649.707	15113.85
650.059	15139.62
650.411	15314.53
650.763	15468.42
651.115	15482.21
651.467	15462.55
651.819	15431.59
652.171	15457.35
652.523	15411.02
652.875	15423.68
653.227	15349.1
653.578	15465.94
653.93	15446.73
654.282	15426.16
654.633	15365.6
654.985	15342.1
655.337	15402.89
655.688	15437.46
656.039	15531.02
656.391	15307.97
656.742	15308.65
657.094	15286.28
657.445	15308.2
657.796	15294.87
658.147	15343.68
658.498	15364.24
658.849	15309.33
659.2	15329.89
659.551	15258.93
659.902	15472.04
660.253	15309.78
660.604	15453.28
660.955	15467.29
661.306	15347.07
661.656	15394.75
662.007	15321.76
662.358	15389.33
662.708	15305.94
663.059	15435.2
663.409	15211.25
663.76	15354.98
664.11	15349.55
664.461	15375.77
664.811	15451.02
665.161	15404.02
665.511	15448.76
665.862	15455.31
666.212	15455.77
666.562	15388.88
666.912	15488.99
667.262	15380.29
667.612	15391.59
667.962	15432.94
668.312	15398.37
668.662	15512.94
669.011	15417.12
669.361	15460.96
669.711	15377.12
670.06	15502.54
670.41	15407.18
670.76	15401.53
671.109	15381.64
671.459	15376.45
671.808	15376.9
672.157	15396.11
672.507	15358.82
672.856	15444.69
673.205	15409.89
673.554	15481.75
673.904	15425.26
674.253	15538.25
674.602	15457.8
674.951	15193.63
675.3	15156.11
675.649	15364.02
675.998	15416.44
676.346	15400.4
676.695	15544.35
677.044	15360.63
677.393	15428.87
677.741	15439.95
678.09	15482.43
678.438	15381.64
678.787	15421.19
679.135	15438.14
679.484	15293.74
679.832	15439.95
680.181	15323.34
680.529	15327.41
680.877	15347.52
681.225	15356.33
681.573	15447.63
681.922	15343.68
682.27	15374.41
682.618	15261.19
682.966	15254.42
683.314	15330.35
683.661	15237.01
684.009	15230.46
684.357	15179.61
684.705	15267.97
685.053	15200.86
685.4	15217.13
685.748	15177.13
686.095	15178.03
686.443	15092.16
686.79	15159.73
687.138	15060.97
687.485	15085.83
687.832	15096.91
688.18	15063.69
688.527	15033.86
688.874	15064.82
689.221	15053.06
689.568	15008.55
689.915	14907.53
690.262	15025.72
690.609	15014.87
690.956	14934.42
691.303	14929.45
691.65	14838.83
691.997	14842.67
692.344	14750.02
692.69	14818.27
693.037	14832.05
693.383	14720.87
693.73	14715.22
694.077	14731.94
694.423	14641.1
694.769	14654.43
695.116	14663.02
695.462	14682.9
695.808	14669.8
696.155	14585.28
696.501	14551.83
696.847	14576.02
697.193	14480.88
697.539	14567.2
697.885	14455.34
698.231	14361.56
698.577	14364.5
698.923	14363.82
699.269	14297.6
699.614	14314.55
699.96	14239.98
700.306	14310.26
700.651	14232.07
700.997	14280.88
701.342	14210.15
701.688	14206.31
702.033	14201.79
702.379	14164.27
702.724	14138.51
703.069	14207.21
703.415	14037.05
703.76	14075.46
704.105	14085.41
704.45	13963.15
704.795	13924.05
705.14	13993.21
705.485	13958.86
705.83	13895.13
706.175	13926.09
706.52	13944.17
706.865	13859.65
707.209	13935.58
707.554	13904.62
707.899	13893.32
708.243	13776.49
708.588	13822.59
708.932	13787.79
709.277	13815.13
709.621	13832.31
709.966	13715.02
710.31	13790.72
710.654	13704.85
710.998	13640.45
711.342	13598.41
711.687	13633.21
712.031	13542.82
712.375	13511.41
712.719	13602.71
713.063	13550.05
713.407	13531.75
713.75	13517.06
714.094	13495.82
714.438	13473.67
714.782	13452.2
715.125	13503.5
715.469	13477.29
715.812	13411.98
716.156	13320.45
716.499	13395.93
716.843	13411.75
717.186	13348.02
717.53	13390.74
717.873	13385.31
718.216	13305.77
718.559	13336.5
718.902	13205.66
719.246	13286.11
719.589	13200.01
719.932	13202.94
720.275	13148.71
720.617	13255.15
720.96	13206.79
721.303	13261.25
721.646	13154.36
721.989	13136.96
722.331	13246.78
722.674	13074.36
723.016	13063.51
723.359	13121.82
723.701	13075.72
724.044	13040.01
724.386	13056.06
724.729	13068.48
725.071	13089.05
725.413	13080.46
725.755	13114.36
726.097	12964.08
726.439	12979.67
726.782	12991.42
727.124	13036.39
727.465	12971.76
727.807	12923.4
728.149	12934.25
728.491	12906.91
728.833	12971.76
729.175	12951.42
729.516	12839.56
729.858	12831.65
730.199	12814.03
730.541	12874.36
730.882	12863.97
731.224	12819.45
731.565	12797.76
731.906	12815.61
732.248	12900.8
732.589	12754.14
732.93	12708.27
733.271	12765.89
733.612	12805.67
733.953	12775.16
734.294	12732.67
734.635	12714.14
734.976	12718.89
735.317	12670.08
735.658	12622.39
735.999	12672.79
736.339	12588.5
736.68	12650.42
737.021	12669.4
737.361	12579.01
737.702	12624.2
738.042	12578.55
738.383	12535.84
738.723	12524.32
739.063	12562.96
739.404	12524.77
739.744	12544.2
740.084	12539.01
740.424	12471.21
740.764	12482.06
741.104	12458.33
741.444	12348.05
741.784	12400.71
742.124	12490.65
742.464	12334.72
742.804	12417.88
743.143	12341.27
743.483	12343.08
743.823	12324.77
744.162	12301.05
744.502	12316.19
744.841	12263.53
745.181	12253.59
745.52	12299.24
745.86	12245.68
746.199	12271.67
746.538	12166.13
746.877	12220.37
747.216	12145.57
747.556	12190.77
747.895	12205.91
748.234	12236.19
748.573	12034.61
748.911	12037.78
749.25	12093.59
749.589	12002.52
749.928	12113.25
750.267	12013.6
750.605	12054.05
750.944	11920.27
751.283	11948.97
751.621	11861.28
751.96	11858.8
752.298	11884.56
752.636	11848.18
752.975	11812.25
753.313	11733.15
753.651	11861.28
753.989	11738.12
754.327	11775.86
754.666	11672.36
755.004	11667.16
755.342	11656.09
755.679	11579.48
756.017	11497.23
756.355	11593.72
756.693	11581.74
757.031	11562.53
757.368	11409.32
757.706	11447.74
758.044	11453.61
758.381	11454.97
758.719	11415.65
759.056	11410.9
759.394	11346.04
759.731	11223.33
760.068	11258.36
760.405	11193.28
760.743	11159.38
761.08	11153.51
761.417	11093.39
761.754	11102.21
762.091	11056.79
762.428	11019.27
762.765	11032.38
763.102	11011.81
763.438	10966.39
763.775	10893.17
764.112	10863.8
764.449	10829.22
764.785	10833.51
765.122	10739.28
765.458	10672.61
765.795	10728.21
766.131	10664.03
766.467	10641.66
766.804	10533.86
767.14	10549.91
767.476	10519.17
767.812	10517.59
768.148	10478.5
768.485	10398.72
768.821	10290.25
769.157	10317.6
769.492	10331.38
769.828	10292.96
770.164	10182.91
770.5	10162.12
770.836	10172.29
771.171	10077.83
771.507	10073.53
771.842	9968.23
772.178	9993.31
772.513	9982.24
772.849	9916.25
773.184	9906.53
773.519	9862.92
773.855	9831.73
774.19	9817.04
774.525	9615.24
774.86	9740.66
775.195	9705.86
775.53	9675.58
775.865	9669.93
776.2	9498.41
776.535	9445.53
776.87	9468.13
777.205	9433.33
777.539	9447.34
777.874	9395.59
778.209	9300
778.543	9304.29
778.878	9248.02
779.212	9251.41
779.547	9193.33
779.881	9230.39
780.215	9100.68
780.55	9124.18
780.884	9127.34
781.218	9051.87
781.552	8971.87
781.886	8964.19
782.22	8893.9
782.554	8895.03
782.888	8869.95
783.222	8783.17
783.556	8766.22
783.889	8723.29
784.223	8671.99
784.557	8675.83
784.89	8674.48
785.224	8577.98
785.557	8602.16
785.891	8551.31
786.224	8504.76
786.558	8530.98
786.891	8470.86
787.224	8334.6
787.557	8333.02
787.891	8327.37
788.224	8250.98
788.557	8307.48
788.89	8276.75
789.223	8286.69
789.556	8236.75
789.888	8161.95
790.221	8097.54
790.554	7988.84
790.887	8123.08
791.219	8026.13
791.552	8034.94
791.884	7945.91
792.217	7925.57
792.549	7908.85
792.882	7878.11
793.214	7815.97
793.546	7811.67
793.879	7783.43
794.211	7747.95
794.543	7776.19
794.875	7674.28
795.207	7754.05
795.539	7658.46
795.871	7636.99
796.203	7574.84
796.535	7521.06
796.867	7559.7
797.198	7451
797.53	7506.37
797.862	7449.42
798.193	7460.04
798.525	7399.48
798.856	7374.62
799.188	7312.25
799.519	7254.63
799.85	7255.76
800.182	7270.22
800.513	7267.28
800.844	7194.29
801.175	7255.98
801.506	7173.27
801.837	7153.39
802.168	7115.42
802.499	7096.89
802.83	7087.4
803.161	7064.35
803.491	7017.34
803.822	7040.62
804.153	6944.8
804.483	6928.08
804.814	6903.45
805.145	6874.3
805.475	6866.61
805.805	6895.31
806.136	6858.25
806.466	6853.51
806.796	6827.97
807.126	6797.91
807.457	6726.5
807.787	6726.5
808.117	6726.96
808.447	6641.76
808.777	6710.23
809.107	6660.74
809.436	6654.19
809.766	6588.65
810.096	6630.69
810.426	6590.01
810.755	6542.55
811.085	6535.55
811.414	6506.62
811.744	6491.71
812.073	6488.54
812.403	6444.93
812.732	6407.87
813.061	6412.84
813.39	6383.24
813.719	6337.36
814.049	6359.06
814.378	6342.11
814.707	6285.39
815.036	6259.85
815.365	6236.12
815.693	6213.75
816.022	6180.98
816.351	6186.63
816.68	6164.94
817.008	6189.57
817.337	6138.72
817.665	6100.98
817.994	6100.08
818.322	6075
818.651	6044.71
818.979	6043.81
819.307	6056.24
819.636	6045.62
819.964	6059.18
820.292	6019.86
820.62	5977.82
820.948	5987.54
821.276	6010.14
821.604	5925.62
821.932	6042.23
822.259	6010.82
822.587	5950.25
822.915	5915.9
823.243	5964.72
823.57	5962.91
823.898	5991.61
824.225	5863.25
824.553	5864.61
824.88	5957.48
825.207	5946.86
825.535	5917.49
825.862	5921.33
826.189	5920.42
826.516	5868.45
826.843	5918.39
827.17	5916.58
827.497	5890.14
827.824	5882.68
828.151	5914.1
828.478	5896.47
828.805	5861.67
829.131	5854.66
829.458	5866.19
829.785	5792.97
830.111	5823.25
830.438	5909.35
830.764	5871.84
831.09	5838.62
831.417	5835
831.743	5810.6
832.069	5852.63
832.395	5732.63
832.722	5846.98
833.048	5766.08
833.374	5810.14
833.7	5786.19
834.026	5752.29
834.351	5763.59
834.677	5775.12
835.003	5697.83
835.329	5734.67
835.654	5733.08
835.98	5732.41
836.306	5710.71
836.631	5690.15
836.956	5738.96
837.282	5698.06
837.607	5644.72
837.932	5635.69
838.258	5677.94
838.583	5622.13
838.908	5580.09
839.233	5604.27
839.558	5616.25
839.883	5565.63
840.208	5526.31
840.533	5553.88
840.858	5548.91
841.182	5563.37
841.507	5549.59
841.832	5541.68
842.156	5514.11
842.481	5487.67
842.805	5492.19
843.13	5471.17
843.454	5433.43
843.778	5432.07
844.103	5458.97
844.427	5364.73
844.751	5374.45
845.075	5339.2
845.399	5357.73
845.723	5330.38
846.047	5299.2
846.371	5284.28
846.695	5280.67
847.019	5243.61
847.343	5255.13
847.666	5221.01
847.99	5166.77
848.313	5177.17
848.637	5072.99
848.96	5108.92
849.284	5106.66
849.607	5049.26
849.931	5070.73
850.254	5061.91
850.577	5011.29
850.9	4905.08
851.223	4949.38
851.546	4951.18
851.869	4883.16
852.192	4912.31
852.515	4854.24
852.838	4850.62
853.161	4843.39
853.483	4842.49
853.806	4781.24
854.129	4819.21
854.451	4810.4
854.774	4772.21
855.096	4712.55
855.419	4751.19
855.741	4733.11
856.063	4695.37
856.385	4649.27
856.708	4659.44
857.03	4638.2
857.352	4635.26
857.674	4609.95
857.996	4605.66
858.318	4565.66
858.64	4584.64
858.961	4570.4
859.283	4565.2
859.605	4549.16
859.926	4540.8
860.248	4520.23
860.57	4532.66
860.891	4490.4
861.212	4537.41
861.534	4475.26
861.855	4457.64
862.176	4448.6
862.498	4470.29
862.819	4467.81
863.14	4437.3
863.461	4452.44
863.782	4367.7
864.103	4394.59
864.424	4424.19
864.745	4416.73
865.065	4357.3
865.386	4340.13
865.707	4389.39
866.027	4359.11
866.348	4334.25
866.668	4343.97
866.989	4304.65
867.309	4294.25
867.63	4290.18
867.95	4288.83
868.27	4279.11
868.59	4266.91
868.91	4270.75
869.23	4292.44
869.55	4256.06
869.87	4291.99
870.19	4205.44
870.51	4234.59
870.83	4240.92
871.15	4166.35
871.469	4209.28
871.789	4213.8
872.109	4226
872.428	4190.98
872.748	4181.26
873.067	4223.52
873.386	4183.29
873.706	4199.79
874.025	4203.41
874.344	4174.93
874.663	4176.51
874.982	4113.69
875.301	4106.69
875.62	4118.44
875.939	4146.23
876.258	4094.93
876.577	4072.11
876.896	4116.4
877.214	4090.87
877.533	4046.57
877.852	4074.37
878.17	4019.46
878.489	4064.43
878.807	4042.28
879.125	4035.05
879.444	4075.05
879.762	4039.57
880.08	4043.86
880.398	4030.08
880.716	4072.11
881.034	4029.85
881.352	4007.71
881.67	3990.08
881.988	3948.95
882.306	3965.45
882.624	3995.05
882.941	3964.99
883.259	3924.77
883.577	3919.12
883.894	3912.57
884.212	3891.32
884.529	3878.44
884.846	3896.75
885.164	3863.75
885.481	3896.07
885.798	3847.48
886.115	3845.9
886.432	3877.09
886.75	3843.42
887.067	3848.16
887.383	3791.21
887.7	3824.43
888.017	3815.39
888.334	3814.26
888.651	3782.63
888.967	3805.9
889.284	3765.9
889.6	3755.28
889.917	3733.81
890.233	3749.86
890.55	3720.93
890.866	3757.99
891.182	3705.11
891.498	3653.59
891.815	3680.26
892.131	3663.99
892.447	3672.12
892.763	3684.78
893.079	3648.84
893.395	3633.25
893.71	3610.65
894.026	3623.76
894.342	3608.39
894.657	3587.6
894.973	3555.74
895.289	3590.32
895.604	3594.61
895.92	3555.97
896.235	3494.95
896.55	3535.4
896.865	3517.32
897.181	3513.26
897.496	3518
897.811	3448.17
898.126	3499.92
898.441	3436.65
898.756	3478.23
899.071	3456.99
899.386	3464.67
899.7	3437.1
900.015	3402.98
900.33	3420.38
900.644	3357.1
900.959	3377.67
901.273	3386.93
901.588	3325.46
901.902	3333.37
902.216	3359.81
902.531	3321.62
902.845	3292.24
903.159	3274.39
903.473	3277.56
903.787	3268.74
904.101	3238.01
904.415	3238.01
904.729	3253.15
905.042	3231.23
905.356	3201.17
905.67	3213.6
905.984	3207.95
906.297	3236.88
906.611	3188.52
906.924	3173.83
907.237	3159.59
907.551	3133.38
907.864	3125.24
908.177	3147.84
908.491	3112.59
908.804	3143.77
909.117	3090.89
909.43	3068.97
909.743	3077.79
910.056	3036.66
910.368	3052.7
910.681	3075.53
910.994	3015.64
911.307	2960.05
911.619	2996.21
911.932	3012.25
912.244	2965.92
912.557	2991.23
912.869	2946.04
913.181	2922.76
913.494	2938.81
913.806	2920.28
914.118	2934.51
914.43	2879.83
914.742	2881.41
915.054	2922.31
915.366	2860.39
915.678	2863.55
915.99	2850
916.302	2847.96
916.613	2814.29
916.925	2866.72
917.236	2813.39
917.548	2803.44
917.859	2788.75
918.171	2769.55
918.482	2782.43
918.794	2738.13
919.105	2740.17
919.416	2706.72
919.727	2740.39
920.038	2706.5
920.349	2716.21
920.66	2718.02
920.971	2704.91
921.282	2692.03
921.593	2644.8
921.903	2657.01
922.214	2615.88
922.525	2645.03
922.835	2605.48
923.146	2610.68
923.456	2603.67
923.767	2606.39
924.077	2584.01
924.387	2571.58
924.697	2551.02
925.008	2575.65
925.318	2522.09
925.628	2552.15
925.938	2548.53
926.248	2494.52
926.558	2501.98
926.867	2487.75
927.177	2500.63
927.487	2497.24
927.796	2438.03
928.106	2472.83
928.416	2423.34
928.725	2434.19
929.034	2410.01
929.344	2426.28
929.653	2417.92
929.962	2369.33
930.271	2386.96
930.581	2414.75
930.89	2384.47
931.199	2358.26
931.508	2354.42
931.817	2339.05
932.125	2369.78
932.434	2364.36
932.743	2309.44
933.051	2313.51
933.36	2287.75
933.669	2338.14
933.977	2304.25
934.286	2271.25
934.594	2293.17
934.902	2268.54
935.21	2246.85
935.519	2261.31
935.827	2244.81
936.135	2248.2
936.443	2210.92
936.751	2221.76
937.059	2239.39
937.367	2206.85
937.674	2201.2
937.982	2205.72
938.29	2171.37
938.597	2188.54
938.905	2149.68
939.213	2141.31
939.52	2158.71
939.827	2129.79
940.135	2137.92
940.442	2117.13
940.749	2106.74
941.056	2126.17
941.363	2087.76
941.67	2083.46
941.977	2125.95
942.284	2076.46
942.591	2054.31
942.898	2060.86
943.205	2054.76
943.511	2057.25
943.818	2065.61
944.125	2013.86
944.431	2008.21
944.738	2049.34
945.044	2015.44
945.35	1985.39
945.657	1991.26
945.963	1970.7
946.269	1991.26
946.575	1984.03
946.881	1953.52
947.187	1953.3
947.493	2000.75
947.799	1944.71
948.105	1940.64
948.41	1926.86
948.716	1942.22
949.022	1916.69
949.327	1895.22
949.633	1855.67
949.938	1901.77
950.244	1887.99
950.549	1896.12
950.854	1859.51
951.16	1876.69
951.465	1858.84
951.77	1864.03
952.075	1855.9
952.38	1835.56
952.685	1843.92
952.99	1839.85
953.294	1812.73
953.599	1803.24
953.904	1821.77
954.209	1780.19
954.513	1779.52
954.818	1793.3
955.122	1756.01
955.426	1779.52
955.731	1775.67
956.035	1774.77
956.339	1729.35
956.643	1724.15
956.948	1760.31
957.252	1722.57
957.556	1741.1
957.86	1741.78
958.163	1695.45
958.467	1703.81
958.771	1727.77
959.075	1678.73
959.378	1688.67
959.682	1671.04
959.985	1658.84
960.289	1648.67
960.592	1670.37
960.896	1656.81
961.199	1648.9
961.502	1632.85
961.805	1643.02
962.108	1636.92
962.411	1628.78
962.714	1658.84
963.017	1579.52
963.32	1621.1
963.623	1628.78
963.926	1589.01
964.228	1594.21
964.531	1582.68
964.833	1603.93
965.136	1567.54
965.438	1561.44
965.741	1563.7
966.043	1559.41
966.345	1556.7
966.648	1533.87
966.95	1539.97
967.252	1538.17
967.554	1528.22
967.856	1537.26
968.158	1505.85
968.46	1528.22
968.761	1495.68
969.063	1479.18
969.365	1498.62
969.666	1507.66
969.968	1500.43
970.269	1482.57
970.571	1485.06
970.872	1494.33
971.174	1454.78
971.475	1477.38
971.776	1447.09
972.077	1457.94
972.378	1450.71
972.679	1457.04
972.98	1431.5
973.281	1428.56
973.582	1448.9
973.883	1412.75
974.183	1420.65
974.484	1407.77
974.785	1403.93
975.085	1391.5
975.386	1427.66
975.686	1406.87
975.986	1384.05
976.287	1393.54
976.587	1344.95
976.887	1350.6
977.187	1386.98
977.487	1384.05
977.787	1367.77
978.087	1379.3
978.387	1391.28
978.687	1341.33
978.987	1321.9
979.286	1332.75
979.586	1332.07
979.885	1341.33
980.185	1327.32
980.484	1333.88
980.784	1309.92
981.083	1330.94
981.382	1305.4
981.682	1324.84
981.981	1292.07
982.28	1284.16
982.579	1292.3
982.878	1246.65
983.177	1278.96
983.475	1281.68
983.774	1237.61
984.073	1271.96
984.372	1267.66
984.67	1241.45
984.969	1250.94
985.267	1259.3
985.566	1249.13
985.864	1206.42
986.162	1245.74
986.461	1218.85
986.759	1222.47
987.057	1210.72
987.355	1200.55
987.653	1194.45
987.951	1184.95
988.249	1207.55
988.547	1219.76
988.844	1175.92
989.142	1166.42
989.44	1159.42
989.737	1168.91
990.035	1166.2
990.332	1151.51
990.63	1148.12
990.927	1132.98
991.224	1154.45
991.521	1176.14
991.819	1175.69
992.116	1134.33
992.413	1156.71
992.71	1138.85
993.006	1129.36
993.303	1135.92
993.6	1131.85
993.897	1107.44
994.193	1109.02
994.49	1109.93
994.787	1117.39
995.083	1091.85
995.379	1072.87
995.676	1097.73
995.972	1106.09
996.268	1061.79
996.565	1054.56
996.861	1101.57
997.157	1070.16
997.453	1063.15
997.749	1051.4
998.044	1050.27
998.34	1045.98
998.636	1029.25
998.932	1052.53
999.227	1037.39
999.523	1043.49
999.818	1018.63
1000.114	1024.28
1000.409	1039.65
1000.704	1002.59
1001	1022.02
1001.295	998.74
1001.59	1022.7
1001.885	1001.46
1002.18	1001.23
1002.475	1004.39
1002.77	984.96
1003.065	987.67
1003.359	972.98
1003.654	981.8
1003.949	982.93
1004.243	983.83
1004.538	950.84
1004.832	972.53
1005.127	945.86
1005.421	947.67
1005.715	938.63
1006.009	947.45
1006.304	942.7
1006.598	971.18
1006.892	907.22
1007.186	915.81
1007.48	914.23
1007.773	912.19
1008.067	929.82
1008.361	924.4
1008.655	896.83
1008.948	893.21
1009.242	899.09
1009.535	913.32
1009.829	893.66
1010.122	899.31
1010.415	883.72
1010.708	888.47
1011.001	882.36
1011.295	847.34
1011.588	864.96
1011.881	839.2
1012.173	873.1
1012.466	857.51
1012.759	866.32
1013.052	863.61
1013.344	861.8
1013.637	818.64
1013.93	813.44
1014.222	833.78
1014.514	815.7
1014.807	834.46
1015.099	833.33
1015.391	812.54
1015.683	833.78
1015.976	826.77
1016.268	809.82
1016.56	792.87
1016.851	782.93
1017.143	796.04
1017.435	796.04
1017.727	813.67
1018.018	784.97
1018.31	780.67
1018.602	786.77
1018.893	781.12
1019.185	783.61
1019.476	790.84
1019.767	783.38
1020.058	757.62
1020.35	778.19
1020.641	729.83
1020.932	740.45
1021.223	762.14
1021.514	743.84
1021.804	747.45
1022.095	740.9
1022.386	729.6
1022.677	715.81
1022.967	701.13
1023.258	687.79
1023.548	722.82
1023.839	714.01
1024.129	687.34
1024.419	703.39
1024.709	709.49
1025	698.41
1025.29	706.1
1025.58	707
1025.87	691.86
1026.16	711.29
1026.449	685.31
1026.739	676.49
1027.029	699.32
1027.319	676.95
1027.608	669.49
1027.898	666.55
1028.187	661.35
1028.477	655.7
1028.766	657.28
1029.055	647.57
1029.344	640.79
1029.634	650.96
1029.923	660.9
1030.212	656.83
1030.501	648.02
1030.79	634.01
1031.078	636.27
1031.367	647.34
1031.656	634.01
1031.945	619.77
1032.233	626.55
1032.522	613.44
1032.81	599.66
1033.099	626.78
1033.387	594.01
1033.675	618.42
1033.963	610.73
1034.251	588.59
1034.54	613.9
1034.828	604.86
1035.116	580.45
1035.403	612.99
1035.691	589.26
1035.979	590.62
1036.267	593.56
1036.554	587.68
1036.842	560.56
1037.129	581.35
1037.417	559.21
1037.704	567.8
1037.992	574.35
1038.279	555.14
1038.566	557.63
1038.853	557.63
1039.14	557.63
