Data from brown_tile_FLMS001491_090.txt Node
Date: Tue Feb 07 10:38:08 GMT 2017
User: dcchb
Spectrometer: FLMS00149
Trigger mode: 0
Integration Time (sec): 2.000000E-2
Scans to average: 10
Electric dark correction enabled: true
Nonlinearity correction enabled: false
Boxcar width: 0
XAxis mode: Wavelengths
Number of Pixels in Spectrum: 2048
>>>>>Begin Spectral Data<<<<<
341.393	-24.55
341.776	-24.55
342.16	-24.55
342.543	-67.26
342.927	-72.91
343.31	-70.87
343.693	-58.67
344.077	-54.6
344.46	-37.65
344.843	-69.52
345.226	-60.7
345.61	-22.74
345.993	-20.93
346.376	-16.64
346.759	10.93
347.142	28.11
347.525	37.82
347.908	61.78
348.291	72.4
348.674	87.77
349.057	113.53
349.44	129.35
349.823	154.88
350.206	142.68
350.588	166.86
350.971	182.68
351.354	196.24
351.737	214.77
352.119	217.71
352.502	250.93
352.884	245.5
353.267	276.46
353.65	277.59
354.032	257.48
354.414	272.62
354.797	269
355.179	287.08
355.562	273.07
355.944	300.64
356.326	288.44
356.709	310.36
357.091	320.98
357.473	297.48
357.855	324.37
358.238	309.68
358.62	317.36
359.002	311.71
359.384	332.28
359.766	305.16
360.148	319.4
360.53	313.75
360.912	308.1
361.294	307.2
361.676	318.04
362.057	322.11
362.439	294.31
362.821	308.78
363.203	311.26
363.584	309.23
363.966	309.46
364.348	276.91
364.729	300.87
365.111	297.48
365.493	297.25
365.874	312.62
366.256	280.53
366.637	297.7
367.019	313.52
367.4	299.96
367.781	293.18
368.163	291.38
368.544	279.63
368.925	296.8
369.306	295.67
369.688	276.46
370.069	287.99
370.45	307.2
370.831	295.67
371.212	318.27
371.593	278.72
371.974	299.51
372.355	278.5
372.736	285.95
373.117	280.76
373.498	276.69
373.879	275.56
374.26	297.25
374.641	279.85
375.021	293.18
375.402	279.17
375.783	292.28
376.163	300.42
376.544	302.22
376.925	286.86
377.305	302.22
377.686	287.53
378.066	307.2
378.447	305.61
378.827	300.64
379.208	318.27
379.588	314.88
379.968	324.37
380.349	308.33
380.729	310.36
381.109	302.68
381.489	301.09
381.87	305.84
382.25	313.07
382.63	325.05
383.01	321.21
383.39	323.47
383.77	310.36
384.15	310.59
384.53	317.14
384.91	329.34
385.29	314.88
385.67	308.55
386.049	337.25
386.429	318.04
386.809	325.05
387.189	331.15
387.568	328.21
387.948	330.02
388.328	331.83
388.707	331.15
389.087	327.99
389.466	344.26
389.846	335.67
390.225	342
390.605	351.94
390.984	355.1
391.363	327.53
391.743	333.41
392.122	338.15
392.501	337.7
392.881	332.51
393.26	330.25
393.639	338.61
394.018	341.54
394.397	362.56
394.776	341.54
395.155	338.61
395.534	334.54
395.913	353.07
396.292	356.01
396.671	330.47
397.05	361.21
397.429	348.55
397.808	357.59
398.186	356.46
398.565	346.97
398.944	342
399.323	345.61
399.701	337.93
400.08	358.72
400.458	371.15
400.837	367.53
401.215	364.59
401.594	354.88
401.972	354.65
402.351	369.11
402.729	379.28
403.107	385.61
403.486	375.22
403.864	374.54
404.242	395.1
404.62	372.96
404.999	383.13
405.377	380.87
405.755	373.41
406.133	387.19
406.511	381.09
406.889	372.05
407.267	407.31
407.645	389.91
408.023	377.7
408.401	389
408.779	360.3
409.156	412.28
409.534	375.44
409.912	389.45
410.29	411.37
410.667	402.56
411.045	412.05
411.422	412.28
411.8	418.6
412.178	397.81
412.555	430.13
412.933	417.02
413.31	416.57
413.687	422.22
414.065	432.84
414.442	422.45
414.819	414.99
415.197	428.32
415.574	441.66
415.951	423.58
416.328	443.46
416.705	446.63
417.082	419.96
417.46	429
417.837	456.34
418.214	429.9
418.591	445.04
418.967	461.32
419.344	438.72
419.721	464.03
420.098	430.81
420.475	462.9
420.852	457.02
421.228	457.47
421.605	461.09
421.982	448.43
422.358	465.38
422.735	478.94
423.111	482.56
423.488	469
423.864	509
424.241	483.91
424.617	465.61
424.994	474.42
425.37	484.82
425.746	497.02
426.123	498.6
426.499	511.48
426.875	497.25
427.251	497.02
427.627	506.74
428.003	498.83
428.379	535.66
428.756	507.64
429.132	504.48
429.507	530.92
429.883	494.76
430.259	506.06
430.635	527.08
431.011	544.7
431.387	549.67
431.763	557.58
432.138	547.87
432.514	563.46
432.89	542.44
433.265	560.97
433.641	559.39
434.016	576.34
434.392	595.78
434.767	572.95
435.143	576.79
435.518	582.22
435.894	585.38
436.269	583.57
436.644	598.94
437.02	591.48
437.395	577.7
437.77	594.87
438.145	610.69
438.52	605.27
438.895	610.69
439.271	639.62
439.646	624.25
440.021	641.42
440.395	635.32
440.77	618.83
441.145	623.35
441.52	624.02
441.895	659.28
442.27	629.45
442.645	630.35
443.019	645.72
443.394	663.8
443.769	654.76
444.143	654.08
444.518	652.05
444.892	674.19
445.267	659.5
445.641	683.23
446.016	667.86
446.39	690.69
446.764	666.06
447.139	665.6
447.513	674.64
447.887	702.21
448.262	666.51
448.636	698.37
449.01	699.95
449.384	684.13
449.758	703.57
450.132	712.38
450.506	703.34
450.88	702.21
451.254	733.4
451.628	743.79
452.002	765.94
452.376	728.65
452.75	739.27
453.123	726.62
453.497	752.83
453.871	763.68
454.244	774.08
454.618	762.32
454.992	774.53
455.365	785.83
455.739	770.23
456.112	771.36
456.486	807.97
456.859	813.62
457.232	800.29
457.606	813.4
457.979	823.11
458.352	843
458.725	863.34
459.099	833.74
459.472	849.33
459.845	837.12
460.218	864.02
460.591	894.07
460.964	877.12
461.337	894.3
461.71	905.37
462.083	926.84
462.456	903.79
462.829	912.38
463.201	919.61
463.574	939.04
463.947	937.91
464.32	950.34
464.692	952.15
465.065	987.4
465.438	991.47
465.81	975.2
466.183	977.01
466.555	1018.82
466.928	1014.3
467.3	984.47
467.672	1014.52
468.045	1036.22
468.417	1044.35
468.789	1049.32
469.161	1056.78
469.534	1083.67
469.906	1121.19
470.278	1090.45
470.65	1112.6
471.022	1118.7
471.394	1142.88
471.766	1162.77
472.138	1173.84
472.51	1178.58
472.882	1219.26
473.253	1199.15
473.625	1226.04
473.997	1234.18
474.369	1237.34
474.74	1256.55
475.112	1267.85
475.484	1292.25
475.855	1298.13
476.227	1323.44
476.598	1358.24
476.97	1345.36
477.341	1355.53
477.713	1399.6
478.084	1367.51
478.455	1417
478.827	1459.71
479.198	1468.52
479.569	1455.19
479.94	1492.7
480.311	1532.02
480.682	1550.1
481.053	1568.63
481.424	1602.08
481.795	1627.39
482.166	1612.92
482.537	1666.03
482.908	1671.45
483.279	1696.31
483.65	1712.13
484.021	1754.39
484.391	1772.47
484.762	1780.6
485.133	1795.29
485.503	1800.49
485.874	1854.5
486.244	1855.18
486.615	1915.74
486.985	1932.01
487.356	1946.25
487.726	1943.08
488.097	1955.06
488.467	1976.08
488.837	2039.58
489.207	2063.53
489.578	2101.05
489.948	2066.7
490.318	2127.71
490.688	2113.93
491.058	2156.41
491.428	2173.13
491.798	2197.77
492.168	2219.69
492.538	2266.69
492.908	2287.93
493.278	2288.84
493.648	2275.51
494.017	2334.49
494.387	2348.05
494.757	2377.65
495.126	2389.17
495.496	2381.49
495.866	2412.22
496.235	2429.63
496.605	2469.4
496.974	2473.69
497.344	2492.45
497.713	2503.52
498.082	2530.87
498.452	2571.99
498.821	2530.19
499.19	2596.63
499.559	2622.39
499.928	2585.33
500.298	2624.87
500.667	2652.9
501.036	2644.08
501.405	2720.24
501.774	2690.64
502.143	2739.22
502.512	2716.62
502.88	2741.03
503.249	2745.1
503.618	2766.79
503.987	2841.59
504.356	2795.49
504.724	2793.68
505.093	2837.3
505.462	2861.25
505.83	2911.65
506.199	2889.05
506.567	2944.41
506.936	2936.28
507.304	2972.66
507.672	3017.86
508.041	3071.87
508.409	3026.45
508.777	3059.44
509.145	3064.64
509.514	3076.84
509.882	3139.44
510.25	3113.68
510.618	3164.97
510.986	3195.48
511.354	3140.12
511.722	3202.94
512.09	3217.63
512.458	3228.47
512.826	3256.95
513.193	3275.48
513.561	3297.63
513.929	3349.38
514.297	3365.42
514.664	3405.87
515.032	3384.85
515.4	3416.72
515.767	3472.54
516.135	3437.06
516.502	3453.33
516.869	3533.33
517.237	3513.44
517.604	3513.66
517.972	3588.46
518.339	3585.53
518.706	3587.56
519.073	3659.42
519.44	3678.18
519.808	3739.42
520.175	3657.62
520.542	3727.44
520.909	3811.51
521.276	3780.1
521.643	3817.16
522.009	3835.46
522.376	3902.58
522.743	3917.72
523.11	3944.84
523.477	3960.66
523.843	3974.67
524.21	4024.39
524.577	4078.85
524.943	4087.66
525.31	4166.53
525.676	4174.44
526.043	4211.27
526.409	4198.39
526.776	4260.76
527.142	4336.02
527.508	4350.93
527.874	4364.04
528.241	4435.45
528.607	4441.78
528.973	4448.78
529.339	4488.33
529.705	4471.38
530.071	4513.64
530.437	4595.9
530.803	4621.43
531.169	4639.74
531.535	4649.91
531.901	4663.69
532.267	4707.08
532.632	4747.98
532.998	4739.17
533.364	4804.03
533.73	4803.12
534.095	4830.69
534.461	4867.75
534.826	4901.88
535.192	4904.14
535.557	4971.25
535.923	4931.48
536.288	4999.5
536.653	5027.98
537.019	5050.35
537.384	5058.71
537.749	5081.08
538.114	5093.28
538.479	5128.76
538.845	5184.36
539.21	5206.5
539.575	5199.04
539.94	5265.93
540.305	5277.01
540.67	5296.44
541.034	5372.37
541.399	5395.2
541.764	5389.55
542.129	5469.77
542.494	5488.08
542.858	5510
543.223	5517.23
543.587	5552.71
543.952	5617.56
544.316	5638.13
544.681	5615.3
545.045	5697.34
545.41	5749.31
545.774	5762.19
546.138	5802.64
546.503	5771.01
546.867	5815.07
547.231	5886.03
547.595	5902.3
547.959	5908.18
548.324	5962.19
548.688	5982.75
549.052	6106.59
549.416	6048.29
549.779	6119.47
550.143	6164.89
550.507	6213.25
550.871	6284.21
551.235	6256.42
551.599	6273.59
551.962	6344.1
552.326	6403.98
552.689	6502.96
553.053	6404.89
553.417	6473.81
553.78	6607.14
554.143	6585
554.507	6669.51
554.87	6716.52
555.234	6776.4
555.597	6834.26
555.96	6910.86
556.323	6970.3
556.686	6953.8
557.05	6962.39
557.413	7050.75
557.776	7083.29
558.139	7203.29
558.502	7245.77
558.865	7275.37
559.228	7382.04
559.59	7382.49
559.953	7549.26
560.316	7595.37
560.679	7631.97
561.041	7655.48
561.404	7759.88
561.767	7854.34
562.129	7937.05
562.492	8047.56
562.854	7999.65
563.217	8094.34
563.579	8103.37
563.941	8254.11
564.304	8274.44
564.666	8317.15
565.028	8476.02
565.39	8528.45
565.753	8601.89
566.115	8646.86
566.477	8732.96
566.839	8796.92
567.201	8853.19
567.563	9002.33
567.925	9048.66
568.287	9083.01
568.648	9211.82
569.01	9244.81
569.372	9362.78
569.734	9374.08
570.095	9457.69
570.457	9571.81
570.819	9640.06
571.18	9671.47
571.542	9773.84
571.903	9802.99
572.265	9935.19
572.626	10068.75
572.987	10136.54
573.349	10155.98
573.71	10256.76
574.071	10311.45
574.432	10398.46
574.794	10521.84
575.155	10576.53
575.516	10570.88
575.877	10626.92
576.238	10732.01
576.599	10823.3
576.96	10858.33
577.32	10987.59
577.681	11030.53
578.042	11139
578.403	11190.75
578.763	11274.82
579.124	11236.63
579.485	11377.19
579.845	11512.55
580.206	11473.23
580.566	11516.62
580.927	11585.54
581.287	11729.04
581.648	11684.52
582.008	11802.03
582.368	11767.91
582.728	11878.64
583.089	11927.45
583.449	11951.86
583.809	12002.48
584.169	12120.67
584.529	12194.11
584.889	12229.14
585.249	12184.62
585.609	12247.45
585.969	12368.8
586.329	12351.85
586.688	12473.43
587.048	12459.19
587.408	12450.38
587.768	12560.43
588.127	12510.94
588.487	12619.87
588.846	12737.38
589.206	12719.98
589.565	12735.57
589.925	12867.32
590.284	12889.46
590.643	12914.55
591.003	12950.7
591.362	12992.06
591.721	13027.76
592.08	12982.34
592.44	13101.89
592.799	13148.67
593.158	13167.2
593.517	13257.82
593.876	13223.47
594.235	13234.77
594.593	13297.59
594.952	13315.21
595.311	13331.49
595.67	13332.16
596.029	13485.38
596.387	13544.36
596.746	13516.11
597.104	13556.34
597.463	13522.67
597.822	13679.27
598.18	13651.48
598.538	13648.77
598.897	13732.61
599.255	13738.25
599.613	13884.47
599.972	13816.44
600.33	13882.88
600.688	13856.9
601.046	13914.07
601.404	14021.64
601.762	13965.82
602.12	14059.38
602.478	14144.57
602.836	14127.85
603.194	14064.12
603.552	14118.58
603.91	13969.89
604.268	14231.8
604.625	14178.02
604.983	14220.05
605.341	14191.12
605.698	14409.42
606.056	14418.69
606.413	14338.92
606.771	14466.82
607.128	14487.61
607.485	14457.56
607.843	14451.23
608.2	14595.18
608.557	14640.38
608.914	14488.97
609.272	14669.3
609.629	14766.48
609.986	14754.5
610.343	14672.02
610.7	14834.5
611.057	14719.7
611.414	14786.14
611.771	14944.78
612.127	14895.29
612.484	14964.66
612.841	15027.94
613.198	14985.23
613.554	15086.02
613.911	15192.45
614.267	15019.58
614.624	15082.85
614.98	15175.73
615.337	15260.25
615.693	15197.88
616.05	15176.86
616.406	15248.95
616.762	15257.08
617.118	15260.02
617.475	15235.62
617.831	15325.78
618.187	15404.65
618.543	15370.98
618.899	15520.35
619.255	15419.34
619.611	15449.4
619.967	15538.21
620.323	15509.51
620.678	15488.27
621.034	15465.67
621.39	15481.26
621.746	15429.51
622.101	15702.04
622.457	15567.81
622.812	15631.09
623.168	15576.17
623.523	15560.81
623.879	15642.61
624.234	15547.47
624.589	15658.2
624.945	15594.03
625.3	15647.58
625.655	15686.68
626.01	15561.48
626.365	15738.43
626.72	15627.24
627.075	15615.95
627.43	15549.05
627.785	15620.92
628.14	15659.33
628.495	15644.19
628.85	15592.44
629.205	15686.45
629.559	15611.2
629.914	15715.6
630.269	15573.46
630.623	15555.61
630.978	15552.22
631.332	15656.62
631.687	15682.84
632.041	15568.94
632.396	15594.25
632.75	15531.88
633.104	15575.27
633.459	15535.27
633.813	15503.63
634.167	15468.83
634.521	15495.72
634.875	15516.96
635.229	15551.99
635.583	15413.69
635.937	15499.56
636.291	15516.51
636.645	15429.96
636.999	15417.31
637.352	15469.28
637.706	15471.77
638.06	15389.28
638.413	15386.57
638.767	15374.6
639.121	15443.07
639.474	15396.74
639.828	15321.94
640.181	15374.37
640.534	15471.54
640.888	15322.85
641.241	15312.22
641.594	15367.36
641.947	15340.7
642.301	15331.21
642.654	15320.36
643.007	15353.58
643.36	15379.57
643.713	15316.74
644.066	15386.8
644.419	15294.37
644.771	15216.63
645.124	15056.86
645.477	14971.44
645.83	14902.07
646.182	14765.57
646.535	14813.48
646.888	14819.36
647.24	14807.83
647.593	14739.58
647.945	14803.54
648.298	14748.62
648.65	14673.37
649.002	14640.6
649.355	14759.02
649.707	14692.58
650.059	14801.28
650.411	15030.42
650.763	14970.99
651.115	15155.17
651.467	15101.38
651.819	15068.62
652.171	15054.15
652.523	15099.35
652.875	15009.63
653.227	15015.74
653.578	15156.07
653.93	15048.28
654.282	15067.71
654.633	14982.97
654.985	15030.65
655.337	15015.28
655.688	15056.64
656.039	15118.56
656.391	14935.74
656.742	14961.95
657.094	15024.1
657.445	15015.74
657.796	15108.39
658.147	15036.53
658.498	15054.38
658.849	15079.24
659.2	15105
659.551	15083.76
659.902	15060.93
660.253	15056.41
660.604	15106.58
660.955	15009.63
661.306	15100.25
661.656	15030.65
662.007	15090.54
662.358	14977.54
662.708	15058.9
663.059	15013.7
663.409	14999.24
663.76	15101.16
664.11	15031.78
664.461	15165.79
664.811	15100.93
665.161	15023.19
665.511	15080.14
665.862	15063.19
666.212	15112.46
666.562	15114.72
666.912	15030.2
667.262	15118.11
667.612	15105.22
667.962	15202.4
668.312	15077.2
668.662	15204.66
669.011	15163.75
669.361	15181.83
669.711	15045.34
670.06	15157.2
670.41	15168.5
670.76	15070.65
671.109	15153.81
671.459	15147.26
671.808	15152.91
672.157	15159.01
672.507	15061.38
672.856	15094.6
673.205	15116.98
673.554	15192.45
673.904	15125.11
674.253	15160.36
674.602	15109.52
674.951	14961.05
675.3	14795.85
675.649	15112.68
675.998	15079.91
676.346	15136.18
676.695	15214.6
677.044	15066.81
677.393	15083.53
677.741	15135.05
678.09	15088.5
678.438	15014.61
678.787	15106.58
679.135	15105.9
679.484	15114.49
679.832	15088.5
680.181	15086.92
680.529	15100.93
680.877	15104.09
681.225	15037.2
681.573	15095.28
681.922	15054.38
682.27	15060.48
682.618	15058.45
682.966	15060.48
683.314	15115.39
683.661	15091.89
684.009	14999.69
684.357	14988.62
684.705	14992.01
685.053	15003.53
685.4	14974.83
685.748	14856.87
686.095	14971.44
686.443	14880.37
686.79	14876.98
687.138	14940.03
687.485	14854.61
687.832	14813.03
688.18	14802.18
688.527	14750.88
688.874	14785.91
689.221	14786.14
689.568	14774.16
689.915	14754.95
690.262	14738.23
690.609	14633.82
690.956	14691.22
691.303	14696.87
691.65	14668.63
691.997	14632.02
692.344	14512.02
692.69	14503.66
693.037	14509.99
693.383	14432.93
693.73	14554.05
694.077	14478.57
694.423	14450.33
694.769	14508.18
695.116	14432.02
695.462	14373.94
695.808	14424.34
696.155	14461.63
696.501	14336.66
696.847	14348.18
697.193	14221.63
697.539	14279.48
697.885	14202.42
698.231	14223.44
698.577	14230.9
698.923	14199.49
699.269	14098.47
699.614	13912.26
699.96	14019.38
700.306	14061.86
700.651	13948.42
700.997	14010.79
701.342	13910.68
701.688	13917.01
702.033	13954.97
702.379	13952.71
702.724	13865.71
703.069	13928.08
703.415	13714.07
703.76	13803.56
704.105	13815.31
704.45	13789.55
704.795	13704.36
705.14	13735.32
705.485	13768.76
705.83	13677.69
706.175	13701.87
706.52	13587.07
706.865	13667.07
707.209	13668.65
707.554	13633.17
707.899	13698.03
708.243	13594.08
708.588	13536.68
708.932	13426.17
709.277	13422.56
709.621	13461.88
709.966	13416
710.31	13463.23
710.654	13375.1
710.998	13393.4
711.342	13350.69
711.687	13356.57
712.031	13270.92
712.375	13262.56
712.719	13325.61
713.063	13269.57
713.407	13347.3
713.75	13285.84
714.094	13216.23
714.438	13157.7
714.782	13199.29
715.125	13180.08
715.469	13246.74
715.812	13177.82
716.156	13087.2
716.499	13102.11
716.843	13106.18
717.186	13058.27
717.53	13200.64
717.873	13046.3
718.216	13063.92
718.559	13103.7
718.902	13018.73
719.246	13001.55
719.589	12993.42
719.932	12980.76
720.275	13054.2
720.617	13035.9
720.96	12974.21
721.303	12934.21
721.646	12918.39
721.989	12792.06
722.331	12885.17
722.674	12863.25
723.016	12901.67
723.359	12813.31
723.701	12853.98
724.044	12804.04
724.386	12742.35
724.729	12771.95
725.071	12784.16
725.413	12859.86
725.755	12751.39
726.097	12753.2
726.439	12708.68
726.782	12667.55
727.124	12754.78
727.465	12734.44
727.807	12642.92
728.149	12671.62
728.491	12714.33
728.833	12818.28
729.175	12596.59
729.516	12557.72
729.858	12597.27
730.199	12602.92
730.541	12601.34
730.882	12545.97
731.224	12623.48
731.565	12524.73
731.906	12603.37
732.248	12521.34
732.589	12460.55
732.93	12465.07
733.271	12497.84
733.612	12507.78
733.953	12502.81
734.294	12513.2
734.635	12473.43
734.976	12483.6
735.317	12436.82
735.658	12399.53
735.999	12366.77
736.339	12443.37
736.68	12446.54
737.021	12412.87
737.361	12343.49
737.702	12385.07
738.042	12311.63
738.383	12394.79
738.723	12388.01
739.063	12315.69
739.404	12214.23
739.744	12239.08
740.084	12222.81
740.424	12319.08
740.764	12284.28
741.104	12250.61
741.444	12275.02
741.784	12178.07
742.124	12186.21
742.464	12175.58
742.804	12134.23
743.143	12102.37
743.483	12101.46
743.823	12073.89
744.162	12060.11
744.502	12086.77
744.841	12051.07
745.181	12070.95
745.52	12026.21
745.86	12055.81
746.199	12045.42
746.538	11924.97
746.877	12005.19
747.216	11989.83
747.556	12001.13
747.895	11920.45
748.234	11848.13
748.573	11907.12
748.911	11854.24
749.25	11884.29
749.589	11787.8
749.928	11873.9
750.267	11785.76
750.605	11742.15
750.944	11671.42
751.283	11611.98
751.621	11739.89
751.96	11639.1
752.298	11648.59
752.636	11632.1
752.975	11639.78
753.313	11573.11
753.651	11556.84
753.989	11546.22
754.327	11462.61
754.666	11456.73
755.004	11454.7
755.342	11554.13
755.679	11422.16
756.017	11336.51
756.355	11322.27
756.693	11312.1
757.031	11309.84
757.368	11280.69
757.706	11308.49
758.044	11214.03
758.381	11225.78
758.719	11113.92
759.056	11142.16
759.394	11151.43
759.731	11087.48
760.068	11008.61
760.405	10960.25
760.743	10956.86
761.08	10887.93
761.417	10853.36
761.754	10874.38
762.091	10827.37
762.428	10815.17
762.765	10807.48
763.102	10771.78
763.438	10743.31
763.775	10735.85
764.112	10641.16
764.449	10677.09
764.785	10607.94
765.122	10513.48
765.458	10503.09
765.795	10475.74
766.131	10513.25
766.467	10408.17
766.804	10323.88
767.14	10281.4
767.476	10343.32
767.812	10253.6
768.148	10348.51
768.485	10213.83
768.821	10134.51
769.157	10124.11
769.492	10120.27
769.828	10076.2
770.164	9955.3
770.5	9991.46
770.836	9977
771.171	9965.92
771.507	9899.26
771.842	9819.04
772.178	9793.5
772.513	9778.81
772.849	9800.28
773.184	9747.17
773.519	9631.47
773.855	9548.08
774.19	9577.91
774.525	9555.77
774.86	9576.33
775.195	9483.23
775.53	9491.36
775.865	9445.26
776.2	9407.3
776.535	9387.86
776.87	9332.04
777.205	9285.94
777.539	9205.27
777.874	9228.99
778.209	9198.94
778.543	9137.02
778.878	9108.77
779.212	9036.68
779.547	9023.12
779.881	9080.52
780.215	8952.17
780.55	8932.73
780.884	8909.91
781.218	8915.33
781.552	8880.3
781.886	8791.27
782.22	8755.56
782.554	8703.58
782.888	8586.07
783.222	8597.6
783.556	8617.49
783.889	8548.79
784.223	8469.01
784.557	8464.49
784.89	8495.45
785.224	8442.57
785.557	8424.72
785.891	8417.26
786.224	8376.14
786.558	8302.92
786.891	8286.65
787.224	8208.68
787.557	8232.86
787.891	8194.45
788.224	8149.47
788.557	8142.24
788.89	8096.82
789.223	8095.24
789.556	8058.18
789.888	8034.45
790.221	8039.42
790.554	7923.49
790.887	7883.27
791.219	7902.7
791.552	7857.05
791.884	7791.97
792.217	7787.68
792.549	7787.45
792.882	7718.07
793.214	7725.76
793.546	7718.53
793.879	7676.72
794.211	7653.44
794.543	7562.37
794.875	7600.11
795.207	7546.78
795.539	7495.25
795.871	7447.12
796.203	7444.18
796.535	7398.08
796.867	7383.17
797.198	7370.96
797.53	7311.08
797.862	7271.98
798.193	7379.78
798.525	7268.59
798.856	7233.57
799.188	7184.3
799.519	7109.95
799.85	7169.84
800.182	7085.1
800.513	7076.28
800.844	7036.28
801.175	7079.22
801.506	7041.48
801.837	7048.49
802.168	6973.01
802.499	6999.9
802.83	6920.13
803.161	6887.14
803.491	6923.07
803.822	6959.22
804.153	6859.11
804.483	6818.21
804.814	6742.05
805.145	6782.51
805.475	6806.23
805.805	6674.49
806.136	6718.78
806.466	6770.53
806.796	6673.13
807.126	6676.29
807.457	6623.64
807.787	6606.92
808.117	6592.45
808.447	6569.63
808.777	6607.14
809.107	6512.68
809.436	6475.17
809.766	6479.24
810.096	6457.09
810.426	6457.54
810.755	6455.73
811.085	6411.22
811.414	6379.35
811.744	6320.6
812.073	6297.77
812.403	6386.36
812.732	6311.33
813.061	6296.87
813.39	6228.85
813.719	6270.88
814.049	6276.76
814.378	6238.79
814.707	6185.91
815.036	6184.33
815.365	6149.08
815.693	6076.31
816.022	6094.39
816.351	6048.29
816.68	6058
817.008	6030.43
817.337	6029.53
817.665	6014.16
817.994	5996.99
818.322	5971.45
818.651	5917.44
818.979	5965.8
819.307	5973.94
819.636	5858.46
819.964	5918.12
820.292	5871.34
820.62	5890.55
820.948	5862.08
821.276	5875.64
821.604	5846.03
821.932	5852.81
822.259	5829.99
822.587	5857.56
822.915	5822.76
823.243	5861.4
823.57	5814.4
823.898	5830.44
824.225	5766.71
824.553	5802.42
824.88	5801.74
825.207	5771.01
825.535	5765.36
825.862	5794.06
826.189	5768.75
826.516	5810.1
826.843	5773.49
827.17	5794.73
827.497	5755.64
827.824	5797.22
828.151	5775.07
828.478	5734.62
828.805	5730.56
829.131	5742.31
829.458	5726.71
829.785	5705.7
830.111	5722.87
830.438	5725.13
830.764	5693.95
831.09	5725.81
831.417	5674.51
831.743	5685.36
832.069	5677.68
832.395	5679.94
832.722	5665.7
833.048	5686.49
833.374	5683.78
833.7	5613.27
834.026	5670.9
834.351	5640.16
834.677	5668.18
835.003	5635.19
835.329	5682.2
835.654	5575.08
835.98	5606.72
836.306	5593.61
836.631	5577.79
836.956	5589.77
837.282	5568.53
837.607	5579.15
837.932	5525.14
838.258	5526.72
838.583	5534.63
838.908	5487.17
839.233	5514.52
839.558	5494.86
839.883	5478.36
840.208	5456.21
840.533	5466.16
840.858	5459.6
841.182	5448.08
841.507	5470.22
841.832	5398.81
842.156	5404.46
842.481	5405.37
842.805	5333.5
843.13	5351.58
843.454	5319.04
843.778	5344.35
844.103	5318.81
844.427	5293.05
844.751	5290.12
845.075	5304.58
845.399	5286.73
845.723	5230.23
846.047	5211.47
846.371	5199.27
846.695	5172.15
847.019	5152.49
847.343	5145.94
847.666	5095.09
847.99	5064.81
848.313	5077.69
848.637	4990.91
848.96	5012.38
849.284	5039.05
849.607	4988.88
849.931	4945.94
850.254	4902.33
850.577	4870.24
850.9	4837.7
851.223	4909.79
851.546	4842.9
851.869	4828.66
852.192	4888.09
852.515	4761.77
852.838	4775.55
853.161	4762.22
853.483	4688.32
853.806	4734.42
854.129	4724.48
854.451	4701.2
854.774	4678.83
855.096	4696.68
855.419	4663.69
855.741	4602.45
856.063	4631.6
856.385	4559.96
856.708	4606.52
857.03	4576.01
857.352	4582.11
857.674	4552.73
857.996	4513.41
858.318	4496.24
858.64	4487.2
858.961	4467.09
859.283	4486.97
859.605	4481.32
859.926	4470.93
860.248	4450.14
860.57	4368.33
860.891	4388.9
861.212	4408.1
861.534	4379.63
861.855	4390.7
862.176	4371.95
862.498	4372.63
862.819	4379.86
863.14	4326.52
863.461	4324.04
863.782	4328.33
864.103	4286.3
864.424	4312.97
864.745	4293.53
865.065	4267.54
865.386	4269.13
865.707	4255.11
866.027	4273.42
866.348	4278.39
866.668	4241.56
866.989	4219.63
867.309	4206.53
867.63	4212.18
867.95	4182.57
868.27	4172.4
868.59	4187.77
868.91	4176.92
869.23	4133.08
869.55	4172.63
869.87	4152.97
870.19	4119.75
870.51	4159.07
870.83	4146.19
871.15	4137.15
871.469	4103.48
871.789	4148
872.109	4088.11
872.428	4082.46
872.748	4133.54
873.067	4089.69
873.386	4081.79
873.706	4122.24
874.025	4063.03
874.344	4042.24
874.663	4102.8
874.982	4054.44
875.301	4071.39
875.62	4007.44
875.939	4067.77
876.258	4018.28
876.577	3972.41
876.896	3970.83
877.214	4004.95
877.533	4013.31
877.852	4011.5
878.17	4006.31
878.489	3988
878.807	3982.13
879.125	3981.9
879.444	3980.55
879.762	3938.29
880.08	3959.3
880.398	3928.57
880.716	3907.1
881.034	3912.07
881.352	3944.39
881.67	3865.07
881.988	3895.8
882.306	3911.85
882.624	3874.11
882.941	3891.51
883.259	3885.18
883.577	3840.89
883.894	3874.79
884.212	3836.82
884.529	3853.54
884.846	3838.85
885.164	3836.14
885.481	3781
885.798	3809.93
886.115	3783.71
886.432	3768.57
886.75	3752.08
887.067	3723.6
887.383	3736.71
887.7	3760.21
888.017	3734.68
888.334	3751.62
888.651	3690.16
888.967	3724.96
889.284	3715.02
889.6	3701.91
889.917	3666.88
890.233	3661.23
890.55	3691.74
890.866	3664.85
891.182	3664.4
891.498	3677.05
891.815	3631.63
892.131	3598.18
892.447	3583.27
892.763	3593.89
893.079	3578.07
893.395	3552.99
893.71	3567.22
894.026	3559.09
894.342	3573.32
894.657	3541.46
894.973	3485.64
895.289	3516.6
895.604	3508.92
895.92	3504.63
896.235	3497.17
896.55	3469.15
896.865	3489.26
897.181	3468.24
897.496	3420.11
897.811	3436.38
898.126	3404.97
898.441	3443.16
898.756	3385.31
899.071	3360
899.386	3413.33
899.7	3385.76
900.015	3380.33
900.33	3313.22
900.644	3345.31
900.959	3348.47
901.273	3315.93
901.588	3318.64
901.902	3333.33
902.216	3256.5
902.531	3246.78
902.845	3273.9
903.159	3235.93
903.473	3244.97
903.787	3197.51
904.101	3178.53
904.415	3190.96
904.729	3206.55
905.042	3189.38
905.356	3168.59
905.67	3151.87
905.984	3162.94
906.297	3166.33
906.611	3113.45
906.924	3141.47
907.237	3097.4
907.551	3108.7
907.864	3073.45
908.177	3051.08
908.491	3074.13
908.804	3051.3
909.117	3051.3
909.43	3054.69
909.743	3011.53
910.056	2996.62
910.368	2992.32
910.681	2993.68
910.994	2981.48
911.307	2996.62
911.619	2914.13
911.932	2946.22
912.244	2932.44
912.557	2918.2
912.869	2879.56
913.181	2891.53
913.494	2878.88
913.806	2866.9
914.118	2853.8
914.43	2876.85
914.742	2897.18
915.054	2795.04
915.366	2862.83
915.678	2835.49
915.99	2796.85
916.302	2762.27
916.613	2760.92
916.925	2754.14
917.236	2769.5
917.548	2755.27
917.859	2723.18
918.171	2738.54
918.482	2716.17
918.794	2722.95
919.105	2689.96
919.416	2677.3
919.727	2691.99
920.038	2659
920.349	2664.2
920.66	2644.76
920.971	2665.78
921.282	2621.94
921.593	2642.95
921.903	2610.86
922.214	2612.22
922.525	2603.41
922.835	2592.33
923.146	2569.06
923.456	2557.53
923.767	2539.23
924.077	2539.45
924.387	2496.29
924.697	2544.65
925.008	2513.01
925.318	2482.28
925.628	2472.34
925.938	2461.94
926.248	2426.91
926.558	2428.95
926.867	2409.96
927.177	2448.61
927.487	2461.04
927.796	2419.23
928.106	2380.59
928.416	2410.19
928.725	2396.41
929.034	2420.36
929.344	2401.83
929.653	2368.16
929.962	2376.07
930.271	2332.68
930.581	2339.91
930.89	2338.1
931.199	2329.97
931.508	2305.79
931.817	2298.78
932.125	2300.36
932.434	2319.35
932.743	2294.04
933.051	2248.61
933.36	2249.29
933.669	2224.43
933.977	2235.28
934.286	2259.23
934.594	2257.2
934.902	2222.4
935.21	2203.42
935.519	2216.52
935.827	2185.56
936.135	2185.79
936.443	2194.38
936.751	2162.97
937.059	2162.97
937.367	2187.15
937.674	2138.56
937.982	2150.76
938.29	2154.6
938.597	2143.53
938.905	2129.29
939.213	2115.06
939.52	2109.86
939.827	2097.2
940.135	2133.14
940.442	2093.36
940.749	2088.62
941.056	2080.26
941.363	2024.44
941.67	2053.36
941.977	2045.68
942.284	2016.53
942.591	2005
942.898	2018.79
943.205	2000.71
943.511	2006.59
943.818	2029.41
944.125	1997.09
944.431	2000.71
944.738	1946.02
945.044	1968.62
945.35	1979.47
945.657	1953.48
945.963	1948.06
946.269	1946.25
946.575	1964.55
946.881	1906.25
947.187	1948.96
947.493	1936.98
947.799	1920.26
948.105	1879.36
948.41	1896.76
948.716	1911.45
949.022	1878.45
949.327	1865.57
949.633	1870.32
949.938	1832.13
950.244	1835.97
950.549	1846.82
950.854	1856.53
951.16	1838.45
951.465	1810.21
951.77	1826.25
952.075	1847.95
952.38	1802.52
952.685	1791.22
952.99	1804.78
953.294	1761.85
953.599	1760.04
953.904	1806.36
954.209	1790.09
954.513	1769.76
954.818	1735.86
955.122	1741.28
955.426	1727.5
955.731	1735.86
956.035	1714.16
956.339	1739.02
956.643	1712.13
956.948	1682.75
957.252	1680.27
957.556	1687.5
957.86	1654.73
958.163	1697.44
958.467	1692.92
958.771	1684.33
959.075	1680.27
959.378	1687.72
959.682	1652.02
959.985	1610.66
960.289	1641.85
960.592	1634.84
960.896	1634.39
961.199	1614.96
961.502	1634.17
961.805	1608.4
962.108	1601.4
962.411	1609.76
962.714	1577.67
963.017	1565.69
963.32	1564.79
963.623	1582.42
963.926	1588.52
964.228	1565.24
964.531	1557.33
964.833	1542.42
965.136	1534.73
965.438	1566.6
965.741	1535.64
966.043	1527.28
966.345	1520.5
966.648	1519.82
966.95	1519.14
967.252	1499.93
967.554	1516.88
967.856	1507.39
968.158	1495.64
968.46	1475.75
968.761	1477.79
969.063	1464.23
969.365	1493.15
969.666	1470.55
969.968	1478.46
970.269	1454.51
970.571	1468.52
970.872	1443.89
971.174	1428.75
971.475	1435.75
971.776	1443.66
972.077	1445.47
972.378	1399.14
972.679	1413.83
972.98	1426.71
973.281	1400.05
973.582	1396.88
973.883	1389.88
974.183	1405.25
974.484	1387.39
974.785	1394.4
975.085	1366.15
975.386	1337.9
975.686	1367.28
975.986	1368.18
976.287	1355.3
976.587	1358.69
976.887	1325.25
977.187	1363.21
977.487	1318.02
977.787	1353.95
978.087	1321.18
978.387	1318.92
978.687	1328.19
978.987	1320.95
979.286	1313.72
979.586	1304.91
979.885	1304.68
980.185	1314.85
980.484	1312.14
980.784	1289.99
981.083	1286.15
981.382	1287.06
981.682	1288.19
981.981	1284.57
982.28	1251.8
982.579	1278.7
982.878	1247.06
983.177	1252.26
983.475	1248.19
983.774	1231.69
984.073	1219.26
984.372	1222.2
984.67	1221.97
984.969	1221.07
985.267	1233.72
985.566	1210.9
985.864	1207.28
986.162	1234.4
986.461	1221.52
986.759	1184.69
987.057	1182.65
987.355	1177
987.653	1188.3
987.951	1202.76
988.249	1180.39
988.547	1177.45
988.844	1189.88
989.142	1185.82
989.44	1160.05
989.737	1138.36
990.035	1158.02
990.332	1157.79
990.63	1145.14
990.927	1131.35
991.224	1113.28
991.521	1139.26
991.819	1105.14
992.116	1108.76
992.413	1122.77
992.71	1138.13
993.006	1096.55
993.303	1117.57
993.6	1098.81
993.897	1084.8
994.193	1109.89
994.49	1086.61
994.787	1096.1
995.083	1079.6
995.379	1085.25
995.676	1096.33
995.972	1057.68
996.268	1043.9
996.565	1069.44
996.861	1031.7
997.157	1039.83
997.453	1066.05
997.749	1037.8
998.044	1049.32
998.34	1028.98
998.636	1031.24
998.932	1013.84
999.227	1018.59
999.523	1024.92
999.818	1010.23
1000.114	1008.65
1000.409	993.73
1000.704	984.69
1001	994.18
1001.295	995.09
1001.59	967.06
1001.885	991.02
1002.18	979.04
1002.475	965.03
1002.77	976.33
1003.065	979.49
1003.359	967.29
1003.654	969.78
1003.949	956.9
1004.243	960.96
1004.538	936.33
1004.832	941.75
1005.127	948.76
1005.421	908.08
1005.715	938.59
1006.009	926.84
1006.304	908.76
1006.598	929.55
1006.892	920.96
1007.186	910.34
1007.48	921.87
1007.773	877.58
1008.067	924.58
1008.361	866.73
1008.655	912.15
1008.948	875.99
1009.242	884.58
1009.535	879.84
1009.829	863.56
1010.122	883.23
1010.415	851.36
1010.708	851.36
1011.001	885.26
1011.295	849.78
1011.588	867.18
1011.881	856.11
1012.173	844.58
1012.466	824.02
1012.759	833.51
1013.052	850.01
1013.344	845.49
1013.637	812.72
1013.93	805.26
1014.222	818.37
1014.514	820.85
1014.807	814.3
1015.099	792.38
1015.391	798.26
1015.683	794.64
1015.976	789.22
1016.268	782.89
1016.56	786.73
1016.851	786.28
1017.143	768.65
1017.435	764.36
1017.727	758.03
1018.018	771.82
1018.31	777.92
1018.602	750.8
1018.893	753.06
1019.185	756.9
1019.476	749.22
1019.767	744.92
1020.058	734.75
1020.35	749.67
1020.641	719.84
1020.932	728.88
1021.223	736.56
1021.514	711.03
1021.804	718.94
1022.095	704.7
1022.386	717.58
1022.677	693.63
1022.967	712.83
1023.258	716.9
1023.548	706.05
1023.839	691.14
1024.129	669.45
1024.419	682.33
1024.709	675.1
1025	690.91
1025.29	689.33
1025.58	671.25
1025.87	676.23
1026.16	679.16
1026.449	664.7
1026.739	686.39
1027.029	643.23
1027.319	654.3
1027.608	650.24
1027.898	650.01
1028.187	649.79
1028.477	610.69
1028.766	657.24
1029.055	617.7
1029.344	632.61
1029.634	635.1
1029.923	627.86
1030.212	641.65
1030.501	614.98
1030.79	620.63
1031.078	618.83
1031.367	619.28
1031.656	594.87
1031.945	632.84
1032.233	613.4
1032.522	631.93
1032.81	588.54
1033.099	604.81
1033.387	592.16
1033.675	607.3
1033.963	574.76
1034.251	577.92
1034.54	613.63
1034.828	585.38
1035.116	567.98
1035.403	585.15
1035.691	548.32
1035.979	597.36
1036.267	572.27
1036.554	561.2
1036.842	561.43
1037.129	563.01
1037.417	566.85
1037.704	577.7
1037.992	567.98
1038.279	557.13
1038.566	550.35
1038.853	550.35
1039.14	550.35
