Data from brown_tile_FLMS001491_070.txt Node
Date: Tue Feb 07 10:37:51 GMT 2017
User: dcchb
Spectrometer: FLMS00149
Trigger mode: 0
Integration Time (sec): 2.000000E-2
Scans to average: 10
Electric dark correction enabled: true
Nonlinearity correction enabled: false
Boxcar width: 0
XAxis mode: Wavelengths
Number of Pixels in Spectrum: 2048
>>>>>Begin Spectral Data<<<<<
341.393	-24.96
341.776	-24.96
342.16	-24.96
342.543	-65.86
342.927	-68.57
343.31	-46.43
343.693	-60.66
344.077	-88.68
344.46	-48.46
344.843	-66.99
345.226	-45.3
345.61	-29.7
345.993	-39.65
346.376	-7.78
346.759	5.32
347.142	28.37
347.525	36.51
347.908	72.22
348.291	101.59
348.674	85.55
349.057	104.08
349.44	128.03
349.823	135.72
350.206	141.37
350.588	177.52
350.971	197.86
351.354	204.42
351.737	241.25
352.119	235.83
352.502	257.52
352.884	256.62
353.267	269.5
353.65	253.23
354.032	278.31
354.414	296.84
354.797	293
355.179	297.75
355.562	314.02
355.944	305.2
356.326	321.02
356.709	318.31
357.091	292.77
357.473	307.24
357.855	331.64
358.238	327.35
358.62	316.28
359.002	342.04
359.384	320.8
359.766	318.99
360.148	300.68
360.53	303.4
360.912	326.67
361.294	325.99
361.676	314.47
362.057	321.25
362.439	320.12
362.821	315.37
363.203	288.93
363.584	316.5
363.966	312.89
364.348	307.01
364.729	328.93
365.111	308.59
365.493	309.95
365.874	311.76
366.256	319.44
366.637	297.75
367.019	301.59
367.4	308.37
367.781	300.91
368.163	284.41
368.544	290.97
368.925	292.77
369.306	295.26
369.688	299.33
370.069	303.17
370.45	302.04
370.831	307.46
371.212	301.59
371.593	290.06
371.974	297.52
372.355	301.81
372.736	309.27
373.117	305.43
373.498	273.79
373.879	309.05
374.26	307.01
374.641	311.08
375.021	280.8
375.402	303.17
375.783	305.88
376.163	318.31
376.544	310.18
376.925	305.88
377.305	291.64
377.686	296.62
378.066	310.4
378.447	307.46
378.827	294.81
379.208	316.05
379.588	307.69
379.968	331.19
380.349	327.35
380.729	324.86
381.109	309.95
381.489	324.86
381.87	310.63
382.25	327.58
382.63	315.83
383.01	328.93
383.39	317.63
383.77	318.54
384.15	320.8
384.53	333.68
384.91	318.08
385.29	326.9
385.67	313.79
386.049	337.29
386.429	337.29
386.809	331.87
387.189	339.55
387.568	346.11
387.948	353.79
388.328	352.43
388.707	344.98
389.087	363.96
389.466	329.16
389.846	367.35
390.225	347.46
390.605	338.65
390.984	344.98
391.363	339.33
391.743	343.17
392.122	346.33
392.501	344.52
392.881	347.91
393.26	353.56
393.639	355.6
394.018	371.64
394.397	358.76
394.776	355.37
395.155	347.69
395.534	345.88
395.913	344.75
396.292	381.81
396.671	359.67
397.05	365.09
397.429	367.8
397.808	373.22
398.186	372.32
398.565	370.06
398.944	364.41
399.323	365.99
399.701	363.06
400.08	375.26
400.458	388.82
400.837	388.59
401.215	378.65
401.594	367.58
401.972	363.28
402.351	376.84
402.729	365.99
403.107	379.55
403.486	373
403.864	358.31
404.242	380.46
404.62	389.5
404.999	399.44
405.377	393.79
405.755	377.97
406.133	399.66
406.511	404.18
406.889	381.59
407.267	389.04
407.645	394.69
408.023	398.08
408.401	383.39
408.779	386.78
409.156	405.31
409.534	413.45
409.912	412.32
410.29	420.91
410.667	415.94
411.045	404.86
411.422	418.65
411.8	433.34
412.178	447.12
412.555	440.34
412.933	398.53
413.31	425.88
413.687	415.26
414.065	439.66
414.442	438.76
414.819	423.62
415.197	434.01
415.574	440.12
415.951	458.42
416.328	458.19
416.705	442.38
417.082	436.5
417.46	453
417.837	435.14
418.214	467.23
418.591	458.19
418.967	459.55
419.344	469.49
419.721	461.58
420.098	474.46
420.475	483.5
420.852	470.17
421.228	475.59
421.605	486.89
421.982	464.97
422.358	473.79
422.735	452.32
423.111	511.53
423.488	500.23
423.864	513.56
424.241	488.25
424.617	502.94
424.994	488.7
425.37	518.76
425.746	494.35
426.123	492.32
426.499	497.74
426.875	525.09
427.251	516.27
427.627	516.27
428.003	556.72
428.379	519.89
428.756	545.65
429.132	528.47
429.507	530.96
429.883	541.81
430.259	559.43
430.635	551.98
431.011	575.71
431.387	559.21
431.763	575.71
432.138	566.21
432.514	575.25
432.89	580.45
433.265	594.01
433.641	556.72
434.016	563.28
434.392	593.56
434.767	607.34
435.143	594.46
435.518	619.77
435.894	595.82
436.269	608.92
436.644	611.64
437.02	633.78
437.395	643.5
437.77	623.16
438.145	651.18
438.52	634.91
438.895	646.66
439.271	628.81
439.646	641.24
440.021	667.91
440.395	661.8
440.77	640.79
441.145	671.97
441.52	663.39
441.895	671.3
442.27	658.19
442.645	691.18
443.019	696.61
443.394	686.66
443.769	686.21
444.143	676.49
444.518	683.95
444.892	682.6
445.267	689.83
445.641	717.17
446.016	714.91
446.39	688.24
446.764	714.68
447.139	737.28
447.513	719.88
447.887	720.11
448.262	737.73
448.636	693.89
449.01	740.45
449.384	729.15
449.758	736.15
450.132	735.25
450.506	751.07
450.88	760.56
451.254	776.6
451.628	764.85
452.002	767.56
452.376	764.63
452.75	768.92
453.123	763.04
453.497	775.47
453.871	802.59
454.244	781.35
454.618	806.21
454.992	836.49
455.365	813.89
455.739	821.8
456.112	858.86
456.486	867.9
456.859	820.22
457.232	858.86
457.606	847.11
457.979	845.53
458.352	871.29
458.725	867.22
459.099	899.54
459.472	889.82
459.845	905.64
460.218	912.87
460.591	934.11
460.964	945.64
461.337	932.53
461.71	948.8
462.083	965.3
462.456	942.7
462.829	962.36
463.201	956.94
463.574	960.55
463.947	970.27
464.32	1030.83
464.692	1004.62
465.065	999.2
465.438	1028.35
465.81	1037.84
466.183	1069.03
466.555	1078.74
466.928	1080.55
467.3	1085.97
467.672	1100.21
468.045	1134.11
468.417	1125.75
468.789	1116.48
469.161	1132.98
469.534	1153.77
469.906	1162.81
470.278	1165.97
470.65	1172.3
471.022	1196.48
471.394	1224.28
471.766	1230.15
472.138	1231.96
472.51	1231.96
472.882	1267.21
473.253	1285.07
473.625	1288
473.997	1339.53
474.369	1322.35
474.74	1353.54
475.112	1358.51
475.484	1384.72
475.855	1382.46
476.227	1371.16
476.598	1428.34
476.97	1458.62
477.341	1443.93
477.713	1483.93
478.084	1527.54
478.455	1513.31
478.827	1539.52
479.198	1576.81
479.569	1582.01
479.94	1591.05
480.311	1605.28
480.682	1644.83
481.053	1671.95
481.424	1710.59
481.795	1723.02
482.166	1751.95
482.537	1755.79
482.908	1794.43
483.279	1762.79
483.65	1826.52
484.021	1869
484.391	1887.99
484.762	1924.82
485.133	1904.94
485.503	1940.87
485.874	1965.73
486.244	1994.42
486.615	2025.16
486.985	2037.14
487.356	2098.15
487.726	2107.19
488.097	2125.72
488.467	2134.76
488.837	2200.3
489.207	2178.15
489.578	2209.79
489.948	2231.93
490.318	2271.71
490.688	2270.8
491.058	2298.37
491.428	2317.81
491.798	2354.64
492.168	2396.45
492.538	2384.7
492.908	2416.11
493.278	2483.9
493.648	2478.71
494.017	2494.3
494.387	2521.64
494.757	2528.2
495.126	2569.55
495.496	2556.67
495.866	2572.94
496.235	2623.79
496.605	2689.77
496.974	2657.68
497.344	2690.68
497.713	2665.37
498.082	2716.89
498.452	2762.99
498.821	2766.16
499.19	2768.42
499.559	2810.45
499.928	2791.69
500.298	2800.05
500.667	2847.96
501.036	2850.22
501.405	2887.51
501.774	2889.54
502.143	2913.95
502.512	2922.76
502.88	2947.17
503.249	2962.08
503.618	3024.45
503.987	3002.53
504.356	3026.94
504.724	3033.95
505.093	3100.38
505.462	3069.88
505.83	3099.25
506.199	3137.67
506.567	3180.61
506.936	3152.59
507.304	3226.26
507.672	3216.31
508.041	3226.48
508.409	3234.39
508.777	3330.66
509.145	3320.94
509.514	3348.06
509.882	3345.12
510.25	3362.3
510.618	3367.72
510.986	3385.57
511.354	3419.47
511.722	3416.53
512.09	3457.44
512.458	3453.37
512.826	3471.22
513.193	3512.58
513.561	3544.89
513.929	3579.92
514.297	3589.41
514.664	3673.25
515.032	3676.87
515.4	3680.48
515.767	3712.12
516.135	3686.13
516.502	3709.86
516.869	3773.59
517.237	3769.07
517.604	3809.97
517.972	3816.98
518.339	3841.16
518.706	3885.9
519.073	3884.09
519.44	3921.61
519.808	3963.86
520.175	3985.56
520.542	4041.6
520.909	4068.27
521.276	4083.18
521.643	4132.67
522.009	4163.41
522.376	4164.99
522.743	4224.2
523.11	4269.62
523.477	4288.15
523.843	4293.8
524.21	4382.61
524.577	4409.05
524.943	4429.84
525.31	4483.85
525.676	4478.43
526.043	4509.84
526.409	4575.15
526.776	4612.89
527.142	4617.18
527.508	4662.6
527.874	4730.17
528.241	4736.5
528.607	4785.76
528.973	4832.99
529.339	4798.19
529.705	4846.33
530.071	4880.22
530.437	4927.46
530.803	4934.01
531.169	4965.87
531.535	5018.53
531.901	5030.05
532.267	5053.55
532.632	5091.29
532.998	5126.77
533.364	5190.05
533.73	5159.09
534.095	5234.79
534.461	5292.19
534.826	5268.01
535.192	5284.28
535.557	5357.5
535.923	5353.43
536.288	5348.69
536.653	5460.55
537.019	5455.12
537.384	5481.34
537.749	5533.99
538.114	5550.04
538.479	5516.37
538.845	5560.21
539.21	5548.68
539.575	5651.73
539.94	5625.97
540.305	5685.85
540.67	5710.71
541.034	5716.14
541.399	5757.26
541.764	5822.35
542.129	5848.11
542.494	5872.06
542.858	5898.73
543.223	5936.02
543.587	5924.27
543.952	6008.1
544.316	6037.71
544.681	6006.3
545.045	6129.68
545.41	6126.75
545.774	6116.8
546.138	6169.46
546.503	6206.29
546.867	6242.67
547.231	6298.27
547.595	6325.61
547.959	6361.77
548.324	6417.36
548.688	6406.51
549.052	6478.83
549.416	6447.42
549.779	6534.64
550.143	6557.24
550.507	6616.45
550.871	6602.89
551.235	6707.97
551.599	6723.34
551.962	6795.43
552.326	6829.78
552.689	6898.7
553.053	6914.75
553.417	6968.53
553.78	7001.75
554.143	7038.13
554.507	7087.4
554.87	7129.66
555.234	7238.81
555.597	7241.97
555.96	7345.24
556.323	7337.56
556.686	7434.06
557.05	7456.2
557.413	7589.31
557.776	7575.3
558.139	7671.11
558.502	7705.24
558.865	7765.8
559.228	7916.98
559.59	7972.57
559.953	7964.21
560.316	8068.39
560.679	8108.84
561.041	8154.04
561.404	8287.37
561.767	8393.58
562.129	8330.3
562.492	8473.58
562.854	8525.1
563.217	8599.68
563.579	8698.66
563.941	8712.21
564.304	8820.91
564.666	8862.72
565.028	8959.67
565.39	9030.4
565.753	9102.94
566.115	9156.27
566.477	9280.11
566.839	9286.44
567.201	9440.33
567.563	9441.46
567.925	9662.7
568.287	9640.55
568.648	9717.61
569.01	9796.48
569.372	9939.98
569.734	9870.15
570.095	10051.84
570.457	10163.48
570.819	10190.59
571.18	10190.14
571.542	10357.37
571.903	10390.36
572.265	10436.69
572.626	10529.57
572.987	10628.77
573.349	10659.06
573.71	10740.41
574.071	10822.44
574.432	10933.4
574.794	11107.63
575.155	11064.47
575.516	11137.46
575.877	11238.02
576.238	11249.55
576.599	11364.35
576.96	11468.3
577.32	11479.37
577.681	11478.92
578.042	11679.37
578.403	11706.26
578.763	11765.24
579.124	11859.7
579.485	11908.97
579.845	11985.8
580.206	12012.69
580.566	12114.61
580.927	12145.57
581.287	12185.12
581.648	12251.33
582.008	12419.01
582.368	12329.29
582.728	12438.44
583.089	12405
583.449	12577.2
583.809	12541.04
584.169	12681.15
584.529	12631.21
584.889	12797.3
585.249	12785.55
585.609	12759.34
585.969	12860.35
586.329	12920.92
586.688	12997.07
587.048	13003.63
587.408	13021.93
587.768	13125.66
588.127	13071.65
588.487	13138.76
588.846	13325.65
589.206	13159.78
589.565	13289.5
589.925	13345.76
590.284	13370.17
590.643	13447.01
591.003	13495.82
591.362	13597.28
591.721	13552.31
592.08	13586.66
592.44	13706.66
592.799	13705.53
593.158	13727.22
593.517	13829.14
593.876	13801.57
594.235	13815.58
594.593	13841.57
594.952	13839.76
595.311	13951.62
595.67	13960.66
596.029	14061.9
596.387	14085.86
596.746	14103.03
597.104	14092.86
597.463	14165.4
597.822	14197.95
598.18	14158.62
598.538	14264.38
598.897	14373.53
599.255	14208.34
599.613	14483.36
599.972	14430.93
600.33	14583.25
600.688	14513.19
601.046	14477.49
601.404	14567.43
601.762	14579.4
602.12	14717.71
602.478	14629.12
602.836	14753.41
603.194	14693.98
603.552	14761.55
603.91	14696.92
604.268	14827.31
604.625	14778.5
604.983	14879.96
605.341	14816.91
605.698	14943.91
606.056	14942.79
606.413	14926.29
606.771	15005.61
607.128	15110.24
607.485	15080.18
607.843	15043.35
608.2	15164.7
608.557	15114.76
608.914	15157.69
609.272	15224.13
609.629	15204.02
609.986	15333.74
610.343	15255.55
610.7	15402.21
611.057	15342.32
611.414	15319.05
611.771	15413.06
612.127	15499.38
612.484	15514.97
612.841	15582.09
613.198	15465.94
613.554	15545.93
613.911	15634.52
614.267	15589.77
614.624	15505.03
614.98	15630.22
615.337	15698.47
615.693	15798.36
616.05	15694.4
616.406	15877.9
616.762	15720.84
617.118	15809.65
617.475	15825.02
617.831	15895.98
618.187	15886.04
618.543	15909.99
618.899	15882.65
619.255	15924
619.611	15960.39
619.967	16078.12
620.323	16163.09
620.678	16019.14
621.034	15924.68
621.39	16000.84
621.746	16011.91
622.101	16169.65
622.457	16068.63
622.812	16090.78
623.168	16127.84
623.523	16142.08
623.879	16214.84
624.234	16108.18
624.589	16168.52
624.945	16201.28
625.3	16289.42
625.655	16260.26
626.01	16285.8
626.365	16245.12
626.72	16281.05
627.075	16142.08
627.43	16187.05
627.785	16146.37
628.14	16236.54
628.495	16212.13
628.85	16251.68
629.205	16245.12
629.559	16236.08
629.914	16199.48
630.269	16156.09
630.623	16232.24
630.978	16179.36
631.332	16197.44
631.687	16225.01
632.041	16092.59
632.396	16188.85
632.75	16066.15
633.104	16169.65
633.459	16145.24
633.813	16151.11
634.167	16079.25
634.521	16113.15
634.875	16051.23
635.229	16083.09
635.583	15987.05
635.937	16011.91
636.291	15971.46
636.645	15981.18
636.999	15954.51
637.352	16030.89
637.706	15901.86
638.06	15990.22
638.413	15917.67
638.767	15892.82
639.121	15946.15
639.474	15833.84
639.828	15923.78
640.181	15864.12
640.534	15934.4
640.888	15860.28
641.241	15778.02
641.594	15946.83
641.947	15929.2
642.301	15804.01
642.654	15761.07
643.007	15895.98
643.36	15894.4
643.713	15842.87
644.066	15877.22
644.419	15707.28
644.771	15719.04
645.124	15567.85
645.477	15544.35
645.83	15455.09
646.182	15386.16
646.535	15365.15
646.888	15339.61
647.24	15267.75
647.593	15374.86
647.945	15307.07
648.298	15263.68
648.65	15244.25
649.002	15201.76
649.355	15254.19
649.707	15204.47
650.059	15298.48
650.411	15501.64
650.763	15540.74
651.115	15707.74
651.467	15682.88
651.819	15585.03
652.171	15623.22
652.523	15572.15
652.875	15536.67
653.227	15511.81
653.578	15696.89
653.93	15634.52
654.282	15544.35
654.633	15521.3
654.985	15523.79
655.337	15499.61
655.688	15599.72
656.039	15529.66
656.391	15500.28
656.742	15509.78
657.094	15449.21
657.445	15630.9
657.796	15523.33
658.147	15474.3
658.498	15563.56
658.849	15641.07
659.2	15487.63
659.551	15513.84
659.902	15628.64
660.253	15567.18
660.604	15547.74
660.955	15490.12
661.306	15607.85
661.656	15541.19
662.007	15541.41
662.358	15578.7
662.708	15527.4
663.059	15526.05
663.409	15521.3
663.76	15567.18
664.11	15545.26
664.461	15528.76
664.811	15574.86
665.161	15598.36
665.511	15565.37
665.862	15504.13
666.212	15655.31
666.562	15621.64
666.912	15620.73
667.262	15587.06
667.612	15635.2
667.962	15612.82
668.312	15567.63
668.662	15636.1
669.011	15654.4
669.361	15590.45
669.711	15724.23
670.06	15615.76
670.41	15643.33
670.76	15641.75
671.109	15682.43
671.459	15585.25
671.808	15626.61
672.157	15714.74
672.507	15600.17
672.856	15548.87
673.205	15658.47
673.554	15772.59
673.904	15617.8
674.253	15705.7
674.602	15586.16
674.951	15461.87
675.3	15390.91
675.649	15536.67
675.998	15560.4
676.346	15658.92
676.695	15714.97
677.044	15600.85
677.393	15669.32
677.741	15687.17
678.09	15655.31
678.438	15580.06
678.787	15621.19
679.135	15702.99
679.484	15555.65
679.832	15695.76
680.181	15582.99
680.529	15639.49
680.877	15623.9
681.225	15580.06
681.573	15725.59
681.922	15548.42
682.27	15549.32
682.618	15627.29
682.966	15520.85
683.314	15580.51
683.661	15568.08
684.009	15564.46
684.357	15518.59
684.705	15436.78
685.053	15489.89
685.4	15475.2
685.748	15453.96
686.095	15464.35
686.443	15348.42
686.79	15429.1
687.138	15340.74
687.485	15392.26
687.832	15436.33
688.18	15412.83
688.527	15346.62
688.874	15357.24
689.221	15235.66
689.568	15244.02
689.915	15204.25
690.262	15290.8
690.609	15177.13
690.956	15182.55
691.303	15097.58
691.65	15161.99
691.997	15088.54
692.344	15014.2
692.69	14941.2
693.037	14997.7
693.383	14954.76
693.73	15032.27
694.077	14989.79
694.423	14898.27
694.769	14908.89
695.116	14903.24
695.462	14820.08
695.808	14790.92
696.155	14739.63
696.501	14783.02
696.847	14689.46
697.193	14606.3
697.539	14770.13
697.885	14636.58
698.231	14507.77
698.577	14644.26
698.923	14588.44
699.269	14609.69
699.614	14445.4
699.96	14479.97
700.306	14412.63
700.651	14416.47
700.997	14490.37
701.342	14350.71
701.688	14423.02
702.033	14316.59
702.379	14318.39
702.724	14339.86
703.069	14349.58
703.415	14308.45
703.76	14166.08
704.105	14255.12
704.45	14207.44
704.795	14072.98
705.14	14190.71
705.485	14092.41
705.83	14056.25
706.175	13959.31
706.52	14038.85
706.865	13989.59
707.209	14011.51
707.554	13952.75
707.899	13960.89
708.243	13937.84
708.588	13971.74
708.932	13812.19
709.277	13841.35
709.621	13904.62
709.966	13778.07
710.31	13821.23
710.654	13741.69
710.998	13720.9
711.342	13778.52
711.687	13746.66
712.031	13664.63
712.375	13717.73
712.719	13741.91
713.063	13667.79
713.407	13738.07
713.75	13675.7
714.094	13639.32
714.438	13544.4
714.782	13607.23
715.125	13557.51
715.469	13632.54
715.812	13590.73
716.156	13461.92
716.499	13584.85
716.843	13531.75
717.186	13506.44
717.53	13548.02
717.873	13521.81
718.216	13422.37
718.559	13369.04
718.902	13393.45
719.246	13432.54
719.589	13411.53
719.932	13324.75
720.275	13327.01
720.617	13326.33
720.96	13307.35
721.303	13396.61
721.646	13368.82
721.989	13288.59
722.331	13236.62
722.674	13332.66
723.016	13364.75
723.359	13301.25
723.701	13290.85
724.044	13093.79
724.386	13169.27
724.729	13213.56
725.071	13250.17
725.413	13108.03
725.755	13266.67
726.097	13141.02
726.439	13184.41
726.782	13134.47
727.124	13168.59
727.465	13084.98
727.807	13158.43
728.149	13057.18
728.491	13095.6
728.833	13086.34
729.175	13064.64
729.516	13026.45
729.858	13016.73
730.199	12994.14
730.541	12992.1
730.882	12981.03
731.224	12981.71
731.565	12874.14
731.906	12927.7
732.248	13003.18
732.589	12888.83
732.93	12922.5
733.271	12841.6
733.612	12874.59
733.953	12954.81
734.294	12823.07
734.635	12805.21
734.976	12783.97
735.317	12742.84
735.658	12793.69
735.999	12795.95
736.339	12808.15
736.68	12872.78
737.021	12796.17
737.361	12722.96
737.702	12801.15
738.042	12722.05
738.383	12706.69
738.723	12808.15
739.063	12722.96
739.404	12633.02
739.744	12722.28
740.084	12635.05
740.424	12614.71
740.764	12615.16
741.104	12631.43
741.444	12542.4
741.784	12520.48
742.124	12574.03
742.464	12544.88
742.804	12520.25
743.143	12483.19
743.483	12409.97
743.823	12409.52
744.162	12344.66
744.502	12478.67
744.841	12338.11
745.181	12460.14
745.52	12433.7
745.86	12412.46
746.199	12426.24
746.538	12323.87
746.877	12346.92
747.216	12369.97
747.556	12245.91
747.895	12273.02
748.234	12184.67
748.573	12176.98
748.911	12198.22
749.25	12230.54
749.589	12098.34
749.928	12242.74
750.267	12153.25
750.605	12143.08
750.944	12063.76
751.283	12064.44
751.621	12072.35
751.96	11970.89
752.298	12038.68
752.636	12044.33
752.975	11966.14
753.313	11836.88
753.651	12016.99
753.989	11832.58
754.327	11828.52
754.666	11751
755.004	11901.06
755.342	11822.42
755.679	11746.26
756.017	11671.46
756.355	11764.11
756.693	11639.82
757.031	11638.69
757.368	11638.47
757.706	11593.49
758.044	11431.24
758.381	11522.08
758.719	11459.03
759.056	11515.98
759.394	11440.5
759.731	11309.21
760.068	11362.54
760.405	11324.8
760.743	11282.32
761.08	11284.58
761.417	11217.69
761.754	11134.52
762.091	11180.62
762.428	11155.77
762.765	11097.46
763.102	11097.01
763.438	11071.47
763.775	10963.45
764.112	11080.29
764.449	10993.51
764.785	10925.04
765.122	10874.19
765.458	10807.07
765.795	10818.15
766.131	10722.78
766.467	10752.61
766.804	10652.28
767.14	10659.51
767.476	10645.95
767.812	10638.94
768.148	10587.65
768.485	10460.64
768.821	10411.15
769.157	10418.84
769.492	10412.51
769.828	10375
770.164	10267.43
770.5	10346.97
770.836	10283.92
771.171	10224.72
771.507	10149.46
771.842	10117.15
772.178	10080.77
772.513	10108.79
772.849	10004.61
773.184	10010.94
773.519	9936.59
773.855	9921.45
774.19	9862.47
774.525	9871.51
774.86	9872.86
775.195	9846.42
775.53	9751.28
775.865	9678.06
776.2	9619.76
776.535	9585.19
776.87	9583.38
777.205	9539.31
777.539	9521.23
777.874	9527.56
778.209	9474.91
778.543	9444.17
778.878	9342.25
779.212	9412.31
779.547	9303.61
779.881	9339.99
780.215	9234.23
780.55	9256.61
780.884	9174.58
781.218	9082.37
781.552	9139.1
781.886	9021.36
782.22	9102.49
782.554	9008.03
782.888	8859.1
783.222	8922.83
783.556	8883.74
783.889	8811.42
784.223	8730.07
784.557	8742.95
784.89	8801.93
785.224	8651.88
785.557	8631.99
785.891	8601.26
786.224	8596.96
786.558	8557.87
786.891	8509.28
787.224	8493.01
787.557	8428.38
787.891	8401.26
788.224	8426.57
788.557	8460.47
788.89	8395.39
789.223	8328.04
789.556	8299.34
789.888	8223.19
790.221	8266.58
790.554	8190.87
790.887	8211.89
791.219	8143.42
791.552	8096.86
791.884	8070.65
792.217	8063.19
792.549	8009.86
792.882	7944.1
793.214	7917.66
793.546	7884.44
793.879	7906.81
794.211	7865.91
794.543	7851.67
794.875	7765.12
795.207	7817.32
795.539	7792.01
795.871	7707.5
796.203	7716.99
796.535	7639.25
796.867	7643.09
797.198	7602.19
797.53	7592.24
797.862	7540.27
798.193	7524.9
798.525	7425.69
798.856	7500.95
799.188	7387.73
799.519	7428.41
799.85	7335.75
800.182	7315.19
800.513	7319.26
800.844	7275.19
801.175	7269.31
801.506	7279.26
801.837	7215.53
802.168	7228.19
802.499	7120.62
802.83	7175.98
803.161	7120.62
803.491	7112.26
803.822	7117.68
804.153	7037
804.483	6994.29
804.814	7015.08
805.145	7045.14
805.475	6965.82
805.805	6911.81
806.136	6950.45
806.466	6893.73
806.796	6903.45
807.126	6897.35
807.457	6789.33
807.787	6794.75
808.117	6728.54
808.447	6754.53
808.777	6728.31
809.107	6755.66
809.436	6734.41
809.766	6693.74
810.096	6618.48
810.426	6634.98
810.755	6646.05
811.085	6668.88
811.414	6574.42
811.744	6540.52
812.073	6503.01
812.403	6468.21
812.732	6478.6
813.061	6439.05
813.39	6440.41
813.719	6405.16
814.049	6447.64
814.378	6356.8
814.707	6343.01
815.036	6364.48
815.365	6298.49
815.693	6254.88
816.022	6239.51
816.351	6223.69
816.68	6214.43
817.008	6250.58
817.337	6146.18
817.665	6196.12
817.994	6184.6
818.322	6146.63
818.651	6174.88
818.979	6124.94
819.307	6101.66
819.636	6094.88
819.964	6050.59
820.292	6088.78
820.62	6109.12
820.948	6049.01
821.276	6060.53
821.604	6086.75
821.932	6086.07
822.259	6009.46
822.587	6042.45
822.915	6042.45
823.243	6032.28
823.57	6015.11
823.898	6004.71
824.225	6002.46
824.553	5983.02
824.88	5990.7
825.207	5971.04
825.535	5983.7
825.862	5999.52
826.189	5951.61
826.516	5966.3
826.843	5973.3
827.17	5945.96
827.497	5973.53
827.824	5950.48
828.151	5922.01
828.478	5927.88
828.805	5992.96
829.131	5947.54
829.458	5896.92
829.785	5873.87
830.111	5911.61
830.438	5946.86
830.764	5950.93
831.09	5964.94
831.417	5890.59
831.743	5912.74
832.069	5907.77
832.395	5925.62
832.722	5895.79
833.048	5850.14
833.374	5886.98
833.7	5820.31
834.026	5861.22
834.351	5848.33
834.677	5859.41
835.003	5813.08
835.329	5762.24
835.654	5767.21
835.98	5756.36
836.306	5802.69
836.631	5702.8
836.956	5780.54
837.282	5781.9
837.607	5714.1
837.932	5724.5
838.258	5703.93
838.583	5766.98
838.908	5694.21
839.233	5655.8
839.558	5646.31
839.883	5620.54
840.208	5644.95
840.533	5591.17
840.858	5603.14
841.182	5583.48
841.507	5597.95
841.832	5579.87
842.156	5570.38
842.481	5524.28
842.805	5570.6
843.13	5535.12
843.454	5485.41
843.778	5511.62
844.103	5485.86
844.427	5455.35
844.751	5441.79
845.075	5448.12
845.399	5398.63
845.723	5404.73
846.047	5389.82
846.371	5346.2
846.695	5304.39
847.019	5307.56
847.343	5256.49
847.666	5218.97
847.99	5228.69
848.313	5232.53
848.637	5188.69
848.96	5224.17
849.284	5165.19
849.607	5107.79
849.931	5095.81
850.254	5081.12
850.577	5061.69
850.9	5034.35
851.223	5030.5
851.546	4968.36
851.869	4992.76
852.192	4957.06
852.515	4921.81
852.838	4916.61
853.161	4924.29
853.483	4921.13
853.806	4891.75
854.129	4833.9
854.451	4856.72
854.774	4823.5
855.096	4841.81
855.419	4819.89
855.741	4760.68
856.063	4727.69
856.385	4763.39
856.708	4709.61
857.03	4659.89
857.352	4709.61
857.674	4694.69
857.996	4672.55
858.318	4656.73
858.64	4642.04
858.961	4617.41
859.283	4633.9
859.605	4595.26
859.926	4635.71
860.248	4549.84
860.57	4558.43
860.891	4562.72
861.212	4552.32
861.534	4562.49
861.855	4532.89
862.176	4527.24
862.498	4521.82
862.819	4513.45
863.14	4480.24
863.461	4468.71
863.782	4513.45
864.103	4509.84
864.424	4453.8
864.745	4450.63
865.065	4463.74
865.386	4423.51
865.707	4422.84
866.027	4439.78
866.348	4430.52
866.668	4379.45
866.989	4375.83
867.309	4359.79
867.63	4366.79
867.95	4345.55
868.27	4317.53
868.59	4334.02
868.91	4359.33
869.23	4332.44
869.55	4279.34
869.87	4342.61
870.19	4289.28
870.51	4322.5
870.83	4316.4
871.15	4289.96
871.469	4281.14
871.789	4280.24
872.109	4251.31
872.428	4240.92
872.748	4269.17
873.067	4207.02
873.386	4239.34
873.706	4216.51
874.025	4191.88
874.344	4231.65
874.663	4203.86
874.982	4191.66
875.301	4183.29
875.62	4180.13
875.939	4165.22
876.258	4141.04
876.577	4194.82
876.896	4139.23
877.214	4135.39
877.533	4121.83
877.852	4106.23
878.17	4087.93
878.489	4134.03
878.807	4076.86
879.125	4108.72
879.444	4044.77
879.762	4100.58
880.08	4095.39
880.398	4027.82
880.716	4046.35
881.034	4017.87
881.352	4070.08
881.67	4036.18
881.988	4023.3
882.306	4018.55
882.624	4012.9
882.941	3996.63
883.259	3985.79
883.577	3952.34
883.894	3967.25
884.212	3947.82
884.529	3931.55
884.846	3930.87
885.164	3898.33
885.481	3898.33
885.798	3930.42
886.115	3857.65
886.432	3925.22
886.75	3851.55
887.067	3888.61
887.383	3828.95
887.7	3864.43
888.017	3814.94
888.334	3851.55
888.651	3824.89
888.967	3817.88
889.284	3779.46
889.6	3817.65
889.917	3732.01
890.233	3815.85
890.55	3768.16
890.866	3760.93
891.182	3768.16
891.498	3736.07
891.815	3731.78
892.131	3704.21
892.447	3701.95
892.763	3703.53
893.079	3702.63
893.395	3727.71
893.71	3623.31
894.026	3659.92
894.342	3630.31
894.657	3618.79
894.973	3633.93
895.289	3644.33
895.604	3598.9
895.92	3580.37
896.235	3571.33
896.55	3566.59
896.865	3534.05
897.181	3538.34
897.496	3605.23
897.811	3565.68
898.126	3510.77
898.441	3517.77
898.756	3478.23
899.071	3472.8
899.386	3445.69
899.7	3489.07
900.015	3460.15
900.33	3452.24
900.644	3447.04
900.959	3448.85
901.273	3411.79
901.588	3366.37
901.902	3409.08
902.216	3368.63
902.531	3394.39
902.845	3359.36
903.159	3337.21
903.473	3307.84
903.787	3323.2
904.101	3304.9
904.415	3326.82
904.729	3302.19
905.042	3264.67
905.356	3289.76
905.67	3234.17
905.984	3290.89
906.297	3209.31
906.611	3222.19
906.924	3191.91
907.237	3216.54
907.551	3225.35
907.864	3171.57
908.177	3202.98
908.491	3153.72
908.804	3155.3
909.117	3091.8
909.43	3164.34
909.743	3085.7
910.056	3115.3
910.368	3083.21
910.681	3093.38
910.994	3028.52
911.307	3031.01
911.619	3006.83
911.932	3052.25
912.244	3033.72
912.557	3036.66
912.869	2983.1
913.181	2996.21
913.494	3015.87
913.806	2941.97
914.118	2963.21
914.43	2941.52
914.742	2916.66
915.054	2973.16
915.366	2920.5
915.678	2911.24
915.99	2881.86
916.302	2868.98
916.613	2825.82
916.925	2875.98
917.236	2854.97
917.548	2836.66
917.859	2817.68
918.171	2798.47
918.482	2820.17
918.794	2801.64
919.105	2793.73
919.416	2744.91
919.727	2768.87
920.038	2744.46
920.349	2770.22
920.66	2719.6
920.971	2715.54
921.282	2729.77
921.593	2687.06
921.903	2673.05
922.214	2677.34
922.525	2670.79
922.835	2654.97
923.146	2676.21
923.456	2666.27
923.767	2627.4
924.077	2626.95
924.387	2645.48
924.697	2598.48
925.008	2588.99
925.318	2591.92
925.628	2594.18
925.938	2606.39
926.248	2535.88
926.558	2520.06
926.867	2556.44
927.177	2525.71
927.487	2475.09
927.796	2491.81
928.106	2493.39
928.416	2497.24
928.725	2482.77
929.034	2442.1
929.344	2458.37
929.653	2439.84
929.962	2412.95
930.271	2403.68
930.581	2423.57
930.89	2409.1
931.199	2395.54
931.508	2398.71
931.817	2416.33
932.125	2402.55
932.434	2388.09
932.743	2336.56
933.051	2349.9
933.36	2326.85
933.669	2330.69
933.977	2311.7
934.286	2318.03
934.594	2312.38
934.902	2269.22
935.21	2283
935.519	2298.37
935.827	2284.13
936.135	2268.09
936.443	2238.71
936.751	2224.02
937.059	2226.06
937.367	2231.48
937.674	2237.13
937.982	2251.82
938.29	2211.59
938.597	2226.96
938.905	2179.73
939.213	2164.82
939.52	2175.66
939.827	2151.26
940.135	2148.09
940.442	2140.18
940.749	2130.01
941.056	2134.53
941.363	2130.92
941.67	2125.72
941.977	2129.11
942.284	2089.56
942.591	2080.52
942.898	2111.71
943.205	2096.34
943.511	2082.78
943.818	2061.54
944.125	2063.8
944.431	2046.18
944.738	2049.79
945.044	2052.05
945.35	2027.87
945.657	2049.56
945.963	2012.05
946.269	1986.74
946.575	1996.01
946.881	1994.2
947.187	2013.41
947.493	1985.61
947.799	1991.49
948.105	1955.56
948.41	1965.95
948.716	1957.14
949.022	1982.22
949.327	1946.74
949.633	1914.88
949.938	1935.44
950.244	1884.37
950.549	1903.35
950.854	1902.9
951.16	1878.95
951.465	1895.67
951.77	1869.91
952.075	1903.58
952.38	1876.01
952.685	1871.04
952.99	1829.23
953.294	1842.56
953.599	1812.73
953.904	1836.01
954.209	1812.06
954.513	1815.22
954.818	1812.06
955.122	1788.33
955.426	1798.95
955.731	1779.97
956.035	1772.96
956.339	1811.38
956.643	1751.27
956.948	1764.6
957.252	1767.99
957.556	1729.8
957.86	1743.81
958.163	1746.52
958.467	1767.31
958.771	1708.33
959.075	1707.88
959.378	1697.48
959.682	1700.65
959.985	1685.05
960.289	1694.55
960.592	1682.79
960.896	1692.96
961.199	1706.07
961.502	1654.77
961.805	1653.19
962.108	1646.19
962.411	1629.01
962.714	1631.72
963.017	1666.75
963.32	1650.48
963.623	1603.93
963.926	1614.55
964.228	1612.51
964.531	1607.32
964.833	1597.6
965.136	1605.51
965.438	1615.68
965.741	1574.55
966.043	1568.22
966.345	1603.25
966.648	1572.29
966.95	1580.88
967.252	1532.97
967.554	1537.49
967.856	1528.45
968.158	1573.42
968.46	1535.91
968.761	1525.28
969.063	1535
969.365	1524.83
969.666	1506.3
969.968	1495.46
970.269	1508.11
970.571	1504.95
970.872	1479.41
971.174	1492.29
971.475	1492.29
971.776	1472.86
972.077	1462.01
972.378	1481.22
972.679	1455.68
972.98	1469.24
973.281	1458.62
973.582	1463.14
973.883	1446.19
974.183	1430.15
974.484	1437.83
974.785	1422.69
975.085	1438.51
975.386	1433.76
975.686	1426.08
975.986	1380.66
976.287	1389.92
976.587	1389.7
976.887	1396.7
977.187	1397.15
977.487	1408.68
977.787	1361.9
978.087	1365.97
978.387	1335.46
978.687	1351.5
978.987	1356.7
979.286	1373.2
979.586	1350.6
979.885	1342.92
980.185	1329.58
980.484	1322.13
980.784	1303.14
981.083	1292.3
981.382	1299.53
981.682	1330.49
981.981	1318.06
982.28	1282.13
982.579	1297.72
982.878	1308.57
983.177	1291.17
983.475	1282.58
983.774	1264.73
984.073	1265.18
984.372	1265.18
984.67	1266.08
984.969	1258.85
985.267	1249.36
985.566	1236.48
985.864	1245.52
986.162	1226.76
986.461	1233.77
986.759	1227.44
987.057	1219.98
987.355	1245.29
987.653	1216.59
987.951	1211.85
988.249	1219.3
988.547	1235.8
988.844	1212.07
989.142	1187.67
989.44	1183.82
989.737	1186.99
990.035	1171.85
990.332	1152.64
990.63	1151.96
990.927	1170.94
991.224	1177.95
991.521	1140.44
991.819	1153.54
992.116	1134.79
992.413	1157.38
992.71	1138.63
993.006	1128.69
993.303	1129.14
993.6	1158.06
993.897	1132.53
994.193	1119.19
994.49	1100.21
994.787	1123.49
995.083	1088.23
995.379	1106.76
995.676	1076.71
995.972	1073.55
996.268	1074.68
996.565	1078.97
996.861	1089.36
997.157	1103.6
997.453	1065.41
997.749	1057.73
998.044	1045.3
998.34	1059.31
998.636	1066.09
998.932	1046.65
999.227	1049.59
999.523	1041.23
999.818	1045.75
1000.114	1022.02
1000.409	1025.86
1000.704	1040.55
1001	1029.7
1001.295	1021.12
1001.59	1017.28
1001.885	1016.82
1002.18	1001.91
1002.475	1003.72
1002.77	993.1
1003.065	965.98
1003.359	966.88
1003.654	994.9
1003.949	988.58
1004.243	977.73
1004.538	977.73
1004.832	969.37
1005.127	974.79
1005.421	947.9
1005.715	956.26
1006.009	932.53
1006.304	943.83
1006.598	926.66
1006.892	921.23
1007.186	942.25
1007.48	941.57
1007.773	925.98
1008.067	905.64
1008.361	917.84
1008.655	896.6
1008.948	904.96
1009.242	896.6
1009.535	884.85
1009.829	898.86
1010.122	903.61
1010.415	913.1
1010.708	888.24
1011.001	870.61
1011.295	867.22
1011.588	865.87
1011.881	883.27
1012.173	862.48
1012.466	848.24
1012.759	869.71
1013.052	842.36
1013.344	857.96
1013.637	836.49
1013.93	832.65
1014.222	829.71
1014.514	843.49
1014.807	818.41
1015.099	848.92
1015.391	839.65
1015.683	809.15
1015.976	838.98
1016.268	817.96
1016.56	803.5
1016.851	809.82
1017.143	777.28
1017.435	792.87
1017.727	793.55
1018.018	779.09
1018.31	807.34
1018.602	762.82
1018.893	791.52
1019.185	766.21
1019.476	761.46
1019.767	784.06
1020.058	785.42
1020.35	751.97
1020.641	761.91
1020.932	759.66
1021.223	738.86
1021.514	755.59
1021.804	723.95
1022.095	744.74
1022.386	743.16
1022.677	744.51
1022.967	735.25
1023.258	706.78
1023.548	739.54
1023.839	725.76
1024.129	743.61
1024.419	697.51
1024.709	725.08
1025	704.29
1025.29	717.62
1025.58	675.36
1025.87	689.37
1026.16	711.75
1026.449	684.63
1026.739	685.31
1027.029	670.84
1027.319	679.88
1027.608	676.72
1027.898	657.28
1028.187	667.68
1028.477	669.04
1028.766	656.61
1029.055	673.33
1029.344	662.26
1029.634	648.02
1029.923	635.14
1030.212	654.57
1030.501	663.84
1030.79	607.12
1031.078	628.13
1031.367	627
1031.656	617.74
1031.945	627.46
1032.233	633.78
1032.522	625.65
1032.81	617.29
1033.099	641.92
1033.387	628.13
1033.675	596.04
1033.963	614.35
1034.251	615.25
1034.54	587.23
1034.828	592.2
1035.116	598.3
1035.403	609.15
1035.691	570.06
1035.979	576.84
1036.267	580.68
1036.554	581.81
1036.842	561.02
1037.129	585.42
1037.417	580.22
1037.704	566.21
1037.992	564.86
1038.279	577.51
1038.566	585.87
1038.853	585.87
1039.14	585.87
