Data from brown_tile_FLMS001491_017.txt Node
Date: Tue Feb 07 10:37:08 GMT 2017
User: dcchb
Spectrometer: FLMS00149
Trigger mode: 0
Integration Time (sec): 2.000000E-2
Scans to average: 10
Electric dark correction enabled: true
Nonlinearity correction enabled: false
Boxcar width: 0
XAxis mode: Wavelengths
Number of Pixels in Spectrum: 2048
>>>>>Begin Spectral Data<<<<<
341.393	-25
341.776	-25
342.16	-25
342.543	-62.74
342.927	-76.07
343.31	-68.61
343.693	-72.23
344.077	-82.4
344.46	-52.34
344.843	-54.83
345.226	-60.7
345.61	-19.8
345.993	-11.89
346.376	-5.79
346.759	16.36
347.142	18.62
347.525	38.95
347.908	61.55
348.291	67.2
348.674	105.17
349.057	120.76
349.44	130.93
349.823	116.92
350.206	158.05
350.588	176.58
350.971	193.75
351.354	216.58
351.737	227.65
352.119	241.43
352.502	249.57
352.884	233.3
353.267	280.98
353.65	283.92
354.032	277.59
354.414	298.38
354.797	315.33
355.179	302.45
355.562	308.1
355.944	316.46
356.326	308.78
356.709	318.95
357.091	318.04
357.473	319.17
357.855	339.51
358.238	332.28
358.62	313.52
359.002	340.41
359.384	328.21
359.766	323.01
360.148	338.15
360.53	327.08
360.912	329.57
361.294	303.58
361.676	329.34
362.057	331.38
362.439	309.23
362.821	322.11
363.203	322.56
363.584	314.2
363.966	313.97
364.348	310.81
364.729	303.81
365.111	308.78
365.493	293.64
365.874	311.94
366.256	303.58
366.637	299.06
367.019	306.74
367.4	293.41
367.781	316.01
368.163	305.61
368.544	291.6
368.925	298.61
369.306	287.76
369.688	300.42
370.069	301.55
370.45	286.18
370.831	318.04
371.212	292.96
371.593	313.97
371.974	298.83
372.355	297.93
372.736	315.56
373.117	305.61
373.498	315.33
373.879	317.82
374.26	330.02
374.641	291.83
375.021	326.4
375.402	308.1
375.783	306.74
376.163	326.18
376.544	311.71
376.925	323.24
377.305	320.3
377.686	309
378.066	316.23
378.447	341.09
378.827	334.77
379.208	324.14
379.588	323.69
379.968	304.94
380.349	309.46
380.729	325.05
381.109	325.73
381.489	342.22
381.87	342
382.25	322.79
382.63	326.86
383.01	330.02
383.39	309.23
383.77	330.7
384.15	351.26
384.53	337.93
384.91	348.1
385.29	340.19
385.67	326.4
386.049	334.99
386.429	332.96
386.809	325.95
387.189	344.48
387.568	341.09
387.948	345.16
388.328	336.8
388.707	337.03
389.087	333.64
389.466	349.45
389.846	347.42
390.225	351.49
390.605	362.34
390.984	364.37
391.363	387.19
391.743	344.93
392.122	367.31
392.501	375.67
392.881	393.97
393.26	389.91
393.639	361.88
394.018	379.96
394.397	370.7
394.776	386.06
395.155	366.18
395.534	378.83
395.913	385.16
396.292	370.92
396.671	378.38
397.05	389.68
397.429	378.61
397.808	379.28
398.186	386.52
398.565	398.04
398.944	397.59
399.323	383.58
399.701	390.13
400.08	389.91
400.458	374.99
400.837	400.75
401.215	381.32
401.594	401.43
401.972	382.67
402.351	385.61
402.729	425.61
403.107	390.36
403.486	382.67
403.864	409.11
404.242	414.54
404.62	420.64
404.999	417.25
405.377	416.8
405.755	418.6
406.133	414.09
406.511	434.42
406.889	413.18
407.267	429.68
407.645	434.2
408.023	431.49
408.401	434.42
408.779	407.31
409.156	437.81
409.534	452.05
409.912	436.91
410.29	447.98
410.667	468.55
411.045	468.1
411.422	456.57
411.8	458.15
412.178	464.48
412.555	492.5
412.933	484.14
413.31	450.24
413.687	489.11
414.065	478.94
414.442	494.54
414.819	482.78
415.197	480.98
415.574	482.11
415.951	499.28
416.328	503.35
416.705	484.37
417.082	490.69
417.46	492.28
417.837	486.4
418.214	520.07
418.591	516
418.967	528.21
419.344	516.23
419.721	513.07
420.098	524.36
420.475	547.87
420.852	530.01
421.228	531.37
421.605	534.53
421.982	532.73
422.358	526.85
422.735	551.48
423.111	546.51
423.488	542.67
423.864	562.1
424.241	566.17
424.617	556.23
424.994	560.07
425.37	551.48
425.746	570.24
426.123	567.08
426.499	559.62
426.875	601.42
427.251	581.99
427.627	558.94
428.003	575.66
428.379	599.62
428.756	585.83
429.132	591.48
429.507	571.14
429.883	610.46
430.259	628.32
430.635	606.17
431.011	633.97
431.387	629.9
431.763	638.26
432.138	634.42
432.514	640.29
432.89	653.17
433.265	674.19
433.641	670.12
434.016	661.76
434.392	681.87
434.767	670.8
435.143	677.13
435.518	690.24
435.894	685.04
436.269	711.93
436.644	706.05
437.02	719.84
437.395	711.93
437.77	726.85
438.145	708.54
438.52	742.44
438.895	712.61
439.271	751.25
439.646	735.66
440.021	757.13
440.395	738.6
440.77	744.02
441.145	782.44
441.52	766.17
441.895	773.4
442.27	770.23
442.645	772.95
443.019	798.03
443.394	775.66
443.769	787.18
444.143	785.83
444.518	804.58
444.892	780.18
445.267	808.65
445.641	801.42
446.016	808.2
446.39	808.65
446.764	814.75
447.139	810.68
447.513	818.37
447.887	843
448.262	816.11
448.636	846.16
449.01	820.18
449.384	854.75
449.758	834.87
450.132	830.8
450.506	869.67
450.88	878.71
451.254	871.25
451.628	867.41
452.002	873.06
452.376	899.5
452.75	886.84
453.123	910.57
453.497	917.35
453.871	936.11
454.244	937.01
454.618	938.37
454.992	949.89
455.365	965.71
455.739	972.94
456.112	999.15
456.486	974.07
456.859	972.49
457.232	983.79
457.606	1004.58
457.979	1017.46
458.352	1027.18
458.725	1044.58
459.099	1027.85
459.472	1030.34
459.845	1079.38
460.218	1085.03
460.591	1104.91
460.964	1070.79
461.337	1095.2
461.71	1121.19
462.083	1097.91
462.456	1135.65
462.829	1141.52
463.201	1164.57
463.574	1171.81
463.947	1170
464.32	1182.43
464.692	1209.32
465.065	1214.97
465.438	1238.92
465.81	1231.46
466.183	1228.3
466.555	1266.49
466.928	1246.83
467.3	1273.72
467.672	1304.91
468.045	1300.39
468.417	1313.72
468.789	1313.5
469.161	1308.98
469.534	1357.56
469.906	1380.84
470.278	1384
470.65	1406.38
471.022	1413.83
471.394	1437.11
471.766	1419.26
472.138	1423.32
472.51	1475.07
472.882	1506.03
473.253	1533.38
473.625	1530.89
473.997	1548.52
474.369	1579.93
474.74	1602.75
475.112	1622.64
475.484	1629.65
475.855	1664.22
476.227	1667.16
476.598	1696.09
476.97	1745.12
477.341	1764.11
477.713	1756.42
478.084	1771.34
478.455	1809.3
478.827	1832.35
479.198	1883.88
479.569	1899.47
479.94	1949.64
480.311	1948.06
480.682	1991.44
481.053	2028.96
481.424	2070.31
481.795	2074.83
482.166	2090.43
482.537	2120.25
482.908	2180.82
483.279	2197.09
483.65	2222.85
484.021	2260.36
484.391	2275.96
484.762	2275.28
485.133	2334.49
485.503	2333.36
485.874	2404.32
486.244	2410.42
486.615	2466.01
486.985	2516.63
487.356	2517.98
487.726	2527.25
488.097	2588.72
488.467	2600.24
488.837	2666.91
489.207	2667.36
489.578	2717.98
489.948	2744.65
490.318	2772.89
490.688	2764.98
491.058	2816.51
491.428	2849.28
491.798	2858.77
492.168	2956.39
492.538	2925.88
492.908	2946.45
493.278	2984.41
493.648	2997.97
494.017	3049.27
494.387	3068.03
494.757	3087.69
495.126	3149.61
495.496	3124.52
495.866	3150.51
496.235	3232.32
496.605	3254.24
496.974	3240.23
497.344	3273.22
497.713	3297.85
498.082	3306.66
498.452	3325.87
498.821	3402.93
499.19	3357.74
499.559	3394.35
499.928	3424.85
500.298	3459.2
500.667	3509.82
501.036	3503.72
501.405	3579.65
501.774	3553.66
502.143	3571.74
502.512	3566.54
502.88	3638.63
503.249	3619.42
503.618	3658.29
503.987	3673.21
504.356	3692.19
504.724	3719.76
505.093	3750.27
505.462	3731.74
505.83	3789.14
506.199	3830.94
506.567	3872.3
506.936	3863.26
507.304	3927.67
507.672	3930.6
508.041	3937.83
508.409	3943.71
508.777	4003.82
509.145	4026.87
509.514	4002.47
509.882	4092.18
510.25	4122.69
510.618	4107.1
510.986	4129.69
511.354	4226.19
511.722	4235.91
512.09	4229.35
512.458	4258.05
512.826	4267.54
513.193	4316.58
513.561	4310.71
513.929	4373.53
514.297	4379.86
514.664	4438.84
515.032	4513.41
515.4	4454.66
515.767	4565.84
516.135	4584.37
516.502	4558.38
516.869	4653.52
517.237	4663.46
517.604	4662.56
517.972	4706.18
518.339	4738.04
518.706	4756.34
519.073	4806.29
519.44	4847.87
519.808	4840.64
520.175	4878.83
520.542	4971.48
520.909	5021.87
521.276	4998.37
521.643	5054.64
522.009	5074.08
522.376	5099.61
522.743	5228.2
523.11	5215.54
523.477	5295.09
523.843	5331.92
524.21	5345.93
524.577	5371.92
524.943	5446.27
525.31	5461.64
525.676	5553.16
526.043	5565.36
526.409	5623.44
526.776	5622.76
527.142	5704.57
527.508	5681.29
527.874	5778.24
528.241	5775.07
528.607	5807.62
528.973	5861.17
529.339	5910.66
529.705	5916.77
530.071	5981.62
530.437	6060.04
530.803	6091.22
531.169	6127.83
531.535	6150.21
531.901	6142.07
532.267	6161.5
532.632	6245.34
532.998	6291.44
533.364	6313.14
533.73	6345.68
534.095	6387.94
534.461	6376.41
534.826	6553.58
535.192	6485.34
535.557	6494.83
535.923	6559.46
536.288	6556.75
536.653	6652.79
537.019	6669.97
537.384	6704.54
537.749	6772.11
538.114	6773.47
538.479	6808.72
538.845	6818.44
539.21	6827.25
539.575	6890.07
539.94	6921.26
540.305	6968.72
540.67	6971.88
541.034	7041.93
541.399	7011.65
541.764	7117.19
542.129	7134.13
542.494	7221.14
542.858	7256.39
543.223	7275.6
543.587	7319.21
543.952	7314.69
544.316	7386.56
544.681	7365.09
545.045	7435.6
545.41	7529.38
545.774	7576.38
546.138	7538.87
546.503	7598.3
546.867	7649.83
547.231	7679.43
547.595	7789.71
547.959	7822.03
548.324	7860.22
548.688	7851.63
549.052	7905.87
549.416	7965.53
549.779	8026.31
550.143	8039.2
550.507	8120.32
550.871	8219.08
551.235	8195.12
551.599	8232.64
551.962	8349.24
552.326	8377.04
552.689	8476.02
553.053	8485.06
553.417	8488.9
553.78	8621.1
554.143	8634.66
554.507	8716.47
554.87	8784.71
555.234	8812.06
555.597	8853.41
555.96	8917.36
556.323	8989.23
556.686	9068.32
557.05	9157.13
557.413	9175.44
557.776	9295.43
558.139	9346.73
558.502	9437.35
558.865	9514.18
559.228	9559.16
559.59	9744.24
559.953	9726.38
560.316	9784.46
560.679	9843.67
561.041	9969.31
561.404	10034.4
561.767	10132.25
562.129	10175.64
562.492	10337.21
562.854	10389.87
563.217	10432.58
563.579	10509.64
563.941	10622.4
564.304	10695.4
564.666	10812.23
565.028	10869.63
565.39	10984.2
565.753	10990.76
566.115	11128.61
566.477	11260.58
566.839	11352.1
567.201	11422.61
567.563	11419.9
567.925	11614.47
568.287	11752.77
568.648	11735.37
569.01	11905.08
569.372	11982.59
569.734	12037.96
570.095	12129.71
570.457	12319.76
570.819	12321.12
571.18	12307.33
571.542	12578.51
571.903	12596.59
572.265	12638.17
572.626	12818.96
572.987	12901.44
573.349	12972.4
573.71	13086.75
574.071	13099.85
574.432	13283.58
574.794	13382.11
575.155	13390.24
575.516	13340.07
575.877	13503.68
576.238	13612.61
576.599	13714.98
576.96	13763.34
577.32	13871.58
577.681	14035.2
578.042	14117.68
578.403	14143.44
578.763	14153.61
579.124	14292.59
579.485	14380.05
579.845	14419.37
580.206	14502.3
580.566	14486.03
580.927	14614.62
581.287	14695.52
581.648	14636.76
582.008	14867.94
582.368	14834.27
582.728	14962.63
583.089	14962.18
583.449	15033.81
583.809	15056.41
584.169	15162.17
584.529	15173.25
584.889	15345.44
585.249	15351.55
585.609	15337.31
585.969	15462.28
586.329	15432.22
586.688	15569.84
587.048	15532.78
587.408	15578.66
587.768	15669.73
588.127	15666.11
588.487	15672.22
588.846	15946.78
589.206	15729.61
589.565	15882.83
589.925	15976.39
590.284	15929.16
590.643	16038.99
591.003	16092.99
591.362	16219.55
591.721	16117.85
592.08	16173.44
592.44	16231.75
592.799	16395.81
593.158	16364.4
593.517	16440.33
593.876	16472.19
594.235	16479.88
594.593	16557.62
594.952	16532.98
595.311	16490.5
595.67	16528.92
596.029	16737.27
596.387	16892.3
596.746	16857.04
597.104	16733.43
597.463	16945.63
597.822	16900.21
598.18	16958.06
598.538	16957.6
598.897	17035.57
599.255	16856.82
599.613	17156.92
599.972	17155.79
600.33	17188.33
600.688	17097.94
601.046	17310.59
601.404	17357.14
601.762	17349.69
602.12	17438.04
602.478	17428.55
602.836	17386.52
603.194	17424.94
603.552	17498.61
603.91	17394.88
604.268	17533.64
604.625	17641.2
604.983	17628.77
605.341	17529.12
605.698	17720.52
606.056	17762.78
606.413	17826.73
606.771	17799.16
607.128	17864.93
607.485	17860.41
607.843	17885.26
608.2	17984.47
608.557	18089.78
608.914	17999.39
609.272	18178.36
609.629	18147.4
609.986	18293.84
610.343	18152.38
610.7	18303.11
611.057	18174.97
611.414	18281.19
611.771	18332.94
612.127	18382.2
612.484	18332.03
612.841	18520.5
613.198	18405.02
613.554	18418.36
613.911	18514.17
614.267	18603.21
614.624	18543.78
614.98	18602.99
615.337	18692.25
615.693	18600.05
616.05	18724.34
616.406	18749.2
616.762	18700.84
617.118	18818.57
617.475	18715.75
617.831	18845.01
618.187	18915.52
618.543	18904.22
618.899	19054.5
619.255	18918.46
619.611	18932.02
619.967	19034.84
620.323	19060.6
620.678	19087.94
621.034	18957.55
621.39	18970.43
621.746	18965.91
622.101	19171.78
622.457	19079.13
622.812	19117.1
623.168	19102.86
623.523	19119.81
623.879	19217.43
624.234	19089.3
624.589	19064.89
624.945	19213.82
625.3	19227.15
625.655	19220.82
626.01	19283.87
626.365	19248.39
626.72	19272.57
627.075	19205.68
627.43	19212.46
627.785	19205.23
628.14	19370.2
628.495	19314.83
628.85	19224.89
629.205	19175.85
629.559	19274.15
629.914	19112.35
630.269	19190.31
630.623	19193.03
630.978	19169.98
631.332	19271.89
631.687	19289.97
632.041	19227.6
632.396	19212.01
632.75	19134.5
633.104	19167.94
633.459	19160.71
633.813	19101.96
634.167	19054.95
634.521	19116.19
634.875	19047.27
635.229	19156.87
635.583	18939.7
635.937	18919.81
636.291	18924.11
636.645	19005.91
636.999	18923.88
637.352	19054.95
637.706	18872.81
638.06	18977.21
638.413	18960.72
638.767	18918.23
639.121	18986.93
639.474	18857.67
639.828	18948.06
640.181	18956.2
640.534	18954.61
640.888	18872.36
641.241	18780.38
641.594	18810.89
641.947	18838.46
642.301	18810.66
642.654	18860.61
643.007	18820.15
643.36	18792.58
643.713	18780.16
644.066	18928.85
644.419	18684.11
644.771	18544.23
645.124	18362.31
645.477	18393.5
645.83	18338.59
646.182	18224.46
646.535	18171.58
646.888	18190.57
647.24	18101.3
647.593	18236.89
647.945	18123.9
648.298	18050.91
648.65	18066.73
649.002	18051.59
649.355	17978.37
649.707	18107.63
650.059	18140.17
650.411	18395.99
650.763	18437.79
651.115	18601.63
651.467	18500.84
651.819	18539.48
652.171	18577.68
652.523	18495.42
652.875	18413.84
653.227	18358.02
653.578	18603.44
653.93	18479.6
654.282	18348.98
654.633	18357.79
654.985	18438.7
655.337	18492.93
655.688	18462.2
656.039	18549.43
656.391	18310.34
656.742	18375.19
657.094	18365.93
657.445	18379.49
657.796	18398.7
658.147	18390.11
658.498	18308.08
658.849	18467.4
659.2	18381.07
659.551	18376.1
659.902	18391.47
660.253	18386.95
660.604	18390.11
660.955	18296.1
661.306	18391.92
661.656	18321.18
662.007	18415.42
662.358	18397.12
662.708	18379.04
663.059	18370.9
663.409	18174.97
663.76	18409.09
664.11	18339.94
664.461	18421.97
664.811	18511.24
665.161	18318.25
665.511	18410
665.862	18349.21
666.212	18414.97
666.562	18414.06
666.912	18352.6
667.262	18296.78
667.612	18401.41
667.962	18398.7
668.312	18388.3
668.662	18417.23
669.011	18437.57
669.361	18346.95
669.711	18432.59
670.06	18370
670.41	18410.9
670.76	18370.45
671.109	18548.98
671.459	18436.89
671.808	18401.18
672.157	18503.78
672.507	18394.63
672.856	18391.01
673.205	18456.32
673.554	18480.73
673.904	18350.34
674.253	18571.35
674.602	18485.7
674.951	18238.93
675.3	18175.88
675.649	18344.91
675.998	18500.16
676.346	18443.89
676.695	18501.29
677.044	18439.6
677.393	18466.04
677.741	18444.57
678.09	18494.74
678.438	18373.16
678.787	18442.09
679.135	18464.46
679.484	18320.06
679.832	18441.63
680.181	18308.08
680.529	18308.08
680.877	18274.41
681.225	18375.87
681.573	18541.97
681.922	18404.8
682.27	18327.29
682.618	18380.84
682.966	18330.45
683.314	18222.66
683.661	18282.99
684.009	18214.75
684.357	18156.44
684.705	18227.85
685.053	18207.52
685.4	18170.68
685.748	18125.26
686.095	18119.61
686.443	18146.27
686.79	18058.82
687.138	18080.74
687.485	18187.63
687.832	18066.5
688.18	18082.1
688.527	17975.66
688.874	18026.28
689.221	17994.41
689.568	17901.76
689.915	17877.81
690.262	17932.95
690.609	17816.79
690.956	17764.36
691.303	17839.84
691.65	17779.96
691.997	17719.17
692.344	17631.26
692.69	17610.92
693.037	17654.54
693.383	17522.79
693.73	17615.21
694.077	17413.86
694.423	17575.67
694.769	17561.66
695.116	17404.15
695.462	17398.05
695.808	17327.54
696.155	17366.41
696.501	17356.46
696.847	17331.15
697.193	17311.04
697.539	17292.51
697.885	17186.53
698.231	17148.11
698.577	17296.81
698.923	17170.71
699.269	17047.09
699.614	17059.98
699.96	16968.45
700.306	17107.43
700.651	17001.22
700.997	17008
701.342	16886.65
701.688	16891.62
702.033	16864.27
702.379	16830.6
702.724	16816.14
703.069	16905.85
703.415	16752.19
703.76	16700.44
704.105	16704.28
704.45	16683.04
704.795	16615.02
705.14	16590.16
705.485	16505.41
705.83	16474.91
706.175	16579.76
706.52	16510.84
706.865	16422.03
707.209	16316.49
707.554	16337.06
707.899	16367.79
708.243	16410.5
708.588	16322.14
708.932	16130.51
709.277	16266.55
709.621	16191.75
709.966	16149.72
710.31	16205.31
710.654	16103.16
710.998	16177.51
711.342	16076.5
711.687	16120.79
712.031	16014.13
712.375	16050.74
712.719	16007.57
713.063	16032.21
713.407	16099.55
713.75	15939.1
714.094	16012.77
714.438	15922.38
714.782	15942.04
715.125	15874.24
715.469	15904.3
715.812	15861.81
716.156	15821.59
716.499	15772.78
716.843	15802.83
717.186	15688.49
717.53	15811.42
717.873	15779.33
718.216	15735.72
718.559	15804.64
718.902	15617.75
719.246	15714.47
719.589	15675.38
719.932	15629.05
720.275	15646.45
720.617	15594.7
720.96	15616.85
721.303	15617.53
721.646	15625.44
721.989	15488.94
722.331	15477.42
722.674	15612.1
723.016	15482.62
723.359	15485.1
723.701	15489.62
724.044	15394.93
724.386	15324.65
724.729	15462.96
725.071	15374.37
725.413	15427.48
725.755	15392.9
726.097	15326.69
726.439	15344.99
726.782	15340.7
727.124	15436.06
727.465	15280.13
727.807	15307.03
728.149	15273.58
728.491	15278.78
728.833	15220.93
729.175	15241.72
729.516	15110.65
729.858	15240.81
730.199	15248.27
730.541	15164.88
730.882	15140.03
731.224	15171.21
731.565	15052.8
731.906	15116.52
732.248	15216.41
732.589	15073.36
732.93	14918.79
733.271	15045.11
733.612	15064.77
733.953	15082.4
734.294	15039.92
734.635	15013.02
734.976	14996.07
735.317	14917.88
735.658	14954.04
735.999	15018.9
736.339	14891.67
736.68	14903.87
737.021	14871.56
737.361	14833.14
737.702	14916.53
738.042	14848.06
738.383	14886.47
738.723	14870.88
739.063	14754.05
739.404	14738.23
739.744	14788.4
740.084	14708.17
740.424	14731.67
740.764	14678.57
741.104	14777.55
741.444	14701.17
741.784	14576.65
742.124	14697.33
742.464	14718.79
742.804	14658.23
743.143	14602.86
743.483	14600.6
743.823	14507.73
744.162	14447.61
744.502	14498.23
744.841	14408.97
745.181	14516.77
745.52	14428.18
745.86	14396.99
746.199	14417.78
746.538	14372.14
746.877	14473.83
747.216	14384.11
747.556	14317.22
747.895	14382.76
748.234	14314.74
748.573	14258.01
748.911	14235.42
749.25	14306.38
749.589	14191.58
749.928	14205.81
750.267	14216.89
750.605	14158.36
750.944	14110.22
751.283	14114.06
751.621	14128.75
751.96	13994.07
752.298	14077.68
752.636	14087.4
752.975	13834.75
753.313	13886.05
753.651	13954.07
753.989	13912.49
754.327	13877.69
754.666	13817.8
755.004	13824.58
755.342	13779.84
755.679	13782.55
756.017	13735.32
756.355	13716.79
756.693	13684.92
757.031	13646.73
757.368	13533.51
757.706	13580.29
758.044	13611.25
758.381	13594.53
758.719	13454.42
759.056	13434.08
759.394	13395.44
759.731	13324.71
760.068	13327.42
760.405	13290.36
760.743	13189.34
761.08	13227.31
761.417	13147.76
761.754	13122.23
762.091	13025.5
762.428	13020.53
762.765	13039.97
763.102	13055.56
763.438	12963.13
763.775	12876.81
764.112	12885.17
764.449	12885.62
764.785	12765.17
765.122	12657.61
765.458	12768.34
765.795	12664.61
766.131	12586.19
766.467	12546.65
766.804	12474.56
767.14	12414.22
767.476	12395.24
767.812	12335.81
768.148	12387.78
768.485	12358.4
768.821	12211.06
769.157	12296.94
769.492	12136.04
769.828	12195.7
770.164	12011.97
770.5	12070.95
770.836	12022.82
771.171	11877.74
771.507	11970.84
771.842	11809.72
772.178	11875.93
772.513	11741.02
772.849	11800.23
773.184	11755.93
773.519	11623.73
773.855	11609.5
774.19	11585.54
774.525	11615.37
774.86	11559.55
775.195	11447.02
775.53	11360.92
775.865	11280.47
776.2	11298.77
776.535	11212.9
776.87	11196.63
777.205	11117.53
777.539	11115.5
777.874	11072.79
778.209	11042.73
778.543	11030.76
778.878	10840.7
779.212	10948.27
779.547	10823.3
779.881	10826.69
780.215	10763.64
780.55	10767.49
780.884	10680.71
781.218	10661.05
781.552	10697.66
781.886	10539.24
782.22	10550.09
782.554	10523.42
782.888	10412.47
783.222	10386.93
783.556	10368.63
783.889	10335.86
784.223	10215.18
784.557	10209.08
784.89	10242.3
785.224	10171.57
785.557	10118.46
785.891	10078.69
786.224	10047.96
786.558	10042.76
786.891	9959.6
787.224	9907.17
787.557	9878.92
787.891	9860.84
788.224	9861.52
788.557	9900.39
788.89	9753.73
789.223	9726.38
789.556	9647.06
789.888	9643
790.221	9600.51
790.554	9527.52
790.887	9562.09
791.219	9502.89
791.552	9461.98
791.884	9487.29
792.217	9371.59
792.549	9297.24
792.882	9306.73
793.214	9240.97
793.546	9265.6
793.879	9244.36
794.211	9171.14
794.543	9168.88
794.875	9043.24
795.207	9121.43
795.539	9011.83
795.871	9039.62
796.203	8944.48
796.535	8977.93
796.867	8896.8
797.198	8906.07
797.53	8877.82
797.862	8789.23
798.193	8788.1
798.525	8754.66
798.856	8788.55
799.188	8641.89
799.519	8603.47
799.85	8617.03
800.182	8631.04
800.513	8553.98
800.844	8448.22
801.175	8552.63
801.506	8487.32
801.837	8465.4
802.168	8441.9
802.499	8444.16
802.83	8334.1
803.161	8304.5
803.491	8349.47
803.822	8312.63
804.153	8232.18
804.483	8267.89
804.814	8165.97
805.145	8210.94
805.475	8089.36
805.805	8080.55
806.136	8080.55
806.466	8090.95
806.796	8038.97
807.126	7995.58
807.457	8019.76
807.787	8019.53
808.117	7960.33
808.447	7914.68
808.777	7907
809.107	7886.88
809.436	7848.92
809.766	7814.34
810.096	7770.5
810.426	7766.21
810.755	7703.61
811.085	7744.29
811.414	7707.45
811.744	7633.56
812.073	7687.34
812.403	7638.3
812.732	7573.22
813.061	7578.19
813.39	7519.66
813.719	7465.88
814.049	7473.33
814.378	7481.47
814.707	7478.53
815.036	7453.45
815.365	7316.05
815.693	7284.19
816.022	7384.3
816.351	7340.23
816.68	7220.01
817.008	7323.28
817.337	7248.93
817.665	7238.76
817.994	7216.17
818.322	7187.24
818.651	7156.96
818.979	7131.65
819.307	7173.68
819.636	7084.64
819.964	7025.66
820.292	7081.71
820.62	7088.03
820.948	7013.91
821.276	7020.92
821.604	7053.68
821.932	7041.71
822.259	7056.62
822.587	6988.83
822.915	7009.17
823.243	7029.05
823.57	6998.09
823.898	6983.4
824.225	6941.37
824.553	7001.03
824.88	6938.89
825.207	6993.8
825.535	6899.11
825.862	6978.43
826.189	6944.99
826.516	7014.14
826.843	6933.69
827.17	6928.49
827.497	6946.12
827.824	6960.58
828.151	6935.95
828.478	6918.09
828.805	6998.32
829.131	6889.62
829.458	6874.93
829.785	6875.61
830.111	6935.95
830.438	6916.97
830.764	6912.22
831.09	6925.1
831.417	6876.74
831.743	6914.03
832.069	6848.04
832.395	6863.18
832.722	6822.28
833.048	6862.05
833.374	6812.11
833.7	6785.22
834.026	6825.22
834.351	6805.1
834.677	6766.23
835.003	6798.32
835.329	6760.81
835.654	6746.12
835.98	6705.22
836.306	6732.79
836.631	6757.2
836.956	6768.49
837.282	6650.53
837.607	6613.24
837.932	6639.91
838.258	6682.39
838.583	6688.72
838.908	6629.51
839.233	6621.15
839.558	6640.81
839.883	6634.03
840.208	6540.48
840.533	6534.15
840.858	6591.55
841.182	6519.91
841.507	6509.07
841.832	6545.45
842.156	6471.1
842.481	6479.46
842.805	6449.86
843.13	6524.21
843.454	6420.25
843.778	6406.02
844.103	6401.27
844.427	6380.93
844.751	6363.53
845.075	6328.73
845.399	6334.61
845.723	6308.62
846.047	6311.78
846.371	6226.59
846.695	6244.44
847.019	6152.69
847.343	6141.17
847.666	6133.26
847.99	6043.77
848.313	6119.47
848.637	5997.89
848.96	6042.41
849.284	6044.67
849.607	6013.26
849.931	5933.71
850.254	5908.4
850.577	5915.41
850.9	5852.59
851.223	5834.96
851.546	5825.47
851.869	5792.02
852.192	5771.46
852.515	5715.87
852.838	5734.4
853.161	5696.43
853.483	5702.08
853.806	5712.93
854.129	5730.1
854.451	5642.87
854.774	5661.86
855.096	5609.43
855.419	5564.23
855.741	5610.11
856.063	5601.29
856.385	5573.5
856.708	5508.19
857.03	5531.92
857.352	5501.64
857.674	5464.12
857.996	5417.12
858.318	5387.74
858.64	5425.93
858.961	5401.52
859.283	5358.81
859.605	5381.86
859.926	5372.37
860.248	5331.47
860.57	5293.28
860.891	5325.37
861.212	5289.21
861.534	5292.6
861.855	5257.35
862.176	5260.96
862.498	5252.38
862.819	5269.32
863.14	5236.56
863.461	5230
863.782	5236.78
864.103	5206.05
864.424	5186.84
864.745	5177.12
865.065	5133.96
865.386	5184.58
865.707	5158.14
866.027	5156.33
866.348	5170.12
866.668	5141.87
866.989	5107.97
867.309	5071.82
867.63	5072.95
867.95	5050.35
868.27	5061.87
868.59	5080.4
868.91	5062.32
869.23	5041.08
869.55	4986.62
869.87	5020.74
870.19	4989.78
870.51	5089.89
870.83	5027.3
871.15	4974.64
871.469	4980.52
871.789	4965.38
872.109	4929.9
872.428	4935.1
872.748	4935.55
873.067	4922.67
873.386	4934.19
873.706	4903.46
874.025	4889.9
874.344	4914.08
874.663	4896
874.982	4900.52
875.301	4893.97
875.62	4854.42
875.939	4820.52
876.258	4865.95
876.577	4853.52
876.896	4806.29
877.214	4801.09
877.533	4809.22
877.852	4813.29
878.17	4811.48
878.489	4815.33
878.807	4804.03
879.125	4794.99
879.444	4815.1
879.762	4754.31
880.08	4772.84
880.398	4727.64
880.716	4700.53
881.034	4712.05
881.352	4682.22
881.67	4696.23
881.988	4683.13
882.306	4703.92
882.624	4667.08
882.941	4650.81
883.259	4660.75
883.577	4625.5
883.894	4568.33
884.212	4615.33
884.529	4627.31
884.846	4588.21
885.164	4566.74
885.481	4565.61
885.798	4632.05
886.115	4544.82
886.432	4534.43
886.75	4515.67
887.067	4501.21
887.383	4551.6
887.7	4522.9
888.017	4519.06
888.334	4502.34
888.651	4476.13
888.967	4480.42
889.284	4413.53
889.6	4446.75
889.917	4402.91
890.233	4427.76
890.55	4376.92
890.866	4413.3
891.182	4385.73
891.498	4344.83
891.815	4356.58
892.131	4332.4
892.447	4311.61
892.763	4286.98
893.079	4264.15
893.395	4285.17
893.71	4255.11
894.026	4236.13
894.342	4257.15
894.657	4220.09
894.973	4227.54
895.289	4231.39
895.604	4175.12
895.92	4219.41
896.235	4143.03
896.55	4126.98
896.865	4139.86
897.181	4148.9
897.496	4182.35
897.811	4084.95
898.126	4070.49
898.441	4119.75
898.756	4053.54
899.071	4072.75
899.386	4047.21
899.7	4002.24
900.015	4032.07
900.33	3990.26
900.644	3955.46
900.959	3968.34
901.273	3981.9
901.588	3928.34
901.902	3916.37
902.216	3938.96
902.531	3908.46
902.845	3890.6
903.159	3859.19
903.473	3897.61
903.787	3862.58
904.101	3847.67
904.415	3823.94
904.729	3839.31
905.042	3767.44
905.356	3815.8
905.67	3795.01
905.984	3755.92
906.297	3772.41
906.611	3759.76
906.924	3719.31
907.237	3759.08
907.551	3724.96
907.864	3661.01
908.177	3729.93
908.491	3656.49
908.804	3674.11
909.117	3628.46
909.43	3639.31
909.743	3614.9
910.056	3586.66
910.368	3597.73
910.681	3601.8
910.994	3563.15
911.307	3538.07
911.619	3520.67
911.932	3522.48
912.244	3495.13
912.557	3486.09
912.869	3473.21
913.181	3463.95
913.494	3472.54
913.806	3456.27
914.118	3432.54
914.43	3388.47
914.742	3425.98
915.054	3396.83
915.366	3381.46
915.678	3372.2
915.99	3367.45
916.302	3364.06
916.613	3330.17
916.925	3320.45
917.236	3303.05
917.548	3328.36
917.859	3292.65
918.171	3272.32
918.482	3233.67
918.794	3251.52
919.105	3219.44
919.416	3186.67
919.727	3224.86
920.038	3201.36
920.349	3162.04
920.66	3198.42
920.971	3167.23
921.282	3142.6
921.593	3159.32
921.903	3156.61
922.214	3182.6
922.525	3084.75
922.835	3102.38
923.146	3112.09
923.456	3055.37
923.767	3023.28
924.077	3040.91
924.387	3041.36
924.697	3033.9
925.008	3010.18
925.318	3002.27
925.628	3036.84
925.938	3006.56
926.248	2993.9
926.558	2993.9
926.867	2930.63
927.177	2908.26
927.487	2910.52
927.796	2904.19
928.106	2863.74
928.416	2881.59
928.725	2881.14
929.034	2844.08
929.344	2848.37
929.653	2853.8
929.962	2797.3
930.271	2793.23
930.581	2835.26
930.89	2760.46
931.199	2772.44
931.508	2752.33
931.817	2782.84
932.125	2736.96
932.434	2744.19
932.743	2760.24
933.051	2694.48
933.36	2712.33
933.669	2712.33
933.977	2663.29
934.286	2661.03
934.594	2667.36
934.902	2659.22
935.21	2642.73
935.519	2633.69
935.827	2635.27
936.135	2585.55
936.443	2580.13
936.751	2564.76
937.059	2552.33
937.367	2545.55
937.674	2592.78
937.982	2562.73
938.29	2549.4
938.597	2546.68
938.905	2514.59
939.213	2547.81
939.52	2484.54
939.827	2499
940.135	2467.59
940.442	2485.44
940.749	2451.09
941.056	2496.97
941.363	2432.34
941.67	2434.82
941.977	2418.78
942.284	2422.39
942.591	2423.07
942.898	2408.38
943.205	2384.43
943.511	2400.47
943.818	2383.52
944.125	2358.67
944.431	2365.22
944.738	2333.13
945.044	2336.52
945.35	2310.53
945.657	2338.33
945.963	2345.56
946.269	2312.57
946.575	2266.92
946.881	2258.78
947.187	2284.32
947.493	2251.78
947.799	2260.82
948.105	2246.58
948.41	2235.51
948.716	2213.81
949.022	2237.31
949.327	2224.21
949.633	2196.19
949.938	2206.58
950.244	2156.41
950.549	2188.95
950.854	2178.11
951.16	2159.12
951.465	2170.2
951.77	2126.13
952.075	2115.28
952.38	2111.89
952.685	2137.43
952.99	2097.43
953.294	2113.93
953.599	2075.06
953.904	2080.71
954.209	2050.88
954.513	2068.05
954.818	2081.16
955.122	2024.89
955.426	2058.79
955.731	2011.56
956.035	2078.67
956.339	1998.22
956.643	2023.99
956.948	1995.96
957.252	1995.51
957.556	2011.78
957.86	1979.24
958.163	1962.29
958.467	1958.45
958.771	1975.63
959.075	1966.13
959.378	1931.33
959.682	1942.86
959.985	1937.89
960.289	1922.29
960.592	1936.31
960.896	1917.1
961.199	1931.11
961.502	1943.08
961.805	1905.8
962.108	1878.68
962.411	1878.91
962.714	1873.48
963.017	1876.19
963.32	1883.65
963.623	1840.94
963.926	1874.39
964.228	1808.85
964.531	1850.43
964.833	1821.28
965.136	1814.27
965.438	1826.93
965.741	1795.52
966.043	1799.36
966.345	1784.22
966.648	1790.55
966.95	1793.48
967.252	1748.51
967.554	1732.47
967.856	1749.87
968.158	1756.87
968.46	1741.51
968.761	1721.62
969.063	1714.39
969.365	1710.55
969.666	1731.79
969.968	1710.1
970.269	1703.54
970.571	1719.81
970.872	1684.33
971.174	1690.89
971.475	1646.37
971.776	1671
972.077	1671
972.378	1695.86
972.679	1654.28
972.98	1655.86
973.281	1671.45
973.582	1610.89
973.883	1642.08
974.183	1621.51
974.484	1635.07
974.785	1620.61
975.085	1625.35
975.386	1599.82
975.686	1601.4
975.986	1574.05
976.287	1547.84
976.587	1579.48
976.887	1581.74
977.187	1593.04
977.487	1564.34
977.787	1497.9
978.087	1548.74
978.387	1561.85
978.687	1525.02
978.987	1552.36
979.286	1539.48
979.586	1548.74
979.885	1515.98
980.185	1528.63
980.484	1529.76
980.784	1497.22
981.083	1500.84
981.382	1480.5
981.682	1476.88
981.981	1482.08
982.28	1467.39
982.579	1458.8
982.878	1477.56
983.177	1468.29
983.475	1460.39
983.774	1424.23
984.073	1444.34
984.372	1432.59
984.67	1450.44
984.969	1409.09
985.267	1401.18
985.566	1398.01
985.864	1387.84
986.162	1404.57
986.461	1398.69
986.759	1403.44
987.057	1356.43
987.355	1367.51
987.653	1367.51
987.951	1338.81
988.249	1361.86
988.547	1371.12
988.844	1382.65
989.142	1362.76
989.44	1325.7
989.737	1340.16
990.035	1332.71
990.332	1331.58
990.63	1330.22
990.927	1291.58
991.224	1304.46
991.521	1285.47
991.819	1288.41
992.116	1299.03
992.413	1298.13
992.71	1277.57
993.006	1264.91
993.303	1289.32
993.6	1301.07
993.897	1261.07
994.193	1245.93
994.49	1258.81
994.787	1240.05
995.083	1255.64
995.379	1240.73
995.676	1237.57
995.972	1221.07
996.268	1226.72
996.565	1230.11
996.861	1232.59
997.157	1234.4
997.453	1223.56
997.749	1156.66
998.044	1210.9
998.34	1192.82
998.636	1208.64
998.932	1206.38
999.227	1195.53
999.523	1173.61
999.818	1179.04
1000.114	1175.65
1000.409	1157.79
1000.704	1135.87
1001	1142.43
1001.295	1120.28
1001.59	1144.69
1001.885	1099.26
1002.18	1110.79
1002.475	1111.24
1002.77	1106.95
1003.065	1116.67
1003.359	1090.9
1003.654	1116.89
1003.949	1114.41
1004.243	1092.94
1004.538	1070.34
1004.832	1077.57
1005.127	1062.66
1005.421	1086.16
1005.715	1085.25
1006.009	1060.17
1006.304	1060.62
1006.598	1051.81
1006.892	1040.51
1007.186	1056.55
1007.48	1031.7
1007.773	1019.72
1008.067	1039.83
1008.361	1003.22
1008.655	1027.4
1008.948	1012.94
1009.242	984.47
1009.535	995.31
1009.829	1016.1
1010.122	978.14
1010.415	981.3
1010.708	958.93
1011.001	984.92
1011.295	992.83
1011.588	974.97
1011.881	957.8
1012.173	979.95
1012.466	965.71
1012.759	956.22
1013.052	950.12
1013.344	948.99
1013.637	964.58
1013.93	909.67
1014.222	938.37
1014.514	934.3
1014.807	913.51
1015.099	918.93
1015.391	915.54
1015.683	925.94
1015.976	912.15
1016.268	896.78
1016.56	880.97
1016.851	884.58
1017.143	885.71
1017.435	887.29
1017.727	865.82
1018.018	846.39
1018.31	890.46
1018.602	843.68
1018.893	859.95
1019.185	850.01
1019.476	851.59
1019.767	868.31
1020.058	851.36
1020.35	831.48
1020.641	867.63
1020.932	816.33
1021.223	820.63
1021.514	815.88
1021.804	828.76
1022.095	803.45
1022.386	791.48
1022.677	794.41
1022.967	797.13
1023.258	788.31
1023.548	792.15
1023.839	786.96
1024.129	778.6
1024.419	776.56
1024.709	768.88
1025	765.71
1025.29	768.43
1025.58	755.09
1025.87	768.65
1026.16	735.66
1026.449	735.88
1026.739	747.41
1027.029	728.43
1027.319	728.43
1027.608	753.96
1027.898	744.7
1028.187	737.47
1028.477	718.71
1028.766	727.3
1029.055	708.31
1029.344	724.13
1029.634	712.83
1029.923	716
1030.212	698.15
1030.501	693.63
1030.79	690.91
1031.078	689.33
1031.367	692.27
1031.656	684.81
1031.945	689.11
1032.233	678.26
1032.522	683.68
1032.81	678.26
1033.099	677.13
1033.387	656.34
1033.675	661.99
1033.963	663.8
1034.251	673.06
1034.54	645.49
1034.828	654.98
1035.116	664.25
1035.403	647.53
1035.691	649.11
1035.979	656.79
1036.267	624.7
1036.554	638.49
1036.842	624.48
1037.129	646.62
1037.417	621.76
1037.704	613.85
1037.992	617.7
1038.279	624.93
1038.566	603.01
1038.853	603.01
1039.14	603.01
