Data from brown_tile_FLMS001491_030.txt Node
Date: Tue Feb 07 10:37:18 GMT 2017
User: dcchb
Spectrometer: FLMS00149
Trigger mode: 0
Integration Time (sec): 2.000000E-2
Scans to average: 10
Electric dark correction enabled: true
Nonlinearity correction enabled: false
Boxcar width: 0
XAxis mode: Wavelengths
Number of Pixels in Spectrum: 2048
>>>>>Begin Spectral Data<<<<<
341.393	-12.81
341.776	-12.81
342.16	-12.81
342.543	-55.52
342.927	-83.32
343.31	-74.28
343.693	-58.91
344.077	-49.65
344.46	-38.57
344.843	-56.43
345.226	-42.41
345.61	-26.14
345.993	-26.82
346.376	-32.7
346.759	16.79
347.142	24.02
347.525	28.32
347.908	69.22
348.291	69.22
348.674	90.24
349.057	108.09
349.44	132.95
349.823	145.15
350.206	141.76
350.588	184.7
350.971	191.25
351.354	202.78
351.737	216.79
352.119	236.45
352.502	261.31
352.884	250.23
353.267	270.35
353.65	291.81
354.032	273.06
354.414	293.85
354.797	287.97
355.179	318.93
355.562	316.9
355.944	344.24
356.326	328.88
356.709	317.12
357.091	320.74
357.473	314.86
357.855	307.63
358.238	337.69
358.62	332.27
359.002	345.82
359.384	313.06
359.766	327.07
360.148	308.09
360.53	332.04
360.912	317.8
361.294	311.25
361.676	302.21
362.057	319.61
362.439	332.72
362.821	294.98
363.203	315.09
363.584	325.03
363.966	320.74
364.348	316.45
364.729	282.32
365.111	301.98
365.493	318.03
365.874	329.78
366.256	299.95
366.637	287.07
367.019	304.7
367.4	294.3
367.781	294.75
368.163	316.9
368.544	297.92
368.925	315.77
369.306	324.13
369.688	313.06
370.069	298.14
370.45	297.69
370.831	314.19
371.212	321.64
371.593	314.86
371.974	306.73
372.355	307.63
372.736	308.09
373.117	302.89
373.498	322.32
373.879	311.47
374.26	298.14
374.641	290.23
375.021	298.37
375.402	292.49
375.783	308.76
376.163	309.44
376.544	333.4
376.925	308.54
377.305	343.56
377.686	318.48
378.066	344.92
378.447	327.97
378.827	318.71
379.208	298.37
379.588	347.86
379.968	306.28
380.349	323.68
380.729	317.12
381.109	329.78
381.489	319.16
381.87	321.42
382.25	334.98
382.63	310.12
383.01	339.72
383.39	318.93
383.77	355.77
384.15	332.49
384.53	319.61
384.91	323.68
385.29	330.01
385.67	341.76
386.049	317.58
386.429	354.41
386.809	342.66
387.189	351.7
387.568	330.23
387.948	365.48
388.328	342.21
388.707	340.17
389.087	359.16
389.466	350.12
389.846	342.43
390.225	352.6
390.605	347.18
390.984	328.88
391.363	348.99
391.743	363.45
392.122	365.94
392.501	354.19
392.881	382.89
393.26	357.8
393.639	354.41
394.018	352.38
394.397	346.28
394.776	352.83
395.155	352.38
395.534	351.7
395.913	357.58
396.292	366.16
396.671	347.41
397.05	363.68
397.429	377.24
397.808	376.11
398.186	383.11
398.565	372.04
398.944	364.35
399.323	377.24
399.701	384.92
400.08	383.56
400.458	360.06
400.837	386.95
401.215	416.1
401.594	384.02
401.972	392.38
402.351	377.46
402.729	376.11
403.107	374.75
403.486	391.7
403.864	386.73
404.242	386.5
404.62	424.01
404.999	392.83
405.377	393.28
405.755	377.46
406.133	397.35
406.511	412.04
406.889	418.59
407.267	398.03
407.645	390.34
408.023	408.65
408.401	396.9
408.779	395.31
409.156	409.1
409.534	412.94
409.912	440.96
410.29	427.4
410.667	416.78
411.045	410
411.422	423.34
411.8	435.31
412.178	417.69
412.555	420.17
412.933	430.34
413.31	450.68
413.687	428.76
414.065	445.48
414.442	436.44
414.819	447.52
415.197	462.21
415.574	452.04
415.951	465.37
416.328	466.73
416.705	449.78
417.082	461.3
417.46	456.78
417.837	467.4
418.214	465.37
418.591	460.62
418.967	490.45
419.344	461.53
419.721	464.01
420.098	473.96
420.475	482.09
420.852	495.2
421.228	464.01
421.605	491.13
421.982	478.48
422.358	483.67
422.735	500.85
423.111	488.19
423.488	473.96
423.864	492.26
424.241	503.56
424.617	503.33
424.994	531.36
425.37	507.4
425.746	516.89
426.123	499.72
426.499	521.86
426.875	528.87
427.251	509.21
427.627	547.4
428.003	518.93
428.379	536.1
428.756	539.27
429.132	542.66
429.507	542.66
429.883	559.83
430.259	570.68
430.635	546.04
431.011	540.62
431.387	567.29
431.763	569.1
432.138	566.61
432.514	569.32
432.89	579.26
433.265	581.75
433.641	608.42
434.016	604.57
434.392	603.67
434.767	618.59
435.143	596.21
435.518	611.81
435.894	624.23
436.269	619.49
436.644	613.39
437.02	616.33
437.395	617.91
437.77	603.9
438.145	631.47
438.52	640.73
438.895	659.94
439.271	635.99
439.646	631.01
440.021	661.07
440.395	668.08
440.77	646.38
441.145	649.55
441.52	678.92
441.895	664.01
442.27	686.38
442.645	692.48
443.019	689.77
443.394	659.94
443.769	679.15
444.143	707.4
444.518	706.49
444.892	678.92
445.267	716.44
445.641	686.61
446.016	687.74
446.39	706.94
446.764	719.15
447.139	702.2
447.513	727.06
447.887	728.19
448.262	712.82
448.636	720.73
449.01	743.33
449.384	736.77
449.758	757.34
450.132	741.97
450.506	722.31
450.88	748.75
451.254	755.08
451.628	753.95
452.002	760.73
452.376	757.34
452.75	786.26
453.123	781.97
453.497	771.35
453.871	791.69
454.244	804.57
454.618	802.54
454.992	797.56
455.365	800.28
455.739	824.46
456.112	806.6
456.486	838.47
456.859	839.6
457.232	854.29
457.606	837.79
457.979	852.7
458.352	862.65
458.725	901.06
459.099	870.78
459.472	899.71
459.845	897.45
460.218	909.43
460.591	888.86
460.964	942.42
461.337	899.71
461.71	928.63
462.083	915.53
462.456	949.42
462.829	945.81
463.201	981.51
463.574	988.52
463.947	967.28
464.32	972.47
464.692	993.04
465.065	998.46
465.438	992.13
465.81	1032.81
466.183	1028.07
466.555	1029.65
466.928	1045.69
467.3	1060.61
467.672	1053.38
468.045	1063.32
468.417	1101.06
468.789	1074.62
469.161	1117.33
469.534	1156.2
469.906	1137.44
470.278	1183.32
470.65	1148.74
471.022	1151.9
471.394	1191.68
471.766	1193.71
472.138	1205.46
472.51	1220.6
472.882	1244.11
473.253	1220.15
473.625	1260.15
473.997	1285.69
474.369	1310.32
474.74	1315.06
475.112	1334.27
475.484	1329.53
475.855	1380.83
476.227	1353.48
476.598	1405.23
476.97	1412.69
477.341	1433.71
477.713	1462.41
478.084	1466.92
478.455	1492.69
478.827	1511.44
479.198	1559.58
479.569	1548.96
479.94	1579.69
480.311	1589.63
480.682	1603.42
481.053	1630.31
481.424	1681.83
481.795	1675.51
482.166	1685.68
482.537	1693.13
482.908	1733.81
483.279	1718.44
483.65	1805.67
484.021	1805.22
484.391	1807.03
484.762	1860.81
485.133	1836.41
485.503	1878.89
485.874	1907.37
486.244	1935.16
486.615	1959.34
486.985	1976.06
487.356	2022.39
487.726	2023.07
488.097	2040.92
488.467	2049.73
488.837	2098.09
489.207	2161.6
489.578	2143.97
489.948	2172.67
490.318	2203.85
490.688	2199.11
491.058	2278.65
491.428	2288.37
491.798	2324.3
492.168	2304.42
492.538	2318.88
492.908	2381.7
493.278	2384.41
493.648	2406.11
494.017	2404.75
494.387	2438.88
494.757	2437.29
495.126	2503.28
495.496	2468.93
495.866	2533.11
496.235	2524.3
496.605	2565.88
496.974	2545.77
497.344	2621.7
497.713	2620.57
498.082	2628.93
498.452	2668.93
498.821	2662.83
499.19	2679.32
499.559	2696.27
499.928	2745.54
500.298	2728.81
500.667	2740.79
501.036	2745.99
501.405	2801.13
501.774	2806.1
502.143	2824.18
502.512	2863.72
502.88	2848.13
503.249	2860.33
503.618	2855.59
503.987	2921.8
504.356	2889.94
504.724	2961.8
505.093	2956.15
505.462	2942.37
505.83	2963.83
506.199	3015.36
506.567	3023.27
506.936	3099.65
507.304	3102.81
507.672	3123.6
508.041	3120.67
508.409	3137.62
508.777	3142.13
509.145	3165.41
509.514	3174.9
509.882	3197.73
510.25	3210.61
510.618	3248.8
510.986	3244.05
511.354	3297.84
511.722	3316.37
512.09	3310.94
512.458	3337.84
512.826	3369.7
513.193	3400.43
513.561	3441.11
513.929	3415.57
514.297	3462.35
514.664	3508
515.032	3538.96
515.4	3556.59
515.767	3573.99
516.135	3586.87
516.502	3569.02
516.869	3639.52
517.237	3668
517.604	3634.78
517.972	3730.37
518.339	3724.49
518.706	3747.77
519.073	3755.45
519.44	3806.3
519.808	3840.87
520.175	3872.74
520.542	3906.41
520.909	3911.61
521.276	3942.79
521.643	3956.12
522.009	4000.87
522.376	4025.95
522.743	4068.44
523.11	4086.97
523.477	4187.53
523.843	4170.13
524.21	4233.86
524.577	4226.85
524.943	4269.56
525.31	4283.8
525.676	4347.07
526.043	4325.61
526.409	4370.8
526.776	4463.91
527.142	4494.87
527.508	4508.2
527.874	4517.24
528.241	4568.09
528.607	4605.15
528.973	4664.81
529.339	4654.19
529.705	4710.68
530.071	4709.1
530.437	4732.83
530.803	4783.22
531.169	4761.98
531.535	4802.2
531.901	4865.25
532.267	4851.69
532.632	4921.3
532.998	4953.39
533.364	4992.03
533.73	5017.57
534.095	4992.26
534.461	5102.76
534.826	5077.45
535.192	5105.47
535.557	5130.11
535.923	5168.07
536.288	5178.92
536.653	5236.09
537.019	5231.12
537.384	5258.69
537.749	5328.74
538.114	5356.54
538.479	5380.04
538.845	5370.32
539.21	5392.25
539.575	5426.37
539.94	5431.79
540.305	5515.41
540.67	5485.58
541.034	5531
541.399	5578.23
541.764	5671.56
542.129	5665.23
542.494	5674.27
542.858	5703.88
543.223	5730.54
543.587	5800.14
543.952	5799.24
544.316	5810.09
544.681	5809.18
545.045	5947.48
545.41	5949.74
545.774	5953.59
546.138	5930.76
546.503	5987.71
546.867	6072.91
547.231	6115.84
547.595	6142.73
547.959	6179.57
548.324	6230.87
548.688	6234.71
549.052	6260.24
549.416	6280.81
549.779	6311.77
550.143	6340.92
550.507	6395.83
550.871	6424.76
551.235	6438.77
551.599	6558.99
551.962	6577.3
552.326	6622.95
552.689	6683.06
553.053	6702.04
553.417	6749.5
553.78	6829.27
554.143	6815.94
554.507	6910.4
554.87	6984.52
555.234	7065.65
555.597	7052.31
555.96	7092.99
556.323	7173.22
556.686	7219.32
557.05	7260.9
557.413	7342.7
557.776	7339.09
558.139	7477.39
558.502	7563.26
558.865	7563.49
559.228	7694.78
559.59	7750.15
559.953	7777.95
560.316	7865.17
560.679	7888.22
561.041	8004.61
561.404	8031.27
561.767	8161.21
562.129	8136.58
562.492	8242.79
562.854	8333.41
563.217	8364.6
563.579	8414.54
563.941	8556.46
564.304	8636
564.666	8677.81
565.028	8775.89
565.39	8866.5
565.753	8892.72
566.115	9002.55
566.477	9031.92
566.839	9112.6
567.201	9186.04
567.563	9240.05
567.925	9377.45
568.287	9398.47
568.648	9533.38
569.01	9578.58
569.372	9677.1
569.734	9778.57
570.095	9867.61
570.457	9938.57
570.819	9973.37
571.18	10037.32
571.542	10198.9
571.903	10203.64
572.265	10350.08
572.626	10351.44
572.987	10394.37
573.349	10511.21
573.71	10573.35
574.071	10722.5
574.432	10709.17
574.794	10869.39
575.155	11040.01
575.516	10915.04
575.877	11006.11
576.238	11131.3
576.599	11262.83
576.96	11305.31
577.32	11289.72
577.681	11402.26
578.042	11451.97
578.403	11528.81
578.763	11592.76
579.124	11635.92
579.485	11781.68
579.845	11843.38
580.206	11788.91
580.566	11948.23
580.927	11918.63
581.287	12121.79
581.648	12123.82
582.008	12212.4
582.368	12170.37
582.728	12245.85
583.089	12249.69
583.449	12322.91
583.809	12371.72
584.169	12447.43
584.529	12515.9
584.889	12688.78
585.249	12587.31
585.609	12663.24
585.969	12733.75
586.329	12816.68
586.688	12787.53
587.048	12851.94
587.408	12802.45
587.768	12899.62
588.127	12959.28
588.487	12961.54
588.846	13085.38
589.206	12964.7
589.565	13098.94
589.925	13163.79
590.284	13158.14
590.643	13196.33
591.003	13320.4
591.362	13366.95
591.721	13348.42
592.08	13358.36
592.44	13540.28
592.799	13559.49
593.158	13478.59
593.517	13498.7
593.876	13579.37
594.235	13588.87
594.593	13688.52
594.952	13675.64
595.311	13695.98
595.67	13782.53
596.029	13839.25
596.387	13859.37
596.746	13946.14
597.104	13906.82
597.463	13974.62
597.822	14111.79
598.18	13975.97
598.538	14038.12
598.897	14121.28
599.255	14000.83
599.613	14233.82
599.972	14206.93
600.33	14258.23
600.688	14272.46
601.046	14298.68
601.404	14426.13
601.762	14363.31
602.12	14414.83
602.478	14427.49
602.836	14488.5
603.194	14501.16
603.552	14449.18
603.91	14481.72
604.268	14523.08
604.625	14596.97
604.983	14683.07
605.341	14653.92
605.698	14699.35
606.056	14726.69
606.413	14731.43
606.771	14876.74
607.128	14885.33
607.485	14779.12
607.843	14895.5
608.2	14942.5
608.557	14962.84
608.914	14955.38
609.272	14935.72
609.629	15078.77
609.986	15131.65
610.343	15049.84
610.7	15133.01
611.057	15118.54
611.414	15118.09
611.771	15171.88
612.127	15377.75
612.484	15295.71
612.841	15281.93
613.198	15267.01
613.554	15326.22
613.911	15342.04
614.267	15402.6
614.624	15475.82
614.98	15439.89
615.337	15530.96
615.693	15558.53
616.05	15509.27
616.406	15672.43
616.762	15594.69
617.118	15604.86
617.475	15540.9
617.831	15690.28
618.187	15653.9
618.543	15644.18
618.899	15727.34
619.255	15700.67
619.611	15781.12
619.967	15847.34
620.323	15918.07
620.678	15801.24
621.034	15815.47
621.39	15867.68
621.746	15796.94
622.101	15987.22
622.457	15835.36
622.812	15812.08
623.168	15934.79
623.523	15954.68
623.879	15933.66
624.234	15946.54
624.589	16061.8
624.945	15957.62
625.3	15989.48
625.655	16065.18
626.01	16022.7
626.365	16015.02
626.72	16048.69
627.075	15945.41
627.43	16055.92
627.785	15977.5
628.14	16030.61
628.495	16023.6
628.85	16057.05
629.205	16044.85
629.559	16052.08
629.914	16046.88
630.269	16057.95
630.623	16020.89
630.978	15988.12
631.332	16011.18
631.687	15987.67
632.041	15992.19
632.396	16049.59
632.75	15946.54
633.104	16059.54
633.459	15923.72
633.813	15845.3
634.167	15943.61
634.521	15920.56
634.875	15974.57
635.229	15952.19
635.583	15874
635.937	15815.7
636.291	15827
636.645	15925.3
636.999	15798.53
637.352	15929.37
637.706	15772.31
638.06	15876.49
638.413	15852.99
638.767	15743.16
639.121	15789.94
639.474	15627.68
639.828	15801.92
640.181	15789.71
640.534	15778.86
640.888	15690.28
641.241	15644.86
641.594	15687.57
641.947	15766.44
642.301	15734.12
642.654	15662.71
643.007	15753.55
643.36	15714.23
643.713	15654.35
644.066	15812.31
644.419	15598.3
644.771	15434.47
645.124	15416.16
645.477	15343.85
645.83	15261.59
646.182	15226.11
646.535	15182.04
646.888	15267.01
647.24	15131.42
647.593	15308.82
647.945	15127.36
648.298	15123.29
648.65	15172.78
649.002	15095.72
649.355	15161.48
649.707	15044.19
650.059	15190.18
650.411	15332.77
650.763	15395.82
651.115	15497.29
651.467	15454.58
651.819	15443.51
652.171	15494.8
652.523	15452.32
652.875	15451.42
653.227	15353.11
653.578	15457.29
653.93	15495.71
654.282	15336.84
654.633	15422.26
654.985	15436.95
655.337	15398.99
655.688	15433.11
656.039	15404.64
656.391	15335.94
656.742	15368.03
657.094	15323.51
657.445	15456.84
657.796	15432.66
658.147	15344.53
658.498	15326
658.849	15459.1
659.2	15341.59
659.551	15314.02
659.902	15335.26
660.253	15388.37
660.604	15474.47
660.955	15363.73
661.306	15367.12
661.656	15325.09
662.007	15370.29
662.358	15327.13
662.708	15361.7
663.059	15443.73
663.409	15301.14
663.76	15424.75
664.11	15422.49
664.461	15418.65
664.811	15456.84
665.161	15403.06
665.511	15315.15
665.862	15445.09
666.212	15460.46
666.562	15555.82
666.912	15438.31
667.262	15374.13
667.612	15414.13
667.962	15459.55
668.312	15452.55
668.662	15525.31
669.011	15456.16
669.361	15380.91
669.711	15388.59
670.06	15356.95
670.41	15402.38
670.76	15365.54
671.109	15474.47
671.459	15365.54
671.808	15364.41
672.157	15520.34
672.507	15403.73
672.856	15400.57
673.205	15461.58
673.554	15473.34
673.904	15431.76
674.253	15492.54
674.602	15547.01
674.951	15232.44
675.3	15187.02
675.649	15474.69
675.998	15427.01
676.346	15521.7
676.695	15545.88
677.044	15316.73
677.393	15420.68
677.741	15522.83
678.09	15402.15
678.438	15385.65
678.787	15430.4
679.135	15467.69
679.484	15428.37
679.832	15505.2
680.181	15300.01
680.529	15417.74
680.877	15308.82
681.225	15396.95
681.573	15490.06
681.922	15301.82
682.27	15332.32
682.618	15373
682.966	15308.82
683.314	15326.9
683.661	15330.29
684.009	15228.6
684.357	15261.14
684.705	15083.29
685.053	15248.94
685.4	15266.79
685.748	15257.3
686.095	15134.59
686.443	15214.13
686.79	15210.74
687.138	15123.74
687.485	15061.82
687.832	15050.3
688.18	15186.11
688.527	15011.65
688.874	15066.34
689.221	15049.84
689.568	14976.4
689.915	15017.75
690.262	15048.49
690.609	14972.33
690.956	14915.61
691.303	14995.38
691.65	14844.88
691.997	14927.59
692.344	14814.6
692.69	14727.59
693.037	14671.78
693.383	14789.96
693.73	14801.26
694.077	14744.09
694.423	14684.2
694.769	14636.75
695.116	14675.16
695.462	14666.58
695.808	14655.28
696.155	14622.29
696.501	14599.91
696.847	14645.56
697.193	14488.5
697.539	14608.5
697.885	14438.34
698.231	14460.48
698.577	14465.45
698.923	14421.84
699.269	14344.78
699.614	14269.53
699.96	14307.72
700.306	14272.24
700.651	14301.84
700.997	14205.8
701.342	14212.8
701.688	14233.59
702.033	14168.96
702.379	14185.69
702.724	14167.38
703.069	14266.59
703.415	14021.62
703.76	14055.52
704.105	14079.25
704.45	14022.75
704.795	14038.8
705.14	13968.74
705.485	13970.78
705.83	14061.85
706.175	13909.76
706.52	13902.98
706.865	13905.47
707.209	13933.26
707.554	13837.45
707.899	13933.72
708.243	13822.53
708.588	13875.86
708.932	13813.49
709.277	13764
709.621	13764.23
709.966	13671.8
710.31	13730.33
710.654	13580.96
710.998	13585.02
711.342	13636.32
711.687	13654.4
712.031	13589.32
712.375	13562.88
712.719	13554.97
713.063	13585.93
713.407	13604.91
713.75	13598.81
714.094	13528.53
714.438	13480.17
714.782	13505.93
715.125	13403.33
715.469	13500.73
715.812	13385.26
716.156	13376.67
716.499	13331.47
716.843	13407.63
717.186	13285.82
717.53	13332.6
717.873	13410.34
718.216	13280.17
718.559	13271.81
718.902	13299.83
719.246	13302.32
719.589	13286.5
719.932	13290.12
720.275	13200.85
720.617	13204.7
720.96	13133.51
721.303	13201.76
721.646	13234.3
721.989	13144.81
722.331	13211.02
722.674	13100.52
723.016	13171.7
723.359	13162.89
723.701	13199.95
724.044	13044.25
724.386	13130.12
724.729	13094.64
725.071	13079.5
725.413	13089.22
725.755	13056.45
726.097	12947.53
726.439	12923.12
726.782	13025.94
727.124	13033.85
727.465	12943.46
727.807	12996.34
728.149	12993.85
728.491	12938.04
728.833	12912.95
729.175	12888.32
729.516	12893.52
729.858	12822.78
730.199	12932.84
730.541	12872.95
730.882	12847.64
731.224	12860.07
731.565	12852.84
731.906	12788.89
732.248	12924.25
732.589	12785.05
732.93	12701.21
733.271	12790.69
733.612	12730.81
733.953	12727.42
734.294	12722.9
734.635	12764.71
734.976	12685.16
735.317	12641.55
735.658	12653.75
735.999	12644.94
736.339	12671.83
736.68	12644.71
737.021	12574.66
737.361	12658.27
737.702	12644.71
738.042	12621.21
738.383	12601.1
738.723	12641.32
739.063	12495.11
739.404	12554.09
739.744	12502.57
740.084	12475.45
740.424	12528.78
740.764	12523.58
741.104	12530.59
741.444	12402.23
741.784	12365.62
742.124	12367.88
742.464	12438.16
742.804	12369.24
743.143	12334.66
743.483	12325.85
743.823	12263.93
744.162	12292.4
744.502	12287.21
744.841	12245.85
745.181	12268.9
745.52	12250.82
745.86	12300.76
746.199	12144.84
746.538	12178.06
746.877	12208.79
747.216	12189.81
747.556	12192.29
747.895	12192.07
748.234	12142.12
748.573	12121.11
748.911	12109.81
749.25	12090.6
749.589	12028.45
749.928	12105.52
750.267	12044.73
750.605	12087.89
750.944	11989.36
751.283	11967.44
751.621	11908.91
751.96	11860.55
752.298	11886.54
752.636	11907.78
752.975	11762.93
753.313	11814.45
753.651	11811.74
753.989	11804.28
754.327	11683.83
754.666	11609.71
755.004	11704.17
755.342	11663.72
755.679	11612.42
756.017	11559.99
756.355	11600.9
756.693	11503.72
757.031	11525.87
757.368	11456.04
757.706	11465.98
758.044	11421.24
758.381	11415.59
758.719	11349.15
759.056	11411.07
759.394	11302.6
759.731	11196.39
760.068	11211.53
760.405	11207.69
760.743	11055.15
761.08	11221.02
761.417	11080.91
761.754	11103.28
762.091	11125.88
762.428	11032.55
762.765	11023.06
763.102	11006.56
763.438	10929.73
763.775	10875.94
764.112	10948.94
764.449	10894.25
764.785	10873.91
765.122	10816.96
765.458	10755.04
765.795	10695.83
766.131	10697.19
766.467	10681.82
766.804	10623.29
767.14	10501.26
767.476	10540.36
767.812	10497.2
768.148	10465.78
768.485	10347.6
768.821	10418.33
769.157	10381.72
769.492	10322.06
769.828	10343.53
770.164	10242.51
770.5	10143.76
770.836	10189.18
771.171	10096.98
771.507	10113.7
771.842	10014.72
772.178	9963.2
772.513	10019.02
772.849	9919.58
773.184	9860.38
773.519	9965.23
773.855	9871.22
774.19	9778.8
774.525	9742.64
774.86	9754.16
775.195	9741.96
775.53	9656.77
775.865	9631
776.2	9536.54
776.535	9508.3
776.87	9467.39
777.205	9449.31
777.539	9413.38
777.874	9446.6
778.209	9350.33
778.543	9318.92
778.878	9263.56
779.212	9246.16
779.547	9228.08
779.881	9141.07
780.215	9151.47
780.55	9174.52
780.884	9078.93
781.218	9096.55
781.552	9013.17
781.886	8995.09
782.22	8952.38
782.554	8954.41
782.888	8808.65
783.222	8856.33
783.556	8833.74
783.889	8749.22
784.223	8644.14
784.557	8743.12
784.89	8658.15
785.224	8592.16
785.557	8603.01
785.891	8541.99
786.224	8574.53
786.558	8520.98
786.891	8428.1
787.224	8397.36
787.557	8333.41
787.891	8353.75
788.224	8329.34
788.557	8270.59
788.89	8309.23
789.223	8218.61
789.556	8186.75
789.888	8184.49
790.221	8181.55
790.554	8069.01
790.887	8070.14
791.219	8044.15
791.552	8014.32
791.884	7960.99
792.217	7955.12
792.549	7889.35
792.882	7864.04
793.214	7838.73
793.546	7867.66
793.879	7801.9
794.211	7708.57
794.543	7732.52
794.875	7717.61
795.207	7684.84
795.539	7698.85
795.871	7629.02
796.203	7631.96
796.535	7558.06
796.867	7521.68
797.198	7496.14
797.53	7479.42
797.862	7452.53
798.193	7495.24
798.525	7422.47
798.856	7387.67
799.188	7342.7
799.519	7299.54
799.85	7245.08
800.182	7279.88
800.513	7255.47
800.844	7174.35
801.175	7204.85
801.506	7187.9
801.837	7159.43
802.168	7180.9
802.499	7123.5
802.83	7100
803.161	7114.69
803.491	7041.02
803.822	7015.48
804.153	7004.63
804.483	6904.75
804.814	6928.02
805.145	6889.61
805.475	6902.71
805.805	6930.28
806.136	6840.57
806.466	6824.3
806.796	6822.26
807.126	6753.34
807.457	6779.33
807.787	6687.35
808.117	6752.89
808.447	6724.19
808.777	6690.06
809.107	6659.1
809.436	6621.14
809.766	6585.66
810.096	6534.14
810.426	6536.85
810.755	6503.85
811.085	6575.49
811.414	6540.01
811.744	6497.98
812.073	6450.52
812.403	6487.13
812.732	6433.8
813.061	6418.21
813.39	6360.58
813.719	6354.25
814.049	6431.31
814.378	6345.89
814.707	6305.89
815.036	6333.01
815.365	6283.97
815.693	6188.61
816.022	6229.29
816.351	6170.76
816.68	6194.94
817.008	6187.7
817.337	6131.43
817.665	6150.42
817.994	6138.89
818.322	6075.39
818.651	6095.05
818.979	6043.08
819.307	6073.58
819.636	6021.38
819.964	5992.91
820.292	6021.16
820.62	5999.23
820.948	6002.4
821.276	6011.44
821.604	6007.6
821.932	5969.41
822.259	5951.55
822.587	5948.16
822.915	5972.79
823.243	5978.22
823.57	6004.88
823.898	5985.68
824.225	5945
824.553	5923.76
824.88	5897.77
825.207	5910.2
825.535	5881.27
825.862	5896.41
826.189	5869.52
826.516	5959.01
826.843	5909.29
827.17	5894.38
827.497	5926.92
827.824	5894.83
828.151	5922.4
828.478	5912.23
828.805	5869.29
829.131	5923.76
829.458	5838.11
829.785	5843.08
830.111	5825.91
830.438	5947.71
830.764	5853.93
831.09	5873.36
831.417	5820.48
831.743	5826.81
832.069	5815.06
832.395	5767.83
832.722	5858.67
833.048	5751.11
833.374	5787.26
833.7	5757.43
834.026	5822.29
834.351	5786.81
834.677	5726.7
835.003	5772.35
835.329	5758.79
835.654	5763.08
835.98	5673.59
836.306	5716.3
836.631	5695.06
836.956	5704.55
837.282	5742.29
837.607	5683.09
837.932	5625.46
838.258	5687.83
838.583	5616.19
838.908	5630.88
839.233	5620.94
839.558	5653.26
839.883	5553.82
840.208	5584.56
840.533	5512.02
840.858	5548.17
841.182	5555.63
841.507	5563.99
841.832	5538.68
842.156	5502.75
842.481	5483.99
842.805	5474.28
843.13	5446.26
843.454	5501.17
843.778	5430.44
844.103	5358.57
844.427	5433.15
844.751	5401.51
845.075	5390.44
845.399	5360.83
845.723	5342.98
846.047	5371.45
846.371	5333.49
846.695	5311.8
847.019	5267.28
847.343	5218.92
847.666	5218.46
847.99	5204.45
848.313	5140.05
848.637	5126.94
848.96	5139.14
849.284	5086.26
849.607	5068.64
849.931	5038.13
850.254	5008.98
850.577	4994.06
850.9	4985.02
851.223	4984.12
851.546	4918.81
851.869	4928.98
852.192	4954.06
852.515	4882.88
852.838	4884.01
853.161	4865.71
853.483	4854.63
853.806	4882.88
854.129	4846.95
854.451	4785.03
854.774	4768.76
855.096	4739.16
855.419	4747.06
855.741	4744.8
856.063	4703.68
856.385	4682.21
856.708	4678.14
857.03	4677.01
857.352	4665.03
857.674	4661.42
857.996	4594.3
858.318	4609.44
858.64	4631.81
858.961	4566.96
859.283	4546.39
859.605	4517.01
859.926	4530.12
860.248	4545.49
860.57	4548.2
860.891	4507.52
861.212	4477.69
861.534	4492.83
861.855	4448.32
862.176	4494.42
862.498	4447.19
862.819	4453.51
863.14	4475.43
863.461	4394.53
863.782	4412.16
864.103	4421.88
864.424	4429.56
864.745	4403.34
865.065	4352.27
865.386	4338.71
865.707	4376.45
866.027	4362.89
866.348	4361.99
866.668	4354.08
866.989	4352.05
867.309	4290.35
867.63	4311.14
867.95	4287.19
868.27	4295.78
868.59	4313.63
868.91	4286.29
869.23	4274.53
869.55	4237.93
869.87	4273.86
870.19	4232.95
870.51	4245.38
870.83	4273.4
871.15	4223.24
871.469	4221.43
871.789	4211.94
872.109	4238.38
872.428	4222.56
872.748	4191.6
873.067	4206.06
873.386	4149.11
873.706	4179.4
874.025	4164.25
874.344	4161.32
874.663	4142.11
874.982	4135.1
875.301	4119.96
875.62	4117.93
875.939	4081.09
876.258	4102.34
876.577	4121.54
876.896	4098.95
877.214	4063.47
877.533	4084.48
877.852	4110.92
878.17	4087.19
878.489	4072.51
878.807	4103.24
879.125	4029.8
879.444	4082.68
879.762	4029.57
880.08	4005.84
880.398	4053.3
880.716	4032.28
881.034	4002.23
881.352	3967.65
881.67	4006.74
881.988	3974.2
882.306	3980.98
882.624	3978.72
882.941	3971.49
883.259	3955.9
883.577	3911.15
883.894	3954.77
884.212	3959.06
884.529	3899.4
884.846	3898.27
885.164	3931.27
885.481	3883.81
885.798	3879.06
886.115	3841.55
886.432	3862.12
886.75	3861.44
887.067	3908.89
887.383	3832.06
887.7	3817.15
888.017	3816.69
888.334	3798.84
888.651	3813.3
888.967	3786.41
889.284	3826.41
889.6	3809.01
889.917	3799.52
890.233	3789.8
890.55	3793.42
890.866	3767.43
891.182	3746.64
891.498	3754.77
891.815	3703.7
892.131	3688.11
892.447	3673.19
892.763	3671.84
893.079	3644.72
893.395	3633.2
893.71	3604.27
894.026	3600.65
894.342	3630.71
894.657	3626.87
894.973	3564.5
895.289	3623.93
895.604	3599.07
895.92	3548.23
896.235	3562.69
896.55	3510.94
896.865	3503.03
897.181	3522.46
897.496	3509.13
897.811	3475.46
898.126	3488.34
898.441	3454.44
898.756	3500.77
899.071	3444.5
899.386	3453.54
899.7	3435.91
900.015	3418.06
900.33	3428.68
900.644	3399.76
900.959	3396.14
901.273	3395.69
901.588	3367.44
901.902	3386.42
902.216	3321.34
902.531	3349.14
902.845	3327.67
903.159	3322.92
903.473	3300.55
903.787	3258.97
904.101	3237.73
904.415	3254.45
904.729	3222.81
905.042	3258.74
905.356	3236.82
905.67	3190.72
905.984	3193.43
906.297	3208.8
906.611	3165.64
906.924	3212.64
907.237	3210.61
907.551	3170.83
907.864	3152.53
908.177	3149.59
908.491	3124.51
908.804	3123.15
909.117	3101.01
909.43	3072.53
909.743	3101.68
910.056	3046.32
910.368	3032.31
910.681	3051.52
910.994	3030.5
911.307	3026.21
911.619	3018.97
911.932	3016.49
912.244	2976.94
912.557	3008.13
912.869	2967.22
913.181	2943.04
913.494	2970.84
913.806	2907.56
914.118	2920.9
914.43	2873.22
914.742	2874.35
915.054	2882.48
915.366	2870.5
915.678	2860.33
915.99	2852.42
916.302	2888.81
916.613	2811.3
916.925	2809.71
917.236	2844.52
917.548	2786.66
917.859	2803.84
918.171	2783.73
918.482	2764.07
918.794	2782.6
919.105	2745.08
919.416	2764.52
919.727	2730.62
920.038	2750.96
920.349	2730.39
920.66	2665.09
920.971	2701.24
921.282	2659.21
921.593	2654.01
921.903	2656.05
922.214	2664.18
922.525	2637.06
922.835	2645.88
923.146	2633.67
923.456	2638.65
923.767	2593.9
924.077	2591.41
924.387	2558.2
924.697	2572.88
925.008	2585.31
925.318	2547.12
925.628	2584.18
925.938	2561.36
926.248	2547.12
926.558	2523.62
926.867	2514.13
927.177	2499.89
927.487	2471.64
927.796	2464.41
928.106	2453.34
928.416	2461.93
928.725	2463.51
929.034	2435.03
929.344	2445.2
929.653	2412.66
929.962	2414.02
930.271	2415.37
930.581	2383.06
930.89	2381.48
931.199	2421.02
931.508	2371.08
931.817	2360.23
932.125	2379.67
932.434	2362.72
932.743	2344.64
933.051	2327.47
933.36	2322.5
933.669	2303.29
933.977	2328.6
934.286	2327.47
934.594	2291.76
934.902	2313.91
935.21	2274.81
935.519	2296.73
935.827	2261.71
936.135	2262.38
936.443	2230.07
936.751	2209.28
937.059	2228.94
937.367	2198.43
937.674	2222.61
937.982	2213.8
938.29	2213.35
938.597	2201.37
938.905	2175.83
939.213	2151.43
939.52	2138.77
939.827	2153.23
940.135	2174.25
940.442	2130.18
940.749	2117.53
941.056	2130.86
941.363	2143.74
941.67	2131.54
941.977	2112.56
942.284	2090.19
942.591	2079.56
942.898	2102.61
943.205	2099.45
943.511	2075.72
943.818	2034.59
944.125	2014.25
944.431	2025.78
944.738	2004.09
945.044	2014.71
945.35	1990.75
945.657	2024.65
945.963	2029.17
946.269	2017.64
946.575	1983.97
946.881	1936.74
947.187	1969.96
947.493	1957.31
947.799	1957.31
948.105	1932.9
948.41	1903.98
948.716	1935.84
949.022	1939
949.327	1922.05
949.633	1907.14
949.938	1903.3
950.244	1904.65
950.549	1864.88
950.854	1875.73
951.16	1883.41
951.465	1866.24
951.77	1856.07
952.075	1837.31
952.38	1849.51
952.685	1854.71
952.99	1814.26
953.294	1837.54
953.599	1809.29
953.904	1817.42
954.209	1789.18
954.513	1826.01
954.818	1801.38
955.122	1820.81
955.426	1786.69
955.731	1761.83
956.035	1755.73
956.339	1749.18
956.643	1756.18
956.948	1749.63
957.252	1724.77
957.556	1725.9
957.86	1710.53
958.163	1710.08
958.467	1712.12
958.771	1706.01
959.075	1713.7
959.378	1710.99
959.682	1704.66
959.985	1688.61
960.289	1712.12
960.592	1672.12
960.896	1661.72
961.199	1685.22
961.502	1656.52
961.805	1659.01
962.108	1624.21
962.411	1647.48
962.714	1647.71
963.017	1625.56
963.32	1612.68
963.623	1618.56
963.926	1587.6
964.228	1615.62
964.531	1608.62
964.833	1605.9
965.136	1584.66
965.438	1610.65
965.741	1585.79
966.043	1549.86
966.345	1571.78
966.648	1570.2
966.95	1555.74
967.252	1559.58
967.554	1528.62
967.856	1543.08
968.158	1563.42
968.46	1527.49
968.761	1525.23
969.063	1544.66
969.365	1527.04
969.666	1513.93
969.968	1482.74
970.269	1478
970.571	1492.69
970.872	1481.16
971.174	1510.77
971.475	1453.59
971.776	1473.03
972.077	1471.22
972.378	1449.52
972.679	1480.03
972.98	1450.65
973.281	1446.81
973.582	1437.09
973.883	1438
974.183	1457.89
974.484	1428.51
974.785	1423.76
975.085	1397.55
975.386	1407.49
975.686	1401.16
975.986	1382.86
976.287	1408.17
976.587	1379.7
976.887	1371.33
977.187	1369.3
977.487	1365.01
977.787	1372.69
978.087	1333.37
978.387	1354.84
978.687	1351
978.987	1367.94
979.286	1349.64
979.586	1324.78
979.885	1372.01
980.185	1292.01
980.484	1321.84
980.784	1311.22
981.083	1313.71
981.382	1308.96
981.682	1326.59
981.981	1317.55
982.28	1315.52
982.579	1306.25
982.878	1259.7
983.177	1299.92
983.475	1271.45
983.774	1281.17
984.073	1271.9
984.372	1272.13
984.67	1246.59
984.969	1274.61
985.267	1250.43
985.566	1249.3
985.864	1275.52
986.162	1262.18
986.461	1222.86
986.759	1219.02
987.057	1233.94
987.355	1232.58
987.653	1235.07
987.951	1216.31
988.249	1215.18
988.547	1203.2
988.844	1192.81
989.142	1194.39
989.44	1193.94
989.737	1173.83
990.035	1196.65
990.332	1186.03
990.63	1177.67
990.927	1181.96
991.224	1179.7
991.521	1146.48
991.819	1155.07
992.116	1151.9
992.413	1143.32
992.71	1133.83
993.006	1134.05
993.303	1121.62
993.6	1142.19
993.897	1141.74
994.193	1127.72
994.49	1123.88
994.787	1097.89
995.083	1102.41
995.379	1091.34
995.676	1085.01
995.972	1082.08
996.268	1084.11
996.565	1060.61
996.861	1080.27
997.157	1073.94
997.453	1097.89
997.749	1070.55
998.044	1042.08
998.34	1051.79
998.636	1037.78
998.932	1045.69
999.227	1056.54
999.523	1045.47
999.818	1029.42
1000.114	1057.67
1000.409	1018.12
1000.704	1030.55
1001	1027.39
1001.295	1020.38
1001.59	1011.34
1001.885	980.16
1002.18	985.36
1002.475	1006.82
1002.77	997.33
1003.065	1016.32
1003.359	988.75
1003.654	1007.95
1003.949	988.52
1004.243	995.75
1004.538	981.74
1004.832	941.29
1005.127	965.92
1005.421	933.15
1005.715	965.02
1006.009	953.04
1006.304	951.23
1006.598	944.68
1006.892	931.12
1007.186	933.83
1007.48	950.78
1007.773	915.98
1008.067	908.52
1008.361	908.52
1008.655	904.91
1008.948	927.73
1009.242	915.07
1009.535	896.32
1009.829	888.41
1010.122	910.33
1010.415	888.63
1010.708	883.21
1011.001	891.57
1011.295	910.78
1011.588	870.78
1011.881	875.98
1012.173	879.6
1012.466	874.17
1012.759	833.27
1013.052	845.92
1013.344	871.91
1013.637	856.09
1013.93	847.96
1014.222	841.63
1014.514	836.43
1014.807	824.91
1015.099	821.74
1015.391	833.04
1015.683	861.52
1015.976	853.61
1016.268	807.06
1016.56	791.91
1016.851	808.86
1017.143	795.98
1017.435	790.11
1017.727	784
1018.018	793.72
1018.31	806.38
1018.602	769.99
1018.893	769.77
1019.185	793.72
1019.476	783.33
1019.767	799.82
1020.058	757.56
1020.35	771.58
1020.641	772.25
1020.932	754.85
1021.223	758.69
1021.514	735.64
1021.804	746.27
1022.095	748.3
1022.386	734.06
1022.677	742.2
1022.967	705.81
1023.258	713.95
1023.548	733.61
1023.839	722.99
1024.129	699.04
1024.419	738.81
1024.709	716.21
1025	700.39
1025.29	713.95
1025.58	700.84
1025.87	705.14
1026.16	666.27
1026.449	705.36
1026.739	695.87
1027.029	683.67
1027.319	671.47
1027.608	666.72
1027.898	668.3
1028.187	685.02
1028.477	665.59
1028.766	662.65
1029.055	666.04
1029.344	648.42
1029.634	669.88
1029.923	647.06
1030.212	656.55
1030.501	652.03
1030.79	637.34
1031.078	627.62
1031.367	634.4
1031.656	633.5
1031.945	628.98
1032.233	631.92
1032.522	640.51
1032.81	618.13
1033.099	610.22
1033.387	612.94
1033.675	630.34
1033.963	612.94
1034.251	619.04
1034.54	592.37
1034.828	620.62
1035.116	599.38
1035.403	613.61
1035.691	575.65
1035.979	600.96
1036.267	608.64
1036.554	591.47
1036.842	603.9
1037.129	580.85
1037.417	579.26
1037.704	567.06
1037.992	564.58
1038.279	590.11
1038.566	570.45
1038.853	570.45
1039.14	570.45
