Data from brown_tile_FLMS001491_068.txt Node
Date: Tue Feb 07 10:37:51 GMT 2017
User: dcchb
Spectrometer: FLMS00149
Trigger mode: 0
Integration Time (sec): 2.000000E-2
Scans to average: 10
Electric dark correction enabled: true
Nonlinearity correction enabled: false
Boxcar width: 0
XAxis mode: Wavelengths
Number of Pixels in Spectrum: 2048
>>>>>Begin Spectral Data<<<<<
341.393	10.4
341.776	10.4
342.16	10.4
342.543	-30.06
342.927	-51.98
343.31	-66.89
343.693	-67.12
344.077	-92.65
344.46	-48.36
344.843	-51.3
345.226	-30.06
345.61	-39.32
345.993	1.58
346.376	4.07
346.759	18.98
347.142	21.47
347.525	40
347.908	48.81
348.291	63.05
348.674	95.14
349.057	102.6
349.44	141.24
349.823	149.37
350.206	141.24
350.588	177.4
350.971	201.58
351.354	203.38
351.737	226.89
352.119	246.1
352.502	238.41
352.884	257.39
353.267	273.21
353.65	279.77
354.032	285.42
354.414	310.27
354.797	298.75
355.179	317.96
355.562	306.21
355.944	324.96
356.326	322.48
356.709	306.66
357.091	337.84
357.473	320.22
357.855	328.8
358.238	317.51
358.62	333.1
359.002	340.1
359.384	342.14
359.766	341.23
360.148	315.02
360.53	316.38
360.912	327.68
361.294	315.92
361.676	341.01
362.057	329.93
362.439	322.03
362.821	320.22
363.203	317.96
363.584	312.08
363.966	303.95
364.348	314.79
364.729	326.09
365.111	312.53
365.493	305.08
365.874	299.88
366.256	308.92
366.637	314.79
367.019	310.95
367.4	305.75
367.781	305.98
368.163	304.85
368.544	318.64
368.925	307.11
369.306	317.96
369.688	305.3
370.069	313.21
370.45	303.04
370.831	310.95
371.212	320.22
371.593	305.98
371.974	300.33
372.355	306.21
372.736	275.92
373.117	300.78
373.498	319.31
373.879	305.08
374.26	314.79
374.641	307.56
375.021	312.31
375.402	293.33
375.783	308.01
376.163	326.77
376.544	315.02
376.925	321.8
377.305	318.18
377.686	312.08
378.066	307.79
378.447	329.48
378.827	327.9
379.208	303.72
379.588	310.05
379.968	311.4
380.349	326.32
380.729	315.25
381.109	330.39
381.489	332.87
381.87	307.56
382.25	319.99
382.63	323.38
383.01	317.96
383.39	333.78
383.77	337.17
384.15	326.55
384.53	337.39
384.91	331.52
385.29	314.12
385.67	311.18
386.049	349.37
386.429	327
386.809	331.52
387.189	326.55
387.568	341.91
387.948	345.98
388.328	375.13
388.707	353.21
389.087	334.91
389.466	351.86
389.846	342.14
390.225	348.69
390.605	353.21
390.984	348.69
391.363	358.63
391.743	366.54
392.122	364.28
392.501	351.86
392.881	382.59
393.26	339.88
393.639	359.31
394.018	361.8
394.397	366.54
394.776	353.89
395.155	352.76
395.534	358.86
395.913	366.32
396.292	385.3
396.671	375.58
397.05	358.18
397.429	362.93
397.808	362.48
398.186	380.1
398.565	376.49
398.944	349.14
399.323	375.58
399.701	369.48
400.08	367.45
400.458	409.93
400.837	366.77
401.215	369.26
401.594	377.17
401.972	373.32
402.351	392.53
402.729	410.61
403.107	377.62
403.486	397.5
403.864	369.03
404.242	390.05
404.62	400.67
404.999	392.98
405.377	388.92
405.755	403.15
406.133	389.37
406.511	418.07
406.889	421.01
407.267	407.22
407.645	403.38
408.023	391.85
408.401	424.4
408.779	399.31
409.156	397.05
409.534	418.29
409.912	427.11
410.29	411.74
410.667	426.2
411.045	424.62
411.422	435.24
411.8	435.92
412.178	444.06
412.555	446.09
412.933	444.06
413.31	457.62
413.687	439.76
414.065	436.15
414.442	471.63
414.819	450.61
415.197	454.23
415.574	468.24
415.951	470.5
416.328	482.25
416.705	467.11
417.082	462.13
417.46	476.82
417.837	478.63
418.214	478.18
418.591	457.39
418.967	475.47
419.344	444.73
419.721	475.24
420.098	452.87
420.475	467.56
420.852	477.95
421.228	466.2
421.605	471.17
421.982	483.83
422.358	494
422.735	497.39
423.111	505.52
423.488	485.64
423.864	508.01
424.241	506.43
424.617	507.33
424.994	507.11
425.37	491.29
425.746	519.08
426.123	502.13
426.499	508.46
426.875	527.67
427.251	531.74
427.627	521.34
428.003	528.8
428.379	551.62
428.756	544.62
429.132	546.65
429.507	564.5
429.883	548.46
430.259	557.95
430.635	559.53
431.011	562.02
431.387	568.8
431.763	581.68
432.138	583.94
432.514	563.83
432.89	581.45
433.265	601.34
433.641	609.7
434.016	570.61
434.392	626.2
434.767	610.38
435.143	624.39
435.518	615.58
435.894	617.38
436.269	631.85
436.644	624.39
437.02	630.49
437.395	631.4
437.77	624.16
438.145	639.98
438.52	639.31
438.895	638.85
439.271	635.69
439.646	651.51
440.021	650.6
440.395	657.16
440.77	665.97
441.145	662.58
441.52	679.76
441.895	686.08
442.27	675.46
442.645	693.09
443.019	705.97
443.394	690.83
443.769	693.32
444.143	695.12
444.518	702.81
444.892	696.48
445.267	722.01
445.641	728.34
446.016	674.78
446.39	720.66
446.764	698.74
447.139	723.14
447.513	724.05
447.887	732.86
448.262	731.96
448.636	726.76
449.01	726.99
449.384	734.9
449.758	749.58
450.132	751.62
450.506	765.63
450.88	772.41
451.254	754.56
451.628	747.32
452.002	768.79
452.376	785.74
452.75	777.83
453.123	790.26
453.497	788.23
453.871	805.4
454.244	816.93
454.618	807.44
454.992	827.1
455.365	830.49
455.739	830.26
456.112	832.52
456.486	840.2
456.859	858.96
457.232	867.1
457.606	875.46
457.979	866.87
458.352	865.06
458.725	876.14
459.099	908.45
459.472	924.72
459.845	927.89
460.218	943.93
460.591	929.02
460.964	927.43
461.337	952.29
461.71	949.13
462.083	973.31
462.456	966.08
462.829	984.83
463.201	995.91
463.574	1002.23
463.947	1002.91
464.32	1036.58
464.692	1025.06
465.065	1019.63
465.438	1053.98
465.81	1035.23
466.183	1059.41
466.555	1083.36
466.928	1091.04
467.3	1080.88
467.672	1074.1
468.045	1091.95
468.417	1106.86
468.789	1145.28
469.161	1154.55
469.534	1165.17
469.906	1191.83
470.278	1164.72
470.65	1183.25
471.022	1207.88
471.394	1221.44
471.766	1233.64
472.138	1245.39
472.51	1257.14
472.882	1270.48
473.253	1282
473.625	1295.79
473.997	1298.04
474.369	1341.66
474.74	1311.83
475.112	1361.77
475.484	1355.44
475.855	1417.36
476.227	1427.08
476.598	1428.66
476.97	1447.19
477.341	1467.98
477.713	1472.28
478.084	1489.9
478.455	1550.24
478.827	1540.07
479.198	1575.55
479.569	1609
479.94	1621.2
480.311	1653.52
480.682	1657.58
481.053	1675.44
481.424	1712.72
481.795	1760.86
482.166	1747.52
482.537	1772.38
482.908	1801.53
483.279	1786.85
483.65	1830.01
484.021	1865.71
484.391	1891.48
484.762	1901.19
485.133	1928.76
485.503	1961.53
485.874	1991.36
486.244	2004.02
486.615	2043.11
486.985	2072.04
487.356	2096.22
487.726	2093.28
488.097	2103.9
488.467	2192.03
488.837	2179.83
489.207	2213.95
489.578	2232.03
489.948	2247.62
490.318	2279.26
490.688	2279.04
491.058	2317.45
491.428	2367.17
491.798	2362.88
492.168	2399.71
492.538	2430.22
492.908	2449.2
493.278	2494.4
493.648	2486.49
494.017	2481.74
494.387	2506.6
494.757	2528.3
495.126	2553.61
495.496	2582.3
495.866	2592.25
496.235	2615.98
496.605	2617.11
496.974	2686.48
497.344	2678.35
497.713	2700.95
498.082	2737.33
498.452	2717.22
498.821	2729.19
499.19	2740.27
499.559	2822.07
499.928	2830.66
500.298	2873.82
500.667	2882.64
501.036	2893.26
501.405	2907.95
501.774	2894.39
502.143	2942.52
502.512	2940.71
502.88	2959.92
503.249	2964.67
503.618	2998.79
503.987	3026.36
504.356	3020.71
504.724	3079.02
505.093	3064.33
505.462	3063.65
505.83	3114.04
506.199	3118.11
506.567	3152.69
506.936	3183.65
507.304	3251.89
507.672	3212.34
508.041	3242.85
508.409	3266.35
508.777	3264.77
509.145	3297.09
509.514	3346.8
509.882	3315.39
510.25	3350.65
510.618	3357.2
510.986	3422.51
511.354	3439.23
511.722	3436.75
512.09	3514.71
512.458	3472.23
512.826	3501.38
513.193	3558.55
513.561	3556.29
513.929	3584.09
514.297	3599.68
514.664	3623.18
515.032	3698.66
515.4	3648.49
515.767	3723.07
516.135	3762.39
516.502	3720.35
516.869	3786.79
517.237	3780.47
517.604	3833.8
517.972	3822.05
518.339	3840.35
518.706	3884.87
519.073	3926.9
519.44	3938.65
519.808	3983.85
520.175	3992.44
520.542	4080.57
520.909	4082.83
521.276	4102.72
521.643	4130.29
522.009	4162.38
522.376	4208.48
522.743	4222.49
523.11	4299.1
523.477	4308.36
523.843	4267.23
524.21	4348.13
524.577	4438.08
524.943	4458.87
525.31	4470.16
525.676	4467.45
526.043	4496.83
526.409	4533.21
526.776	4605.3
527.142	4676.71
527.508	4675.13
527.874	4731.85
528.241	4676.26
528.607	4755.81
528.973	4805.07
529.339	4803.72
529.705	4856.6
530.071	4871.06
530.437	4919.87
530.803	4954.22
531.169	4950.83
531.535	4940.66
531.901	5012.07
532.267	5028.57
532.632	5113.76
532.998	5101.11
533.364	5142.69
533.73	5099.75
534.095	5219.98
534.461	5259.07
534.826	5298.17
535.192	5269.69
535.557	5381.33
535.923	5369.58
536.288	5367.77
536.653	5453.42
537.019	5433.76
537.384	5465.84
537.749	5493.41
538.114	5525.05
538.479	5573.41
538.845	5617.71
539.21	5630.59
539.575	5638.5
539.94	5666.52
540.305	5718.95
540.67	5711.26
541.034	5750.13
541.399	5777.02
541.764	5814.31
542.129	5884.82
542.494	5941.09
542.858	5887.98
543.223	5913.29
543.587	5986.74
543.952	6031.71
544.316	6005.04
544.681	6015.66
545.045	6104.92
545.41	6125.71
545.774	6123.68
546.138	6212.04
546.503	6215.2
546.867	6191.25
547.231	6262.89
547.595	6351.7
547.959	6341.75
548.324	6380.4
548.688	6442.09
549.052	6450.23
549.416	6548.53
549.779	6538.36
550.143	6604.8
550.507	6646.38
550.871	6716.43
551.235	6700.16
551.599	6788.3
551.962	6788.3
552.326	6841.18
552.689	6880.95
553.053	6889.54
553.417	6890.89
553.78	7100.6
554.143	7043.2
554.507	7049.08
554.87	7175.4
555.234	7259.92
555.597	7209.08
555.96	7323.88
556.323	7386.7
556.686	7437.32
557.05	7519.58
557.413	7574.26
557.776	7558.9
558.139	7669.63
558.502	7701.94
558.865	7715.73
559.228	7832.34
559.59	7942.62
559.953	7941.26
560.316	8134.25
560.679	8111.2
561.041	8214.25
561.404	8297.41
561.767	8363.85
562.129	8362.94
562.492	8513.45
562.854	8551.64
563.217	8571.07
563.579	8691.07
563.941	8787.11
564.304	8821.01
564.666	8914.79
565.028	8955.47
565.39	9031.4
565.753	9113.66
566.115	9175.13
566.477	9272.52
566.839	9414.22
567.201	9519.07
567.563	9418.06
567.925	9588.67
568.287	9663.25
568.648	9665.51
569.01	9844.03
569.372	9941.66
569.734	9943.47
570.095	9965.16
570.457	10130.58
570.819	10152.5
571.18	10234.76
571.542	10316.79
571.903	10390.91
572.265	10423.91
572.626	10581.19
572.987	10576.45
573.349	10759.94
573.71	10830.22
574.071	10882.65
574.432	11003.55
574.794	11026.38
575.155	11094.62
575.516	11092.82
575.877	11192.25
576.238	11278.57
576.599	11458.68
576.96	11420.94
577.32	11561.05
577.681	11588.62
578.042	11621.16
578.403	11701.61
578.763	11878.11
579.124	11883.98
579.485	12003.98
579.845	12025.45
580.206	12034.03
580.566	12174.82
580.927	12186.35
581.287	12308.38
581.648	12240.81
582.008	12372.1
582.368	12358.32
582.728	12452.33
583.089	12540.91
583.449	12520.35
583.809	12623.62
584.169	12689.16
584.529	12665.43
584.889	12799.44
585.249	12808.93
585.609	12772.09
585.969	12929.6
586.329	12885.31
586.688	13031.52
587.048	13004.4
587.408	13074.68
587.768	13093.67
588.127	13157.85
588.487	13124.85
588.846	13280.78
589.206	13240.56
589.565	13315.58
589.925	13332.3
590.284	13384.96
590.643	13415.47
591.003	13539.53
591.362	13635.35
591.721	13518.51
592.08	13626.99
592.44	13737.72
592.799	13655.01
593.158	13704.72
593.517	13762.58
593.876	13742.69
594.235	13807.32
594.593	13803.25
594.952	13881.67
595.311	13912.63
595.67	13945.4
596.029	14096.8
596.387	14114.66
596.746	14170.25
597.104	14134.09
597.463	14166.18
597.822	14268.78
598.18	14228.33
598.538	14216.8
598.897	14294.77
599.255	14302.67
599.613	14468.55
599.972	14358.94
600.33	14528.43
600.688	14418.83
601.046	14526.85
601.404	14592.84
601.762	14541.31
602.12	14747.86
602.478	14720.29
602.836	14705.15
603.194	14703.12
603.552	14786.05
603.91	14727.07
604.268	14781.31
604.625	14828.54
604.983	14847.52
605.341	14869.89
605.698	14866.73
606.056	15017.91
606.413	15003.67
606.771	15021.07
607.128	15152.6
607.485	14988.76
607.843	15045.25
608.2	15127.74
608.557	15294.74
608.914	15161.18
609.272	15202.31
609.629	15277.11
609.986	15336.77
610.343	15239.6
610.7	15405.7
611.057	15404.57
611.414	15326.6
611.771	15429.65
612.127	15444.34
612.484	15442.98
612.841	15550.78
613.198	15532.02
613.554	15496.99
613.911	15722.75
614.267	15636.43
614.624	15641.62
614.98	15685.24
615.337	15676.65
615.693	15732.47
616.05	15750.77
616.406	15753.48
616.762	15812.47
617.118	15767.5
617.475	15745.8
617.831	15826.93
618.187	15804.78
618.543	15877.55
618.899	15981.27
619.255	15892.92
619.611	15937.43
619.967	16092.01
620.323	16154.15
620.678	16040.48
621.034	15987.15
621.39	16099.46
621.746	15967.04
622.101	16219.91
622.457	16065.34
622.812	16166.13
623.168	16124.1
623.523	16188.73
623.879	16197.77
624.234	16130.42
624.589	16131.33
624.945	16152.57
625.3	16274.6
625.655	16219.91
626.01	16167.26
626.365	16277.99
626.72	16286.58
627.075	16308.95
627.43	16198.9
627.785	16094.27
628.14	16143.08
628.495	16247.93
628.85	16244.77
629.205	16113.25
629.559	16280.7
629.914	16183.76
630.269	16259.91
630.623	16169.97
630.978	16156.64
631.332	16280.02
631.687	16185.56
632.041	16134.94
632.396	16190.08
632.75	16123.19
633.104	16193.25
633.459	16094.27
633.813	16189.86
634.167	16059.24
634.521	16102.18
634.875	16052.46
635.229	16094.72
635.583	16027.6
635.937	15978.11
636.291	16128.39
636.645	15977.21
636.999	15922.52
637.352	16114.38
637.706	15930.65
638.06	15986.92
638.413	15941.05
638.767	15858.79
639.121	15929.52
639.474	15821.96
639.828	15921.16
640.181	15920.71
640.534	15936.08
640.888	15939.24
641.241	15808.17
641.594	15842.75
641.947	15891.56
642.301	15895.63
642.654	15958.68
643.007	15843.2
643.36	15909.41
643.713	15781.73
644.066	15830.54
644.419	15845.46
644.771	15644.56
645.124	15544.68
645.477	15548.74
645.83	15497.45
646.182	15310.33
646.535	15352.14
646.888	15288.86
647.24	15235.31
647.593	15386.04
647.945	15350.1
648.298	15321.63
648.65	15258.13
649.002	15146.95
649.355	15280.05
649.707	15288.19
650.059	15338.81
650.411	15547.61
650.763	15522.98
651.115	15773.14
651.467	15715.74
651.819	15676.65
652.171	15699.02
652.523	15561.62
652.875	15602.75
653.227	15543.09
653.578	15657.89
653.93	15611.79
654.282	15512.59
654.633	15514.62
654.985	15569.99
655.337	15510.33
655.688	15496.09
656.039	15621.96
656.391	15541.96
656.742	15557.56
657.094	15580.38
657.445	15578.35
657.796	15646.59
658.147	15569.99
658.498	15577.44
658.849	15600.72
659.2	15554.17
659.551	15483.66
659.902	15564.56
660.253	15619.7
660.604	15591.91
660.955	15502.19
661.306	15578.57
661.656	15539.25
662.007	15537.22
662.358	15557.33
662.708	15610.89
663.059	15549.65
663.409	15503.1
663.76	15587.61
664.11	15595.3
664.461	15616.54
664.811	15671.68
665.161	15620.38
665.511	15643.66
665.862	15638.23
666.212	15569.08
666.562	15628.52
666.912	15594.39
667.262	15580.61
667.612	15623.32
667.962	15625.13
668.312	15581.06
668.662	15721.85
669.011	15649.08
669.361	15631.68
669.711	15607.73
670.06	15638.23
670.41	15691.79
670.76	15624.45
671.109	15658.57
671.459	15649.31
671.808	15631.45
672.157	15690.21
672.507	15616.99
672.856	15601.4
673.205	15681.62
673.554	15724.56
673.904	15638.91
674.253	15718.91
674.602	15752.58
674.951	15407.05
675.3	15398.01
675.649	15669.87
675.998	15603.88
676.346	15719.59
676.695	15758.91
677.044	15691.11
677.393	15655.18
677.741	15687.95
678.09	15702.41
678.438	15657.22
678.787	15629.19
679.135	15690.21
679.484	15553.04
679.832	15618.8
680.181	15611.34
680.529	15673.26
680.877	15602.98
681.225	15679.81
681.573	15723.65
681.922	15614.05
682.27	15616.99
682.618	15630.55
682.966	15554.17
683.314	15609.76
683.661	15557.56
684.009	15504.68
684.357	15480.04
684.705	15426.71
685.053	15467.16
685.4	15488.18
685.748	15417.67
686.095	15501.06
686.443	15451.57
686.79	15375.64
687.138	15517.33
687.485	15420.84
687.832	15325.25
688.18	15401.4
688.527	15285.25
688.874	15394.85
689.221	15351.46
689.568	15247.51
689.915	15249.54
690.262	15321.41
690.609	15254.74
690.956	15203.44
691.303	15200.05
691.65	15043.22
691.997	15210.22
692.344	15054.07
692.69	15013.62
693.037	15043.9
693.383	14891.13
693.73	14996.89
694.077	14948.53
694.423	14872.6
694.769	14845.49
695.116	14826.95
695.462	14866.5
695.808	14819.95
696.155	14859.95
696.501	14782.66
696.847	14774.3
697.193	14725.04
697.539	14744.47
697.885	14645.94
698.231	14624.93
698.577	14648.88
698.923	14543.35
699.269	14620.86
699.614	14470.81
699.96	14460.86
700.306	14445.27
700.651	14445.04
700.997	14367.98
701.342	14431.03
701.688	14375.44
702.033	14337.48
702.379	14323.92
702.724	14316.23
703.069	14381.54
703.415	14217.03
703.76	14322.11
704.105	14235.11
704.45	14245.73
704.795	14129.35
705.14	14112.17
705.485	14105.62
705.83	14049.35
706.175	14145.62
706.52	13995.79
706.865	14035.11
707.209	14027.43
707.554	14015.9
707.899	14009.12
708.243	13955.11
708.588	13937.71
708.932	13796.25
709.277	13921.22
709.621	13883.02
709.966	13681.67
710.31	13774.33
710.654	13718.96
710.998	13777.26
711.342	13782.91
711.687	13761.67
712.031	13728.9
712.375	13727.1
712.719	13627.44
713.063	13727.32
713.407	13757.15
713.75	13667.66
714.094	13619.75
714.438	13624.95
714.782	13616.37
715.125	13557.16
715.469	13675.12
715.812	13490.94
716.156	13415.01
716.499	13470.15
716.843	13593.54
717.186	13448.01
717.53	13503.83
717.873	13552.86
718.216	13483.26
718.559	13487.55
718.902	13378.41
719.246	13438.74
719.589	13350.84
719.932	13361.46
720.275	13405.52
720.617	13354.68
720.96	13342.47
721.303	13304.28
721.646	13373.89
721.989	13216.38
722.331	13332.08
722.674	13291.4
723.016	13283.49
723.359	13266.09
723.701	13298.18
724.044	13158.98
724.386	13229.26
724.729	13224.29
725.071	13204.62
725.413	13152.42
725.755	13184.51
726.097	13185.87
726.439	13121.69
726.782	13064.97
727.124	13230.39
727.465	13130.05
727.807	13047.34
728.149	13042.82
728.491	13098.19
728.833	13112.65
729.175	13010.73
729.516	13028.58
729.858	13011.18
730.199	13032.43
730.541	12952.88
730.882	12967.57
731.224	12997.85
731.565	12860.23
731.906	12881.92
732.248	12993.56
732.589	12866.78
732.93	12847.35
733.271	12835.59
733.612	12924.86
733.953	12874.46
734.294	12830.85
734.635	12824.07
734.976	12810.51
735.317	12826.56
735.658	12845.99
735.999	12842.6
736.339	12756.73
736.68	12824.3
737.021	12718.08
737.361	12672.66
737.702	12830.17
738.042	12735.94
738.383	12726.45
738.723	12826.33
739.063	12638.99
739.404	12645.54
739.744	12631.98
740.084	12627.46
740.424	12606.22
740.764	12622.04
741.104	12657.29
741.444	12555.83
741.784	12534.36
742.124	12536.85
742.464	12541.14
742.804	12494.59
743.143	12486.45
743.483	12471.76
743.823	12462.95
744.162	12477.19
744.502	12495.04
744.841	12385.89
745.181	12439.22
745.52	12341.37
745.86	12383.18
746.199	12374.36
746.538	12370.75
746.877	12356.51
747.216	12222.73
747.556	12304.31
747.895	12363.74
748.234	12258.89
748.573	12218.21
748.911	12175.05
749.25	12231.32
749.589	12085.56
749.928	12147.03
750.267	12165.33
750.605	12148.38
750.944	12156.52
751.283	12130.53
751.621	12094.15
751.96	12032.68
752.298	11996.07
752.636	12027.93
752.975	11957.43
753.313	11897.77
753.651	11962.62
753.989	11917.2
754.327	11842.17
754.666	11791.78
755.004	11869.74
755.342	11826.81
755.679	11837.2
756.017	11771.44
756.355	11735.28
756.693	11650.54
757.031	11653.93
757.368	11543.43
757.706	11588.17
758.044	11596.76
758.381	11498.23
758.719	11495.97
759.056	11525.35
759.394	11470.21
759.731	11389.53
760.068	11324.45
760.405	11324
760.743	11300.04
761.08	11218.24
761.417	11238.8
761.754	11256.88
762.091	11147.96
762.428	11126.26
762.765	11039.94
763.102	11059.6
763.438	11006.26
763.775	10924.46
764.112	10980.73
764.449	11025.47
764.785	10908.64
765.122	10810.34
765.458	10787.51
765.795	10813.5
766.131	10707.74
766.467	10758.81
766.804	10630.45
767.14	10622.55
767.476	10582.77
767.812	10543.45
768.148	10512.94
768.485	10582.09
768.821	10400.18
769.157	10498.26
769.492	10419.61
769.828	10325.83
770.164	10345.26
770.5	10291.71
770.836	10256.45
771.171	10203.12
771.507	10161.54
771.842	10101.43
772.178	10159.05
772.513	10106.17
772.849	10030.02
773.184	10006.52
773.519	9987.76
773.855	9938.72
774.19	9896.91
774.525	9911.6
774.86	9850.59
775.195	9835.67
775.53	9846.52
775.865	9722.23
776.2	9662.34
776.535	9624.15
776.87	9595.23
777.205	9564.49
777.539	9549.58
777.874	9544.83
778.209	9434.33
778.543	9464.16
778.878	9364.95
779.212	9350.04
779.547	9272.07
779.881	9307.78
780.215	9208.12
780.55	9333.99
780.884	9197.72
781.218	9154.34
781.552	9146.43
781.886	9073.66
782.22	9006.54
782.554	8971.06
782.888	8935.58
783.222	8887.22
783.556	8820.11
783.889	8858.75
784.223	8785.98
784.557	8738.75
784.89	8775.59
785.224	8755.48
785.557	8637.29
785.891	8665.31
786.224	8578.08
786.558	8559.32
786.891	8466.44
787.224	8457.18
787.557	8451.98
787.891	8437.52
788.224	8431.42
788.557	8404.52
788.89	8413.56
789.223	8379.44
789.556	8297.86
789.888	8271.19
790.221	8172.44
790.554	8176.28
790.887	8155.94
791.219	8130.18
791.552	8131.09
791.884	8067.81
792.217	8032.11
792.549	7940.58
792.882	7909.4
793.214	7942.16
793.546	7940.58
793.879	7911.66
794.211	7809.74
794.543	7803.64
794.875	7745.79
795.207	7819.23
795.539	7717.99
795.871	7748.27
796.203	7680.48
796.535	7617.65
796.867	7660.59
797.198	7603.19
797.53	7595.05
797.862	7552.57
798.193	7576.52
798.525	7518.9
798.856	7493.36
799.188	7435.51
799.519	7319.81
799.85	7340.82
800.182	7367.94
800.513	7304.44
800.844	7270.54
801.175	7302.18
801.506	7318.9
801.837	7175.18
802.168	7182.86
802.499	7175.63
802.83	7122.52
803.161	7096.76
803.491	7102.41
803.822	7145.35
804.153	7091.11
804.483	7012.02
804.814	6984.9
805.145	6988.06
805.475	6978.57
805.805	6967.95
806.136	6894.51
806.466	6928.86
806.796	6898.35
807.126	6804.34
807.457	6776.32
807.787	6833.49
808.117	6733.83
808.447	6687.73
808.777	6756.66
809.107	6750.78
809.436	6667.62
809.766	6750.33
810.096	6686.38
810.426	6592.37
810.755	6623.78
811.085	6599.6
811.414	6595.98
811.744	6551.92
812.073	6538.81
812.403	6530.22
812.732	6464.69
813.061	6487.97
813.39	6429.44
813.719	6423.11
814.049	6416.33
814.378	6384.01
814.707	6324.35
815.036	6363.67
815.365	6361.19
815.693	6318.7
816.022	6259.5
816.351	6261.98
816.68	6250.68
817.008	6264.02
817.337	6189.67
817.665	6156.67
817.994	6242.32
818.322	6163.68
818.651	6102.66
818.979	6125.71
819.307	6148.99
819.636	6072.16
819.964	6064.7
820.292	6129.1
820.62	6091.37
820.948	6076.9
821.276	6055.43
821.604	6070.8
821.932	6058.15
822.259	6057.24
822.587	6101.53
822.915	6045.04
823.243	6011.59
823.57	6005.72
823.898	6026.06
824.225	5978.37
824.553	5977.02
824.88	6047.98
825.207	5991.48
825.535	6008.43
825.862	5992.61
826.189	5962.56
826.516	6024.25
826.843	5964.59
827.17	5949.9
827.497	6004.14
827.824	5965.04
828.151	5955.78
828.478	5971.59
828.805	5914.42
829.131	5938.83
829.458	5924.59
829.785	5892.05
830.111	5931.37
830.438	5939.05
830.764	5877.13
831.09	5940.86
831.417	5862.9
831.743	5897.25
832.069	5849.34
832.395	5853.63
832.722	5895.44
833.048	5846.17
833.374	5867.19
833.7	5846.85
834.026	5869.45
834.351	5837.81
834.677	5805.05
835.003	5842.78
835.329	5840.98
835.654	5814.31
835.98	5750.13
836.306	5795.1
836.631	5736.12
836.956	5821.77
837.282	5738.61
837.607	5757.81
837.932	5694.09
838.258	5671.94
838.583	5746.29
838.908	5674.43
839.233	5646.41
839.558	5649.57
839.883	5639.4
840.208	5591.04
840.533	5644.82
840.858	5619.74
841.182	5599.85
841.507	5594.66
841.832	5549.23
842.156	5557.14
842.481	5566.18
842.805	5559.18
843.13	5509.23
843.454	5501.78
843.778	5447.77
844.103	5476.01
844.427	5489.8
844.751	5444.6
845.075	5483.25
845.399	5406.41
845.723	5380.2
846.047	5415
846.371	5384.72
846.695	5369.58
847.019	5301.1
847.343	5262.23
847.666	5274.89
847.99	5252.74
848.313	5273.08
848.637	5223.59
848.96	5225.85
849.284	5149.7
849.607	5171.16
849.931	5091.17
850.254	5015.24
850.577	5049.81
850.9	5025.86
851.223	4977.95
851.546	4981.56
851.869	4972.75
852.192	4946.99
852.515	4919.19
852.838	4912.41
853.161	4947.89
853.483	4890.49
853.806	4859.99
854.129	4915.35
854.451	4814.11
854.774	4852.75
855.096	4807.33
855.419	4802.81
855.741	4817.95
856.063	4749.71
856.385	4734.56
856.708	4715.58
857.03	4731.85
857.352	4727.11
857.674	4683.72
857.996	4696.83
858.318	4652.98
858.64	4636.49
858.961	4617.73
859.283	4676.94
859.605	4659.99
859.926	4577.51
860.248	4592.2
860.57	4596.94
860.891	4564.63
861.212	4511.29
861.534	4511.75
861.855	4509.49
862.176	4524.4
862.498	4520.79
862.819	4510.39
863.14	4509.71
863.461	4432.2
863.782	4412.54
864.103	4470.84
864.424	4452.76
864.745	4441.92
865.065	4465.42
865.386	4498.64
865.707	4394.91
866.027	4393.78
866.348	4384.74
866.668	4362.15
866.989	4376.61
867.309	4355.59
867.63	4374.12
867.95	4356.5
868.27	4324.63
868.59	4330.28
868.91	4307.91
869.23	4363.5
869.55	4287.12
869.87	4332.32
870.19	4298.64
870.51	4293.9
870.83	4315.82
871.15	4275.82
871.469	4312.65
871.789	4268.59
872.109	4277.18
872.428	4266.1
872.748	4257.29
873.067	4272.88
873.386	4217.97
873.706	4222.71
874.025	4245.54
874.344	4203.73
874.663	4215.03
874.982	4201.47
875.301	4157.18
875.62	4175.48
875.939	4211.87
876.258	4184.97
876.577	4144.98
876.896	4119.89
877.214	4146.78
877.533	4114.47
877.852	4139.1
878.17	4112.43
878.489	4131.42
878.807	4101.14
879.125	4128.03
879.444	4077.41
879.762	4075.6
880.08	4075.83
880.398	4057.75
880.716	4050.51
881.034	4043.28
881.352	4026.56
881.67	4034.47
881.988	4017.97
882.306	4030.85
882.624	4022.95
882.941	3985.21
883.259	3990.86
883.577	3987.24
883.894	3954.25
884.212	3963.29
884.529	3963.29
884.846	3934.36
885.164	3987.47
885.481	3910.41
885.798	3962.16
886.115	3912.67
886.432	3900.91
886.75	3873.34
887.067	3928.48
887.383	3884.64
887.7	3857.07
888.017	3834.25
888.334	3871.31
888.651	3859.33
888.967	3858.66
889.284	3814.14
889.6	3833.57
889.917	3810.07
890.233	3779.79
890.55	3751.09
890.866	3760.35
891.182	3743.4
891.498	3730.75
891.815	3721.71
892.131	3717.42
892.447	3704.54
892.763	3694.37
893.079	3699.34
893.395	3707.7
893.71	3642.84
894.026	3647.14
894.342	3634.48
894.657	3621.83
894.973	3640.58
895.289	3636.51
895.604	3617.76
895.92	3622.73
896.235	3582.28
896.55	3575.73
896.865	3585.44
897.181	3550.42
897.496	3575.95
897.811	3521.49
898.126	3545.22
898.441	3501.15
898.756	3514.48
899.071	3500.47
899.386	3501.6
899.7	3513.13
900.015	3473.58
900.33	3425.22
900.644	3399.91
900.959	3463.41
901.273	3422.06
901.588	3415.96
901.902	3398.78
902.216	3403.3
902.531	3372.34
902.845	3391.55
903.159	3296.41
903.473	3352.91
903.787	3317.43
904.101	3262.29
904.415	3302.06
904.729	3317.88
905.042	3287.6
905.356	3230.2
905.67	3299.8
905.984	3259.8
906.297	3239.01
906.611	3227.71
906.924	3223.87
907.237	3204.21
907.551	3226.58
907.864	3206.7
908.177	3179.35
908.491	3154.72
908.804	3146.81
909.117	3149.3
909.43	3105
909.743	3153.59
910.056	3114.95
910.368	3111.1
910.681	3033.82
910.994	3074.72
911.307	3053.93
911.619	3008.51
911.932	3056.87
912.244	3032.91
912.557	3004.89
912.869	3011.45
913.181	3004.67
913.494	2986.14
913.806	2992.46
914.118	2983.65
914.43	2954.95
914.742	2961.5
915.054	2929.87
915.366	2916.76
915.678	2904.78
915.99	2882.64
916.302	2879.7
916.613	2839.93
916.925	2858.46
917.236	2865.01
917.548	2858
917.859	2851.68
918.171	2834.28
918.482	2813.26
918.794	2808.51
919.105	2793.15
919.416	2780.27
919.727	2745.24
920.038	2753.37
920.349	2761.96
920.66	2708.86
920.971	2734.39
921.282	2721.96
921.593	2672.92
921.903	2652.36
922.214	2676.54
922.525	2686.03
922.835	2672.47
923.146	2645.13
923.456	2653.49
923.767	2633.15
924.077	2643.55
924.387	2601.74
924.697	2640.61
925.008	2605.81
925.318	2632.47
925.628	2609.2
925.938	2531.68
926.248	2561.97
926.558	2574.17
926.867	2542.98
927.177	2506.6
927.487	2547.28
927.796	2486.94
928.106	2510.22
928.416	2495.75
928.725	2482.65
929.034	2470.9
929.344	2478.8
929.653	2506.15
929.962	2429.77
930.271	2434.51
930.581	2442.65
930.89	2450.11
931.199	2410.33
931.508	2427.96
931.817	2392.25
932.125	2389.32
932.434	2395.42
932.743	2332.37
933.051	2362.2
933.36	2333.95
933.669	2336.44
933.977	2286.49
934.286	2293.27
934.594	2307.96
934.902	2296.66
935.21	2297.57
935.519	2314.52
935.827	2285.36
936.135	2305.02
936.443	2265.48
936.751	2248.3
937.059	2244.23
937.367	2234.97
937.674	2243.78
937.982	2226.83
938.29	2227.29
938.597	2268.19
938.905	2192.03
939.213	2218.02
939.52	2184.8
939.827	2195.42
940.135	2149.32
940.442	2155.65
940.749	2172.6
941.056	2182.32
941.363	2114.97
941.67	2158.59
941.977	2122.43
942.284	2111.58
942.591	2115.42
942.898	2105.71
943.205	2101.64
943.511	2095.99
943.818	2073.62
944.125	2070.45
944.431	2070.68
944.738	2071.81
945.044	2075.2
945.35	2037.69
945.657	2024.58
945.963	2043.79
946.269	2007.18
946.575	2028.42
946.881	1987.07
947.187	1998.59
947.493	1980.51
947.799	1979.83
948.105	1942.32
948.41	1945.94
948.716	1957.01
949.022	1950.23
949.327	1944.36
949.633	1920.18
949.938	1941.42
950.244	1926.95
950.549	1886.28
950.854	1882.21
951.16	1924.7
951.465	1884.47
951.77	1891.48
952.075	1871.82
952.38	1855.32
952.685	1876.11
952.99	1877.01
953.294	1851.7
953.599	1820.97
953.904	1824.81
954.209	1836.11
954.513	1814.87
954.818	1821.42
955.122	1808.77
955.426	1802.89
955.731	1784.36
956.035	1810.12
956.339	1784.81
956.643	1782.55
956.948	1777.13
957.252	1754.76
957.556	1768.32
957.86	1727.19
958.163	1747.52
958.467	1752.27
958.771	1761.54
959.075	1714.31
959.378	1729.45
959.682	1711.14
959.985	1710.46
960.289	1689.67
960.592	1713.4
960.896	1697.13
961.199	1687.19
961.502	1684.93
961.805	1653.29
962.108	1660.97
962.411	1667.53
962.714	1655.78
963.017	1671.59
963.32	1622.78
963.623	1636.79
963.926	1632.05
964.228	1613.06
964.531	1621.2
964.833	1601.54
965.136	1608.09
965.438	1600.18
965.741	1592.73
966.043	1594.53
966.345	1566.06
966.648	1544.37
966.95	1573.07
967.252	1587.98
967.554	1555.21
967.856	1543.01
968.158	1531.94
968.46	1526.51
968.761	1547.76
969.063	1519.51
969.365	1541.2
969.666	1511.37
969.968	1485.38
970.269	1519.28
970.571	1515.44
970.872	1482.9
971.174	1472.05
971.475	1470.24
971.776	1493.52
972.077	1472.05
972.378	1479.28
972.679	1482.22
972.98	1472.5
973.281	1458.27
973.582	1496.91
973.883	1447.19
974.183	1402.67
974.484	1407.42
974.785	1427.99
975.085	1428.66
975.386	1425.05
975.686	1409.23
975.986	1402
976.287	1407.42
976.587	1395.67
976.887	1406.52
977.187	1388.21
977.487	1373.98
977.787	1376.24
978.087	1357.93
978.387	1384.37
978.687	1380.98
978.987	1356.12
979.286	1388.21
979.586	1341.21
979.885	1352.73
980.185	1328.33
980.484	1319.06
980.784	1334.88
981.083	1322.23
981.382	1322.9
981.682	1309.34
981.981	1297.82
982.28	1311.15
982.579	1295.11
982.878	1319.97
983.177	1286.07
983.475	1314.09
983.774	1302.56
984.073	1270.25
984.372	1276.58
984.67	1271.15
984.969	1271.15
985.267	1265.96
985.566	1262.57
985.864	1289.46
986.162	1202.45
986.461	1217.14
986.759	1259.63
987.057	1225.5
987.355	1223.02
987.653	1209.46
987.951	1240.19
988.249	1223.02
988.547	1237.71
988.844	1211.95
989.142	1215.34
989.44	1177.6
989.737	1208.56
990.035	1182.57
990.332	1162.46
990.63	1209.23
990.927	1183.47
991.224	1169.69
991.521	1156.35
991.819	1184.15
992.116	1159.97
992.413	1182.79
992.71	1127.2
993.006	1152.96
993.303	1156.35
993.6	1146.86
993.897	1129.69
994.193	1111.61
994.49	1113.64
994.787	1131.5
995.083	1116.81
995.379	1118.61
995.676	1091.72
995.972	1102.57
996.268	1098.73
996.565	1101.89
996.861	1086.07
997.157	1084.72
997.453	1085.85
997.749	1083.14
998.044	1042.91
998.34	1051.27
998.636	1082.46
998.932	1053.53
999.227	1049.69
999.523	1050.82
999.818	1045.85
1000.114	1033.65
1000.409	1044.49
1000.704	1031.16
1001	1037.26
1001.295	1028
1001.59	1036.81
1001.885	1028
1002.18	1025.74
1002.475	991.61
1002.77	990.48
1003.065	989.35
1003.359	1013.31
1003.654	969.69
1003.949	979.86
1004.243	988
1004.538	983.48
1004.832	973.53
1005.127	971.27
1005.421	988.45
1005.715	962.69
1006.009	992.29
1006.304	947.09
1006.598	941.9
1006.892	939.86
1007.186	923.82
1007.48	943.03
1007.773	948.22
1008.067	955.91
1008.361	913.87
1008.655	924.04
1008.948	908.22
1009.242	910.48
1009.535	903.48
1009.829	913.2
1010.122	897.83
1010.415	905.06
1010.708	906.42
1011.001	878.62
1011.295	887.43
1011.588	877.04
1011.881	868
1012.173	856.25
1012.466	878.17
1012.759	870.03
1013.052	861.22
1013.344	870.71
1013.637	843.37
1013.93	859.19
1014.222	852.86
1014.514	834.1
1014.807	845.63
1015.099	821.22
1015.391	842.46
1015.683	825.29
1015.976	830.26
1016.268	804.72
1016.56	823.71
1016.851	811.73
1017.143	796.59
1017.435	825.29
1017.727	801.11
1018.018	775.35
1018.31	809.47
1018.602	794.78
1018.893	781.9
1019.185	786.42
1019.476	772.18
1019.767	778.74
1020.058	779.87
1020.35	766.99
1020.641	757.95
1020.932	748.45
1021.223	749.58
1021.514	754.56
1021.804	739.87
1022.095	745.97
1022.386	755.91
1022.677	736.25
1022.967	724.05
1023.258	722.01
1023.548	711.62
1023.839	732.18
1024.129	712.3
1024.419	750.04
1024.709	712.98
1025	726.53
1025.29	696.48
1025.58	704.39
1025.87	721.11
1026.16	706.2
1026.449	698.74
1026.739	697.83
1027.029	672.3
1027.319	680.21
1027.608	686.08
1027.898	677.95
1028.187	656.03
1028.477	705.74
1028.766	676.82
1029.055	671.85
1029.344	655.8
1029.634	651.96
1029.923	670.72
1030.212	630.72
1030.501	649.93
1030.79	661
1031.078	655.8
1031.367	634.56
1031.656	622.81
1031.945	602.24
1032.233	646.54
1032.522	635.92
1032.81	625.52
1033.099	625.97
1033.387	617.16
1033.675	618.06
1033.963	618.51
1034.251	620.1
1034.54	626.42
1034.828	605.18
1035.116	604.28
1035.403	613.09
1035.691	610.61
1035.979	610.38
1036.267	582.58
1036.554	597.05
1036.842	583.04
1037.129	584.39
1037.417	568.12
1037.704	575.58
1037.992	588.01
1038.279	583.49
1038.566	567.22
1038.853	567.22
1039.14	567.22
