Data from brown_tile_FLMS001491_001.txt Node
Date: Tue Feb 07 10:36:58 GMT 2017
User: dcchb
Spectrometer: FLMS00149
Trigger mode: 0
Integration Time (sec): 2.000000E-2
Scans to average: 10
Electric dark correction enabled: true
Nonlinearity correction enabled: false
Boxcar width: 0
XAxis mode: Wavelengths
Number of Pixels in Spectrum: 2048
>>>>>Begin Spectral Data<<<<<
341.393	-4.93
341.776	-4.93
342.16	-4.93
342.543	-53.52
342.927	-61.2
343.31	-63.46
343.693	-81.31
344.077	-60.3
344.46	-65.94
344.843	-49.22
345.226	-48.32
345.61	-31.14
345.993	-13.29
346.376	-14.42
346.759	27.61
347.142	41.85
347.525	33.26
347.908	56.31
348.291	80.27
348.674	86.59
349.057	101.51
349.44	124.56
349.823	127.5
350.206	148.51
350.588	174.28
350.971	196.42
351.354	215.4
351.737	211.56
352.119	235.74
352.502	243.65
352.884	256.98
353.267	266.25
353.65	271.45
354.032	291.56
354.414	291.79
354.797	305.12
355.179	315.97
355.562	292.01
355.944	321.16
356.326	301.28
356.709	306.47
357.091	318.23
357.473	348.51
357.855	302.86
358.238	300.83
358.62	301.96
359.002	343.54
359.384	318
359.766	319.58
360.148	307.6
360.53	334.04
360.912	328.85
361.294	330.66
361.676	327.94
362.057	315.74
362.439	325.23
362.821	305.35
363.203	311.22
363.584	335.4
363.966	309.86
364.348	320.71
364.729	317.1
365.111	305.12
365.493	289.07
365.874	309.86
366.256	297.89
366.637	304.89
367.019	294.72
367.4	291.56
367.781	309.19
368.163	305.57
368.544	302.63
368.925	303.09
369.306	280.94
369.688	279.81
370.069	288.62
370.45	289.75
370.831	286.59
371.212	317.32
371.593	318.23
371.974	316.64
372.355	301.5
372.736	314.16
373.117	297.21
373.498	295.85
373.879	302.41
374.26	318.23
374.641	309.64
375.021	309.64
375.402	302.18
375.783	292.46
376.163	301.73
376.544	316.42
376.925	323.42
377.305	319.81
377.686	304.44
378.066	310.32
378.447	311.45
378.827	306.25
379.208	320.49
379.588	296.76
379.968	318.68
380.349	324.78
380.729	333.59
381.109	319.13
381.489	309.19
381.87	329.3
382.25	314.61
382.63	302.63
383.01	319.81
383.39	333.14
383.77	333.37
384.15	337.21
384.53	346.47
384.91	335.17
385.29	346.47
385.67	343.08
386.049	324.33
386.429	342.63
386.809	350.09
387.189	336.3
387.568	341.5
387.948	340.6
388.328	341.05
388.707	352.8
389.087	330.66
389.466	363.87
389.846	330.2
390.225	329.75
390.605	348.51
390.984	352.35
391.363	358
391.743	358.9
392.122	357.1
392.501	364.55
392.881	366.81
393.26	347.15
393.639	364.1
394.018	383.08
394.397	353.03
394.776	382.18
395.155	341.95
395.534	354.61
395.913	360.48
396.292	377.89
396.671	370.88
397.05	358
397.429	381.95
397.808	379.92
398.186	367.04
398.565	367.94
398.944	396.87
399.323	375.17
399.701	372.24
400.08	381.05
400.458	374.5
400.837	389.41
401.215	381.73
401.594	394.61
401.972	389.64
402.351	401.39
402.729	397.32
403.107	406.36
403.486	386.92
403.864	407.49
404.242	404.55
404.62	413.82
404.999	386.47
405.377	393.48
405.755	422.18
406.133	409.52
406.511	409.52
406.889	426.7
407.267	403.42
407.645	429.41
408.023	421.5
408.401	432.12
408.779	453.14
409.156	435.74
409.534	421.95
409.912	469.41
410.29	450.88
410.667	442.29
411.045	435.29
411.422	442.52
411.8	455.17
412.178	447.71
412.555	464.66
412.933	452.69
413.31	445
413.687	449.07
414.065	463.53
414.442	467.83
414.819	446.36
415.197	484.55
415.574	490.65
415.951	466.02
416.328	480.26
416.705	481.61
417.082	481.16
417.46	481.16
417.837	486.13
418.214	491.78
418.591	478.9
418.967	503.98
419.344	505.11
419.721	492.46
420.098	495.62
420.475	484.32
420.852	530.2
421.228	483.87
421.605	498.56
421.982	513.7
422.358	517.54
422.735	525.9
423.111	504.44
423.488	516.86
423.864	501.5
424.241	567.03
424.617	539.92
424.994	533.81
425.37	538.11
425.746	545.56
426.123	565.9
426.499	555.73
426.875	546.92
427.251	563.87
427.627	570.2
428.003	590.31
428.379	578.33
428.756	574.04
429.132	582.4
429.507	587.15
429.883	583.76
430.259	571.1
430.635	602.29
431.011	595.05
431.387	614.49
431.763	601.83
432.138	641.38
432.514	624.88
432.89	619.69
433.265	636.64
433.641	632.79
434.016	645.68
434.392	652.23
434.767	648.16
435.143	660.36
435.518	676.86
435.894	681.61
436.269	701.49
436.644	672.12
437.02	684.09
437.395	694.49
437.77	688.16
438.145	708.05
438.52	685.22
438.895	703.07
439.271	712.34
439.646	751.21
440.021	720.93
440.395	703.53
440.77	719.12
441.145	742.4
441.52	736.07
441.895	728.84
442.27	740.59
442.645	737.42
443.019	763.86
443.394	726.58
443.769	760.02
444.143	736.75
444.518	795.05
444.892	760.47
445.267	761.38
445.641	776.75
446.016	717.54
446.39	760.25
446.764	779.91
447.139	779.23
447.513	779.46
447.887	790.53
448.262	804.32
448.636	798.89
449.01	808.16
449.384	813.81
449.758	829.85
450.132	799.8
450.506	816.74
450.88	841.15
451.254	830.08
451.628	825.78
452.002	856.07
452.376	860.13
452.75	876.18
453.123	868.27
453.497	882.96
453.871	877.53
454.244	889.06
454.618	881.6
454.992	895.84
455.365	895.61
455.739	917.31
456.112	923.63
456.486	970.64
456.859	922.05
457.232	960.02
457.606	964.54
457.979	979.23
458.352	962.5
458.725	980.13
459.099	1014.7
459.472	994.37
459.845	1005.21
460.218	1042.73
460.591	1028.04
460.964	1053.35
461.337	1073.91
461.71	1054.7
462.083	1076.62
462.456	1079.34
462.829	1092.89
463.201	1091.31
463.574	1105.32
463.947	1134.02
464.32	1157.75
464.692	1112.33
465.065	1168.6
465.438	1171.76
465.81	1161.82
466.183	1190.75
466.555	1195.27
466.928	1239.56
467.3	1221.93
467.672	1250.4
468.045	1252.21
468.417	1269.61
468.789	1278.88
469.161	1299.22
469.534	1288.14
469.906	1305.77
470.278	1319.56
470.65	1359.55
471.022	1363.4
471.394	1371.08
471.766	1385.09
472.138	1413.34
472.51	1411.53
472.882	1453.79
473.253	1432.55
473.625	1446.33
473.997	1505.77
474.369	1482.49
474.74	1490.62
475.112	1535.37
475.484	1546.22
475.855	1555.26
476.227	1603.16
476.598	1626.44
476.97	1632.54
477.341	1686.33
477.713	1695.37
478.084	1704.63
478.455	1718.87
478.827	1812.42
479.198	1792.76
479.569	1813.78
479.94	1848.81
480.311	1865.98
480.682	1900.78
481.053	1923.16
481.424	1958.18
481.795	1948.01
482.166	1979.2
482.537	2009.26
482.908	2069.14
483.279	2071.63
483.65	2122.92
484.021	2175.35
484.391	2166.31
484.762	2194.11
485.133	2233.66
485.503	2221.45
485.874	2291.73
486.244	2293.99
486.615	2320.89
486.985	2305.97
487.356	2370.6
487.726	2413.09
488.097	2436.81
488.467	2435.23
488.837	2509.58
489.207	2557.94
489.578	2579.41
489.948	2579.64
490.318	2635
490.688	2636.81
491.058	2663.93
491.428	2726.98
491.798	2714.32
492.168	2790.48
492.538	2803.81
492.908	2801.1
493.278	2850.59
493.648	2880.87
494.017	2858.27
494.387	2922.68
494.757	2941.43
495.126	2955.22
495.496	2958.83
495.866	2982.56
496.235	3016.23
496.605	3078.83
496.974	3062.33
497.344	3110.47
497.713	3094.2
498.082	3156.12
498.452	3195.21
498.821	3179.62
499.19	3197.47
499.559	3220.07
499.928	3211.03
500.298	3249.67
500.667	3324.7
501.036	3265.95
501.405	3358.6
501.774	3392.72
502.143	3408.09
502.512	3415.77
502.88	3464.81
503.249	3491.25
503.618	3437.24
503.987	3459.84
504.356	3482.44
504.724	3495.77
505.093	3521.08
505.462	3623.68
505.83	3604.47
506.199	3570.8
506.567	3649.89
506.936	3663.22
507.304	3667.06
507.672	3757.23
508.041	3728.08
508.409	3784.12
508.777	3730.79
509.145	3827.06
509.514	3785.25
509.882	3857.34
510.25	3901.18
510.618	3930.11
510.986	3914.29
511.354	3957
511.722	3944.57
512.09	4027.06
512.458	4063.89
512.826	4099.14
513.193	4067.51
513.561	4123.1
513.929	4147.5
514.297	4185.7
514.664	4245.81
515.032	4194.73
515.4	4253.49
515.767	4295.75
516.135	4302.53
516.502	4301.85
516.869	4377.1
517.237	4411.23
517.604	4409.64
517.972	4434.28
518.339	4484.44
518.706	4484.22
519.073	4521.96
519.44	4561.5
519.808	4639.47
520.175	4664.55
520.542	4694.83
520.909	4676.98
521.276	4710.2
521.643	4774.61
522.009	4816.64
522.376	4813.7
522.743	4853.02
523.11	4958.33
523.477	4985.22
523.843	4989.97
524.21	5041.04
524.577	5140.7
524.943	5145.22
525.31	5121.94
525.676	5248.94
526.043	5232.67
526.409	5294.82
526.776	5332.33
527.142	5321.94
527.508	5382.73
527.874	5383.18
528.241	5446.45
528.607	5538.43
528.973	5508.15
529.339	5585.88
529.705	5627.69
530.071	5659.1
530.437	5735.94
530.803	5741.59
531.169	5834.69
531.535	5772.77
531.901	5789.27
532.267	5873.33
532.632	5909.49
532.998	5886.22
533.364	5952.88
533.73	5974.35
534.095	6036.27
534.461	6065.19
534.826	6113.1
535.192	6129.37
535.557	6157.85
535.923	6204.4
536.288	6216.15
536.653	6262.7
537.019	6244.62
537.384	6269.93
537.749	6366.2
538.114	6408.46
538.479	6441.91
538.845	6473.54
539.21	6449.82
539.575	6531.17
539.94	6553.32
540.305	6606.2
540.67	6612.98
541.034	6622.47
541.399	6661.11
541.764	6729.58
542.129	6754.22
542.494	6765.74
542.858	6827.43
543.223	6850.94
543.587	6927.77
543.952	6915.57
544.316	7000.54
544.681	6935.91
545.045	7054.77
545.41	7059.29
545.774	7084.6
546.138	7177.03
546.503	7149.01
546.867	7229.46
547.231	7280.98
547.595	7365.05
547.959	7322.11
548.324	7351.71
548.688	7441.2
549.052	7485.95
549.416	7516.45
549.779	7568.2
550.143	7599.16
550.507	7673.29
550.871	7731.59
551.235	7740.4
551.599	7864.92
551.962	7923.9
552.326	7905.82
552.689	7980.85
553.053	7984.47
553.417	8055.42
553.78	8172.03
554.143	8211.58
554.507	8237.79
554.87	8350.33
555.234	8431.01
555.597	8396.21
555.96	8516.88
556.323	8537.9
556.686	8605.69
557.05	8638.23
557.413	8645.46
557.776	8749.64
558.139	8869.64
558.502	8895.18
558.865	8952.8
559.228	9121.38
559.59	9143.76
559.953	9163.87
560.316	9286.58
560.679	9368.61
561.041	9481.37
561.404	9519.79
561.767	9632.78
562.129	9694.02
562.492	9761.37
562.854	9852.66
563.217	9875.71
563.579	10018.54
563.941	10102.6
564.304	10187.57
564.666	10255.37
565.028	10355.7
565.39	10417.4
565.753	10470.95
566.115	10606.32
566.477	10650.84
566.839	10786.43
567.201	10816.93
567.563	10901
567.925	11056.93
568.287	11092.41
568.648	11195
569.01	11278.16
569.372	11396.8
569.734	11401.1
570.095	11477.93
570.457	11676.8
570.819	11634.31
571.18	11831.6
571.542	11954.98
571.903	11856.45
572.265	12013.74
572.626	12211.7
572.987	12270.45
573.349	12296.89
573.71	12407.85
574.071	12526.04
574.432	12597.45
574.794	12689.43
575.155	12744.11
575.516	12812.13
575.877	12912.92
576.238	13030.43
576.599	13150.66
576.96	13229.75
577.32	13225.23
577.681	13283.31
578.042	13433.36
578.403	13486.92
578.763	13492.12
579.124	13563.75
579.485	13725.56
579.845	13806.91
580.206	13753.81
580.566	13883.97
580.927	13982.05
581.287	14073.12
581.648	14064.76
582.008	14224.08
582.368	14234.24
582.728	14309.27
583.089	14373.68
583.449	14374.81
583.809	14398.53
584.169	14519.21
584.529	14603.95
584.889	14747.23
585.249	14689.83
585.609	14665.65
585.969	14813.44
586.329	14778.41
586.688	14854.34
587.048	14935.47
587.408	14959.65
587.768	14989.7
588.127	15040.32
588.487	15158.29
588.846	15191.28
589.206	15173.2
589.565	15185.18
589.925	15264.95
590.284	15215.24
590.643	15402.58
591.003	15367.77
591.362	15478.96
591.721	15409.58
592.08	15528.67
592.44	15714.43
592.799	15647.77
593.158	15640.08
593.517	15638.73
593.876	15744.94
594.235	15638.5
594.593	15800.98
594.952	15845.05
595.311	15876.69
595.67	15926.18
596.029	16072.39
596.387	16119.17
596.746	16148.32
597.104	16054.31
597.463	16139.05
597.822	16302.89
598.18	16283.46
598.538	16180.86
598.897	16252.5
599.255	16281.87
599.613	16522.32
599.972	16361.19
600.33	16543.34
600.688	16457.46
601.046	16581.08
601.404	16597.8
601.762	16619.72
602.12	16777.68
602.478	16729.09
602.836	16689.55
603.194	16676.21
603.552	16759.38
603.91	16741.3
604.268	16855.87
604.625	16807.06
604.983	16962.31
605.341	16851.58
605.698	17047.28
606.056	17134.51
606.413	16926.38
606.771	17049.76
607.128	17168.18
607.485	17027.17
607.843	17129.76
608.2	17267.16
608.557	17278.46
608.914	17276.65
609.272	17428.51
609.629	17392.13
609.986	17491.56
610.343	17438.45
610.7	17546.02
611.057	17515.74
611.414	17553.48
611.771	17555.96
612.127	17713.7
612.484	17685.68
612.841	17743.3
613.198	17650.88
613.554	17713.7
613.911	17881.15
614.267	17788.73
614.624	17813.59
614.98	17846.13
615.337	17885.22
615.693	17905.11
616.05	17807.94
616.406	18073.24
616.762	17979.68
617.118	17875.28
617.475	17921.15
617.831	18139.9
618.187	18117.98
618.543	18171.54
618.899	18235.72
619.255	18219
619.611	18200.69
619.967	18263.97
620.323	18402.95
620.678	18349.62
621.034	18287.47
621.39	18323.63
621.746	18182.16
622.101	18413.57
622.457	18283.4
622.812	18360.46
623.168	18386.23
623.523	18379.9
623.879	18475.71
624.234	18409.95
624.589	18319.56
624.945	18444.3
625.3	18460.35
625.655	18447.69
626.01	18482.72
626.365	18449.27
626.72	18461.93
627.075	18511.87
627.43	18379.45
627.785	18414.7
628.14	18452.89
628.495	18529.05
628.85	18483.17
629.205	18389.39
629.559	18535.37
629.914	18344.42
630.269	18474.58
630.623	18404.3
630.978	18306.68
631.332	18443.63
631.687	18457.41
632.041	18363.63
632.396	18445.89
632.75	18352.33
633.104	18424.64
633.459	18336.51
633.813	18352.1
634.167	18310.75
634.521	18257.87
634.875	18203.18
635.229	18288.15
635.583	18231.2
635.937	18174.71
636.291	18266.68
636.645	18178.77
636.999	18115.05
637.352	18180.36
637.706	18194.82
638.06	18331.09
638.413	18202.05
638.767	18124.99
639.121	18171.54
639.474	18027.36
639.828	18113.01
640.181	18070.53
640.534	18095.16
640.888	18060.13
641.241	17994.6
641.594	18012
641.947	18120.7
642.301	17964.77
642.654	17958.67
643.007	18101.71
643.36	17984.65
643.713	18014.94
644.066	18039.57
644.419	17886.13
644.771	17888.39
645.124	17597.32
645.477	17621.5
645.83	17475.29
646.182	17414.73
646.535	17410.43
646.888	17481.16
647.24	17290.21
647.593	17503.08
647.945	17421.73
648.298	17449.98
648.65	17285.92
649.002	17204.56
649.355	17416.53
649.707	17342.86
650.059	17498.79
650.411	17769.52
650.763	17638.45
651.115	17844.54
651.467	17812.23
651.819	17773.81
652.171	17788.05
652.523	17734.27
652.875	17710.09
653.227	17689.29
653.578	17755.06
653.93	17845
654.282	17651.1
654.633	17521.39
654.985	17756.64
655.337	17637.54
655.688	17687.94
656.039	17717.32
656.391	17571.78
656.742	17571.33
657.094	17580.15
657.445	17695.85
657.796	17683.19
658.147	17602.74
658.498	17615.85
658.849	17708.5
659.2	17653.59
659.551	17631.44
659.902	17759.58
660.253	17640.48
660.604	17744.66
660.955	17568.62
661.306	17656.08
661.656	17609.75
662.007	17615.62
662.358	17570.65
662.708	17692.91
663.059	17590.09
663.409	17527.04
663.76	17716.64
664.11	17627.83
664.461	17593.7
664.811	17659.01
665.161	17735.85
665.511	17683.42
665.862	17604.55
666.212	17724.32
666.562	17801.16
666.912	17718.67
667.262	17692.01
667.612	17671.44
667.962	17703.08
668.312	17662.63
668.662	17854.71
669.011	17744.43
669.361	17711.44
669.711	17706.24
670.06	17697.2
670.41	17709.41
670.76	17712.35
671.109	17794.6
671.459	17715.96
671.808	17641.84
672.157	17737.66
672.507	17650.88
672.856	17600.03
673.205	17723.64
673.554	17774.26
673.904	17718.67
674.253	17790.54
674.602	17751.67
674.951	17503.08
675.3	17378.12
675.649	17672.57
675.998	17673.7
676.346	17715.06
676.695	17734.49
677.044	17546.25
677.393	17661.72
677.741	17658.56
678.09	17780.59
678.438	17600.71
678.787	17682.97
679.135	17790.99
679.484	17578.34
679.832	17717.99
680.181	17518.68
680.529	17660.82
680.877	17619.01
681.225	17566.13
681.573	17667.6
681.922	17637.09
682.27	17572.46
682.618	17600.48
682.966	17594.38
683.314	17528.62
683.661	17593.93
684.009	17513.48
684.357	17403.43
684.705	17450.88
685.053	17448.17
685.4	17486.59
685.748	17327.27
686.095	17377.66
686.443	17389.87
686.79	17381.28
687.138	17308.29
687.485	17343.09
687.832	17235.97
688.18	17366.14
688.527	17248.85
688.874	17283.2
689.221	17225.8
689.568	17150.78
689.915	17150.78
690.262	17220.61
690.609	17111.68
690.956	17133.6
691.303	17159.59
691.65	17022.42
691.997	17105.13
692.344	16951.69
692.69	16884.8
693.037	17068.52
693.383	16886.15
693.73	16917.11
694.077	16793.73
694.423	16846.83
694.769	16801.63
695.116	16697.68
695.462	16741.07
695.808	16657.68
696.155	16721.18
696.501	16585.14
696.847	16633.05
697.193	16457.01
697.539	16650.45
697.885	16474.41
698.231	16412.04
698.577	16390.57
698.923	16385.6
699.269	16245.72
699.614	16291.59
699.96	16265.83
700.306	16269.67
700.651	16172.72
700.997	16217.02
701.342	16186.96
701.688	16250.01
702.033	16068.77
702.379	16191.93
702.724	16148.09
703.069	16194.42
703.415	16011.6
703.76	16034.42
704.105	16054.31
704.45	16049.56
704.795	15914.43
705.14	15950.13
705.485	15902.9
705.83	15783.81
706.175	15845.95
706.52	15836.24
706.865	15794.43
707.209	15711.27
707.554	15784.94
707.899	15730.7
708.243	15719.4
708.588	15762.34
708.932	15604.6
709.277	15668.78
709.621	15607.77
709.966	15630.82
710.31	15593.08
710.654	15531.84
710.998	15524.15
711.342	15582.68
711.687	15499.75
712.031	15393.08
712.375	15396.47
712.719	15523.93
713.063	15355.34
713.407	15401.22
713.75	15334.55
714.094	15430.37
714.438	15312.41
714.782	15311.28
715.125	15279.87
715.469	15362.8
715.812	15225.4
716.156	15281
716.499	15149.02
716.843	15314.44
717.186	15124.62
717.53	15295.01
717.873	15250.94
718.216	15146.76
718.559	15152.19
718.902	15093.43
719.246	15036.03
719.589	15134.56
719.932	14979.54
720.275	14947.22
720.617	14971.63
720.96	15078.74
721.303	14959.2
721.646	14933.44
721.989	14864.51
722.331	14970.27
722.674	14864.28
723.016	14957.62
723.359	15005.75
723.701	14880.33
724.044	14778.86
724.386	14737.73
724.729	14887.33
725.071	14777.96
725.413	14800.33
725.755	14835.36
726.097	14772.99
726.439	14671.97
726.782	14718.75
727.124	14804.62
727.465	14644.63
727.807	14653.89
728.149	14578.87
728.491	14627.68
728.833	14650.73
729.175	14651.18
729.516	14581.81
729.858	14582.94
730.199	14535.71
730.541	14643.27
730.882	14582.03
731.224	14574.35
731.565	14467.23
731.906	14509.04
732.248	14554.01
732.589	14543.39
732.93	14470.85
733.271	14495.93
733.612	14483.28
733.953	14492.32
734.294	14432.21
734.635	14433.11
734.976	14430.62
735.317	14370.51
735.658	14375.48
735.999	14373.68
736.339	14367.57
736.68	14444.86
737.021	14312.21
737.361	14308.37
737.702	14375.03
738.042	14307.91
738.383	14225.21
738.723	14279.67
739.063	14219.1
739.404	14293.68
739.744	14150.18
740.084	14149.5
740.424	14130.52
740.764	14201.48
741.104	14189.95
741.444	14055.04
741.784	14109.5
742.124	14125.32
742.464	14072.21
742.804	14014.36
743.143	14034.7
743.483	14042.16
743.823	13936.63
744.162	13973.69
744.502	13934.59
744.841	13874.48
745.181	13953.8
745.52	13852.56
745.86	13947.7
746.199	13838.32
746.538	13868.38
746.877	13852.56
747.216	13921.26
747.556	13814.37
747.895	13720.81
748.234	13762.62
748.573	13723.75
748.911	13680.59
749.25	13677.65
749.589	13634.03
749.928	13668.84
750.267	13689.85
750.605	13655.95
750.944	13575.5
751.283	13488.05
751.621	13483.98
751.96	13494.83
752.298	13497.31
752.636	13454.6
752.975	13463.87
753.313	13360.14
753.651	13378
753.989	13357.43
754.327	13336.87
754.666	13231.56
755.004	13255.06
755.342	13286.25
755.679	13195.18
756.017	13075.18
756.355	13172.13
756.693	13074.95
757.031	13189.98
757.368	12992.7
757.706	13128.74
758.044	12929.19
758.381	12982.53
758.719	12836.54
759.056	12851.91
759.394	12836.54
759.731	12753.83
760.068	12740.5
760.405	12715.87
760.743	12683.32
761.08	12668.41
761.417	12643.55
761.754	12601.52
762.091	12515.87
762.428	12490.79
762.765	12464.8
763.102	12481.3
763.438	12440.39
763.775	12314.97
764.112	12363.56
764.449	12352.26
764.785	12302.09
765.122	12190.91
765.458	12199.95
765.795	12182.09
766.131	12185.71
766.467	12093.28
766.804	12055.32
767.14	11898.03
767.476	11912.72
767.812	11900.75
768.148	11851.03
768.485	11861.2
768.821	11751.15
769.157	11698.72
769.492	11633.86
769.828	11719.96
770.164	11539.4
770.5	11615.78
770.836	11465.73
771.171	11460.76
771.507	11430.48
771.842	11311.84
772.178	11317.48
772.513	11299.63
772.849	11217.83
773.184	11227.54
773.519	11178.28
773.855	11072.75
774.19	11126.76
774.525	11093.76
774.86	11055.8
775.195	11062.8
775.53	10909.59
775.865	10966.99
776.2	10804.73
776.535	10765.86
776.87	10700.33
777.205	10655.13
777.539	10661.68
777.874	10644.73
778.209	10576.26
778.543	10538.07
778.878	10517.73
779.212	10539.65
779.547	10395.25
779.881	10429.82
780.215	10364.06
780.55	10367.68
780.884	10244.97
781.218	10247.91
781.552	10245.65
781.886	10140.34
782.22	10109.83
782.554	10113.45
782.888	10018.08
783.222	9958.42
783.556	9899.44
783.889	9869.61
784.223	9735.38
784.557	9797.3
784.89	9809.73
785.224	9746.23
785.557	9707.13
785.891	9612.22
786.224	9617.87
786.558	9622.39
786.891	9565.89
787.224	9476.63
787.557	9462.62
787.891	9456.97
788.224	9434.37
788.557	9381.04
788.89	9386.01
789.223	9316.63
789.556	9308.95
789.888	9212.68
790.221	9208.61
790.554	9153.25
790.887	9159.35
791.219	9087.94
791.552	9116.86
791.884	9005
792.217	8932.46
792.549	8980.15
792.882	8879.13
793.214	8891.11
793.546	8903.76
793.879	8825.8
794.211	8795.07
794.543	8778.34
794.875	8739.47
795.207	8778.12
795.539	8671.23
795.871	8682.07
796.203	8584.68
796.535	8477.79
796.867	8579.03
797.198	8520.72
797.53	8477.56
797.862	8452.02
798.193	8464.9
798.525	8426.04
798.856	8423.1
799.188	8295.64
799.519	8267.85
799.85	8219.71
800.182	8215.19
800.513	8198.02
800.844	8144.01
801.175	8140.39
801.506	8182.65
801.837	8064.69
802.168	8115.54
802.499	8047.97
802.83	7997.12
803.161	7983.56
803.491	7938.36
803.822	7961.41
804.153	7942.43
804.483	7856.33
804.814	7798.93
805.145	7846.62
805.475	7820.18
805.805	7752.15
806.136	7701.99
806.466	7786.73
806.796	7746.28
807.126	7625.15
807.457	7635.55
807.787	7595.1
808.117	7542.22
808.447	7536.34
808.777	7568.2
809.107	7485.72
809.436	7420.41
809.766	7499.05
810.096	7426.06
810.426	7438.04
810.755	7377.25
811.085	7337.7
811.414	7356.23
811.744	7248.89
812.073	7261.55
812.403	7211.6
812.732	7209.34
813.061	7229.46
813.39	7152.4
813.719	7166.41
814.049	7222
814.378	7187.65
814.707	7140.42
815.036	7127.76
815.365	7082.12
815.693	7025.62
816.022	7025.62
816.351	6983.36
816.68	6973.19
817.008	6986.53
817.337	6896.13
817.665	6904.27
817.994	6842.12
818.322	6896.81
818.651	6879.41
818.979	6858.62
819.307	6818.62
819.636	6825.63
819.964	6738.62
820.292	6852.29
820.62	6743.37
820.948	6702.69
821.276	6753.54
821.604	6753.31
821.932	6769.81
822.259	6767.1
822.587	6706.53
822.915	6670.6
823.243	6765.51
823.57	6687.55
823.898	6649.81
824.225	6688.45
824.553	6678.28
824.88	6690.71
825.207	6716.48
825.535	6621.56
825.862	6698.62
826.189	6640.55
826.516	6685.06
826.843	6683.26
827.17	6629.25
827.497	6688.91
827.824	6682.8
828.151	6685.29
828.478	6611.62
828.805	6648.46
829.131	6574.56
829.458	6596.03
829.785	6572.75
830.111	6583.6
830.438	6603.48
830.764	6607.33
831.09	6621.79
831.417	6608
831.743	6562.36
832.069	6535.24
832.395	6565.29
832.722	6549.25
833.048	6583.15
833.374	6617.72
833.7	6448.01
834.026	6502.92
834.351	6512.41
834.677	6582.69
835.003	6468.57
835.329	6500.66
835.654	6455.01
835.98	6446.43
836.306	6423.38
836.631	6437.61
836.956	6454.79
837.282	6450.95
837.607	6391.06
837.932	6414.56
838.258	6390.16
838.583	6348.8
838.908	6337.28
839.233	6311.51
839.558	6303.83
839.883	6312.19
840.208	6267.9
840.533	6305.87
840.858	6269.26
841.182	6323.72
841.507	6222.7
841.832	6256.15
842.156	6199.2
842.481	6186.09
842.805	6174.12
843.13	6188.35
843.454	6187
843.778	6137.06
844.103	6144.29
844.427	6143.61
844.751	6116.49
845.075	6093.44
845.399	6081.46
845.723	6017.74
846.047	6053.67
846.371	5966.44
846.695	5974.35
847.019	5849.15
847.343	5918.3
847.666	5872.2
847.99	5843.5
848.313	5774.13
848.637	5833.56
848.96	5748.59
849.284	5792.21
849.607	5749.5
849.931	5707.24
850.254	5689.84
850.577	5636.05
850.9	5625.66
851.223	5594.25
851.546	5593.57
851.869	5547.69
852.192	5520.12
852.515	5501.59
852.838	5509.73
853.161	5511.76
853.483	5458.66
853.806	5479.22
854.129	5439.67
854.451	5413.01
854.774	5405.1
855.096	5354.7
855.419	5377.53
855.741	5376.4
856.063	5281.26
856.385	5263.18
856.708	5300.24
857.03	5307.7
857.352	5254.37
857.674	5213.92
857.996	5208.27
858.318	5192.9
858.64	5212.56
858.961	5217.76
859.283	5130.75
859.605	5107.03
859.926	5134.37
860.248	5130.98
860.57	5081.49
860.891	5104.31
861.212	5089.85
861.534	5067.03
861.855	5094.15
862.176	5053.92
862.498	5008.5
862.819	5043.3
863.14	5038.78
863.461	5012.79
863.782	4990.42
864.103	4994.04
864.424	4998.1
864.745	4972.12
865.065	4902.96
865.386	4888.95
865.707	4973.47
866.027	4943.64
866.348	4935.73
866.668	4935.28
866.989	4880.14
867.309	4883.76
867.63	4877.88
867.95	4818.22
868.27	4802.18
868.59	4834.72
868.91	4846.69
869.23	4868.84
869.55	4782.52
869.87	4814.15
870.19	4806.02
870.51	4783.42
870.83	4820.25
871.15	4779.13
871.469	4790.2
871.789	4768.96
872.109	4759.01
872.428	4736.87
872.748	4716.3
873.067	4717.66
873.386	4725.12
873.706	4714.72
874.025	4714.27
874.344	4688.28
874.663	4689.64
874.982	4676.98
875.301	4708.85
875.62	4674.95
875.939	4634.95
876.258	4635.63
876.577	4623.42
876.896	4629.98
877.214	4585.23
877.533	4586.59
877.852	4589.07
878.17	4585.91
878.489	4615.06
878.807	4617.1
879.125	4578.23
879.444	4596.53
879.762	4540.71
880.08	4575.06
880.398	4561.28
880.716	4534.84
881.034	4523.09
881.352	4498.68
881.67	4514.5
881.988	4537.1
882.306	4500.94
882.624	4494.61
882.941	4434.28
883.259	4445.12
883.577	4428.85
883.894	4418.46
884.212	4420.49
884.529	4435.86
884.846	4399.7
885.164	4364.45
885.481	4401.73
885.798	4398.57
886.115	4368.29
886.432	4335.75
886.75	4354.28
887.067	4333.49
887.383	4274.73
887.7	4327.61
888.017	4291.45
888.334	4288.07
888.651	4321.28
888.967	4296.43
889.284	4257.11
889.6	4279.25
889.917	4236.09
890.233	4225.24
890.55	4180.5
890.866	4194.28
891.182	4175.98
891.498	4122.65
891.815	4140.27
892.131	4133.27
892.447	4131.69
892.763	4133.04
893.079	4116.32
893.395	4091.23
893.71	4107.96
894.026	4085.81
894.342	4078.13
894.657	4051.01
894.973	4043.78
895.289	3989.77
895.604	4057.79
895.92	4001.29
896.235	3969.88
896.55	3994.06
896.865	3991.58
897.181	3959.03
897.496	3959.03
897.811	3930.56
898.126	3901.41
898.441	3913.16
898.756	3877.23
899.071	3886.72
899.386	3861.18
899.7	3833.16
900.015	3820.73
900.33	3812.6
900.644	3767.4
900.959	3807.17
901.273	3818.7
901.588	3751.36
901.902	3733.28
902.216	3749.32
902.531	3764.01
902.845	3743.67
903.159	3698.48
903.473	3684.01
903.787	3682.43
904.101	3676.78
904.415	3679.72
904.729	3613.51
905.042	3633.17
905.356	3619.16
905.67	3591.36
905.984	3602.89
906.297	3578.25
906.611	3572.6
906.924	3582.32
907.237	3570.8
907.551	3524.24
907.864	3495.54
908.177	3533.28
908.491	3527.86
908.804	3488.54
909.117	3465.49
909.43	3402.44
909.743	3413.74
910.056	3405.38
910.368	3435.43
910.681	3401.31
910.994	3433.17
911.307	3388.2
911.619	3332.16
911.932	3358.82
912.244	3356.79
912.557	3334.64
912.869	3322.89
913.181	3308.66
913.494	3322.67
913.806	3303.23
914.118	3254.42
914.43	3287.19
914.742	3254.19
915.054	3234.76
915.366	3207.64
915.678	3230.47
915.99	3204.48
916.302	3177.13
916.613	3175.78
916.925	3175.55
917.236	3195.89
917.548	3166.74
917.859	3165.83
918.171	3126.06
918.482	3091.49
918.794	3102.11
919.105	3105.27
919.416	3062.33
919.727	3106.18
920.038	3096.68
920.349	3061.43
920.66	3013.97
920.971	2997.93
921.282	3048.32
921.593	3002.68
921.903	2975.56
922.214	2965.84
922.525	2938.95
922.835	2954.99
923.146	2935.78
923.456	2961.77
923.767	2946.41
924.077	2883.36
924.387	2903.02
924.697	2866.63
925.008	2860.76
925.318	2845.84
925.628	2889.91
925.938	2882.68
926.248	2837.26
926.558	2823.02
926.867	2795.9
927.177	2799.06
927.487	2795.9
927.796	2758.61
928.106	2701.44
928.416	2747.54
928.725	2759.97
929.034	2726.07
929.344	2701.44
929.653	2743.25
929.962	2672.29
930.271	2648.79
930.581	2724.04
930.89	2650.82
931.199	2663.48
931.508	2623.48
931.817	2663.48
932.125	2616.24
932.434	2620.31
932.743	2611.73
933.051	2592.06
933.36	2589.8
933.669	2566.3
933.977	2575.57
934.286	2566.3
934.594	2542.57
934.902	2508.9
935.21	2531.5
935.519	2514.78
935.827	2498.73
936.135	2518.39
936.443	2490.37
936.751	2497.15
937.059	2497.83
937.367	2462.12
937.674	2489.24
937.982	2442.69
938.29	2448.57
938.597	2442.46
938.905	2370.83
939.213	2428.45
939.52	2430.94
939.827	2406.53
940.135	2367.21
940.442	2364.5
940.749	2374.9
941.056	2353.88
941.363	2337.38
941.67	2331.05
941.977	2334.44
942.284	2293.99
942.591	2326.53
942.898	2313.2
943.205	2280.21
943.511	2277.27
943.818	2292.19
944.125	2255.58
944.431	2222.13
944.738	2236.37
945.044	2240.89
945.35	2266.42
945.657	2201.57
945.963	2210.38
946.269	2215.8
946.575	2227.33
946.881	2162.92
947.187	2167.22
947.493	2168.57
947.799	2152.08
948.105	2161.79
948.41	2156.82
948.716	2140.1
949.022	2096.71
949.327	2126.99
949.633	2133.32
949.938	2110.5
950.244	2088.12
950.549	2086.54
950.854	2084.28
951.16	2095.35
951.465	2070.72
951.77	2079.76
952.075	2018.07
952.38	2037.05
952.685	2024.62
952.99	2051.06
953.294	2011.29
953.599	2022.14
953.904	2020.1
954.209	1986.43
954.513	2007.22
954.818	1999.54
955.122	1951.63
955.426	1966.32
955.731	1953.89
956.035	1931.74
956.339	1968.35
956.643	1946.43
956.948	1925.42
957.252	1913.44
957.556	1902.82
957.86	1914.57
958.163	1934.91
958.467	1890.61
958.771	1855.81
959.075	1878.19
959.378	1883.38
959.682	1880.22
959.985	1861.24
960.289	1846.55
960.592	1828.92
960.896	1823.72
961.199	1814.68
961.502	1807.23
961.805	1809.71
962.108	1825.31
962.411	1793.89
962.714	1775.81
963.017	1794.12
963.32	1783.27
963.623	1788.02
963.926	1777.4
964.228	1757.51
964.531	1771.75
964.833	1743.5
965.136	1737.4
965.438	1720.22
965.741	1748.02
966.043	1726.55
966.345	1727.91
966.648	1684.29
966.95	1738.53
967.252	1714.57
967.554	1695.37
967.856	1684.74
968.158	1646.55
968.46	1668.25
968.761	1696.49
969.063	1688.81
969.365	1654.69
969.666	1635.71
969.968	1648.13
970.269	1632.09
970.571	1628.93
970.872	1644.29
971.174	1626.21
971.475	1593.67
971.776	1582.15
972.077	1632.54
972.378	1585.09
972.679	1594.12
972.98	1595.48
973.281	1614.01
973.582	1567.23
973.883	1546.89
974.183	1576.72
974.484	1563.39
974.785	1564.97
975.085	1557.06
975.386	1548.48
975.686	1524.3
975.986	1530.4
976.287	1509.38
976.587	1539.89
976.887	1499.21
977.187	1498.31
977.487	1503.05
977.787	1483.85
978.087	1487.91
978.387	1497.63
978.687	1500.57
978.987	1465.77
979.286	1466.44
979.586	1468.48
979.885	1468.48
980.185	1457.41
980.484	1456.5
980.784	1452.89
981.083	1437.07
981.382	1432.77
981.682	1443.39
981.981	1380.35
982.28	1415.15
982.579	1377.18
982.878	1410.4
983.177	1411.3
983.475	1403.85
983.774	1382.83
984.073	1396.84
984.372	1399.33
984.67	1368.59
984.969	1360.91
985.267	1373.11
985.566	1362.72
985.864	1336.5
986.162	1335.15
986.461	1322.49
986.759	1326.56
987.057	1314.58
987.355	1318.65
987.653	1333.34
987.951	1315.94
988.249	1324.3
988.547	1324.08
988.844	1298.09
989.142	1323.62
989.44	1289.27
989.737	1291.08
990.035	1270.07
990.332	1278.65
990.63	1259.22
990.927	1249.28
991.224	1263.06
991.521	1239.56
991.819	1247.92
992.116	1209.05
992.413	1229.84
992.71	1264.19
993.006	1200.46
993.303	1260.12
993.6	1207.92
993.897	1239.11
994.193	1229.39
994.49	1181.03
994.787	1199.78
995.083	1198.43
995.379	1193.91
995.676	1194.36
995.972	1183.74
996.268	1169.96
996.565	1169.05
996.861	1178.99
997.157	1188.03
997.453	1144.87
997.749	1135.15
998.044	1139.67
998.34	1149.39
998.636	1137.87
998.932	1161.37
999.227	1137.19
999.523	1136.28
999.818	1109.62
1000.114	1121.59
1000.409	1106.23
1000.704	1099.67
1001	1108.04
1001.295	1095.61
1001.59	1085.89
1001.885	1089.05
1002.18	1077.98
1002.475	1076.85
1002.77	1070.75
1003.065	1059.9
1003.359	1079.11
1003.654	1078.88
1003.949	1063.29
1004.243	1060.81
1004.538	1056.74
1004.832	1049.96
1005.127	1053.57
1005.421	1040.47
1005.715	1022.84
1006.009	1049.28
1006.304	1028.49
1006.598	1008.15
1006.892	1018.55
1007.186	994.82
1007.48	1011.09
1007.773	1013.58
1008.067	990.07
1008.361	977.64
1008.655	985.33
1008.948	996.17
1009.242	970.64
1009.535	960.92
1009.829	949.62
1010.122	944.65
1010.415	951.66
1010.708	930.87
1011.001	948.27
1011.295	946.68
1011.588	933.35
1011.881	942.39
1012.173	918.89
1012.466	913.24
1012.759	887.48
1013.052	919.11
1013.344	924.76
1013.637	924.09
1013.93	910.07
1014.222	880.47
1014.514	899.23
1014.807	875.5
1015.099	887.93
1015.391	896.06
1015.683	878.44
1015.976	858.78
1016.268	880.47
1016.56	877.99
1016.851	844.09
1017.143	878.44
1017.435	855.61
1017.727	852.9
1018.018	859.45
1018.31	803.64
1018.602	856.29
1018.893	803.41
1019.185	845.9
1019.476	841.38
1019.767	784.43
1020.058	843.41
1020.35	832.56
1020.641	812.68
1020.932	789.17
1021.223	813.81
1021.514	805.22
1021.804	787.37
1022.095	802.51
1022.386	797.99
1022.677	788.95
1022.967	793.24
1023.258	778.55
1023.548	759.57
1023.839	736.07
1024.129	755.5
1024.419	772.45
1024.709	738.1
1025	744.66
1025.29	748.5
1025.58	758.21
1025.87	730.87
1026.16	726.8
1026.449	721.15
1026.739	733.36
1027.029	709.85
1027.319	707.82
1027.608	699.01
1027.898	708.5
1028.187	716.41
1028.477	706.46
1028.766	705.11
1029.055	705.79
1029.344	689.06
1029.634	685.67
1029.923	696.07
1030.212	686.35
1030.501	673.02
1030.79	694.94
1031.078	663.3
1031.367	663.53
1031.656	665.79
1031.945	670.53
1032.233	666.01
1032.522	656.75
1032.81	649.52
1033.099	650.65
1033.387	650.65
1033.675	653.81
1033.963	649.06
1034.251	674.37
1034.54	629.63
1034.828	630.31
1035.116	624.88
1035.403	610.42
1035.691	647.03
1035.979	621.49
1036.267	633.92
1036.554	630.08
1036.842	629.63
1037.129	603.64
1037.417	612.91
1037.704	604.32
1037.992	613.13
1038.279	595.73
1038.566	592.8
1038.853	592.8
1039.14	592.8
