Data from brown_tile_FLMS001491_086.txt Node
Date: Tue Feb 07 10:38:07 GMT 2017
User: dcchb
Spectrometer: FLMS00149
Trigger mode: 0
Integration Time (sec): 2.000000E-2
Scans to average: 10
Electric dark correction enabled: true
Nonlinearity correction enabled: false
Boxcar width: 0
XAxis mode: Wavelengths
Number of Pixels in Spectrum: 2048
>>>>>Begin Spectral Data<<<<<
341.393	2.47
341.776	2.47
342.16	2.47
342.543	-63.29
342.927	-59.22
343.31	-79.79
343.693	-56.06
344.077	-63.06
344.46	-45.21
344.843	-62.39
345.226	-36.85
345.61	-33.01
345.993	-33.46
346.376	-7.92
346.759	-2.5
347.142	28.01
347.525	30.72
347.908	75.92
348.291	81.57
348.674	85.63
349.057	118.4
349.44	143.03
349.823	134.9
350.206	154.56
350.588	190.04
350.971	233.2
351.354	235.46
351.737	238.17
352.119	240.21
352.502	239.08
352.884	266.65
353.267	277.72
353.65	261.9
354.032	273.65
354.414	294.44
354.797	293.09
355.179	301.9
355.562	315.23
355.944	309.13
356.326	306.42
356.709	327.66
357.091	338.06
357.473	336.47
357.855	315.68
358.238	344.16
358.62	329.24
359.002	341.45
359.384	331.28
359.766	317.49
360.148	337.15
360.53	325.4
360.912	318.4
361.294	322.92
361.676	315.68
362.057	317.72
362.439	326.76
362.821	297.15
363.203	305.29
363.584	311.39
363.966	330.15
364.348	309.13
364.729	324.27
365.111	317.27
365.493	302.58
365.874	313.65
366.256	321.79
366.637	305.97
367.019	313.42
367.4	312.07
367.781	293.76
368.163	304.38
368.544	299.19
368.925	317.04
369.306	277.27
369.688	287.44
370.069	300.09
370.45	282.01
370.831	303.25
371.212	317.94
371.593	298.28
371.974	290.37
372.355	309.36
372.736	290.15
373.117	296.93
373.498	293.31
373.879	283.37
374.26	291.05
374.641	300.32
375.021	312.29
375.402	303.25
375.783	299.64
376.163	323.37
376.544	309.81
376.925	290.15
377.305	300.99
377.686	303.03
378.066	308.45
378.447	300.54
378.827	318.17
379.208	294.89
379.588	314.1
379.968	299.41
380.349	311.84
380.729	306.64
381.109	310.26
381.489	306.87
381.87	311.84
382.25	313.88
382.63	333.76
383.01	295.12
383.39	321.56
383.77	344.61
384.15	317.72
384.53	333.99
384.91	307.32
385.29	337.38
385.67	321.79
386.049	330.6
386.429	340.77
386.809	329.69
387.189	348.45
387.568	337.38
387.948	349.58
388.328	338.51
388.707	361.11
389.087	343.93
389.466	360.88
389.846	330.15
390.225	340.32
390.605	333.76
390.984	323.59
391.363	357.26
391.743	347.32
392.122	352.29
392.501	359.98
392.881	349.81
393.26	367.89
393.639	362.91
394.018	360.43
394.397	362.01
394.776	362.01
395.155	363.82
395.534	344.84
395.913	339.41
396.292	377.6
396.671	353.65
397.05	365.63
397.429	365.63
397.808	394.55
398.186	371.05
398.565	357.26
398.944	353.65
399.323	345.29
399.701	367.43
400.08	375.34
400.458	383.25
400.837	374.89
401.215	375.12
401.594	385.06
401.972	360.2
402.351	371.05
402.729	374.44
403.107	394.33
403.486	372.41
403.864	388.9
404.242	380.77
404.62	387.32
404.999	401.33
405.377	374.44
405.755	388.68
406.133	386.87
406.511	411.5
406.889	395.46
407.267	395.46
407.645	398.39
408.023	412.63
408.401	406.53
408.779	406.08
409.156	404.5
409.534	416.7
409.912	419.64
410.29	398.62
410.667	426.87
411.045	403.59
411.422	428.45
411.8	424.16
412.178	426.42
412.555	430.03
412.933	420.09
413.31	445.17
413.687	436.36
414.065	430.93
414.442	434.55
414.819	427.77
415.197	436.81
415.574	450.82
415.951	449.92
416.328	463.02
416.705	443.82
417.082	451.73
417.46	446.3
417.837	471.84
418.214	456.7
418.591	461.67
418.967	478.62
419.344	452.86
419.721	464.38
420.098	483.36
420.475	460.99
420.852	466.41
421.228	463.93
421.605	473.19
421.982	450.82
422.358	472.06
422.735	474.55
423.111	486.98
423.488	470.26
423.864	493.76
424.241	505.96
424.617	522.23
424.994	491.72
425.37	496.02
425.746	501.44
426.123	489.24
426.499	483.81
426.875	519.52
427.251	510.03
427.627	513.42
428.003	531.27
428.379	518.39
428.756	540.31
429.132	530.14
429.507	536.24
429.883	538.05
430.259	553.64
430.635	537.6
431.011	524.49
431.387	558.39
431.763	568.33
432.138	545.06
432.514	566.52
432.89	569.24
433.265	581.21
433.641	588.22
434.016	586.41
434.392	587.09
434.767	595
435.143	598.61
435.518	583.7
435.894	585.28
436.269	585.96
436.644	586.19
437.02	620.53
437.395	613.76
437.77	606.52
438.145	622.57
438.52	634.77
438.895	619.4
439.271	633.87
439.646	630.93
440.021	637.94
440.395	647.2
440.77	612.63
441.145	638.39
441.52	666.41
441.895	633.87
442.27	658.27
442.645	634.77
443.019	650.14
443.394	653.3
443.769	656.69
444.143	640.87
444.518	673.19
444.892	677.48
445.267	671.38
445.641	677.03
446.016	684.04
446.39	685.62
446.764	683.36
447.139	698.27
447.513	687.65
447.887	701.89
448.262	695.79
448.636	713.19
449.01	716.8
449.384	715.67
449.758	698.27
450.132	710.25
450.506	717.48
450.88	726.07
451.254	739.18
451.628	747.76
452.002	740.31
452.376	733.53
452.75	757.25
453.123	759.97
453.497	772.85
453.871	741.66
454.244	800.42
454.618	786.41
454.992	776.69
455.365	765.16
455.739	812.62
456.112	788.44
456.486	796.8
456.859	828.44
457.232	829.57
457.606	819.17
457.979	836.8
458.352	853.3
458.725	841.32
459.099	860.08
459.472	878.38
459.845	889.23
460.218	882.67
460.591	892.17
460.964	890.13
461.337	892.62
461.71	891.49
462.083	909.79
462.456	910.7
462.829	932.16
463.201	922.9
463.574	942.11
463.947	967.42
464.32	977.81
464.692	961.09
465.065	971.94
465.438	958.83
465.81	999.73
466.183	1009.68
466.555	1025.04
466.928	1047.87
467.3	1017.81
467.672	1029.56
468.045	1031.6
468.417	1044.25
468.789	1071.6
469.161	1066.4
469.534	1094.42
469.906	1108.21
470.278	1113.63
470.65	1127.87
471.022	1145.49
471.394	1136
471.766	1176.9
472.138	1165.38
472.51	1200.86
472.882	1212.38
473.253	1221.42
473.625	1255.77
473.997	1257.35
474.369	1219.84
474.74	1263.68
475.112	1282.21
475.484	1308.2
475.855	1319.5
476.227	1335.32
476.598	1353.62
476.97	1338.48
477.341	1382.77
477.713	1419.84
478.084	1393.17
478.455	1433.62
478.827	1444.69
479.198	1453.06
479.569	1487.4
479.94	1538.02
480.311	1542.77
480.682	1526.27
481.053	1587.29
481.424	1600.62
481.795	1639.72
482.166	1630.68
482.537	1642.43
482.908	1654.63
483.279	1677
483.65	1722.88
484.021	1744.12
484.391	1792.48
484.762	1813.27
485.133	1793.61
485.503	1810.79
485.874	1846.72
486.244	1851.91
486.615	1900.5
486.985	1909.31
487.356	1927.62
487.726	1971.69
488.097	1984.11
488.467	1999.48
488.837	2062.08
489.207	2071.57
489.578	2086.48
489.948	2095.52
490.318	2114.51
490.688	2138.69
491.058	2184.56
491.428	2162.19
491.798	2207.61
492.168	2249.64
492.538	2260.27
492.908	2298.91
493.278	2282.86
493.648	2341.62
494.017	2319.25
494.387	2352.24
494.757	2366.03
495.126	2419.81
495.496	2408.96
495.866	2436.53
496.235	2460.94
496.605	2483.31
496.974	2467.94
497.344	2492.12
497.713	2568.51
498.082	2497.77
498.452	2587.71
498.821	2557.66
499.19	2583.19
499.559	2599.24
499.928	2659.35
500.298	2634.72
500.667	2660.48
501.036	2669.52
501.405	2695.06
501.774	2672.23
502.143	2740.48
502.512	2724.89
502.88	2785.68
503.249	2766.92
503.618	2812.57
503.987	2782.51
504.356	2848.5
504.724	2831.55
505.093	2871.32
505.462	2861.15
505.83	2890.31
506.199	2904.09
506.567	2952.22
506.936	2950.64
507.304	2952
507.672	2998.33
508.041	3002.17
508.409	3050.98
508.777	3003.75
509.145	3098.21
509.514	3105.89
509.882	3095.27
510.25	3117.87
510.618	3135.95
510.986	3166.23
511.354	3200.35
511.722	3204.2
512.09	3224.53
512.458	3222.05
512.826	3297.3
513.193	3279.9
513.561	3273.8
513.929	3377.75
514.297	3347.24
514.664	3396.51
515.032	3402.83
515.4	3427.47
515.767	3472.66
516.135	3486.67
516.502	3486.22
516.869	3554.47
517.237	3561.47
517.604	3520.35
517.972	3583.62
518.339	3605.77
518.706	3591.76
519.073	3652.55
519.44	3645.09
519.808	3709.49
520.175	3728.02
520.542	3748.36
520.909	3823.39
521.276	3810.51
521.643	3843.95
522.009	3874.91
522.376	3925.08
522.743	3937.96
523.11	3948.81
523.477	3990.39
523.843	4044.17
524.21	4039.2
524.577	4103.15
524.943	4131.63
525.31	4201.01
525.676	4202.81
526.043	4223.6
526.409	4220.21
526.776	4311.06
527.142	4340.21
527.508	4372.53
527.874	4334.79
528.241	4372.98
528.607	4406.2
528.973	4420.43
529.339	4445.07
529.705	4548.11
530.071	4521.22
530.437	4608.68
530.803	4619.75
531.169	4656.13
531.535	4680.09
531.901	4699.3
532.267	4732.29
532.632	4799.86
532.998	4749.24
533.364	4801.44
533.73	4808.9
534.095	4839.63
534.461	4876.69
534.826	4906.52
535.192	4926.18
535.557	4946.07
535.923	4977.03
536.288	4969.35
536.653	5073.75
537.019	5015
537.384	5095.9
537.749	5135.44
538.114	5116.91
538.479	5171.15
538.845	5227.87
539.21	5203.46
539.575	5223.13
539.94	5300.41
540.305	5295.67
540.67	5319.85
541.034	5334.08
541.399	5362.78
541.764	5399.84
542.129	5508.77
542.494	5468.77
542.858	5487.98
543.223	5543.34
543.587	5560.97
543.952	5629.44
544.316	5634.64
544.681	5593.96
545.045	5693.62
545.41	5709.89
545.774	5763.45
546.138	5786.05
546.503	5824.47
546.867	5798.25
547.231	5913.95
547.595	5936.33
547.959	5960.51
548.324	5949.43
548.688	6028.08
549.052	6021.52
549.416	6102.42
549.779	6060.17
550.143	6184.23
550.507	6178.35
550.871	6230.1
551.235	6248.86
551.599	6328.18
551.962	6371.57
552.326	6375.19
552.689	6477.78
553.053	6445.69
553.417	6550.77
553.78	6671.67
554.143	6576.54
554.507	6628.96
554.87	6727.72
555.234	6798.68
555.597	6750.09
555.96	6845.23
556.323	6930.43
556.686	6999.35
557.05	7034.15
557.413	7108.95
557.776	7156.63
558.139	7217.2
558.502	7257.87
558.865	7308.95
559.228	7394.82
559.59	7470.07
559.953	7463.52
560.316	7612.44
560.679	7605.44
561.041	7789.84
561.404	7836.16
561.767	7865.32
562.129	7923.39
562.492	8004.07
562.854	8064.18
563.217	8087.46
563.579	8162.26
563.941	8230.05
564.304	8316.15
564.666	8358.18
565.028	8501.68
565.39	8587.56
565.753	8665.75
566.115	8725.86
566.477	8762.69
566.839	8807.21
567.201	8888.11
567.563	8957.49
567.925	9091.5
568.287	9080.88
568.648	9213.3
569.01	9289.01
569.372	9359.06
569.734	9386.18
570.095	9491.71
570.457	9580.75
570.819	9654.2
571.18	9732.84
571.542	9819.16
571.903	9837.69
572.265	9957.46
572.626	10034.07
572.987	10083.11
573.349	10201.3
573.71	10268.19
574.071	10352.03
574.432	10401.07
574.794	10527.84
575.155	10613.72
575.516	10587.96
575.877	10673.38
576.238	10745.01
576.599	10859.59
576.96	10937.33
577.32	11018.91
577.681	11080.37
578.042	11133.7
578.403	11206.02
578.763	11227.49
579.124	11386.35
579.485	11399.46
579.845	11478.78
580.206	11522.62
580.566	11497.99
580.927	11584.54
581.287	11729.85
581.648	11766.23
582.008	11795.61
582.368	11834.93
582.728	11952.21
583.089	11974.59
583.449	11951.76
583.809	12026.56
584.169	12074.24
584.529	12161.25
584.889	12282.83
585.249	12247.57
585.609	12205.77
585.969	12358.53
586.329	12375.93
586.688	12434.01
587.048	12468.13
587.408	12520.11
587.768	12487.12
588.127	12565.53
588.487	12649.37
588.846	12750.16
589.206	12669.03
589.565	12715.13
589.925	12816.15
590.284	12824.06
590.643	12810.5
591.003	12864.51
591.362	12988.12
591.721	12983.15
592.08	13021.56
592.44	13105.18
592.799	13113.99
593.158	13147.21
593.517	13205.97
593.876	13225.4
594.235	13322.35
594.593	13279.41
594.952	13355.57
595.311	13326.42
595.67	13403.48
596.029	13516.92
596.387	13603.02
596.746	13579.52
597.104	13551.49
597.463	13526.86
597.822	13749
598.18	13596.24
598.538	13650.02
598.897	13783.35
599.255	13641.89
599.613	13925.27
599.972	13803.92
600.33	13916.23
600.688	13941.77
601.046	13933.4
601.404	14064.47
601.762	14052.5
602.12	14071.93
602.478	14054.31
602.836	14085.72
603.194	14044.59
603.552	14107.64
603.91	14152.16
604.268	14249.33
604.625	14147.41
604.983	14269.89
605.341	14188.09
605.698	14339.72
606.056	14396.22
606.413	14358.03
606.771	14361.87
607.128	14532.71
607.485	14380.4
607.843	14388.76
608.2	14593.27
608.557	14645.93
608.914	14648.64
609.272	14663.78
609.629	14714.85
609.986	14732.71
610.343	14729.99
610.7	14815.87
611.057	14856.09
611.414	14873.95
611.771	14928.18
612.127	14924.57
612.484	14989.65
612.841	15009.31
613.198	14924.79
613.554	15027.84
613.911	15060.38
614.267	15129.31
614.624	15067.39
614.98	15143.77
615.337	15195.52
615.693	15182.41
616.05	15195.74
616.406	15378.11
616.762	15286.59
617.118	15325.46
617.475	15310.77
617.831	15290.66
618.187	15379.92
618.543	15390.32
618.899	15475.96
619.255	15407.04
619.611	15489.75
619.967	15536.75
620.323	15506.7
620.678	15454.04
621.034	15497.88
621.39	15531.78
621.746	15485.45
622.101	15628.5
622.457	15542.63
622.812	15503.76
623.168	15524.1
623.523	15609.52
623.879	15700.59
624.234	15563.19
624.589	15652.91
624.945	15568.62
625.3	15556.86
625.655	15603.87
626.01	15632.12
626.365	15701.49
626.72	15677.09
627.075	15630.99
627.43	15655.85
627.785	15605
628.14	15567.94
628.495	15655.85
628.85	15649.07
629.205	15602.74
629.559	15671.44
629.914	15606.58
630.269	15609.29
630.623	15524.55
630.978	15537.43
631.332	15661.27
631.687	15691.78
632.041	15592.34
632.396	15658.11
632.75	15530.2
633.104	15654.49
633.459	15566.13
633.813	15516.87
634.167	15466.47
634.521	15561.84
634.875	15560.71
635.229	15569.07
635.583	15420.15
635.937	15516.41
636.291	15480.03
636.645	15425.57
636.999	15454.72
637.352	15512.35
637.706	15435.74
638.06	15495.17
638.413	15411.33
638.767	15431.67
639.121	15410.88
639.474	15381.5
639.828	15371.79
640.181	15403.2
640.534	15322.97
640.888	15329.75
641.241	15285.46
641.594	15407.49
641.947	15319.58
642.301	15327.04
642.654	15347.6
643.007	15341.28
643.36	15285.91
643.713	15282.07
644.066	15346.7
644.419	15325.46
644.771	15172.47
645.124	14993.04
645.477	15050.44
645.83	14827.62
646.182	14841.18
646.535	14794.4
646.888	14847.05
647.24	14761.86
647.593	14849.76
647.945	14813.83
648.298	14731.35
648.65	14797.11
649.002	14664.46
649.355	14795.76
649.707	14751.69
650.059	14775.87
650.411	14979.48
650.763	15000.95
651.115	15202.52
651.467	15137.89
651.819	15152.81
652.171	15094.73
652.523	15047.73
652.875	15092.92
653.227	15074.39
653.578	15132.92
653.93	15040.27
654.282	15035.52
654.633	15073.26
654.985	15052.25
655.337	15078.01
655.688	15009.76
656.039	15204.11
656.391	14936.99
656.742	15017.44
657.094	15031
657.445	15008.86
657.796	15095.18
658.147	15033.71
658.498	15067.61
658.849	15125.69
659.2	15062.19
659.551	15005.02
659.902	15142.64
660.253	15056.77
660.604	15046.82
660.955	14988.74
661.306	15129.98
661.656	14986.26
662.007	15074.62
662.358	15074.62
662.708	15082.53
663.059	15035.3
663.409	14964.56
663.76	15028.07
664.11	15151
664.461	15118.91
664.811	15157.33
665.161	15056.99
665.511	15126.14
665.862	15118.46
666.212	15134.73
666.562	15112.81
666.912	15178.57
667.262	15134.5
667.612	15178.8
667.962	15244.56
668.312	15188.74
668.662	15176.08
669.011	15234.61
669.361	15121.62
669.711	15148.29
670.06	15101.96
670.41	15043.88
670.76	15050.21
671.109	15143.99
671.459	15074.84
671.808	15099.93
672.157	15132.24
672.507	15048.86
672.856	15183.54
673.205	15177.21
673.554	15171.34
673.904	15157.78
674.253	15246.14
674.602	15179.47
674.951	14980.38
675.3	14889.31
675.649	15136.54
675.998	15197.55
676.346	15172.69
676.695	15211.56
677.044	15147.61
677.393	15086.14
677.741	15162.07
678.09	15108.97
678.438	15106.26
678.787	15176.76
679.135	15177.44
679.484	15006.37
679.832	15140.6
680.181	15139.47
680.529	15058.8
680.877	15074.39
681.225	15073.71
681.573	15218.79
681.922	15056.31
682.27	14973.83
682.618	15043.21
682.966	15026.48
683.314	15043.88
683.661	15078.01
684.009	15025.35
684.357	14943.55
684.705	14904.45
685.053	14947.39
685.4	14943.77
685.748	14970.44
686.095	14918.46
686.443	14928.86
686.79	14859.71
687.138	14837.79
687.485	14946.71
687.832	14880.72
688.18	14824.68
688.527	14821.29
688.874	14757.56
689.221	14752.37
689.568	14756.89
689.915	14779.03
690.262	14819.94
690.609	14682.76
690.956	14641.63
691.303	14612.26
691.65	14655.42
691.997	14589.21
692.344	14472.15
692.69	14529.77
693.037	14561.86
693.383	14423.34
693.73	14511.92
694.077	14444.13
694.423	14474.86
694.769	14367.52
695.116	14436.67
695.462	14408.19
695.808	14357.8
696.155	14457.46
696.501	14376.56
696.847	14296.33
697.193	14306.95
697.539	14317.35
697.885	14188.09
698.231	14059.05
698.577	14152.16
698.923	14170.91
699.269	14138.82
699.614	14068.09
699.96	14049.11
700.306	13974.53
700.651	14005.04
700.997	14003.91
701.342	13921.43
701.688	13948.09
702.033	13902.67
702.379	13988.77
702.724	13963.01
703.069	13961.65
703.415	13778.61
703.76	13753.52
704.105	13829.9
704.45	13746.74
704.795	13760.75
705.14	13786.97
705.485	13710.81
705.83	13688.21
706.175	13642.11
706.52	13653.19
706.865	13563.47
707.209	13563.25
707.554	13514.66
707.899	13555.34
708.243	13432.85
708.588	13537.93
708.932	13497.94
709.277	13505.39
709.621	13510.37
709.966	13433.98
710.31	13469.24
710.654	13304.49
710.998	13354.89
711.342	13449.12
711.687	13390.37
712.031	13248.45
712.375	13221.11
712.719	13264.04
713.063	13265.17
713.407	13318.51
713.75	13167.55
714.094	13246.19
714.438	13222.92
714.782	13311.27
715.125	13194.67
715.469	13154.22
715.812	13122.35
716.156	13125.97
716.499	13131.62
716.843	13111.51
717.186	13054.78
717.53	13110.15
717.873	13069.7
718.216	13053.2
718.559	13072.41
718.902	12978.63
719.246	12993.77
719.589	12942.02
719.932	12943.37
720.275	12979.53
720.617	12917.84
720.96	12914.45
721.303	12951.06
721.646	12936.37
721.989	12821.34
722.331	12889.82
722.674	12908.35
723.016	12905.18
723.359	12830.16
723.701	12906.09
724.044	12820.67
724.386	12786.77
724.729	12786.99
725.071	12816.82
725.413	12852.08
725.755	12751.74
726.097	12724.62
726.439	12691.18
726.782	12693.44
727.124	12805.98
727.465	12709.48
727.807	12625.19
728.149	12641.01
728.491	12709.03
728.833	12639.88
729.175	12601.01
729.516	12664.74
729.858	12631.07
730.199	12596.94
730.541	12592.65
730.882	12626.32
731.224	12682.82
731.565	12607.79
731.906	12586.1
732.248	12530.73
732.589	12568.69
732.93	12530.73
733.271	12520.11
733.612	12520.56
733.953	12539.09
734.294	12468.13
734.635	12429.26
734.976	12498.19
735.317	12464.52
735.658	12456.83
735.999	12460
736.339	12415.93
736.68	12390.17
737.021	12429.72
737.361	12372.54
737.702	12380
738.042	12377.51
738.383	12311.07
738.723	12361.02
739.063	12340.9
739.404	12368.7
739.744	12290.74
740.084	12262.71
740.424	12183.17
740.764	12278.08
741.104	12299.78
741.444	12158.31
741.784	12179.33
742.124	12217.29
742.464	12168.71
742.804	12204.64
743.143	12115.6
743.483	12079.22
743.823	12006
744.162	12003.74
744.502	12048.26
744.841	11984.53
745.181	12043.96
745.52	12039.44
745.86	12022.95
746.199	11948.37
746.538	12001.7
746.877	12024.53
747.216	11937.3
747.556	11898.2
747.895	11963.97
748.234	11935.72
748.573	11930.75
748.911	11868.83
749.25	11807.13
749.589	11860.01
749.928	11847.58
750.267	11846.68
750.605	11776.17
750.944	11777.53
751.283	11690.98
751.621	11742.5
751.96	11650.75
752.298	11680.58
752.636	11646.46
752.975	11568.5
753.313	11500.93
753.651	11603.3
753.989	11474.94
754.327	11489.85
754.666	11464.54
755.004	11416.41
755.342	11502.28
755.679	11456.41
756.017	11325.11
756.355	11308.62
756.693	11322.63
757.031	11339.35
757.368	11213.02
757.706	11260.71
758.044	11221.39
758.381	11247.37
758.719	11167.15
759.056	11197.88
759.394	11121.05
759.731	11125.8
760.068	11026.59
760.405	11026.36
760.743	10931.68
761.08	10993.14
761.417	10937.33
761.754	10897.33
762.091	10851.9
762.428	10783.88
762.765	10750.89
763.102	10802.19
763.438	10713.15
763.775	10703.43
764.112	10672.93
764.449	10752.7
764.785	10594.51
765.122	10578.92
765.458	10468.64
765.795	10510.67
766.131	10534.62
766.467	10431.12
766.804	10365.82
767.14	10371.24
767.476	10327.62
767.812	10305.7
768.148	10282.2
768.485	10175.31
768.821	10230
769.157	10136.89
769.492	10193.16
769.828	10116.78
770.164	10028.42
770.5	10051.92
770.836	9970.35
771.171	9955.66
771.507	9932.61
771.842	9840.63
772.178	9905.49
772.513	9773.06
772.849	9763.34
773.184	9698.26
773.519	9697.58
773.855	9654.2
774.19	9651.26
774.525	9603.8
774.86	9592.28
775.195	9576.46
775.53	9531.71
775.865	9416.01
776.2	9369.68
776.535	9361.1
776.87	9315.9
777.205	9247.2
777.539	9264.15
777.874	9260.31
778.209	9139.86
778.543	9141.21
778.878	9088.79
779.212	9060.76
779.547	9021.44
779.881	9092.85
780.215	8976.7
780.55	8995.46
780.884	8990.26
781.218	8905.97
781.552	8939.64
781.886	8789.81
782.22	8761.56
782.554	8726.54
782.888	8703.03
783.222	8581.68
783.556	8538.52
783.889	8609.93
784.223	8574.22
784.557	8531.51
784.89	8492.42
785.224	8435.24
785.557	8451.29
785.891	8338.52
786.224	8341.46
786.558	8311.86
786.891	8245.87
787.224	8301.91
787.557	8195.7
787.891	8223.5
788.224	8151.86
788.557	8203.61
788.89	8126.78
789.223	8168.36
789.556	8097.4
789.888	8001.13
790.221	7999.1
790.554	7944.41
790.887	7948.03
791.219	7875.71
791.552	7855.15
791.884	7779.22
792.217	7778.09
792.549	7746.67
792.882	7712.78
793.214	7683.85
793.546	7673
793.879	7658.09
794.211	7561.59
794.543	7618.32
794.875	7563.85
795.207	7583.06
795.539	7474.37
795.871	7455.16
796.203	7421.94
796.535	7420.36
796.867	7400.24
797.198	7380.81
797.53	7361.15
797.862	7350.75
798.193	7346.69
798.525	7322.51
798.856	7253.13
799.188	7152.79
799.519	7176.52
799.85	7167.48
800.182	7090.65
800.513	7107.14
800.844	7066.24
801.175	7105.11
801.506	7079.12
801.837	6981.72
802.168	7007.71
802.499	6977.88
802.83	6917.77
803.161	6934.94
803.491	6914.61
803.822	6920.03
804.153	6875.74
804.483	6779.69
804.814	6772.46
805.145	6765.91
805.475	6728.4
805.805	6730.2
806.136	6718.23
806.466	6676.65
806.796	6696.53
807.126	6589.64
807.457	6609.98
807.787	6640.72
808.117	6565.91
808.447	6574.5
808.777	6579.93
809.107	6528.85
809.436	6516.42
809.766	6478.23
810.096	6478.91
810.426	6455.64
810.755	6412.7
811.085	6436.65
811.414	6394.62
811.744	6338.8
812.073	6324.34
812.403	6361.63
812.732	6299.93
813.061	6318.46
813.39	6234.85
813.719	6231.23
814.049	6271.91
814.378	6220.39
814.707	6248.86
815.036	6227.17
815.365	6143.55
815.693	6112.82
816.022	6095.64
816.351	6066.04
816.68	6071.69
817.008	6076.44
817.337	6043.67
817.665	6077.57
817.994	6038.92
818.322	5974.07
818.651	5959.38
818.979	5917.12
819.307	5971.35
819.636	5918.25
819.964	5889.32
820.292	5878.02
820.62	5869.66
820.948	5901.53
821.276	5855.88
821.604	5878.02
821.932	5885.71
822.259	5873.05
822.587	5839.15
822.915	5810.68
823.243	5855.88
823.57	5800.06
823.898	5801.19
824.225	5789.66
824.553	5805.93
824.88	5797.57
825.207	5822.43
825.535	5799.38
825.862	5806.39
826.189	5731.36
826.516	5750.12
826.843	5784.47
827.17	5763.9
827.497	5786.95
827.824	5794.18
828.151	5793.05
828.478	5774.52
828.805	5788.76
829.131	5732.94
829.458	5730.23
829.785	5700.4
830.111	5712.6
830.438	5759.61
830.764	5734.98
831.09	5704.92
831.417	5686.16
831.743	5713.51
832.069	5710.34
832.395	5668.99
832.722	5685.71
833.048	5678.48
833.374	5701.08
833.7	5658.82
834.026	5677.12
834.351	5686.84
834.677	5643.68
835.003	5637.8
835.329	5650.91
835.654	5646.84
835.98	5590.12
836.306	5613.17
836.631	5589.67
836.956	5600.29
837.282	5629.89
837.607	5557.58
837.932	5527.98
838.258	5572.49
838.583	5548.31
838.908	5529.33
839.233	5534.53
839.558	5492.04
839.883	5431.71
840.208	5424.02
840.533	5447.75
840.858	5479.62
841.182	5470.8
841.507	5417.7
841.832	5391.03
842.156	5409.34
842.481	5414.53
842.805	5412.5
843.13	5411.82
843.454	5390.13
843.778	5350.81
844.103	5325.5
844.427	5301.32
844.751	5324.82
845.075	5296.8
845.399	5268.77
845.723	5228.32
846.047	5190.13
846.371	5195.1
846.695	5197.14
847.019	5168.44
847.343	5169.57
847.666	5103.81
847.99	5101.55
848.313	5072.39
848.637	5050.7
848.96	5038.27
849.284	5005.28
849.607	5003.47
849.931	5000.53
850.254	4959.86
850.577	4926.64
850.9	4875.79
851.223	4905.39
851.546	4855.45
851.869	4840.54
852.192	4838.73
852.515	4780.65
852.838	4757.83
853.161	4802.35
853.483	4732.29
853.806	4742.23
854.129	4702.46
854.451	4702.69
854.774	4710.37
855.096	4667.66
855.419	4675.34
855.741	4592.86
856.063	4635.12
856.385	4626.76
856.708	4584.72
857.03	4583.37
857.352	4620.88
857.674	4622.01
857.996	4528.45
858.318	4504.27
858.64	4547.21
858.961	4501.34
859.283	4471.73
859.605	4407.55
859.926	4455.24
860.248	4485.74
860.57	4426.76
860.891	4416.14
861.212	4352.19
861.534	4417.95
861.855	4357.84
862.176	4420.43
862.498	4407.55
862.819	4365.29
863.14	4389.25
863.461	4356.03
863.782	4324.62
864.103	4287.78
864.424	4329.59
864.745	4302.7
865.065	4266.99
865.386	4296.6
865.707	4296.82
866.027	4260.89
866.348	4250.04
866.668	4259.99
866.989	4251.4
867.309	4218.86
867.63	4213.21
867.95	4201.46
868.27	4212.76
868.59	4209.14
868.91	4211.17
869.23	4179.09
869.55	4164.62
869.87	4194.23
870.19	4179.99
870.51	4151.06
870.83	4176.83
871.15	4136.37
871.469	4164.4
871.789	4168.46
872.109	4129.82
872.428	4123.95
872.748	4104.06
873.067	4093.89
873.386	4081.01
873.706	4098.86
874.025	4064.74
874.344	4104.06
874.663	4098.86
874.982	4071.74
875.301	4085.3
875.62	4047.11
875.939	4017.96
876.258	4063.16
876.577	4030.16
876.896	4034.68
877.214	4015.47
877.533	4038.52
877.852	4007.11
878.17	3997.62
878.489	3995.36
878.807	4032.42
879.125	3985.42
879.444	3983.61
879.762	3949.26
880.08	3995.36
880.398	3965.31
880.716	3965.98
881.034	3899.54
881.352	3921.46
881.67	3930.96
881.988	3909.04
882.306	3894.57
882.624	3865.65
882.941	3913.33
883.259	3858.64
883.577	3893.22
883.894	3865.42
884.212	3861.13
884.529	3844.4
884.846	3875.82
885.164	3815.48
885.481	3816.38
885.798	3786.33
886.115	3788.13
886.432	3764.18
886.75	3756.05
887.067	3808.93
887.383	3769.38
887.7	3770.51
888.017	3712.66
888.334	3744.29
888.651	3730.96
888.967	3717.63
889.284	3721.02
889.6	3703.39
889.917	3669.49
890.233	3690.74
890.55	3663.84
890.866	3667.91
891.182	3630.17
891.498	3648.48
891.815	3604.18
892.131	3593.34
892.447	3589.72
892.763	3594.69
893.079	3574.58
893.395	3575.94
893.71	3572.1
894.026	3549.05
894.342	3558.31
894.657	3535.94
894.973	3542.27
895.289	3520.35
895.604	3493.23
895.92	3451.42
896.235	3496.84
896.55	3489.39
896.865	3499.55
897.181	3479.89
897.496	3489.61
897.811	3459.78
898.126	3395.83
898.441	3447.35
898.756	3418.88
899.071	3393.79
899.386	3431.08
899.7	3363.74
900.015	3366.23
900.33	3328.71
900.644	3357.41
900.959	3338.2
901.273	3379.11
901.588	3321.71
901.902	3318.99
902.216	3284.65
902.531	3282.16
902.845	3255.27
903.159	3266.57
903.473	3225.21
903.787	3244.19
904.101	3230.64
904.415	3198.55
904.729	3182.5
905.042	3194.25
905.356	3184.53
905.67	3171.88
905.984	3151.54
906.297	3180.24
906.611	3131.43
906.924	3146.34
907.237	3086.46
907.551	3134.14
907.864	3079.45
908.177	3086.91
908.491	3101.6
908.804	3090.98
909.117	3093.46
909.43	3017.31
909.743	3047.36
910.056	3044.65
910.368	2998.1
910.681	2978.89
910.994	2986.12
911.307	2982.73
911.619	2930.53
911.932	2952.68
912.244	2923.07
912.557	2917.88
912.869	2949.96
913.181	2925.56
913.494	2907.93
913.806	2851.89
914.118	2902.51
914.43	2890.98
914.742	2896.41
915.054	2859.35
915.366	2833.58
915.678	2846.92
915.99	2782.74
916.302	2817.99
916.613	2753.36
916.925	2786.13
917.236	2813.02
917.548	2781.38
917.859	2769.63
918.171	2728.73
918.482	2740.03
918.794	2693.93
919.105	2666.81
919.416	2695.28
919.727	2713.36
920.038	2683.76
920.349	2670.42
920.66	2662.29
920.971	2636.53
921.282	2644.89
921.593	2631.33
921.903	2629.52
922.214	2606.25
922.525	2594.72
922.835	2603.76
923.146	2547.72
923.456	2558.34
923.767	2568.51
924.077	2507.72
924.387	2533.48
924.697	2512.91
925.008	2514.72
925.318	2509.3
925.628	2511.11
925.938	2515.4
926.248	2462.52
926.558	2478.79
926.867	2490.32
927.177	2441.73
927.487	2452.12
927.796	2418.91
928.106	2427.94
928.416	2417.1
928.725	2410.77
929.034	2400.83
929.344	2345.46
929.653	2408.74
929.962	2370.55
930.271	2366.48
930.581	2351.34
930.89	2358.34
931.199	2310.21
931.508	2355.4
931.817	2284.22
932.125	2273.82
932.434	2298
932.743	2306.82
933.051	2300.49
933.36	2287.84
933.669	2270.21
933.977	2263.66
934.286	2229.31
934.594	2189.53
934.902	2194.28
935.21	2219.14
935.519	2212.58
935.827	2186.37
936.135	2242.19
936.443	2202.41
936.751	2156.09
937.059	2187.05
937.367	2161.96
937.674	2204.9
937.982	2179.36
938.29	2153.38
938.597	2119.03
938.905	2120.61
939.213	2135.3
939.52	2121.29
939.827	2128.52
940.135	2118.8
940.442	2087.39
940.749	2107.05
941.056	2062.3
941.363	2076.77
941.67	2037.45
941.977	2069.99
942.284	2056.2
942.591	2053.72
942.898	2021.85
943.205	2023.44
943.511	1993.83
943.818	2007.39
944.125	1989.99
944.431	1963.55
944.738	1999.71
945.044	2002.87
945.35	1972.14
945.657	1973.04
945.963	1950.44
946.269	1929.2
946.575	1944.79
946.881	1924.46
947.187	1923.33
947.493	1926.26
947.799	1939.6
948.105	1892.82
948.41	1869.99
948.716	1899.82
949.022	1886.04
949.327	1865.02
949.633	1847.17
949.938	1877.9
950.244	1865.25
950.549	1841.52
950.854	1879.94
951.16	1843.33
951.465	1862.76
951.77	1829.09
952.075	1811.69
952.38	1785.02
952.685	1804.46
952.99	1804.91
953.294	1828.64
953.599	1755.42
953.904	1784.12
954.209	1770.11
954.513	1793.39
954.818	1753.16
955.122	1745.02
955.426	1744.35
955.731	1737.57
956.035	1729.43
956.339	1731.01
956.643	1761.52
956.948	1730.56
957.252	1706.61
957.556	1744.57
957.86	1684.46
958.163	1695.08
958.467	1688.98
958.771	1716.78
959.075	1659.38
959.378	1663.22
959.682	1678.81
959.985	1665.03
960.289	1621.19
960.592	1618.25
960.896	1613.05
961.199	1624.12
961.502	1632.94
961.805	1642.88
962.108	1582.32
962.411	1618.02
962.714	1631.13
963.017	1603.11
963.32	1592.03
963.623	1611.69
963.926	1593.39
964.228	1577.8
964.531	1612.82
964.833	1558.81
965.136	1552.26
965.438	1549.32
965.741	1540.51
966.043	1557.69
966.345	1533.73
966.648	1549.78
966.95	1519.72
967.252	1513.84
967.554	1525.14
967.856	1505.93
968.158	1500.96
968.46	1491.25
968.761	1505.03
969.063	1498.48
969.365	1506.16
969.666	1487.63
969.968	1461.19
970.269	1470.91
970.571	1444.92
970.872	1456.22
971.174	1436.78
971.475	1439.5
971.776	1423.23
972.077	1434.98
972.378	1424.13
972.679	1435.65
972.98	1420.51
973.281	1426.84
973.582	1414.86
973.883	1377.8
974.183	1377.12
974.484	1435.88
974.785	1388.42
975.085	1387.75
975.386	1394.53
975.686	1378.48
975.986	1370.57
976.287	1389.33
976.587	1359.05
976.887	1347.07
977.187	1339.16
977.487	1353.4
977.787	1360.85
978.087	1335.77
978.387	1300.06
978.687	1348.42
978.987	1303.23
979.286	1312.49
979.586	1315.43
979.885	1303.68
980.185	1309.1
980.484	1277.69
980.784	1298.26
981.083	1300.29
981.382	1271.36
981.682	1286.28
981.981	1278.6
982.28	1265.72
982.579	1267.07
982.878	1290.8
983.177	1234.98
983.475	1267.07
983.774	1268.88
984.073	1237.92
984.372	1221.65
984.67	1237.02
984.969	1249.44
985.267	1254.64
985.566	1244.92
985.864	1226.17
986.162	1195.66
986.461	1175.77
986.759	1216.23
987.057	1188.66
987.355	1225.49
987.653	1196.34
987.951	1182.55
988.249	1173.74
988.547	1201.99
988.844	1199.95
989.142	1175.55
989.44	1169.9
989.737	1142.78
990.035	1154.98
990.332	1168.32
990.63	1150.69
990.927	1129.9
991.224	1151.14
991.521	1132.16
991.819	1149.56
992.116	1127.19
992.413	1129.45
992.71	1109.56
993.006	1121.09
993.303	1113.85
993.6	1122.67
993.897	1073.63
994.193	1097.58
994.49	1096.91
994.787	1099.17
995.083	1080.18
995.379	1073.4
995.676	1100.3
995.972	1066.85
996.268	1073.86
996.565	1073.86
996.861	1053.97
997.157	1051.71
997.453	1067.08
997.749	1042.9
998.044	1011.71
998.34	1036.79
998.636	1044.25
998.932	1021.65
999.227	1034.99
999.523	1049
999.818	1011.94
1000.114	1021.65
1000.409	1009.9
1000.704	1010.81
1001	1013.52
1001.295	996.12
1001.59	987.98
1001.885	989.56
1002.18	987.53
1002.475	978.94
1002.77	997.7
1003.065	963.12
1003.359	954.09
1003.654	968.32
1003.949	980.98
1004.243	963.58
1004.538	953.18
1004.832	955.21
1005.127	938.49
1005.421	945.27
1005.715	951.15
1006.009	918.38
1006.304	919.74
1006.598	948.66
1006.892	922
1007.186	896.69
1007.48	916.35
1007.773	914.31
1008.067	914.76
1008.361	911.37
1008.655	892.84
1008.948	898.72
1009.242	899.62
1009.535	891.04
1009.829	877.02
1010.122	893.3
1010.415	879.51
1010.708	881.09
1011.001	853.3
1011.295	839.51
1011.588	862.79
1011.881	877.7
1012.173	844.48
1012.466	845.61
1012.759	837.93
1013.052	823.47
1013.344	844.03
1013.637	832.73
1013.93	848.78
1014.222	849.46
1014.514	824.6
1014.807	813.3
1015.099	830.25
1015.391	803.13
1015.683	791.6
1015.976	812.39
1016.268	798.83
1016.56	789.34
1016.851	794.54
1017.143	770.81
1017.435	801.32
1017.727	801.77
1018.018	794.99
1018.31	773.52
1018.602	784.82
1018.893	761.77
1019.185	759.51
1019.476	759.74
1019.767	771.94
1020.058	756.12
1020.35	742.34
1020.641	730.14
1020.932	742.79
1021.223	747.08
1021.514	747.54
1021.804	734.88
1022.095	744.15
1022.386	730.36
1022.677	720.42
1022.967	719.29
1023.258	724.94
1023.548	731.04
1023.839	704.15
1024.129	733.75
1024.419	720.87
1024.709	700.98
1025	707.76
1025.29	690.14
1025.58	666.86
1025.87	694.66
1026.16	686.97
1026.449	708.67
1026.739	681.1
1027.029	659.86
1027.319	667.09
1027.608	671.61
1027.898	682.91
1028.187	682.91
1028.477	677.93
1028.766	647.43
1029.055	689.46
1029.344	656.01
1029.634	664.6
1029.923	639.07
1030.212	651.27
1030.501	644.04
1030.79	625.51
1031.078	624.83
1031.367	608.78
1031.656	619.4
1031.945	648.1
1032.233	626.64
1032.522	623.47
1032.81	621.44
1033.099	610.37
1033.387	611.72
1033.675	604.94
1033.963	596.35
1034.251	637.03
1034.54	607.2
1034.828	623.92
1035.116	583.93
1035.403	611.04
1035.691	592.06
1035.979	586.86
1036.267	578.05
1036.554	602.46
1036.842	570.37
1037.129	562.46
1037.417	548.67
1037.704	582.8
1037.992	576.24
1038.279	582.12
1038.566	551.84
1038.853	551.84
1039.14	551.84
