Data from brown_tile_FLMS001491_034.txt Node
Date: Tue Feb 07 10:37:25 GMT 2017
User: dcchb
Spectrometer: FLMS00149
Trigger mode: 0
Integration Time (sec): 2.000000E-2
Scans to average: 10
Electric dark correction enabled: true
Nonlinearity correction enabled: false
Boxcar width: 0
XAxis mode: Wavelengths
Number of Pixels in Spectrum: 2048
>>>>>Begin Spectral Data<<<<<
341.393	-14.84
341.776	-14.84
342.16	-14.84
342.543	-56.2
342.927	-45.58
343.31	-69.08
343.693	-70.21
344.077	-56.43
344.46	-62.53
344.843	-64.79
345.226	-28.86
345.61	-32.02
345.993	-27.95
346.376	-8.74
346.759	22.22
347.142	6.62
347.525	61.99
347.908	58.37
348.291	81.65
348.674	78.26
349.057	111.48
349.44	130.01
349.823	136.56
350.206	158.48
350.588	162.33
350.971	189.22
351.354	210.01
351.737	221.31
352.119	203.46
352.502	245.04
352.884	262.44
353.267	274.87
353.65	273.96
354.032	272.38
354.414	285.94
354.797	297.24
355.179	329.55
355.562	294.98
355.944	328.88
356.326	300.18
356.709	332.72
357.091	316.45
357.473	326.16
357.855	326.39
358.238	316.9
358.62	317.8
359.002	318.48
359.384	323
359.766	339.95
360.148	327.97
360.53	313.51
360.912	309.89
361.294	328.2
361.676	311.47
362.057	330.01
362.439	347.63
362.821	299.95
363.203	316.67
363.584	298.59
363.966	319.61
364.348	317.8
364.729	329.1
365.111	297.69
365.493	296.79
365.874	309.89
366.256	303.79
366.637	290.68
367.019	291.36
367.4	312.15
367.781	294.53
368.163	311.93
368.544	294.3
368.925	286.62
369.306	313.51
369.688	289.1
370.069	269.67
370.45	304.92
370.831	274.41
371.212	309.44
371.593	300.4
371.974	289.1
372.355	301.31
372.736	292.27
373.117	310.34
373.498	299.05
373.879	294.07
374.26	291.81
374.641	301.31
375.021	293.17
375.402	312.83
375.783	280.52
376.163	313.06
376.544	298.59
376.925	299.95
377.305	308.54
377.686	305.37
378.066	307.63
378.447	327.07
378.827	292.49
379.208	306.28
379.588	325.49
379.968	310.57
380.349	307.18
380.729	319.61
381.109	340.85
381.489	315.99
381.87	338.14
382.25	330.46
382.63	339.95
383.01	323.23
383.39	311.93
383.77	318.93
384.15	334.07
384.53	321.42
384.91	322.55
385.29	342.66
385.67	323.68
386.049	333.62
386.429	331.81
386.809	338.14
387.189	323.9
387.568	316.45
387.948	342.89
388.328	329.55
388.707	320.97
389.087	335.88
389.466	313.73
389.846	333.4
390.225	348.54
390.605	325.94
390.984	347.18
391.363	353.06
391.743	347.63
392.122	337.46
392.501	362.55
392.881	369.33
393.26	344.47
393.639	363.45
394.018	344.02
394.397	361.87
394.776	345.82
395.155	365.71
395.534	353.73
395.913	353.96
396.292	360.06
396.671	346.05
397.05	361.19
397.429	359.61
397.808	365.71
398.186	358.71
398.565	373.85
398.944	372.04
399.323	360.97
399.701	357.58
400.08	367.52
400.458	386.28
400.837	378.37
401.215	371.59
401.594	381.76
401.972	377.01
402.351	376.11
402.729	387.18
403.107	368.87
403.486	378.82
403.864	386.5
404.242	390.12
404.62	374.52
404.999	393.73
405.377	380.63
405.755	384.69
406.133	412.04
406.511	376.78
406.889	387.63
407.267	397.35
407.645	405.03
408.023	391.02
408.401	409.55
408.779	387.86
409.156	402.32
409.534	417.23
409.912	410.46
410.29	408.65
410.667	405.03
411.045	421.75
411.422	414.07
411.8	438.93
412.178	424.69
412.555	426.73
412.933	434.64
413.31	410.46
413.687	434.86
414.065	434.64
414.442	434.64
414.819	471.24
415.197	442.77
415.574	448.19
415.951	446.84
416.328	431.02
416.705	439.38
417.082	434.86
417.46	463.34
417.837	466.5
418.214	459.27
418.591	481.41
418.967	465.6
419.344	486.39
419.721	470.11
420.098	462.88
420.475	467.63
420.852	479.61
421.228	487.52
421.605	457.23
421.982	478.7
422.358	471.92
422.735	499.27
423.111	473.96
423.488	494.52
423.864	495.88
424.241	487.29
424.617	493.16
424.994	498.36
425.37	516.89
425.746	486.16
426.123	500.85
426.499	506.72
426.875	502.66
427.251	513.5
427.627	514.41
428.003	532.49
428.379	525.71
428.756	550.34
429.132	531.13
429.507	556.67
429.883	538.81
430.259	529.77
430.635	548.08
431.011	557.8
431.387	573.84
431.763	576.78
432.138	558.47
432.514	558.02
432.89	562.77
433.265	573.39
433.641	582.43
434.016	598.7
434.392	600.96
434.767	609.55
435.143	605.48
435.518	608.87
435.894	616.1
436.269	610.22
436.644	596.21
437.02	600.05
437.395	630.56
437.77	629.88
438.145	623.11
438.52	638.7
438.895	641.41
439.271	635.53
439.646	661.97
440.021	642.54
440.395	667.4
440.77	638.25
441.145	661.3
441.52	656.32
441.895	685.25
442.27	674.63
442.645	652.26
443.019	660.84
443.394	678.92
443.769	715.31
444.143	689.54
444.518	697.23
444.892	694.74
445.267	677.34
445.641	701.07
446.016	720.73
446.39	691.13
446.764	730.45
447.139	704.01
447.513	718.92
447.887	723.89
448.262	694.52
448.636	704.46
449.01	715.76
449.384	728.41
449.758	754.18
450.132	745.81
450.506	764.57
450.88	753.95
451.254	745.36
451.628	776.77
452.002	770.9
452.376	760.5
452.75	757.79
453.123	766.83
453.497	776.1
453.871	812.93
454.244	800.73
454.618	796.21
454.992	807.73
455.365	814.06
455.739	816.55
456.112	831.46
456.486	830.33
456.859	827.62
457.232	840.73
457.606	856.09
457.979	844.79
458.352	882.99
458.725	889.99
459.099	895.64
459.472	893.61
459.845	882.31
460.218	913.72
460.591	920.5
460.964	943.32
461.337	941.97
461.71	937.67
462.083	949.2
462.456	943.77
462.829	937.22
463.201	954.85
463.574	941.74
463.947	980.38
464.32	1004.56
464.692	1018.8
465.065	1026.26
465.438	1004.11
465.81	1038.69
466.183	1028.74
466.555	1049.76
466.928	1075.3
467.3	1067.39
467.672	1081.85
468.045	1067.61
468.417	1086.14
468.789	1093.15
469.161	1108.29
469.534	1132.47
469.906	1129.53
470.278	1164.79
470.65	1163.88
471.022	1167.95
471.394	1192.13
471.766	1211.11
472.138	1230.55
472.51	1244.33
472.882	1254.05
473.253	1270.32
473.625	1279.58
473.997	1290.43
474.369	1288.85
474.74	1306.25
475.112	1346.93
475.484	1329.98
475.855	1369.98
476.227	1375.85
476.598	1411.78
476.97	1394.84
477.341	1443.2
477.713	1447.49
478.084	1464.21
478.455	1495.17
478.827	1487.26
479.198	1544.44
479.569	1554.15
479.94	1579.92
480.311	1610.65
480.682	1619.69
481.053	1667.37
481.424	1664.66
481.795	1699.91
482.166	1694.72
482.537	1734.71
482.908	1742.85
483.279	1788.5
483.65	1790.76
484.021	1826.92
484.391	1834.15
484.762	1862.17
485.133	1892.9
485.503	1908.72
485.874	1924.09
486.244	1930.19
486.615	1962.5
486.985	2005.44
487.356	2029.62
487.726	2045.44
488.097	2050.64
488.467	2088.83
488.837	2136.06
489.207	2148.94
489.578	2149.84
489.948	2201.82
490.318	2224.42
490.688	2246.79
491.058	2263.06
491.428	2276.85
491.798	2321.37
492.168	2379.22
492.538	2357.52
492.908	2417.18
493.278	2359.78
493.648	2418.99
494.017	2459.21
494.387	2444.53
494.757	2471.87
495.126	2520.68
495.496	2542.83
495.866	2541.25
496.235	2586.67
496.605	2610.17
496.974	2615.37
497.344	2644.75
497.713	2666.67
498.082	2670.51
498.452	2723.61
498.821	2728.36
499.19	2713.9
499.559	2716.38
499.928	2752.54
500.298	2793.67
500.667	2792.54
501.036	2808.58
501.405	2859.2
501.774	2861.46
502.143	2843.39
502.512	2870.73
502.88	2900.79
503.249	2944.17
503.618	2912.31
503.987	2939.43
504.356	2977.17
504.724	2951.41
505.093	2970.84
505.462	3008.13
505.83	3033.66
506.199	3049.03
506.567	3084.06
506.936	3094.45
507.304	3113.66
507.672	3155.24
508.041	3178.97
508.409	3175.81
508.777	3197.05
509.145	3257.84
509.514	3262.36
509.882	3268.01
510.25	3275.92
510.618	3314.11
510.986	3328.34
511.354	3308.91
511.722	3364.5
512.09	3431.62
512.458	3374.9
512.826	3396.37
513.193	3467.32
513.561	3498.06
513.929	3507.32
514.297	3562.01
514.664	3551.16
515.032	3585.74
515.4	3587.77
515.767	3630.94
516.135	3647.88
516.502	3634.1
516.869	3718.16
517.237	3730.37
517.604	3687.43
517.972	3764.49
518.339	3773.08
518.706	3806.75
519.073	3830.7
519.44	3880.19
519.808	3903.92
520.175	3915.67
520.542	3970.14
520.909	3970.81
521.276	3964.71
521.643	4067.99
522.009	4103.24
522.376	4115.44
522.743	4114.09
523.11	4178.27
523.477	4204.25
523.843	4263.69
524.21	4263.24
524.577	4337.36
524.943	4368.32
525.31	4347.3
525.676	4439.28
526.043	4432.27
526.409	4454.42
526.776	4541.42
527.142	4580.97
527.508	4557.24
527.874	4602.89
528.241	4624.13
528.607	4668.42
528.973	4712.26
529.339	4751.81
529.705	4744.13
530.071	4787.74
530.437	4825.93
530.803	4871.35
531.169	4874.52
531.535	4883.78
531.901	4910.22
532.267	4948.19
532.632	4985.93
532.998	5013.95
533.364	5056.66
533.73	5052.82
534.095	5083.55
534.461	5104.57
534.826	5151.57
535.192	5147.96
535.557	5220.05
535.923	5237.9
536.288	5225.92
536.653	5296.65
537.019	5302.53
537.384	5408.52
537.749	5428.4
538.114	5403.77
538.479	5447.16
538.845	5472.7
539.21	5541.17
539.575	5556.99
539.94	5576.42
540.305	5571.9
540.67	5618
541.034	5626.36
541.399	5665.46
541.764	5679.47
542.129	5732.8
542.494	5740.94
542.858	5788.17
543.223	5787.26
543.587	5856.41
543.952	5871.1
544.316	5871.78
544.681	5940.48
545.045	5980.48
545.41	6008.5
545.774	6049.4
546.138	6093.02
546.503	6095.5
546.867	6128.72
547.231	6236.74
547.595	6236.74
547.959	6279
548.324	6299.11
548.688	6294.14
549.052	6340.92
549.416	6422.5
549.779	6441.48
550.143	6438.09
550.507	6586.56
550.871	6570.07
551.235	6508.15
551.599	6639.67
551.962	6707.01
552.326	6700.01
552.689	6806.22
553.053	6775.94
553.417	6829.5
553.78	6909.27
554.143	6951.75
554.507	6984.07
554.87	7109.71
555.234	7170.05
555.597	7228.13
555.96	7214.12
556.323	7304.74
556.686	7283.04
557.05	7429.93
557.413	7431.29
557.776	7490.04
558.139	7595.35
558.502	7562.81
558.865	7670.15
559.228	7766.19
559.59	7793.99
559.953	7909.92
560.316	7999.18
560.679	7937.26
561.041	8145.17
561.404	8160.53
561.767	8289.57
562.129	8291.83
562.492	8428.78
562.854	8410.02
563.217	8500.19
563.579	8558.49
563.941	8573.4
564.304	8704.47
564.666	8867.41
565.028	8904.92
565.39	8919.16
565.753	9019.95
566.115	9075.09
566.477	9207.51
566.839	9271.01
567.201	9365.7
567.563	9361.41
567.925	9520.5
568.287	9606.37
568.648	9637.78
569.01	9695.86
569.372	9804.56
569.734	9823.77
570.095	10015.4
570.457	10116.19
570.819	10155.96
571.18	10154.38
571.542	10258.33
571.903	10358.89
572.265	10456.74
572.626	10536.06
572.987	10551.43
573.349	10590.53
573.71	10797.3
574.071	10823.06
574.432	10835.49
574.794	10946.45
575.155	11051.08
575.516	11047.69
575.877	11149.16
576.238	11270.96
576.599	11325.2
576.96	11390.96
577.32	11420.11
577.681	11578.75
578.042	11697.84
578.403	11764.06
578.763	11739.87
579.124	11900.55
579.485	11936.71
579.845	12034.56
580.206	11970.38
580.566	12140.54
580.927	12159.75
581.287	12285.85
581.648	12191.84
582.008	12359.07
582.368	12368.11
582.728	12429.12
583.089	12510.25
583.449	12511.61
583.809	12667.53
584.169	12646.74
584.529	12682.22
584.889	12831.37
585.249	12829.11
585.609	12851.71
585.969	12878.83
586.329	12969.22
586.688	13024.13
587.048	13089.22
587.408	13035.66
587.768	13110.69
588.127	13180.97
588.487	13222.32
588.846	13385.93
589.206	13243.56
589.565	13401.53
589.925	13450.11
590.284	13422.09
590.643	13535.08
591.003	13542.99
591.362	13569.21
591.721	13662.76
592.08	13643.1
592.44	13694.85
592.799	13780.27
593.158	13762.19
593.517	13865.92
593.876	13862.76
594.235	13910.21
594.593	13927.16
594.952	14112.02
595.311	13983.88
595.67	14076.76
596.029	14145.24
596.387	14167.83
596.746	14198.12
597.104	14173.48
597.463	14222.75
597.822	14259.58
598.18	14290.32
598.538	14239.47
598.897	14371.44
599.255	14258.45
599.613	14488.5
599.972	14623.64
600.33	14537.09
600.688	14497.77
601.046	14615.96
601.404	14675.16
601.762	14613.7
602.12	14705.45
602.478	14760.59
602.836	14828.38
603.194	14770.76
603.552	14726.46
603.91	14745.67
604.268	14878.78
604.625	14864.54
604.983	14967.13
605.341	14854.6
605.698	15030.64
606.056	15047.13
606.413	15004.42
606.771	15075.15
607.128	15242.83
607.485	15136.85
607.843	15123.29
608.2	15212.1
608.557	15245.09
608.914	15193.34
609.272	15377.07
609.629	15314.24
609.986	15439.66
610.343	15260.69
610.7	15452.32
611.057	15493.22
611.414	15470.17
611.771	15538.19
612.127	15558.98
612.484	15582.71
612.841	15652.54
613.198	15692.54
613.554	15692.99
613.911	15740.22
614.267	15782.48
614.624	15795.59
614.98	15777.73
615.337	15849.15
615.693	15818.64
616.05	15839.2
616.406	15978.18
616.762	15938.18
617.118	15887.56
617.475	15925.98
617.831	16023.6
618.187	16039.65
618.543	16051.85
618.899	16097.95
619.255	15996.71
619.611	16098.63
619.967	16163.49
620.323	16129.82
620.678	16164.17
621.034	16128.23
621.39	16143.83
621.746	16114.9
622.101	16245.97
622.457	16147.89
622.812	16198.51
623.168	16266.99
623.523	16334.1
623.879	16307.89
624.234	16177.95
624.589	16322.58
624.945	16392.41
625.3	16330.26
625.655	16345.4
626.01	16307.66
626.365	16418.85
626.72	16351.96
627.075	16323.26
627.43	16352.86
627.785	16372.97
628.14	16301.79
628.495	16387.44
628.85	16339.53
629.205	16396.02
629.559	16353.54
629.914	16365.97
630.269	16311.05
630.623	16279.87
630.978	16310.38
631.332	16346.76
631.687	16386.98
632.041	16278.06
632.396	16318.51
632.75	16340.88
633.104	16247.33
633.459	16261.11
633.813	16255.69
634.167	16258.17
634.521	16266.99
634.875	16431.05
635.229	16191.28
635.583	16169.81
635.937	16262.92
636.291	16187.44
636.645	16258.63
636.999	16096.14
637.352	16191.74
637.706	16193.77
638.06	16243.26
638.413	16170.94
638.767	16132.53
639.121	16067.44
639.474	16060.21
639.828	16001.23
640.181	16029.71
640.534	16076.03
640.888	16073.77
641.241	16001.91
641.594	15945.64
641.947	16010.95
642.301	15991.51
642.654	15948.58
643.007	15970.72
643.36	16070.16
643.713	15971.18
644.066	16050.5
644.419	15950.61
644.771	15849.15
645.124	15728.7
645.477	15685.31
645.83	15564.18
646.182	15467.23
646.535	15482.83
646.888	15544.07
647.24	15457.74
647.593	15466.1
647.945	15419.1
648.298	15425.2
648.65	15357.63
649.002	15326.9
649.355	15402.38
649.707	15329.84
650.059	15542.71
650.411	15674.91
650.763	15701.35
651.115	15874
651.467	15832.87
651.819	15805.53
652.171	15816.83
652.523	15740.22
652.875	15765.98
653.227	15653.9
653.578	15746.32
653.93	15783.84
654.282	15737.06
654.633	15676.72
654.985	15646.66
655.337	15676.49
655.688	15736.38
656.039	15803.04
656.391	15616.38
656.742	15680.56
657.094	15637.4
657.445	15724.18
657.796	15786.1
658.147	15706.32
658.498	15681.92
658.849	15728.02
659.2	15696.61
659.551	15633.78
659.902	15669.04
660.253	15679.66
660.604	15844.4
660.955	15740.45
661.306	15738.19
661.656	15667.23
662.007	15667.46
662.358	15700.45
662.708	15687.57
663.059	15723.05
663.409	15570.73
663.76	15748.81
664.11	15697.74
664.461	15862.03
664.811	15808.69
665.161	15777.96
665.511	15697.96
665.862	15832.2
666.212	15814.12
666.562	15697.96
666.912	15890.05
667.262	15779.32
667.612	15774.35
667.962	15856.15
668.312	15826.1
668.662	15923.27
669.011	15846.66
669.361	15790.84
669.711	15772.54
670.06	15851.18
670.41	15769.6
670.76	15813.89
671.109	15887.11
671.459	15815.47
671.808	15796.27
672.157	15823.16
672.507	15702.48
672.856	15776.15
673.205	15841.46
673.554	15836.94
673.904	15810.73
674.253	15860.44
674.602	15871.74
674.951	15571.64
675.3	15544.97
675.649	15821.58
675.998	15827.68
676.346	15791.07
676.695	15861.35
677.044	15698.64
677.393	15788.36
677.741	15850.05
678.09	15789.49
678.438	15688.92
678.787	15826.77
679.135	15768.92
679.484	15656.61
679.832	15843.5
680.181	15624.07
680.529	15764.85
680.877	15706.1
681.225	15729.15
681.573	15856.15
681.922	15731.18
682.27	15701.35
682.618	15719.43
682.966	15674.23
683.314	15747
683.661	15648.7
684.009	15678.53
684.357	15583.84
684.705	15589.94
685.053	15636.27
685.4	15684.63
685.748	15546.78
686.095	15619.55
686.443	15540.23
686.79	15524.86
687.138	15443.51
687.485	15502.49
687.832	15472.43
688.18	15514.01
688.527	15465.88
688.874	15391.98
689.221	15357.41
689.568	15427.69
689.915	15396.05
690.262	15419.1
690.609	15347.01
690.956	15228.6
691.303	15303.85
691.65	15259.56
691.997	15213.23
692.344	15173.91
692.69	15219.33
693.037	15204.19
693.383	15120.35
693.73	15062.73
694.077	15020.92
694.423	15150.63
694.769	15017.75
695.116	14910.19
695.462	14985.89
695.808	14971.43
696.155	15016.17
696.501	14950.19
696.847	14883.52
697.193	14847.36
697.539	14908.61
697.885	14810.75
698.231	14794.94
698.577	14853.24
698.923	14724.66
699.269	14758.78
699.614	14676.75
699.96	14641.72
700.306	14646.47
700.651	14594.04
700.997	14530.54
701.342	14570.31
701.688	14599.69
702.033	14453.48
702.379	14596.52
702.724	14501.84
703.069	14504.32
703.415	14372.35
703.76	14378.22
704.105	14374.38
704.45	14385.46
704.795	14315.85
705.14	14288.06
705.485	14318.34
705.83	14229.3
706.175	14219.13
706.52	14253.93
706.865	14217.1
707.209	14196.08
707.554	14091.68
707.899	14121.06
708.243	14067.05
708.588	14111.79
708.932	14009.87
709.277	14121.96
709.621	14062.3
709.966	13968.97
710.31	14060.94
710.654	13911.8
710.998	13955.41
711.342	14033.83
711.687	13973.71
712.031	13886.71
712.375	13871.8
712.719	13901.63
713.063	13852.14
713.407	13911.34
713.75	13852.59
714.094	13853.94
714.438	13817.11
714.782	13751.12
715.125	13742.08
715.469	13815.53
715.812	13727.85
716.156	13631.58
716.499	13591.58
716.843	13674.51
717.186	13541.64
717.53	13759.48
717.873	13610.56
718.216	13658.92
718.559	13558.58
718.902	13515.65
719.246	13558.13
719.589	13500.28
719.932	13575.08
720.275	13510.9
720.617	13528.53
720.96	13456.21
721.303	13505.48
721.646	13476.33
721.989	13438.14
722.331	13425.48
722.674	13443.11
723.016	13398.36
723.359	13392.49
723.701	13486.5
724.044	13344.58
724.386	13291.02
724.729	13298.7
725.071	13377.57
725.413	13349.1
725.755	13338.25
726.097	13270
726.439	13247.18
726.782	13245.82
727.124	13323.56
727.465	13291.25
727.807	13328.31
728.149	13235.65
728.491	13179.84
728.833	13240.4
729.175	13165.6
729.516	13163.57
729.858	13154.08
730.199	13170.57
730.541	13205.15
730.882	13090.8
731.224	13238.59
731.565	13098.03
731.906	13067.07
732.248	13143.91
732.589	13041.99
732.93	13002.89
733.271	13128.54
733.612	13042.44
733.953	13062.1
734.294	13013.74
734.635	12982.55
734.976	13025.04
735.317	13006.51
735.658	12945.49
735.999	12913.4
736.339	12926.96
736.68	12990.46
737.021	12924.48
737.361	12837.25
737.702	12990.92
738.042	12896.45
738.383	12954.76
738.723	12911.14
739.063	12821.43
739.404	12805.84
739.744	12792.73
740.084	12728.78
740.424	12786.63
740.764	12706.63
741.104	12742.33
741.444	12612.17
741.784	12663.24
742.124	12678.83
742.464	12719.28
742.804	12711.6
743.143	12689.91
743.483	12673.64
743.823	12527.65
744.162	12573.07
744.502	12602.9
744.841	12532.4
745.181	12608.1
745.52	12465.73
745.86	12529.91
746.199	12526.07
746.538	12507.31
746.877	12532.85
747.216	12496.92
747.556	12461.21
747.895	12477.26
748.234	12404.49
748.573	12309.8
748.911	12325.62
749.25	12283.59
749.589	12357.49
749.928	12315.23
750.267	12367.2
750.605	12292.85
750.944	12321.1
751.283	12155.68
751.621	12264.38
751.96	12133.31
752.298	12207.43
752.636	12110.26
752.975	12085.4
753.313	12083.14
753.651	12080.88
753.989	12028.23
754.327	12062.35
754.666	12011.73
755.004	11978.06
755.342	11981.68
755.679	11961.56
756.017	11801.34
756.355	11870.27
756.693	11842.25
757.031	11859.87
757.368	11792.3
757.706	11721.34
758.044	11663.94
758.381	11716.82
758.719	11649.48
759.056	11693.32
759.394	11635.7
759.731	11538.52
760.068	11530.16
760.405	11458.75
760.743	11437.96
761.08	11471.86
761.417	11398.41
761.754	11354.8
762.091	11323.61
762.428	11258.53
762.765	11268.25
763.102	11292.88
763.438	11176.27
763.775	11163.39
764.112	11244.52
764.449	11105.09
764.785	11011.08
765.122	11036.84
765.458	11007.46
765.795	11031.64
766.131	10927.24
766.467	10871.2
766.804	10866.9
767.14	10769.28
767.476	10800.24
767.812	10767.47
768.148	10642.73
768.485	10689.51
768.821	10553.24
769.157	10622.16
769.492	10602.28
769.828	10558.66
770.164	10447.03
770.5	10399.8
770.836	10500.13
771.171	10319.35
771.507	10287.26
771.842	10306.92
772.178	10284.09
772.513	10232.8
772.849	10145.34
773.184	10146.47
773.519	10170.88
773.855	10108.05
774.19	10066.47
774.525	10003.2
774.86	10041.39
775.195	10002.52
775.53	9903.09
775.865	9908.96
776.2	9803.65
776.535	9762.75
776.87	9697.89
777.205	9660.38
777.539	9687.73
777.874	9621.06
778.209	9546.26
778.543	9564.34
778.878	9497.67
779.212	9457.68
779.547	9417.22
779.881	9400.73
780.215	9375.87
780.55	9384.46
780.884	9289.77
781.218	9252.93
781.552	9276.21
781.886	9225.14
782.22	9148.98
782.554	9136.78
782.888	9019.72
783.222	9052.49
783.556	8978.82
783.889	8978.14
784.223	8938.59
784.557	8860.85
784.89	8877.58
785.224	8829.22
785.557	8759.39
785.891	8764.59
786.224	8796.22
786.558	8716.68
786.891	8621.99
787.224	8631.48
787.557	8602.78
787.891	8586.29
788.224	8536.12
788.557	8535.44
788.89	8443.46
789.223	8408.89
789.556	8361.88
789.888	8396.46
790.221	8258.61
790.554	8327.76
790.887	8324.15
791.219	8177.93
791.552	8223.13
791.884	8201.44
792.217	8163.25
792.549	8138.61
792.882	8085.51
793.214	8004.38
793.546	8016.13
793.879	8033.53
794.211	7963.93
794.543	7952.63
794.875	7904.04
795.207	7911.28
795.539	7874.21
795.871	7862.91
796.203	7775.23
796.535	7769.13
796.867	7706.99
797.198	7672.19
797.53	7683.71
797.862	7637.16
798.193	7625.18
798.525	7637.16
798.856	7566.65
799.188	7482.13
799.519	7489.82
799.85	7462.47
800.182	7451.4
800.513	7434.68
800.844	7364.85
801.175	7374.79
801.506	7340.22
801.837	7293.66
802.168	7262.03
802.499	7326.21
802.83	7216.83
803.161	7213.44
803.491	7231.97
803.822	7233.55
804.153	7159.66
804.483	7089.6
804.814	7057.51
805.145	7086.66
805.475	7044.41
805.805	7045.31
806.136	6982.94
806.466	6986.33
806.796	6970.28
807.126	6892.32
807.457	6879.89
807.787	6903.39
808.117	6863.62
808.447	6875.14
808.777	6864.07
809.107	6845.77
809.436	6770.74
809.766	6804.86
810.096	6741.14
810.426	6707.92
810.755	6720.12
811.085	6656.62
811.414	6731.65
811.744	6652.55
812.073	6633.79
812.403	6631.99
812.732	6554.02
813.061	6575.72
813.39	6533.46
813.719	6465.66
814.049	6495.27
814.378	6490.07
814.707	6390.19
815.036	6484.87
815.365	6439
815.693	6335.05
816.022	6335.72
816.351	6321.49
816.68	6301.37
817.008	6342.5
817.337	6317.42
817.665	6255.27
817.994	6270.87
818.322	6300.02
818.651	6233.81
818.979	6133.47
819.307	6163.3
819.636	6169.17
819.964	6146.35
820.292	6127.59
820.62	6130.98
820.948	6085.56
821.276	6136.41
821.604	6093.92
821.932	6169.4
822.259	6104.77
822.587	6062.74
822.915	6006.69
823.243	6118.33
823.57	6107.93
823.898	6080.59
824.225	6075.39
824.553	6035.62
824.88	6060.02
825.207	6083.3
825.535	6050.76
825.862	6032.23
826.189	5984.09
826.516	6034.49
826.843	6088.5
827.17	6044.88
827.497	6050.98
827.824	6053.02
828.151	5996.52
828.478	6013.25
828.805	6036.07
829.131	6020.93
829.458	5966.92
829.785	5926.24
830.111	5988.16
830.438	6014.83
830.764	5989.07
831.09	5990.2
831.417	5976.86
831.743	5949.29
832.069	5921.5
832.395	5945.45
832.722	5960.37
833.048	5919.24
833.374	5901.61
833.7	5872.01
834.026	5880.37
834.351	5932.34
834.677	5858.67
835.003	5876.75
835.329	5866.13
835.654	5866.36
835.98	5844.21
836.306	5771.22
836.631	5831.56
836.956	5829.97
837.282	5820.71
837.607	5769.86
837.932	5746.81
838.258	5759.24
838.583	5779.35
838.908	5710.65
839.233	5741.39
839.558	5643.09
839.883	5665.23
840.208	5717.43
840.533	5649.19
840.858	5640.83
841.182	5660.94
841.507	5696.64
841.832	5629.53
842.156	5610.32
842.481	5593.82
842.805	5558.34
843.13	5588.62
843.454	5585.91
843.778	5588.62
844.103	5505.69
844.427	5502.07
844.751	5521.06
845.075	5570.55
845.399	5458.01
845.723	5497.33
846.047	5444.9
846.371	5444.67
846.695	5438.35
847.019	5366.03
847.343	5331.91
847.666	5357.44
847.99	5272.25
848.313	5273.6
848.637	5246.49
848.96	5253.72
849.284	5178.24
849.607	5188.41
849.931	5135.98
850.254	5169.65
850.577	5140.95
850.9	5037.68
851.223	5031.12
851.546	5059.15
851.869	5020.28
852.192	5041.07
852.515	5022.54
852.838	4942.09
853.161	4946.83
853.483	4980.5
853.806	4929.88
854.129	4939.38
854.451	4888.3
854.774	4891.24
855.096	4886.04
855.419	4843.33
855.741	4844.01
856.063	4830.23
856.385	4797.23
856.708	4778.93
857.03	4762.21
857.352	4807.18
857.674	4700.96
857.996	4738.7
858.318	4692.15
858.64	4683.79
858.961	4660.51
859.283	4639.95
859.605	4622.32
859.926	4709.55
860.248	4649.21
860.57	4612.38
860.891	4580.74
861.212	4594.53
861.534	4590.68
861.855	4547.97
862.176	4578.03
862.498	4579.61
862.819	4583.23
863.14	4526.28
863.461	4548.65
863.782	4491.25
864.103	4517.24
864.424	4512.04
864.745	4510.46
865.065	4491.7
865.386	4457.13
865.707	4424.36
866.027	4447.86
866.348	4449.9
866.668	4436.56
866.989	4435.43
867.309	4364.48
867.63	4435.66
867.95	4391.82
868.27	4354.76
868.59	4359.28
868.91	4396.57
869.23	4375.32
869.55	4332.84
869.87	4330.8
870.19	4383.46
870.51	4342.33
870.83	4348.2
871.15	4348.43
871.469	4314.99
871.789	4324.7
872.109	4331.93
872.428	4266.85
872.748	4289
873.067	4343.01
873.386	4286.51
873.706	4296.91
874.025	4252.84
874.344	4215.55
874.663	4276.57
874.982	4238.38
875.301	4264.59
875.62	4239.51
875.939	4198.15
876.258	4222.56
876.577	4180.98
876.896	4175.55
877.214	4147.31
877.533	4166.29
877.852	4176.91
878.17	4205.38
878.489	4169.23
878.807	4134.65
879.125	4128.1
879.444	4109.12
879.762	4155.44
880.08	4151.15
880.398	4128.1
880.716	4063.47
881.034	4048.55
881.352	4098.49
881.67	4087.65
881.988	4104.37
882.306	4075.67
882.624	4059.17
882.941	4031.6
883.259	4026.63
883.577	4012.85
883.894	3976.46
884.212	4027.31
884.529	4006.97
884.846	4009.91
885.164	3990.7
885.481	3955.9
885.798	3976.24
886.115	3948.44
886.432	3981.89
886.75	3929.46
887.067	3903.7
887.383	3919.52
887.7	3910.7
888.017	3908.67
888.334	3867.31
888.651	3924.71
888.967	3855.56
889.284	3842.91
889.6	3841.33
889.917	3844.04
890.233	3807.65
890.55	3800.87
890.866	3769.46
891.182	3790.48
891.498	3793.87
891.815	3738.73
892.131	3777.15
892.447	3790.25
892.763	3748.45
893.079	3688.79
893.395	3723.14
893.71	3708.22
894.026	3696.24
894.342	3657.83
894.657	3657.6
894.973	3680.43
895.289	3657.6
895.604	3695.79
895.92	3642.69
896.235	3629.35
896.55	3574.44
896.865	3618.73
897.181	3586.87
897.496	3651.27
897.811	3622.12
898.126	3597.72
898.441	3564.5
898.756	3551.16
899.071	3508
899.386	3553.42
899.7	3480.88
900.015	3520.2
900.33	3473.65
900.644	3481.56
900.959	3459.64
901.273	3444.27
901.588	3445.86
901.902	3448.57
902.216	3436.14
902.531	3449.7
902.845	3381.9
903.159	3412.18
903.473	3370.15
903.787	3355.91
904.101	3348.23
904.415	3301.68
904.729	3314.11
905.042	3326.54
905.356	3293.54
905.67	3297.16
905.984	3302.81
906.297	3281.57
906.611	3250.38
906.924	3272.75
907.237	3229.14
907.551	3236.82
907.864	3204.05
908.177	3218.52
908.491	3210.83
908.804	3161.8
909.117	3194.11
909.43	3191.63
909.743	3150.04
910.056	3139.88
910.368	3121.34
910.681	3108.46
910.994	3097.16
911.307	3117.05
911.619	3049.71
911.932	3067.11
912.244	3056.26
912.557	3075.47
912.869	3027.56
913.181	3032.53
913.494	3018.52
913.806	2980.11
914.118	2980.33
914.43	2958.64
914.742	2973.55
915.054	2949.82
915.366	2946.21
915.678	2945.76
915.99	2951.86
916.302	2900.56
916.613	2922.93
916.925	2908.02
917.236	2878.41
917.548	2861.92
917.859	2891.52
918.171	2863.95
918.482	2844.29
918.794	2822.82
919.105	2827.34
919.416	2840.67
919.727	2809.71
920.038	2828.7
920.349	2757.51
920.66	2753.9
920.971	2770.85
921.282	2763.61
921.593	2699.43
921.903	2706.21
922.214	2695.82
922.525	2673.67
922.835	2661.02
923.146	2671.64
923.456	2689.49
923.767	2640
924.077	2692.43
924.387	2612.43
924.697	2584.64
925.008	2619.21
925.318	2637.29
925.628	2607.91
925.938	2571.75
926.248	2537.41
926.558	2565.88
926.867	2551.42
927.177	2559.55
927.487	2535.37
927.796	2485.88
928.106	2521.36
928.416	2496.95
928.725	2489.95
929.034	2500.34
929.344	2485.88
929.653	2462.38
929.962	2437.75
930.271	2452.44
930.581	2458.99
930.89	2443.85
931.199	2425.54
931.508	2419.22
931.817	2435.71
932.125	2386.9
932.434	2419.67
932.743	2395.94
933.051	2367.47
933.36	2388.71
933.669	2365.66
933.977	2367.01
934.286	2344.64
934.594	2334.92
934.902	2310.29
935.21	2338.99
935.519	2322.72
935.827	2278.2
936.135	2268.71
936.443	2271.65
936.751	2280.91
937.059	2262.61
937.367	2234.81
937.674	2249.73
937.982	2237.53
938.29	2245.44
938.597	2221.03
938.905	2189.17
939.213	2184.87
939.52	2195.72
939.827	2229.16
940.135	2190.97
940.442	2137.42
940.749	2165.44
941.056	2169.28
941.363	2133.8
941.67	2181.03
941.977	2133.12
942.284	2131.09
942.591	2134.25
942.898	2120.47
943.205	2115.27
943.511	2106.23
943.818	2092.44
944.125	2057.64
944.431	2066.46
944.738	2070.3
945.044	2075.27
945.35	2060.81
945.657	2057.87
945.963	2052.9
946.269	2021.26
946.575	2024.65
946.881	1983.97
947.187	1965.22
947.493	1993.24
947.799	1976.06
948.105	1971.09
948.41	1975.39
948.716	1978.78
949.022	2001.83
949.327	1950.53
949.633	1924.09
949.938	1921.83
950.244	1930.87
950.549	1944.88
950.854	1918.44
951.16	1906.01
951.465	1924.09
951.77	1916.86
952.075	1894.94
952.38	1844.77
952.685	1867.37
952.99	1847.03
953.294	1885.9
953.599	1826.69
953.904	1827.82
954.209	1875.05
954.513	1834.37
954.818	1814.71
955.122	1836.63
955.426	1817.88
955.731	1812.45
956.035	1826.92
956.339	1807.48
956.643	1779.91
956.948	1774.71
957.252	1768.16
957.556	1765.22
957.86	1763.19
958.163	1760.93
958.467	1747.14
958.771	1734.49
959.075	1722.29
959.378	1729.97
959.682	1725.67
959.985	1727.93
960.289	1708.05
960.592	1721.38
960.896	1681.38
961.199	1702.17
961.502	1675.96
961.805	1689.97
962.108	1649.97
962.411	1675.96
962.714	1658.11
963.017	1624.89
963.32	1635.28
963.623	1638.22
963.926	1633.93
964.228	1648.61
964.531	1641.84
964.833	1629.41
965.136	1588.28
965.438	1612.01
965.741	1596.19
966.043	1607.71
966.345	1607.03
966.648	1580.37
966.95	1583.08
967.252	1566.36
967.554	1578.33
967.856	1567.49
968.158	1554.15
968.46	1543.08
968.761	1550.99
969.063	1527.71
969.365	1540.6
969.666	1537.88
969.968	1506.92
970.269	1508.73
970.571	1496.53
970.872	1515.74
971.174	1517.32
971.475	1504.66
971.776	1501.27
972.077	1473.48
972.378	1476.87
972.679	1473.48
972.98	1480.26
973.281	1464.89
973.582	1450.2
973.883	1492.01
974.183	1454.72
974.484	1428.06
974.785	1416.08
975.085	1454.04
975.386	1432.12
975.686	1438
975.986	1428.51
976.287	1426.93
976.587	1395.74
976.887	1413.59
977.187	1360.26
977.487	1392.35
977.787	1386.25
978.087	1414.27
978.387	1408.85
978.687	1381.28
978.987	1378.79
979.286	1348.96
979.586	1365.01
979.885	1347.61
980.185	1360.71
980.484	1354.61
980.784	1326.36
981.083	1345.12
981.382	1312.58
981.682	1350.32
981.981	1323.43
982.28	1334.05
982.579	1291.11
982.878	1318.68
983.177	1306.48
983.475	1280.94
983.774	1290.66
984.073	1262.18
984.372	1290.21
984.67	1259.47
984.969	1281.62
985.267	1285.01
985.566	1276.2
985.864	1278.46
986.162	1236.65
986.461	1249.3
986.759	1252.92
987.057	1223.54
987.355	1238
987.653	1242.3
987.951	1218.57
988.249	1225.8
988.547	1234.39
988.844	1212.02
989.142	1219.47
989.44	1197.1
989.737	1180.6
990.035	1198.01
990.332	1181.96
990.63	1208.63
990.927	1188.97
991.224	1175.18
991.521	1154.84
991.819	1177.67
992.116	1150.32
992.413	1147.16
992.71	1165.69
993.006	1133.83
993.303	1161.85
993.6	1142.64
993.897	1148.06
994.193	1147.84
994.49	1125.92
994.787	1140.38
995.083	1110.32
995.379	1140.15
995.676	1129.53
995.972	1108.06
996.268	1096.76
996.565	1119.82
996.861	1092.25
997.157	1111.45
997.453	1096.09
997.749	1086.6
998.044	1079.36
998.34	1088.86
998.636	1096.09
998.932	1079.36
999.227	1069.2
999.523	1054.28
999.818	1057.44
1000.114	1028.29
1000.409	1023.55
1000.704	1012.02
1001	1038.24
1001.295	1028.29
1001.59	1021.51
1001.885	1023.55
1002.18	1016.09
1002.475	1040.5
1002.77	1015.19
1003.065	1009.08
1003.359	1009.31
1003.654	1009.54
1003.949	986.03
1004.243	987.39
1004.538	1002.98
1004.832	945.58
1005.127	976.77
1005.421	964.57
1005.715	959.37
1006.009	951.68
1006.304	939.03
1006.598	945.36
1006.892	968.63
1007.186	955.3
1007.48	922.53
1007.773	914.62
1008.067	929.76
1008.361	910.56
1008.655	924.34
1008.948	905.36
1009.242	921.4
1009.535	902.42
1009.829	898.13
1010.122	920.5
1010.415	910.33
1010.708	884.34
1011.001	906.49
1011.295	903.78
1011.588	901.06
1011.881	889.99
1012.173	869.43
1012.466	888.41
1012.759	879.82
1013.052	878.24
1013.344	847.28
1013.637	842.53
1013.93	837.34
1014.222	859.94
1014.514	845.02
1014.807	821.97
1015.099	832.37
1015.391	831.24
1015.683	837.11
1015.976	852.25
1016.268	809.09
1016.56	827.62
1016.851	813.38
1017.143	810.67
1017.435	811.8
1017.727	801.63
1018.018	785.59
1018.31	825.13
1018.602	796.43
1018.893	792.82
1019.185	779.03
1019.476	799.37
1019.767	795.53
1020.058	791.24
1020.35	771.8
1020.641	782.87
1020.932	768.64
1021.223	736.32
1021.514	748.53
1021.804	740.16
1022.095	739.71
1022.386	715.98
1022.677	733.61
1022.967	758.92
1023.258	748.53
1023.548	721.63
1023.839	712.82
1024.129	734.51
1024.419	708.07
1024.709	719.83
1025	731.58
1025.29	711.46
1025.58	697.45
1025.87	727.51
1026.16	692.93
1026.449	710.11
1026.739	709.66
1027.029	704.68
1027.319	693.84
1027.608	681.86
1027.898	677.57
1028.187	686.61
1028.477	668.75
1028.766	647.74
1029.055	679.6
1029.344	670.56
1029.634	685.25
1029.923	651.58
1030.212	669.43
1030.501	655.42
1030.79	643.67
1031.078	643.44
1031.367	646.16
1031.656	619.94
1031.945	627.17
1032.233	622.88
1032.522	631.01
1032.81	626.95
1033.099	628.98
1033.387	602.54
1033.675	621.98
1033.963	618.13
1034.251	595.31
1034.54	601.18
1034.828	592.6
1035.116	617.46
1035.403	598.7
1035.691	597.12
1035.979	576.33
1036.267	608.42
1036.554	587.85
1036.842	577.68
1037.129	600.05
1037.417	601.41
1037.704	578.81
1037.992	586.95
1038.279	570.9
1038.566	605.48
1038.853	605.48
1039.14	605.48
