Data from brown_tile_FLMS001491_054.txt Node
Date: Tue Feb 07 10:37:42 GMT 2017
User: dcchb
Spectrometer: FLMS00149
Trigger mode: 0
Integration Time (sec): 2.000000E-2
Scans to average: 10
Electric dark correction enabled: true
Nonlinearity correction enabled: false
Boxcar width: 0
XAxis mode: Wavelengths
Number of Pixels in Spectrum: 2048
>>>>>Begin Spectral Data<<<<<
341.393	0.47
341.776	0.47
342.16	0.47
342.543	-59.42
342.927	-76.82
343.31	-59.42
343.693	-62.36
344.077	-56.71
344.46	-57.16
344.843	-48.35
345.226	-20.55
345.61	-25.3
345.993	-7.9
346.376	-16.26
346.759	8.38
347.142	20.35
347.525	51.54
347.908	41.37
348.291	63.97
348.674	77.53
349.057	90.86
349.44	130.41
349.823	142.61
350.206	192.1
350.588	190.29
350.971	202.95
351.354	220.57
351.737	220.35
352.119	253.57
352.502	248.6
352.884	247.92
353.267	272.78
353.65	276.39
354.032	283.85
354.414	292.44
354.797	284.75
355.179	309.61
355.562	326.33
355.944	322.49
356.326	313.9
356.709	310.97
357.091	304.64
357.473	329.5
357.855	312.55
358.238	314.36
358.62	315.71
359.002	326.79
359.384	321.36
359.766	331.08
360.148	340.8
360.53	326.11
360.912	310.29
361.294	316.62
361.676	315.49
362.057	320.01
362.439	310.97
362.821	306.45
363.203	310.06
363.584	308.48
363.966	307.12
364.348	296.05
364.729	292.44
365.111	295.83
365.493	313.23
365.874	302.38
366.256	308.25
366.637	292.89
367.019	317.29
367.4	301.93
367.781	280.68
368.163	304.86
368.544	274.58
368.925	302.38
369.306	293.11
369.688	305.09
370.069	291.53
370.45	305.09
370.831	290.18
371.212	295.83
371.593	303.51
371.974	288.82
372.355	301.48
372.736	285.88
373.117	305.99
373.498	291.76
373.879	304.86
374.26	280.46
374.641	312.77
375.021	285.88
375.402	311.64
375.783	300.35
376.163	303.06
376.544	312.77
376.925	314.58
377.305	305.77
377.686	347.35
378.066	294.7
378.447	324.3
378.827	282.49
379.208	296.73
379.588	314.58
379.968	299.22
380.349	307.12
380.729	302.38
381.109	306.67
381.489	321.59
381.87	297.86
382.25	309.38
382.63	317.75
383.01	313.68
383.39	331.98
383.77	315.71
384.15	305.54
384.53	334.69
384.91	324.07
385.29	333.11
385.67	313
386.049	331.76
386.429	313
386.809	336.05
387.189	323.17
387.568	312.77
387.948	315.49
388.328	335.6
388.707	335.6
389.087	341.93
389.466	311.42
389.846	327.01
390.225	323.4
390.605	344.64
390.984	335.37
391.363	358.2
391.743	345.54
392.122	345.32
392.501	356.84
392.881	353.68
393.26	356.16
393.639	329.27
394.018	345.99
394.397	344.19
394.776	347.58
395.155	360
395.534	369.5
395.913	348.03
396.292	333.11
396.671	364.75
397.05	361.59
397.429	366.56
397.808	381.02
398.186	368.59
398.565	339.67
398.944	390.06
399.323	345.32
399.701	381.7
400.08	363.17
400.458	337.86
400.837	374.92
401.215	389.38
401.594	370.85
401.972	370.85
402.351	360.91
402.729	378.31
403.107	376.95
403.486	385.31
403.864	373.56
404.242	397.97
404.62	378.76
404.999	387.35
405.377	398.87
405.755	391.19
406.133	402.94
406.511	391.87
406.889	394.58
407.267	407.01
407.645	404.07
408.023	425.54
408.401	402.26
408.779	394.58
409.156	408.36
409.534	419.66
409.912	415.14
410.29	429.16
410.667	420.57
411.045	417.63
411.422	423.96
411.8	451.3
412.178	414.01
412.555	415.82
412.933	433.45
413.31	454.69
413.687	456.73
414.065	447.01
414.442	435.71
414.819	436.61
415.197	427.57
415.574	456.73
415.951	479.32
416.328	460.57
416.705	439.32
417.082	444.97
417.46	462.15
417.837	474.13
418.214	459.66
418.591	464.86
418.967	483.39
419.344	473.22
419.721	464.63
420.098	468.93
420.475	461.24
420.852	470.28
421.228	477.29
421.605	455.37
421.982	483.17
422.358	500.57
422.735	495.59
423.111	492.2
423.488	490.62
423.864	494.92
424.241	494.92
424.617	505.09
424.994	497.18
425.37	501.47
425.746	512.99
426.123	501.47
426.499	515.25
426.875	509.61
427.251	531.98
427.627	524.52
428.003	520.68
428.379	539.43
428.756	536.95
429.132	545.08
429.507	548.25
429.883	545.76
430.259	564.07
430.635	564.97
431.011	549.83
431.387	563.84
431.763	569.72
432.138	576.72
432.514	574.24
432.89	578.3
433.265	582.37
433.641	586.67
434.016	612.43
434.392	584.41
434.767	612.88
435.143	596.16
435.518	632.31
435.894	628.25
436.269	618.75
436.644	625.53
437.02	621.01
437.395	630.73
437.77	655.36
438.145	635.03
438.52	623.5
438.895	621.24
439.271	650.17
439.646	664.86
440.021	661.69
440.395	642.71
440.77	661.01
441.145	666.44
441.52	674.8
441.895	675.7
442.27	690.62
442.645	677.96
443.019	688.58
443.394	675.48
443.769	694.46
444.143	670.96
444.518	707.11
444.892	707.11
445.267	678.64
445.641	702.37
446.016	698.98
446.39	702.59
446.764	705.76
447.139	705.08
447.513	729.03
447.887	699.2
448.262	699.2
448.636	732.2
449.01	746.21
449.384	756.15
449.758	725.19
450.132	752.99
450.506	729.49
450.88	761.35
451.254	731.75
451.628	766.55
452.002	762.03
452.376	788.47
452.75	788.02
453.123	782.59
453.497	802.48
453.871	784.63
454.244	822.82
454.618	817.39
454.992	818.98
455.365	815.81
455.739	833.89
456.112	823.5
456.486	849.94
456.859	866.21
457.232	871.63
457.606	872.53
457.979	868.69
458.352	881.12
458.725	882.48
459.099	899.65
459.472	884.74
459.845	905.98
460.218	920.22
460.591	911.18
460.964	903.04
461.337	959.99
461.71	937.16
462.083	973.55
462.456	966.99
462.829	982.81
463.201	985.52
463.574	985.3
463.947	986.65
464.32	1014
464.692	1000.21
465.065	979.42
465.438	1020.1
465.81	1060.55
466.183	1033.66
466.555	1068.69
466.928	1077.27
467.3	1078.86
467.672	1064.17
468.045	1106.65
468.417	1128.57
468.789	1115.01
469.161	1126.76
469.534	1126.09
469.906	1162.47
470.278	1173.09
470.65	1187.33
471.022	1196.14
471.394	1245.63
471.766	1202.69
472.138	1220.32
472.51	1236.37
472.882	1252.18
473.253	1295.12
473.625	1300.32
473.997	1313.43
474.369	1303.26
474.74	1344.16
475.112	1352.07
475.484	1382.8
475.855	1372.86
476.227	1409.92
476.598	1440.65
476.97	1474.33
477.341	1470.71
477.713	1476.13
478.084	1482.24
478.455	1533.99
478.827	1551.16
479.198	1587.32
479.569	1583.25
479.94	1630.03
480.311	1628.45
480.682	1646.98
481.053	1690.82
481.424	1710.7
481.795	1731.95
482.166	1727.88
482.537	1775.56
482.908	1810.36
483.279	1793.87
483.65	1828.44
484.021	1890.13
484.391	1879.96
484.762	1914.31
485.133	1886.07
485.503	1935.33
485.874	1974.2
486.244	2020.3
486.615	2028.66
486.985	2045.38
487.356	2106.17
487.726	2099.62
488.097	2131.48
488.467	2164.25
488.837	2182.33
489.207	2185.27
489.578	2247.86
489.948	2245.15
490.318	2249.67
490.688	2305.94
491.058	2323.57
491.428	2345.04
491.798	2340.07
492.168	2390.91
492.538	2432.94
492.908	2442.21
493.278	2475.2
493.648	2461.87
494.017	2491.7
494.387	2522.21
494.757	2517.46
495.126	2595.65
495.496	2567.86
495.866	2582.77
496.235	2643.11
496.605	2643.56
496.974	2631.13
497.344	2652.37
497.713	2700.73
498.082	2702.99
498.452	2729.43
498.821	2738.93
499.19	2767.4
499.559	2835.87
499.928	2849.2
500.298	2821.86
500.667	2850.56
501.036	2858.92
501.405	2903.44
501.774	2881.97
502.143	2933.27
502.512	2951.12
502.88	2944.8
503.249	2917.68
503.618	2996.77
503.987	2970.33
504.356	3029.31
504.724	3034.51
505.093	3076.77
505.462	3072.93
505.83	3088.75
506.199	3107.05
506.567	3150.21
506.936	3192.7
507.304	3185.02
507.672	3181.85
508.041	3204.68
508.409	3269.08
508.777	3247.84
509.145	3358.57
509.514	3295.75
509.882	3314.28
510.25	3355.86
510.618	3382.52
510.986	3411.22
511.354	3425.91
511.722	3446.48
512.09	3463.43
512.458	3482.18
512.826	3511.79
513.193	3525.8
513.561	3570.54
513.929	3578.9
514.297	3594.72
514.664	3634.95
515.032	3636.3
515.4	3676.3
515.767	3712.23
516.135	3753.14
516.502	3718.11
516.869	3740.25
517.237	3815.06
517.604	3776.86
517.972	3836.07
518.339	3852.34
518.706	3926.46
519.073	3889.63
519.44	3970.76
519.808	3982.73
520.175	4050.53
520.542	4070.42
520.909	4100.25
521.276	4084.2
521.643	4150.41
522.009	4148.61
522.376	4184.76
522.743	4206.01
523.11	4250.07
523.477	4297.75
523.843	4323.29
524.21	4391.76
524.577	4375.49
524.943	4447.58
525.31	4399.67
525.676	4518.09
526.043	4479.67
526.409	4567.13
526.776	4565.54
527.142	4605.54
527.508	4646.9
527.874	4667.01
528.241	4776.16
528.607	4779.55
528.973	4742.26
529.339	4779.1
529.705	4841.69
530.071	4884.63
530.437	4908.81
530.803	4947
531.169	4969.83
531.535	4939.32
531.901	5005.53
532.267	5069.26
532.632	5100.67
532.998	5153.1
533.364	5116.26
533.73	5196.71
534.095	5239.88
534.461	5223.38
534.826	5259.31
535.192	5304.73
535.557	5321.46
535.923	5351.74
536.288	5332.76
536.653	5405.52
537.019	5418.18
537.384	5446.65
537.749	5455.69
538.114	5514.22
538.479	5507.89
538.845	5566.65
539.21	5620.66
539.575	5589.47
539.94	5649.13
540.305	5665.18
540.67	5701.33
541.034	5725.51
541.399	5774.55
541.764	5752.18
542.129	5839.18
542.494	5868.56
542.858	5896.36
543.223	5903.14
543.587	5934.55
543.952	5958.28
544.316	6021.78
544.681	6026.3
545.045	6094.54
545.41	6118.5
545.774	6152.39
546.138	6139.51
546.503	6215.9
546.867	6237.59
547.231	6365.04
547.595	6308.55
547.959	6364.59
548.324	6364.59
548.688	6446.4
549.052	6498.6
549.416	6464.7
549.779	6475.78
550.143	6508.77
550.507	6599.84
550.871	6643.23
551.235	6707.18
551.599	6769.78
551.962	6793.73
552.326	6854.98
552.689	6929.32
553.053	6886.61
553.417	6889.1
553.78	6998.47
554.143	7035.31
554.507	7141.07
554.87	7148.3
555.234	7227.17
555.597	7245.25
555.96	7284.57
556.323	7367.73
556.686	7473.04
557.05	7496.31
557.413	7587.16
557.776	7595.97
558.139	7689.3
558.502	7732.01
558.865	7825.8
559.228	7949.41
559.59	7918.22
559.953	7981.5
560.316	8091.33
560.679	8087.26
561.041	8169.29
561.404	8246.58
561.767	8348.04
562.129	8381.94
562.492	8519.56
562.854	8510.98
563.217	8595.95
563.579	8646.11
563.941	8782.61
564.304	8857.41
564.666	8954.58
565.028	8987.8
565.39	9093.56
565.753	9138.08
566.115	9168.36
566.477	9330.39
566.839	9313.22
567.201	9421.69
567.563	9492.87
567.925	9630.95
568.287	9625.75
568.648	9738.29
569.01	9831.62
569.372	9941
569.734	9979.19
570.095	10079.3
570.457	10118.39
570.819	10251.5
571.18	10227.09
571.542	10392.74
571.903	10449.23
572.265	10477.93
572.626	10629.79
572.987	10598.38
573.349	10728.77
573.71	10869.56
574.071	10853.06
574.432	10993.85
574.794	11121.08
575.155	11184.8
575.516	11169.89
575.877	11323.33
576.238	11224.13
576.599	11453.05
576.96	11490.56
577.32	11576.21
577.681	11630.22
578.042	11729.65
578.403	11789.53
578.763	11774.62
579.124	11905.46
579.485	11987.27
579.845	12003.77
580.206	12072.24
580.566	12043.99
580.927	12203.31
581.287	12340.71
581.648	12336.41
582.008	12436.3
582.368	12422.74
582.728	12547.93
583.089	12527.37
583.449	12622.06
583.809	12655.5
584.169	12743.41
584.529	12798.77
584.889	12944.53
585.249	12853.24
585.609	12808.94
585.969	12964.87
586.329	13036.73
586.688	13037.41
587.048	13119.44
587.408	13115.15
587.768	13169.61
588.127	13197.63
588.487	13190.18
588.846	13294.13
589.206	13325.99
589.565	13348.14
589.925	13451.86
590.284	13469.94
590.643	13541.13
591.003	13533.67
591.362	13586.78
591.721	13641.01
592.08	13614.35
592.44	13638.75
592.799	13718.07
593.158	13788.35
593.517	13765.98
593.876	13805.53
594.235	13903.6
594.593	13902.93
594.952	13972.3
595.311	14007.33
595.67	14020.44
596.029	14097.04
596.387	14152.18
596.746	14183.6
597.104	14140.89
597.463	14118.06
597.822	14256.14
598.18	14236.02
598.538	14248.91
598.897	14397.6
599.255	14366.19
599.613	14511.5
599.972	14446.64
600.33	14518.28
600.688	14448
601.046	14612.29
601.404	14593.08
601.762	14555.56
602.12	14759.17
602.478	14780.42
602.836	14737.93
603.194	14762.11
603.552	14800.3
603.91	14685.96
604.268	14898.61
604.625	14911.49
604.983	14866.74
605.341	14886.85
605.698	15024.25
606.056	15010.69
606.413	14988.09
606.771	15114.42
607.128	15167.3
607.485	15102.67
607.843	15111.48
608.2	15228.54
608.557	15235.77
608.914	15225.38
609.272	15294.08
609.629	15369.78
609.986	15383.34
610.343	15291.82
610.7	15423.79
611.057	15435.09
611.414	15501.3
611.771	15385.6
612.127	15570.45
612.484	15578.14
612.841	15640.51
613.198	15622.43
613.554	15631.24
613.911	15637.57
614.267	15687.96
614.624	15707.62
614.98	15768.19
615.337	15858.58
615.693	15832.37
616.05	15774.97
616.406	15904.23
616.762	15840.28
617.118	15977.67
617.475	15877.56
617.831	15892.03
618.187	16038.69
618.543	16014.06
618.899	16056.54
619.255	16054.28
619.611	16029.88
619.967	16151
620.323	16161.62
620.678	16165.69
621.034	16064
621.39	16136.09
621.746	16127.05
622.101	16334.27
622.457	16222.64
622.812	16188.29
623.168	16305.12
623.523	16285.46
623.879	16289.08
624.234	16106.48
624.589	16326.82
624.945	16268.96
625.3	16197.33
625.655	16328.17
626.01	16349.19
626.365	16280.49
626.72	16322.52
627.075	16292.92
627.43	16317.55
627.785	16296.76
628.14	16293.82
628.495	16356.65
628.85	16298.79
629.205	16247.72
629.559	16409.53
629.914	16292.69
630.269	16320.04
630.623	16278.91
630.978	16215.18
631.332	16294.5
631.687	16313.48
632.041	16288.85
632.396	16263.99
632.75	16237.33
633.104	16253.82
633.459	16236.65
633.813	16210.21
634.167	16216.76
634.521	16164.11
634.875	16159.14
635.229	16253.37
635.583	16124.11
635.937	16138.57
636.291	16133.83
636.645	16132.02
636.999	16041.4
637.352	16129.53
637.706	16088.63
638.06	16119.59
638.413	16080.72
638.767	16039.37
639.121	16053.38
639.474	15924.57
639.828	15914.85
640.181	16036.65
640.534	16013.6
640.888	15887.96
641.241	15874.85
641.594	15960.95
641.947	15913.49
642.301	15900.61
642.654	15974.06
643.007	15935.64
643.36	15923.66
643.713	15961.18
644.066	15954.4
644.419	15854.96
644.771	15643.22
645.124	15580.62
645.477	15570
645.83	15488.19
646.182	15414.52
646.535	15339.5
646.888	15467.63
647.24	15276.9
647.593	15377.24
647.945	15381.98
648.298	15278.03
648.65	15326.16
649.002	15189.9
649.355	15325.71
649.707	15285.94
650.059	15368.88
650.411	15542.43
650.763	15573.16
651.115	15697.91
651.467	15817
651.819	15629.89
652.171	15676.66
652.523	15652.03
652.875	15641.86
653.227	15535.42
653.578	15621.52
653.93	15606.38
654.282	15583.11
654.633	15595.99
654.985	15633.5
655.337	15633.5
655.688	15624.46
656.039	15738.81
656.391	15520.28
656.742	15593.95
657.094	15534.52
657.445	15623.78
657.796	15605.71
658.147	15561.64
658.498	15592.82
658.849	15598.93
659.2	15526.84
659.551	15581.53
659.902	15617.91
660.253	15605.25
660.604	15685.03
660.955	15558.48
661.306	15658.36
661.656	15512.37
662.007	15616.78
662.358	15653.84
662.708	15546.95
663.059	15587.85
663.409	15609.77
663.76	15697.45
664.11	15666.04
664.461	15601.86
664.811	15665.36
665.161	15587.63
665.511	15593.5
665.862	15625.59
666.212	15698.13
666.562	15648.19
666.912	15699.71
667.262	15721.41
667.612	15648.64
667.962	15668.3
668.312	15685.25
668.662	15706.27
669.011	15705.82
669.361	15706.95
669.711	15590.79
670.06	15714.63
670.41	15646.61
670.76	15624.69
671.109	15718.92
671.459	15711.47
671.808	15592.15
672.157	15661.07
672.507	15588.98
672.856	15583.79
673.205	15667.4
673.554	15627.85
673.904	15633.05
674.253	15747.17
674.602	15642.77
674.951	15534.07
675.3	15336.33
675.649	15619.94
675.998	15635.54
676.346	15682.31
676.695	15757.57
677.044	15617.46
677.393	15688.64
677.741	15666.04
678.09	15616.78
678.438	15670.34
678.787	15661.52
679.135	15721.18
679.484	15628.3
679.832	15641.86
680.181	15579.04
680.529	15770.9
680.877	15627.85
681.225	15592.15
681.573	15662.2
681.922	15605.03
682.27	15599.38
682.618	15650.9
682.966	15561.41
683.314	15645.25
683.661	15551.7
684.009	15530.45
684.357	15466.27
684.705	15482.77
685.053	15499.95
685.4	15499.27
685.748	15443.22
686.095	15450
686.443	15436.67
686.79	15344.92
687.138	15428.08
687.485	15372.27
687.832	15337.92
688.18	15413.39
688.527	15330.91
688.874	15366.62
689.221	15224.92
689.568	15230.8
689.915	15187.19
690.262	15226.05
690.609	15175.21
690.956	15143.57
691.303	15211.82
691.65	15078.49
691.997	15177.24
692.344	14962.78
692.69	15131.82
693.037	15049.79
693.383	14981.77
693.73	15090.24
694.077	14996.68
694.423	14993.97
694.769	14909.9
695.116	14876.91
695.462	14926.18
695.808	14812.73
696.155	14916.68
696.501	14813.18
696.847	14783.13
697.193	14721.89
697.539	14710.81
697.885	14715.11
698.231	14626.3
698.577	14550.59
698.923	14562.34
699.269	14544.49
699.614	14532.06
699.96	14467.66
700.306	14488.9
700.651	14535.45
700.997	14454.55
701.342	14394.44
701.688	14433.08
702.033	14459.52
702.379	14400.77
702.724	14383.14
703.069	14369.58
703.415	14277.83
703.76	14217.27
704.105	14337.49
704.45	14276.7
704.795	14162.58
705.14	14106.76
705.485	14187.21
705.83	14088.68
706.175	14069.25
706.52	14139.98
706.865	14064.96
707.209	14016.59
707.554	14046.2
707.899	14096.14
708.243	13899.31
708.588	13960.55
708.932	13858.86
709.277	14039.42
709.621	13924.85
709.966	13890.04
710.31	13833.32
710.654	13694.34
710.998	13868.8
711.342	13845.3
711.687	13815.92
712.031	13764.17
712.375	13732.76
712.719	13697.73
713.063	13720.56
713.407	13782.25
713.75	13757.17
714.094	13706.32
714.438	13623.16
714.782	13652.99
715.125	13567.12
715.469	13652.76
715.812	13577.51
716.156	13545.42
716.499	13503.16
716.843	13498.19
717.186	13460.23
717.53	13487.8
717.873	13548.81
718.216	13588.13
718.559	13368.48
718.902	13393.56
719.246	13434.46
719.589	13306.33
719.932	13337.29
720.275	13315.82
720.617	13351.98
720.96	13358.31
721.303	13356.05
721.646	13302.26
721.989	13203.51
722.331	13425.2
722.674	13337.74
723.016	13321.25
723.359	13265.88
723.701	13277.63
724.044	13268.59
724.386	13114.7
724.729	13229.95
725.071	13253.68
725.413	13191.76
725.755	13228.82
726.097	13146.11
726.439	13116.51
726.782	13133.91
727.124	13250.74
727.465	13079.9
727.807	13073.12
728.149	13037.64
728.491	13005.77
728.833	13091.42
729.175	13014.14
729.516	13072.21
729.858	13073.79
730.199	12996.28
730.541	13060.01
730.882	12983.63
731.224	13045.32
731.565	12919.9
731.906	12904.53
732.248	12991.76
732.589	12931.88
732.93	12861.14
733.271	12871.09
733.612	12893.01
733.953	12918.09
734.294	12874.03
734.635	12757.19
734.976	12907.47
735.317	12788.83
735.658	12814.14
735.999	12805.33
736.339	12849.39
736.68	12752.45
737.021	12787.25
737.361	12729.85
737.702	12673.13
738.042	12663.41
738.383	12656.86
738.723	12774.82
739.063	12580.7
739.404	12658.44
739.744	12656.86
740.084	12553.81
740.424	12667.48
740.764	12568.5
741.104	12669.74
741.444	12555.39
741.784	12529.4
742.124	12513.13
742.464	12540.25
742.804	12480.59
743.143	12575.73
743.483	12479.91
743.823	12375.96
744.162	12383.42
744.502	12472.23
744.841	12387.94
745.181	12392.91
745.52	12350.65
745.86	12361.27
746.199	12230.88
746.538	12330.31
746.877	12345.45
747.216	12335.28
747.556	12231.1
747.895	12279.69
748.234	12314.27
748.573	12260.93
748.911	12200.6
749.25	12173.25
749.589	12137.1
749.928	12099.58
750.267	12161.73
750.605	12147.94
750.944	12088.28
751.283	12024.1
751.621	11984.33
751.96	12036.99
752.298	11954.5
752.636	11927.16
752.975	11881.96
753.313	11856.2
753.651	11892.58
753.989	11844
754.327	11808.74
754.666	11763.55
755.004	11772.36
755.342	11771.91
755.679	11757.45
756.017	11675.87
756.355	11758.58
756.693	11657.33
757.031	11724.68
757.368	11534.17
757.706	11556.32
758.044	11567.39
758.381	11527.17
758.719	11460.5
759.056	11514.51
759.394	11506.15
759.731	11373.5
760.068	11333.95
760.405	11275.88
760.743	11263.45
761.08	11236.78
761.417	11171.92
761.754	11166.05
762.091	11178.93
762.428	11092.15
762.765	11027.52
763.102	11093.06
763.438	10985.49
763.775	10950.69
764.112	10981.87
764.449	11015.09
764.785	10905.94
765.122	10812.84
765.458	10772.39
765.795	10759.05
766.131	10657.14
766.467	10746.62
766.804	10588.21
767.14	10679.51
767.476	10630.24
767.812	10479.74
768.148	10545.27
768.485	10464.15
768.821	10415.33
769.157	10464.82
769.492	10377.37
769.828	10384.83
770.164	10295.79
770.5	10224.6
770.836	10294.66
771.171	10196.13
771.507	10204.72
771.842	10184.61
772.178	10143.7
772.513	10124.72
772.849	10099.41
773.184	9959.3
773.519	10030.03
773.855	9952.07
774.19	9914.56
774.525	9831.62
774.86	9845.18
775.195	9896.03
775.53	9754.11
775.865	9694.67
776.2	9634.56
776.535	9599.08
776.87	9538.97
777.205	9568.12
777.539	9548.01
777.874	9506.43
778.209	9431.18
778.543	9408.13
778.878	9362.25
779.212	9324.06
779.547	9261.47
779.881	9317.96
780.215	9214.24
780.55	9204.07
780.884	9169.49
781.218	9106.44
781.552	9204.52
781.886	9151.64
782.22	9057.86
782.554	8920.23
782.888	8919.55
783.222	8866.9
783.556	8823.28
783.889	8857.41
784.223	8765.43
784.557	8780.57
784.89	8781.03
785.224	8729.05
785.557	8631.88
785.891	8614.02
786.224	8586.68
786.558	8581.26
786.891	8500.58
787.224	8470.98
787.557	8491.77
787.891	8465.1
788.224	8404.76
788.557	8388.04
788.89	8341.72
789.223	8302.17
789.556	8282.73
789.888	8323.64
790.221	8220.36
790.554	8176.07
790.887	8143.08
791.219	8153.02
791.552	8128.61
791.884	8047.26
792.217	8037.99
792.549	8002.06
792.882	7953.48
793.214	7874.61
793.546	7889.75
793.879	7863.99
794.211	7835.06
794.543	7828.73
794.875	7839.58
795.207	7783.76
795.539	7752.58
795.871	7716.42
796.203	7671
796.535	7624.45
796.867	7650.66
797.198	7587.84
797.53	7515.52
797.862	7502.42
798.193	7470.55
798.525	7439.59
798.856	7458.12
799.188	7378.58
799.519	7350.33
799.85	7318.92
800.182	7313.27
800.513	7311.01
800.844	7261.74
801.175	7301.29
801.506	7266.72
801.837	7202.31
802.168	7185.14
802.499	7157.34
802.83	7191.24
803.161	7108.98
803.491	7123.44
803.822	7077.34
804.153	7047.06
804.483	7002.54
804.814	6991.69
805.145	6896.78
805.475	6937.23
805.805	6898.14
806.136	6907.18
806.466	6931.36
806.796	6890.23
807.126	6812.26
807.457	6738.82
807.787	6777.92
808.117	6736.11
808.447	6754.19
808.777	6723.68
809.107	6689.56
809.436	6649.56
809.766	6728.2
810.096	6670.57
810.426	6606.85
810.755	6603.46
811.085	6595.32
811.414	6540.63
811.744	6505.61
812.073	6498.37
812.403	6483.91
812.732	6480.3
813.061	6461.54
813.39	6402.78
813.719	6389.68
814.049	6385.83
814.378	6412.27
814.707	6372.95
815.036	6377.25
815.365	6372.28
815.693	6264.48
816.022	6332.73
816.351	6231.49
816.68	6231.71
817.008	6229.23
817.337	6217.93
817.665	6188.78
817.994	6171.83
818.322	6165.28
818.651	6087.99
818.979	6103.36
819.307	6124.15
819.636	6060.87
819.964	6036.24
820.292	6108.33
820.62	6049.12
820.948	6017.48
821.276	6106.97
821.604	5995.56
821.932	6022.23
822.259	6012.29
822.587	5958.28
822.915	6023.58
823.243	6050.93
823.57	5975.9
823.898	5982.23
824.225	5967.09
824.553	5955.34
824.88	5960.76
825.207	6023.58
825.535	5991.72
825.862	5965.28
826.189	5899.07
826.516	5978.84
826.843	5958.95
827.17	5973.64
827.497	5967.54
827.824	5966.18
828.151	5993.08
828.478	5915.11
828.805	5962.34
829.131	5956.02
829.458	5900.88
829.785	5860.2
830.111	5897.03
830.438	5959.18
830.764	5915.56
831.09	5850.26
831.417	5840.31
831.743	5902.23
832.069	5871.05
832.395	5812.97
832.722	5880.09
833.048	5840.99
833.374	5817.26
833.7	5840.31
834.026	5820.65
834.351	5847.77
834.677	5821.56
835.003	5770.03
835.329	5832.4
835.654	5798.51
835.98	5751.73
836.306	5819.75
836.631	5723.71
836.956	5756.02
837.282	5733.65
837.607	5704.5
837.932	5709.24
838.258	5724.16
838.583	5692.29
838.908	5692.07
839.233	5655.23
839.558	5668.57
839.883	5601.9
840.208	5622.92
840.533	5587.66
840.858	5629.47
841.182	5622.69
841.507	5639.64
841.832	5574.56
842.156	5553.54
842.481	5519.64
842.805	5512.41
843.13	5502.69
843.454	5510.15
843.778	5509.47
844.103	5467.89
844.427	5496.37
844.751	5436.26
845.075	5434.45
845.399	5438.29
845.723	5384.05
846.047	5356.48
846.371	5370.72
846.695	5339.53
847.019	5288.01
847.343	5316.94
847.666	5253.44
847.99	5221.8
848.313	5236.94
848.637	5160.78
848.96	5179.09
849.284	5146.77
849.607	5148.81
849.931	5078.3
850.254	5058.86
850.577	5027.45
850.9	5024.51
851.223	5028.36
851.546	4961.24
851.869	4981.35
852.192	5013.89
852.515	4951.75
852.838	4863.16
853.161	4891.64
853.483	4879.43
853.806	4860
854.129	4844.63
854.451	4900
854.774	4777.74
855.096	4817.97
855.419	4793.33
855.741	4787.01
856.063	4763.73
856.385	4733.45
856.708	4724.86
857.03	4720.57
857.352	4716.27
857.674	4722.15
857.996	4682.15
858.318	4663.39
858.64	4657.52
858.961	4647.58
859.283	4609.38
859.605	4630.63
859.926	4615.94
860.248	4596.05
860.57	4579.1
860.891	4584.98
861.212	4600.8
861.534	4522.38
861.855	4508.14
862.176	4525.32
862.498	4469.28
862.819	4474.47
863.14	4538.88
863.461	4436.06
863.782	4448.26
864.103	4426.56
864.424	4420.01
864.745	4462.95
865.065	4374.81
865.386	4383.4
865.707	4370.29
866.027	4402.61
866.348	4373.68
866.668	4355.61
866.989	4379.33
867.309	4346.57
867.63	4355.38
867.95	4380.46
868.27	4319
868.59	4346.11
868.91	4304.31
869.23	4347.7
869.55	4291.88
869.87	4362.84
870.19	4294.82
870.51	4290.97
870.83	4271.77
871.15	4276.06
871.469	4254.82
871.789	4268.83
872.109	4215.95
872.428	4229.28
872.748	4230.19
873.067	4234.93
873.386	4224.08
873.706	4229.06
874.025	4221.82
874.344	4220.69
874.663	4207.81
874.982	4135.95
875.301	4177.31
875.62	4158.1
875.939	4185.21
876.258	4148.61
876.577	4155.61
876.896	4167.59
877.214	4140.24
877.533	4120.81
877.852	4078.1
878.17	4103.86
878.489	4130.3
878.807	4115.16
879.125	4142.96
879.444	4078.55
879.762	4097.99
880.08	4080.58
880.398	4069.96
880.716	4064.09
881.034	4054.82
881.352	4028.38
881.67	4043.52
881.988	4038.1
882.306	3976.18
882.624	4003.3
882.941	3960.81
883.259	3982.73
883.577	3939.35
883.894	3971.66
884.212	3956.97
884.529	3978.44
884.846	3960.36
885.164	3947.48
885.481	3930.53
885.798	3950.42
886.115	3891.89
886.432	3892.79
886.75	3893.92
887.067	3885.79
887.383	3838.78
887.7	3899.8
888.017	3832.46
888.334	3862.74
888.651	3862.06
888.967	3838.78
889.284	3796.52
889.6	3777.32
889.917	3778.67
890.233	3802.4
890.55	3772.12
890.866	3786.36
891.182	3756.53
891.498	3785.23
891.815	3774.15
892.131	3752.46
892.447	3747.03
892.763	3702.29
893.079	3678.79
893.395	3663.19
893.71	3680.6
894.026	3665
894.342	3647.83
894.657	3646.25
894.973	3604.21
895.289	3638.56
895.604	3615.74
895.92	3607.83
896.235	3571.45
896.55	3620.26
896.865	3557.21
897.181	3556.3
897.496	3552.01
897.811	3530.09
898.126	3557.89
898.441	3465.46
898.756	3511.56
899.071	3483.09
899.386	3459.36
899.7	3431.56
900.015	3436.08
900.33	3427.27
900.644	3408.96
900.959	3444.44
901.273	3366.48
901.588	3409.87
901.902	3382.98
902.216	3358.12
902.531	3371.68
902.845	3362.41
903.159	3361.28
903.473	3361.51
903.787	3338.01
904.101	3311.57
904.415	3286.03
904.729	3323.09
905.042	3278.12
905.356	3269.08
905.67	3262.53
905.984	3265.01
906.297	3248.74
906.611	3238.57
906.924	3216.88
907.237	3195.18
907.551	3206.94
907.864	3194.05
908.177	3168.74
908.491	3169.42
908.804	3160.83
909.117	3143.43
909.43	3125.36
909.743	3098.24
910.056	3120.16
910.368	3110.44
910.681	3061.4
910.994	3049.2
911.307	3052.36
911.619	3021.18
911.932	3031.12
912.244	2998.35
912.557	3022.53
912.869	3012.59
913.181	2976.43
913.494	2941.63
913.806	2985.7
914.118	2963.55
914.43	2941.63
914.742	2958.13
915.054	2908.86
915.366	2891.01
915.678	2883.1
915.99	2874.29
916.302	2843.33
916.613	2879.03
916.925	2857.34
917.236	2858.92
917.548	2828.41
917.859	2839.49
918.171	2806.72
918.482	2797
918.794	2786.61
919.105	2778.25
919.416	2767.62
919.727	2790.68
920.038	2733.05
920.349	2727.85
920.66	2712.26
920.971	2733.5
921.282	2707.06
921.593	2687.18
921.903	2656.44
922.214	2690.79
922.525	2660.96
922.835	2668.87
923.146	2677.46
923.456	2651.02
923.767	2611.47
924.077	2652.6
924.387	2632.04
924.697	2574.86
925.008	2597.01
925.318	2547.29
925.628	2581.42
925.938	2558.36
926.248	2518.14
926.558	2537.12
926.867	2523.56
927.177	2523.11
927.487	2512.94
927.796	2463.9
928.106	2500.97
928.416	2460.51
928.725	2459.16
929.034	2429.55
929.344	2429.55
929.653	2485.82
929.962	2435.66
930.271	2399.27
930.581	2422.32
930.89	2407.41
931.199	2383
931.508	2398.82
931.817	2385.71
932.125	2349.78
932.434	2383.23
932.743	2335.77
933.051	2333.96
933.36	2317.47
933.669	2343.68
933.977	2311.59
934.286	2307.3
934.594	2309.33
934.902	2286.28
935.21	2298.03
935.519	2274.3
935.827	2298.48
936.135	2253.51
936.443	2232.5
936.751	2226.85
937.059	2209.9
937.367	2207.41
937.674	2235.89
937.982	2201.76
938.29	2235.21
938.597	2171.03
938.905	2193.4
939.213	2166.28
939.52	2164.48
939.827	2160.18
940.135	2167.64
940.442	2154.08
940.749	2137.81
941.056	2148.66
941.363	2120.86
941.67	2095.55
941.977	2127.42
942.284	2101.2
942.591	2050.81
942.898	2091.26
943.205	2055.1
943.511	2070.92
943.818	2088.55
944.125	2060.52
944.431	2031.37
944.738	2047.19
945.044	2034.76
945.35	2028.44
945.657	2013.52
945.963	2028.44
946.269	1981.43
946.575	2038.38
946.881	1972.17
947.187	1961.32
947.493	2001.32
947.799	1965.84
948.105	1948.89
948.41	1929.45
948.716	1944.14
949.022	1909.57
949.327	1948.21
949.633	1900.76
949.938	1908.89
950.244	1908.21
950.549	1890.36
950.854	1860.08
951.16	1865.28
951.465	1862.56
951.77	1877.25
952.075	1841.77
952.38	1862.56
952.685	1845.16
952.99	1853.75
953.294	1852.85
953.599	1794.32
953.904	1801.55
954.209	1802.23
954.513	1782.34
954.818	1778.95
955.122	1792.74
955.426	1780.98
955.731	1799.97
956.035	1768.1
956.339	1764.26
956.643	1798.38
956.948	1779.4
957.252	1763.81
957.556	1748.44
957.86	1732.17
958.163	1751.83
958.467	1705.96
958.771	1724.49
959.075	1726.3
959.378	1700.53
959.682	1717.48
959.985	1674.55
960.289	1709.8
960.592	1689.46
960.896	1686.98
961.199	1665.96
961.502	1675.68
961.805	1669.8
962.108	1665.28
962.411	1654.66
962.714	1637.49
963.017	1644.49
963.32	1652.4
963.623	1628.67
963.926	1611.05
964.228	1625.73
964.531	1615.79
964.833	1618.5
965.136	1594.32
965.438	1586.19
965.741	1595.9
966.043	1590.25
966.345	1575.57
966.648	1592.29
966.95	1567.88
967.252	1556.81
967.554	1536.24
967.856	1554.55
968.158	1544.38
968.46	1544.61
968.761	1504.61
969.063	1513.65
969.365	1524.49
969.666	1510.26
969.968	1489.92
970.269	1478.85
970.571	1503.48
970.872	1461.44
971.174	1480.65
971.475	1468.9
971.776	1482.01
972.077	1494.21
972.378	1456.92
972.679	1462.8
972.98	1439.98
973.281	1443.37
973.582	1427.32
973.883	1463.03
974.183	1442.01
974.484	1431.84
974.785	1421.45
975.085	1411.5
975.386	1412.86
975.686	1402.24
975.986	1403.82
976.287	1405.17
976.587	1398.85
976.887	1389.58
977.187	1376.93
977.487	1385.51
977.787	1383.71
978.087	1378.06
978.387	1366.31
978.687	1359.3
978.987	1363.14
979.286	1341
979.586	1345.74
979.885	1349.36
980.185	1324.27
980.484	1336.25
980.784	1325.85
981.083	1316.82
981.382	1294.67
981.682	1300.32
981.981	1319.08
982.28	1281.34
982.579	1288.79
982.878	1286.08
983.177	1265.97
983.475	1256.03
983.774	1278.62
984.073	1261
984.372	1224.61
984.67	1236.59
984.969	1261.9
985.267	1265.74
985.566	1233.65
985.864	1195.24
986.162	1245.41
986.461	1231.17
986.759	1225.97
987.057	1247.66
987.355	1219.64
987.653	1224.39
987.951	1217.84
988.249	1196.82
988.547	1187.55
988.844	1217.16
989.142	1204.05
989.44	1202.02
989.737	1182.13
990.035	1173.77
990.332	1157.05
990.63	1158.63
990.927	1176.93
991.224	1169.93
991.521	1146.42
991.819	1149.59
992.116	1169.25
992.413	1148.01
992.71	1133.77
993.006	1150.27
993.303	1143.71
993.6	1124.28
993.897	1096.48
994.193	1134
994.49	1119.76
994.787	1110.49
995.083	1068.91
995.379	1096.93
995.676	1108.01
995.972	1086.31
996.268	1090.15
996.565	1075.47
996.861	1095.13
997.157	1083.15
997.453	1070.49
997.749	1055.35
998.044	1046.09
998.34	1045.41
998.636	1067.56
998.932	1015.13
999.227	1032.98
999.523	1014
999.818	1029.59
1000.114	1034.79
1000.409	1038.4
1000.704	1025.98
1001	1011.74
1001.295	1007.67
1001.59	983.72
1001.885	997.95
1002.18	991.17
1002.475	1011.06
1002.77	974.68
1003.065	986.43
1003.359	972.64
1003.654	973.1
1003.949	982.81
1004.243	976.49
1004.538	956.15
1004.832	969.48
1005.127	960.21
1005.421	969.48
1005.715	956.83
1006.009	956.83
1006.304	930.84
1006.598	924.06
1006.892	951.63
1007.186	924.51
1007.48	907.79
1007.773	915.92
1008.067	934.68
1008.361	884.51
1008.655	905.3
1008.948	900.78
1009.242	903.04
1009.535	907.56
1009.829	882.93
1010.122	901.23
1010.415	870.73
1010.708	885.87
1011.001	844.29
1011.295	910.72
1011.588	862.14
1011.881	850.61
1012.173	871.18
1012.466	882.7
1012.759	856.94
1013.052	848.81
1013.344	853.78
1013.637	835.02
1013.93	856.71
1014.222	853.1
1014.514	837.96
1014.807	828.92
1015.099	826.66
1015.391	817.39
1015.683	825.08
1015.976	801.12
1016.268	789.6
1016.56	798.41
1016.851	803.16
1017.143	796.83
1017.435	787.56
1017.727	805.42
1018.018	784.63
1018.31	785.3
1018.602	774.23
1018.893	786.89
1019.185	771.29
1019.476	757.06
1019.767	745.08
1020.058	790.05
1020.35	774.68
1020.641	771.97
1020.932	764.74
1021.223	757.51
1021.514	754.8
1021.804	742.14
1022.095	720.45
1022.386	718.64
1022.677	740.79
1022.967	732.88
1023.258	714.12
1023.548	710.73
1023.839	712.54
1024.129	727.9
1024.419	711.18
1024.709	698.53
1025	711.63
1025.29	701.69
1025.58	700.33
1025.87	714.8
1026.16	686.55
1026.449	668.47
1026.739	685.42
1027.029	682.03
1027.319	660.11
1027.608	664.63
1027.898	694.46
1028.187	671.41
1028.477	671.41
1028.766	652.88
1029.055	653.78
1029.344	649.94
1029.634	632.99
1029.923	649.94
1030.212	642.48
1030.501	635.93
1030.79	650.17
1031.078	614.91
1031.367	633.44
1031.656	626.66
1031.945	629.83
1032.233	603.61
1032.522	610.17
1032.81	612.88
1033.099	635.7
1033.387	615.37
1033.675	613.33
1033.963	600.45
1034.251	614.24
1034.54	625.31
1034.828	581.47
1035.116	607.68
1035.403	595.48
1035.691	592.54
1035.979	601.35
1036.267	586.67
1036.554	584.86
1036.842	594.8
1037.129	583.95
1037.417	568.36
1037.704	562.71
1037.992	580.11
1038.279	558.42
1038.566	551.19
1038.853	551.19
1039.14	551.19
