Data from brown_tile_FLMS001491_073.txt Node
Date: Tue Feb 07 10:37:58 GMT 2017
User: dcchb
Spectrometer: FLMS00149
Trigger mode: 0
Integration Time (sec): 2.000000E-2
Scans to average: 10
Electric dark correction enabled: true
Nonlinearity correction enabled: false
Boxcar width: 0
XAxis mode: Wavelengths
Number of Pixels in Spectrum: 2048
>>>>>Begin Spectral Data<<<<<
341.393	-21.4
341.776	-21.4
342.16	-21.4
342.543	-65.69
342.927	-60.72
343.31	-51.45
343.693	-81.28
344.077	-48.74
344.46	-47.84
344.843	-48.06
345.226	-48.06
345.61	-39.25
345.993	-16.2
346.376	4.36
346.759	-4.68
347.142	27.41
347.525	49.56
347.908	53.63
348.291	73.74
348.674	78.71
349.057	98.15
349.44	129.78
349.823	137.47
350.206	168.2
350.588	191.7
350.971	194.64
351.354	215.21
351.737	225.6
352.119	217.92
352.502	237.35
352.884	258.82
353.267	270.35
353.65	281.19
354.032	285.94
354.414	278.03
354.797	289.1
355.179	286.16
355.562	299.72
355.944	317.58
356.326	304.02
356.709	313.28
357.091	323.68
357.473	307.86
357.855	312.6
358.238	325.26
358.62	310.8
359.002	324.81
359.384	324.58
359.766	311.25
360.148	332.04
360.53	311.47
360.912	331.14
361.294	308.76
361.676	311.25
362.057	323.45
362.439	335.2
362.821	323
363.203	301.08
363.584	316.9
363.966	308.09
364.348	302.21
364.729	306.96
365.111	295.88
365.493	304.24
365.874	328.65
366.256	297.01
366.637	306.5
367.019	300.63
367.4	302.21
367.781	292.94
368.163	292.27
368.544	286.39
368.925	316.22
369.306	317.12
369.688	288.88
370.069	303.34
370.45	272.83
370.831	286.62
371.212	313.96
371.593	303.79
371.974	287.07
372.355	301.31
372.736	295.2
373.117	299.05
373.498	310.34
373.879	309.22
374.26	280.97
374.641	289.33
375.021	276.9
375.402	309.44
375.783	328.2
376.163	326.62
376.544	316.45
376.925	305.83
377.305	326.84
377.686	299.5
378.066	314.19
378.447	303.34
378.827	306.73
379.208	317.12
379.588	320.97
379.968	333.17
380.349	307.18
380.729	324.36
381.109	328.42
381.489	312.83
381.87	312.15
382.25	326.16
382.63	321.19
383.01	340.85
383.39	349.89
383.77	336.11
384.15	324.81
384.53	305.37
384.91	327.75
385.29	347.63
385.67	328.2
386.049	343.11
386.429	327.75
386.809	315.32
387.189	345.15
387.568	359.38
387.948	338.82
388.328	345.82
388.707	350.57
389.087	324.58
389.466	330.46
389.846	335.88
390.225	357.8
390.605	336.11
390.984	350.34
391.363	330.46
391.743	338.59
392.122	355.99
392.501	339.95
392.881	361.19
393.26	344.02
393.639	353.51
394.018	355.77
394.397	327.52
394.776	369.1
395.155	370.68
395.534	333.17
395.913	380.85
396.292	361.87
396.671	369.78
397.05	371.59
397.429	370.68
397.808	374.07
398.186	378.82
398.565	353.96
398.944	373.85
399.323	382.66
399.701	360.74
400.08	368.87
400.458	353.96
400.837	376.33
401.215	374.98
401.594	367.97
401.972	381.76
402.351	371.81
402.729	375.65
403.107	372.49
403.486	383.56
403.864	363.45
404.242	408.87
404.62	386.05
404.999	403.9
405.377	399.61
405.755	386.95
406.133	420.85
406.511	399.83
406.889	399.38
407.267	390.57
407.645	392.83
408.023	418.82
408.401	427.4
408.779	423.56
409.156	419.95
409.534	440.74
409.912	412.94
410.29	426.5
410.667	393.96
411.045	427.4
411.422	427.63
411.8	435.99
412.178	414.3
412.555	426.27
412.933	436.67
413.31	425.82
413.687	453.84
414.065	448.19
414.442	443
414.819	455.2
415.197	448.87
415.574	465.82
415.951	456.56
416.328	462.21
416.705	453.84
417.082	464.01
417.46	463.79
417.837	476.44
418.214	489.1
418.591	448.42
418.967	473.73
419.344	488.42
419.721	481.41
420.098	493.84
420.475	485.26
420.852	482.09
421.228	475.54
421.605	480.51
421.982	484.8
422.358	487.29
422.735	500.17
423.111	499.72
423.488	506.72
423.864	510.34
424.241	525.48
424.617	512.6
424.994	520.73
425.37	546.5
425.746	519.38
426.123	532.26
426.499	534.29
426.875	522.77
427.251	531.36
427.627	549.21
428.003	557.57
428.379	544.24
428.756	539.94
429.132	548.76
429.507	560.96
429.883	572.71
430.259	569.77
430.635	558.02
431.011	551.47
431.387	605.93
431.763	571.13
432.138	567.29
432.514	608.64
432.89	596.44
433.265	593.73
433.641	602.99
434.016	598.7
434.392	596.67
434.767	638.02
435.143	611.13
435.518	632.14
435.894	628.08
436.269	624.46
436.644	637.34
437.02	647.29
437.395	632.37
437.77	636.66
438.145	672.6
438.52	673.95
438.895	665.82
439.271	648.87
439.646	671.47
440.021	682.76
440.395	667.85
440.77	677.79
441.145	688.19
441.52	705.14
441.895	687.96
442.27	717.57
442.645	724.12
443.019	734.97
443.394	701.52
443.769	707.4
444.143	718.02
444.518	729.09
444.892	725.02
445.267	725.02
445.641	753.95
446.016	727.28
446.39	730.67
446.764	735.64
447.139	734.06
447.513	730.9
447.887	760.73
448.262	745.81
448.636	754.18
449.01	768.64
449.384	747.85
449.758	765.25
450.132	777.9
450.506	785.81
450.88	793.95
451.254	772.25
451.628	791.46
452.002	826.94
452.376	807.28
452.75	806.6
453.123	826.04
453.497	849.77
453.871	817.45
454.244	826.04
454.618	838.47
454.992	839.82
455.365	861.29
455.739	846.15
456.112	884.12
456.486	880.73
456.859	893.15
457.232	903.55
457.606	885.47
457.979	884.12
458.352	915.3
458.725	964.34
459.099	967.28
459.472	965.02
459.845	949.2
460.218	960.27
460.591	965.47
460.964	978.58
461.337	986.94
461.71	988.29
462.083	1013.15
462.456	1023.09
462.829	1000.95
463.201	1004.34
463.574	1031.68
463.947	1029.42
464.32	1061.51
464.692	1069.2
465.065	1095.41
465.438	1076.43
465.81	1073.49
466.183	1089.99
466.555	1105.8
466.928	1116.88
467.3	1137.89
467.672	1146.03
468.045	1158.01
468.417	1183.32
468.789	1170.89
469.161	1176.31
469.534	1208.4
469.906	1218.12
470.278	1221.73
470.65	1259.02
471.022	1254.95
471.394	1285.46
471.766	1278
472.138	1320.04
472.51	1327.04
472.882	1332.24
473.253	1306.93
473.625	1367.04
473.997	1388.06
474.369	1387.83
474.74	1394.16
475.112	1446.59
475.484	1462.86
475.855	1475.96
476.227	1460.15
476.598	1516.41
476.97	1502.63
477.341	1540.82
477.713	1528.62
478.084	1563.87
478.455	1628.5
478.827	1630.08
479.198	1692.23
479.569	1680.7
479.94	1709.63
480.311	1723.64
480.682	1754.37
481.053	1739.01
481.424	1816.29
481.795	1814.26
482.166	1815.62
482.537	1885.44
482.908	1896.74
483.279	1906.46
483.65	1959.12
484.021	1968.15
484.391	1983.97
484.762	2042.95
485.133	2020.58
485.503	2049.73
485.874	2087.02
486.244	2122.5
486.615	2138.55
486.985	2142.39
487.356	2228.94
487.726	2212.89
488.097	2266.45
488.467	2244.53
488.837	2296.28
489.207	2327.47
489.578	2376.73
489.948	2362.49
490.318	2373.34
490.688	2413.79
491.058	2451.53
491.428	2496.5
491.798	2486.11
492.168	2551.19
492.538	2576.27
492.908	2589.83
493.278	2596.84
493.648	2583.96
494.017	2650.4
494.387	2677.51
494.757	2670.73
495.126	2687.46
495.496	2756.61
495.866	2785.08
496.235	2773.78
496.605	2791.41
496.974	2801.8
497.344	2830.05
497.713	2865.53
498.082	2854.23
498.452	2903.05
498.821	2944.4
499.19	2962.48
499.559	2944.17
499.928	2977.39
500.298	2992.08
500.667	3041.8
501.036	3023.72
501.405	3037.05
501.774	3054.23
502.143	3073.66
502.512	3111.4
502.88	3146.88
503.249	3144.62
503.618	3151.85
503.987	3175.35
504.356	3163.15
504.724	3188.46
505.093	3202.47
505.462	3252.41
505.83	3268.46
506.199	3271.62
506.567	3353.65
506.936	3369.02
507.304	3399.76
507.672	3418.51
508.041	3452.41
508.409	3471.62
508.777	3459.19
509.145	3465.29
509.514	3513.2
509.882	3548
510.25	3527.21
510.618	3547.55
510.986	3541.9
511.354	3614.21
511.722	3610.82
512.09	3729.46
512.458	3701.89
512.826	3703.25
513.193	3804.49
513.561	3769.91
513.929	3754.32
514.297	3839.74
514.664	3820.76
515.032	3876.58
515.4	3852.62
515.767	3900.98
516.135	3930.36
516.502	3954.54
516.869	3998.84
517.237	4054.65
517.604	3989.8
517.972	4026.63
518.339	4100.53
518.706	4134.43
519.073	4135.56
519.44	4158.15
519.808	4194.54
520.175	4206.29
520.542	4263.69
520.909	4261.2
521.276	4295.78
521.643	4310.47
522.009	4384.36
522.376	4423.23
522.743	4437.47
523.11	4491.7
523.477	4533.28
523.843	4545.94
524.21	4631.59
524.577	4658.48
524.943	4648.54
525.31	4685.37
525.676	4770.34
526.043	4825.25
526.409	4789.1
526.776	4836.78
527.142	4877
527.508	4902.99
527.874	5005.81
528.241	4995.19
528.607	4995.65
528.973	5060.73
529.339	5065.02
529.705	5147.05
530.071	5165.58
530.437	5193.38
530.803	5224.11
531.169	5284.9
531.535	5307.05
531.901	5337.11
532.267	5356.31
532.632	5367.39
532.998	5408.06
533.364	5431.57
533.73	5433.6
534.095	5518.8
534.461	5529.42
534.826	5531.45
535.192	5622.52
535.557	5649.87
535.923	5607.83
536.288	5707.94
536.653	5690.09
537.019	5695.29
537.384	5754.5
537.749	5822.52
538.114	5797.21
538.479	5867.26
538.845	5850.31
539.21	5902.97
539.575	5925.79
539.94	5955.85
540.305	5981.16
540.67	6000.36
541.034	6034.04
541.399	6115.62
541.764	6142.28
542.129	6171.43
542.494	6186.12
542.858	6202.39
543.223	6316.74
543.587	6350.19
543.952	6300.7
544.316	6340.02
544.681	6359.9
545.045	6436.06
545.41	6449.84
545.774	6478.32
546.138	6516.51
546.503	6504.31
546.867	6600.12
547.231	6635.6
547.595	6645.32
547.959	6747.01
548.324	6703.4
548.688	6804.64
549.052	6837.63
549.416	6857.29
549.779	6910.4
550.143	6907.23
550.507	7008.47
550.871	7043.73
551.235	7062.48
551.599	7110.62
551.962	7200.79
552.326	7194.91
552.689	7263.16
553.053	7254.12
553.417	7349.71
553.78	7400.78
554.143	7470.83
554.507	7461.57
554.87	7572.3
555.234	7604.39
555.597	7647.1
555.96	7710.38
556.323	7806.65
556.686	7796.02
557.05	7951.95
557.413	7969.58
557.776	7989.24
558.139	8104.49
558.502	8100.2
558.865	8197.14
559.228	8284.6
559.59	8287.99
559.953	8422
560.316	8510.36
560.679	8539.06
561.041	8672.61
561.404	8685.04
561.767	8779.05
562.129	8878.03
562.492	8969.33
562.854	8997.35
563.217	9026.73
563.579	9137.91
563.941	9259.04
564.304	9280.73
564.666	9364.34
565.028	9432.59
565.39	9500.84
565.753	9615.64
566.115	9718.69
566.477	9779.47
566.839	9876.65
567.201	9938.34
567.563	9951.45
567.925	10155.28
568.287	10240.25
568.648	10197.32
569.01	10334.71
569.372	10433.69
569.734	10546.91
570.095	10585.1
570.457	10676.17
570.819	10738.09
571.18	10804.98
571.542	10922.5
571.903	10953.68
572.265	11051.31
572.626	11077.97
572.987	11218.98
573.349	11224.41
573.71	11371.3
574.071	11440.45
574.432	11506.21
574.794	11550.05
575.155	11736.94
575.516	11682.93
575.877	11826.2
576.238	11968.34
576.599	12003.14
576.96	12062.35
577.32	12071.84
577.681	12283.59
578.042	12232.29
578.403	12351.38
578.763	12460.08
579.124	12495.11
579.485	12508.44
579.845	12684.71
580.206	12659.4
580.566	12644.03
580.927	12799.06
581.287	12953.63
581.648	12906.62
582.008	13046.73
582.368	13004.02
582.728	13069.56
583.089	13127.18
583.449	13216.22
583.809	13197.24
584.169	13296.67
584.529	13293.73
584.889	13474.52
585.249	13320.62
585.609	13477.23
585.969	13625.7
586.329	13591.58
586.688	13684.23
587.048	13730.33
587.408	13693.27
587.768	13724.23
588.127	13735.75
588.487	13799.26
588.846	14024.79
589.206	13866.6
589.565	13977.78
589.925	14066.37
590.284	14097.33
590.643	14063.88
591.003	14231.79
591.362	14300.26
591.721	14274.05
592.08	14311.78
592.44	14405.57
592.799	14442.63
593.158	14445.57
593.517	14454.61
593.876	14515.4
594.235	14544.32
594.593	14592.91
594.952	14646.47
595.311	14589.74
595.67	14702.51
596.029	14838.32
596.387	14853.47
596.746	14897.08
597.104	14806.91
597.463	14847.36
597.822	14931.88
598.18	14970.07
598.538	14941.6
598.897	15034.03
599.255	14926.46
599.613	15253.23
599.972	15075.61
600.33	15132.1
600.688	15069.73
601.046	15264.53
601.404	15263.4
601.762	15290.74
602.12	15392.66
602.478	15366.67
602.836	15379.33
603.194	15375.49
603.552	15406.22
603.91	15405.77
604.268	15481.7
604.625	15526.44
604.983	15532.77
605.341	15544.97
605.698	15659.09
606.056	15726.44
606.413	15658.87
606.771	15809.15
607.128	15805.76
607.485	15798.07
607.843	15770.28
608.2	15848.92
608.557	15918.97
608.914	15948.35
609.272	16018.63
609.629	16032.87
609.986	16150.61
610.343	16026.77
610.7	16167.56
611.057	16107.44
611.414	16136.6
611.771	16160.1
612.127	16293.2
612.484	16273.32
612.841	16337.95
613.198	16323.03
613.554	16331.84
613.911	16467.43
614.267	16427.44
614.624	16396.7
614.98	16509.02
615.337	16523.25
615.693	16528.22
616.05	16544.72
616.406	16546.08
616.762	16572.52
617.118	16594.44
617.475	16652.51
617.831	16653.64
618.187	16629.01
618.543	16737.48
618.899	16823.13
619.255	16817.48
619.611	16804.6
619.967	16846.41
620.323	16868.33
620.678	16835.79
621.034	16820.19
621.39	16803.24
621.746	16806.86
622.101	17045.72
622.457	16864.71
622.812	16928.21
623.168	17018.15
623.523	17034.42
623.879	16998.27
624.234	16815.45
624.589	16867.65
624.945	17004.14
625.3	17087.98
625.655	16910.36
626.01	16987.19
626.365	17057.93
626.72	17040.3
627.075	16957.59
627.43	17022.9
627.785	16965.95
628.14	16991.26
628.495	17001.43
628.85	17005.05
629.205	17000.08
629.559	17082.79
629.914	16992.84
630.269	17041.2
630.623	17000.75
630.978	16853.19
631.332	17017.48
631.687	17055.67
632.041	16971.38
632.396	16985.16
632.75	16923.24
633.104	16977.93
633.459	16824.49
633.813	16865.16
634.167	16880.08
634.521	16862
634.875	17008.89
635.229	16863.81
635.583	16774.77
635.937	16783.81
636.291	16851.15
636.645	16764.83
636.999	16733.64
637.352	16815.67
637.706	16671.04
638.06	16763.7
638.413	16726.86
638.767	16711.27
639.121	16786.97
639.474	16671.72
639.828	16665.85
640.181	16747.2
640.534	16759.18
640.888	16642.34
641.241	16642.8
641.594	16657.71
641.947	16673.98
642.301	16611.84
642.654	16636.24
643.007	16649.8
643.36	16642.12
643.713	16593.31
644.066	16628.56
644.419	16464.5
644.771	16362.8
645.124	16313.77
645.477	16212.53
645.83	16091.4
646.182	16048.91
646.535	16091.62
646.888	16077.39
647.24	16032.87
647.593	16029.93
647.945	16032.87
648.298	16001.01
648.65	15919.43
649.002	15852.08
649.355	15971.63
649.707	16005.75
650.059	16066.54
650.411	16245.97
650.763	16234.67
651.115	16426.53
651.467	16374.1
651.819	16405.74
652.171	16286.42
652.523	16351.96
652.875	16310.6
653.227	16251.85
653.578	16335.91
653.93	16281.9
654.282	16328.68
654.633	16236.25
654.985	16312.86
655.337	16312.86
655.688	16335.46
656.039	16305.63
656.391	16258.17
656.742	16154
657.094	16243.94
657.445	16252.07
657.796	16220.21
658.147	16280.55
658.498	16172.75
658.849	16330.49
659.2	16149.25
659.551	16226.08
659.902	16211.4
660.253	16289.13
660.604	16317.83
660.955	16231.06
661.306	16321
661.656	16259.98
662.007	16171.62
662.358	16261.34
662.708	16372.07
663.059	16300.88
663.409	16249.59
663.76	16325.29
664.11	16323.48
664.461	16329.58
664.811	16368
665.161	16232.41
665.511	16321
665.862	16303.6
666.212	16443.93
666.562	16379.07
666.912	16389.24
667.262	16319.87
667.612	16426.76
667.962	16349.02
668.312	16434.67
668.662	16442.58
669.011	16379.3
669.361	16372.75
669.711	16274.9
670.06	16385.4
670.41	16319.42
670.76	16348.79
671.109	16422.46
671.459	16397.38
671.808	16388.57
672.157	16334.78
672.507	16322.35
672.856	16294.78
673.205	16310.38
673.554	16380.2
673.904	16403.48
674.253	16432.63
674.602	16418.62
674.951	16088.24
675.3	16128.01
675.649	16357.83
675.998	16365.06
676.346	16358.74
676.695	16496.13
677.044	16350.6
677.393	16341.56
677.741	16442.58
678.09	16338.85
678.438	16372.07
678.787	16398.51
679.135	16376.14
679.484	16283.26
679.832	16381.33
680.181	16332.97
680.529	16301.11
680.877	16316.25
681.225	16305.86
681.573	16456.59
681.922	16309.25
682.27	16263.82
682.618	16187.22
682.966	16332.52
683.314	16338.17
683.661	16269.47
684.009	16148.35
684.357	16194.67
684.705	16149.93
685.053	16176.59
685.4	16212.98
685.748	16025.19
686.095	16120.78
686.443	16060.67
686.79	16123.49
687.138	16062.02
687.485	16041
687.832	16038.52
688.18	16027.22
688.527	16012.53
688.874	16047.33
689.221	16028.35
689.568	15876.72
689.915	15816.83
690.262	15892.76
690.609	15793.55
690.956	15901.12
691.303	15813.67
691.65	15720.79
691.997	15749.26
692.344	15650.73
692.69	15713.56
693.037	15719.88
693.383	15513.11
693.73	15564.41
694.077	15570.06
694.423	15546.33
694.769	15555.14
695.116	15525.09
695.462	15467.46
695.808	15459.33
696.155	15550.17
696.501	15288.71
696.847	15427.01
697.193	15210.97
697.539	15358.99
697.885	15208.94
698.231	15240.12
698.577	15232.21
698.923	15148.82
699.269	15127.58
699.614	15111.76
699.96	15056.4
700.306	15098.66
700.651	15051.65
700.997	14962.84
701.342	14960.36
701.688	14926.68
702.033	15017.08
702.379	14961.49
702.724	14867.02
703.069	14951.99
703.415	14808.95
703.76	14784.31
704.105	14816.86
704.45	14735.5
704.795	14691.66
705.14	14668.16
705.485	14599.46
705.83	14625.67
706.175	14628.39
706.52	14606.47
706.865	14615.05
707.209	14551.55
707.554	14497.32
707.899	14525.11
708.243	14583.87
708.588	14538.67
708.932	14429.3
709.277	14425.45
709.621	14500.71
709.966	14342.74
710.31	14313.14
710.654	14285.12
710.998	14296.64
711.342	14323.99
711.687	14331.67
712.031	14261.39
712.375	14257.1
712.719	14227.27
713.063	14248.96
713.407	14317.21
713.75	14241.73
714.094	14189.53
714.438	14133.94
714.782	14227.72
715.125	14158.34
715.469	14124.22
715.812	14159.7
716.156	13994.73
716.499	14030.21
716.843	14083.77
717.186	13936.2
717.53	14029.53
717.873	13998.8
718.216	14055.52
718.559	13991.34
718.902	13919.48
719.246	13936.65
719.589	13914.51
719.932	13877.45
720.275	13855.75
720.617	13812.59
720.96	13858.92
721.303	13902.76
721.646	13925.58
721.989	13729.88
722.331	13868.86
722.674	13861.18
723.016	13823.89
723.359	13858.24
723.701	13849.42
724.044	13691.24
724.386	13676.77
724.729	13749.31
725.071	13691.01
725.413	13675.87
725.755	13771.23
726.097	13765.13
726.439	13624.12
726.782	13704.8
727.124	13653.72
727.465	13612.14
727.807	13586.38
728.149	13614.63
728.491	13500.51
728.833	13557.91
729.175	13546.61
729.516	13518.36
729.858	13518.59
730.199	13468.64
730.541	13505.48
730.882	13526.04
731.224	13557.45
731.565	13446.04
731.906	13467.29
732.248	13489.43
732.589	13440.62
732.93	13395.65
733.271	13416.22
733.612	13419.15
733.953	13387.29
734.294	13345.03
734.635	13366.05
734.976	13404.01
735.317	13253.73
735.658	13326.73
735.999	13315.2
736.339	13296.67
736.68	13301.42
737.021	13335.77
737.361	13208.99
737.702	13276.56
738.042	13268.87
738.383	13184.81
738.723	13147.3
739.063	13201.53
739.404	13190.01
739.744	13143.68
740.084	13123.12
740.424	13194.3
740.764	13067.52
741.104	13174.87
741.444	13010.8
741.784	13035.66
742.124	13023.46
742.464	13025.94
742.804	13021.42
743.143	13001.08
743.483	13008.09
743.823	12948.66
744.162	12946.4
744.502	12976.9
744.841	12954.98
745.181	12952.27
745.52	12922.44
745.86	12886.96
746.199	12799.96
746.538	12905.27
746.877	12820.98
747.216	12783.69
747.556	12857.13
747.895	12786.63
748.234	12797.93
748.573	12724.71
748.911	12711.37
749.25	12674.54
749.589	12592.51
749.928	12686.29
750.267	12637.03
750.605	12551.6
750.944	12527.65
751.283	12554.99
751.621	12625.05
751.96	12550.48
752.298	12417.15
752.636	12500.31
752.975	12431.38
753.313	12347.32
753.651	12385.51
753.989	12392.29
754.327	12336.24
754.666	12279.75
755.004	12314.32
755.342	12275.68
755.679	12259.18
756.017	12173.08
756.355	12263.7
756.693	12132.41
757.031	12227.09
757.368	12087.44
757.706	12117.94
758.044	12138.51
758.381	12046.99
758.719	11998.85
759.056	11993.43
759.394	11921.57
759.731	11919.98
760.068	11895.13
760.405	11850.15
760.743	11672.08
761.08	11730.16
761.417	11746.2
761.754	11659.88
762.091	11674.57
762.428	11599.77
762.765	11562.93
763.102	11539.65
763.438	11544.17
763.775	11444.74
764.112	11431.63
764.449	11393.22
764.785	11331.07
765.122	11269.15
765.458	11234.8
765.795	11217.85
766.131	11244.52
766.467	11213.56
766.804	11102.6
767.14	11061.93
767.476	11009.5
767.812	10994.36
768.148	11006.79
768.485	10870.52
768.821	10780.58
769.157	10863.29
769.492	10828.03
769.828	10831.2
770.164	10746.45
770.5	10651.99
770.836	10710.98
771.171	10612.67
771.507	10650.41
771.842	10499.91
772.178	10505.56
772.513	10470.76
772.849	10472.11
773.184	10393.47
773.519	10383.07
773.855	10353.47
774.19	10309.63
774.525	10252.23
774.86	10193.7
775.195	10197.32
775.53	10088.62
775.865	10105.12
776.2	10023.54
776.535	9920.26
776.87	9925.46
777.205	9898.34
777.539	9882.3
777.874	9884.1
778.209	9776.31
778.543	9728.4
778.878	9623.77
779.212	9670.55
779.547	9651.57
779.881	9622.87
780.215	9598.01
780.55	9597.33
780.884	9535.87
781.218	9504
781.552	9469.65
781.886	9404.57
782.22	9353.5
782.554	9334.51
782.888	9240.73
783.222	9207.74
783.556	9176.78
783.889	9114.41
784.223	9171.35
784.557	9130.9
784.89	9108.31
785.224	9071.02
785.557	8951.93
785.891	8930.91
786.224	8884.58
786.558	8918.03
786.891	8866.96
787.224	8803.68
787.557	8787.18
787.891	8777.47
788.224	8730.69
788.557	8723.23
788.89	8654.76
789.223	8686.85
789.556	8612.95
789.888	8628.77
790.221	8530.02
790.554	8460.41
790.887	8502.67
791.219	8439.17
791.552	8384.03
791.884	8379.06
792.217	8324.82
792.549	8339.96
792.882	8267.2
793.214	8243.92
793.546	8212.28
793.879	8144.72
794.211	8134.09
794.543	8136.13
794.875	8124.15
795.207	8130.25
795.539	8069.91
795.871	8056.81
796.203	7985.4
796.535	7933.2
796.867	7997.83
797.198	7876.93
797.53	7903.37
797.862	7839.41
798.193	7822.01
798.525	7825.63
798.856	7795.8
799.188	7715.12
799.519	7683.71
799.85	7559.65
800.182	7641.45
800.513	7612.75
800.844	7456.15
801.175	7531.85
801.506	7558.06
801.837	7484.62
802.168	7453.89
802.499	7432.64
802.83	7425.41
803.161	7396.71
803.491	7349.93
803.822	7409.14
804.153	7315.13
804.483	7259.77
804.814	7243.04
805.145	7286.66
805.475	7219.32
805.805	7175.25
806.136	7206.66
806.466	7197.62
806.796	7150.39
807.126	7080.56
807.457	7092.54
807.787	7043.28
808.117	7027
808.447	6978.42
808.777	7047.79
809.107	6970.06
809.436	6974.8
809.766	6967.12
810.096	6923.5
810.426	6906.1
810.755	6871.08
811.085	6828.59
811.414	6866.78
811.744	6784.52
812.073	6787.24
812.403	6741.81
812.732	6709.5
813.061	6731.42
813.39	6618.43
813.719	6683.96
814.049	6729.61
814.378	6654.58
814.707	6558.54
815.036	6593.12
815.365	6610.07
815.693	6523.29
816.022	6521.26
816.351	6511.31
816.68	6488.26
817.008	6490.3
817.337	6379.34
817.665	6408.26
817.994	6427.92
818.322	6401.03
818.651	6381.6
818.979	6382.73
819.307	6414.37
819.636	6352.45
819.964	6320.13
820.292	6333.01
820.62	6300.24
820.948	6281.94
821.276	6269.51
821.604	6243.3
821.932	6270.19
822.259	6304.76
822.587	6225.44
822.915	6194.94
823.243	6259.57
823.57	6250.3
823.898	6232.22
824.225	6202.39
824.553	6199.91
824.88	6219.34
825.207	6190.42
825.535	6147.93
825.862	6152.45
826.189	6126.69
826.516	6228.61
826.843	6198.33
827.17	6242.62
827.497	6168.27
827.824	6211.88
828.151	6138.21
828.478	6149.51
828.805	6090.98
829.131	6144.32
829.458	6143.86
829.785	6125.56
830.111	6093.02
830.438	6181.83
830.764	6123.53
831.09	6065
831.417	6106.12
831.743	6085.33
832.069	6124.66
832.395	6065.45
832.722	6032.68
833.048	6075.17
833.374	6076.07
833.7	6023.42
834.026	6047.82
834.351	6074.49
834.677	6005.79
835.003	6038.1
835.329	6015.51
835.654	5957.88
835.98	5956.07
836.306	5950.2
836.631	5934.83
836.956	5976.41
837.282	5918.56
837.607	5902.51
837.932	5984.09
838.258	5964.43
838.583	5899.12
838.908	5850.76
839.233	5887.15
839.558	5888.05
839.883	5852.12
840.208	5825
840.533	5861.16
840.858	5834.49
841.182	5843.08
841.507	5788.39
841.832	5772.35
842.156	5765.79
842.481	5759.47
842.805	5753.37
843.13	5711.11
843.454	5698.45
843.778	5634.5
844.103	5691.9
844.427	5662.07
844.751	5677.21
845.075	5611
845.399	5629.75
845.723	5566.03
846.047	5607.38
846.371	5546.82
846.695	5566.93
847.019	5490.32
847.343	5444.45
847.666	5453.94
847.99	5441.51
848.313	5425.69
848.637	5357.9
848.96	5370.78
849.284	5353.38
849.607	5277.9
849.931	5290.55
850.254	5224.57
850.577	5267.95
850.9	5235.87
851.223	5194.51
851.546	5169.65
851.869	5103.21
852.192	5160.39
852.515	5140.27
852.838	5062.76
853.161	5087.62
853.483	5061.18
853.806	5030.67
854.129	5044.23
854.451	5025.02
854.774	4966.95
855.096	5018.02
855.419	5007.85
855.741	4979.37
856.063	4904.35
856.385	4881.98
856.708	4884.69
857.03	4884.46
857.352	4886.95
857.674	4839.04
857.996	4813.28
858.318	4776.89
858.64	4769.21
858.961	4779.15
859.283	4790.45
859.605	4740.96
859.926	4790.91
860.248	4740.96
860.57	4703
860.891	4727.4
861.212	4690.34
861.534	4696.67
861.855	4662.32
862.176	4709.33
862.498	4688.53
862.819	4697.8
863.14	4636.33
863.461	4608.76
863.782	4639.04
864.103	4584.13
864.424	4566.05
864.745	4627.97
865.065	4602.89
865.386	4553.62
865.707	4534.64
866.027	4555.88
866.348	4604.92
866.668	4550.01
866.989	4520.86
867.309	4489.44
867.63	4500.52
867.95	4491.25
868.27	4459.39
868.59	4459.39
868.91	4483.34
869.23	4474.3
869.55	4409.22
869.87	4405.83
870.19	4428.88
870.51	4408.99
870.83	4439.5
871.15	4397.24
871.469	4357.47
871.789	4406.28
872.109	4392.72
872.428	4390.01
872.748	4366.96
873.067	4383.46
873.386	4426.62
873.706	4370.35
874.025	4304.59
874.344	4351.59
874.663	4345.27
874.982	4319.96
875.301	4315.44
875.62	4282.67
875.939	4254.42
876.258	4293.07
876.577	4293.97
876.896	4259.85
877.214	4264.37
877.533	4290.13
877.852	4279.73
878.17	4268.21
878.489	4247.42
878.807	4272.95
879.125	4260.52
879.444	4208.55
879.762	4219.39
880.08	4225.5
880.398	4230.69
880.716	4220.07
881.034	4198.83
881.352	4153.86
881.67	4123.8
881.988	4190.92
882.306	4186.85
882.624	4149.57
882.941	4121.32
883.259	4095.78
883.577	4106.86
883.894	4122.67
884.212	4084.93
884.529	4077.7
884.846	4091.04
885.164	4072.28
885.481	4046.52
885.798	4066.18
886.115	4043.13
886.432	4047.65
886.75	4032.96
887.067	4021.66
887.383	3982.56
887.7	4049.23
888.017	3964.03
888.334	3981.21
888.651	3986.63
888.967	3944.37
889.284	3947.31
889.6	3934.66
889.917	3869.57
890.233	3907.76
890.55	3919.52
890.866	3914.77
891.182	3894.88
891.498	3863.92
891.815	3874.55
892.131	3851.04
892.447	3811.27
892.763	3818.95
893.079	3830.03
893.395	3820.99
893.71	3792.97
894.026	3774.43
894.342	3845.17
894.657	3743.02
894.973	3757.26
895.289	3763.36
895.604	3759.07
895.92	3726.98
896.235	3740.31
896.55	3686.98
896.865	3700.31
897.181	3672.29
897.496	3676.81
897.811	3639.97
898.126	3656.47
898.441	3658.05
898.756	3626.87
899.071	3612.86
899.386	3598.17
899.7	3572.63
900.015	3586.42
900.33	3534.44
900.644	3556.59
900.959	3551.84
901.273	3520.43
901.588	3508.23
901.902	3537.83
902.216	3475.01
902.531	3500.54
902.845	3427.1
903.159	3459.19
903.473	3441.34
903.787	3404.05
904.101	3381.22
904.415	3407.89
904.729	3383.03
905.042	3366.99
905.356	3359.53
905.67	3369.7
905.984	3378.96
906.297	3360.89
906.611	3308.68
906.924	3331.96
907.237	3362.47
907.551	3305.75
907.864	3324.73
908.177	3263.49
908.491	3282.47
908.804	3283.37
909.117	3231.17
909.43	3208.8
909.743	3203.83
910.056	3214.68
910.368	3173.09
910.681	3162.7
910.994	3124.51
911.307	3139.65
911.619	3126.32
911.932	3119.08
912.244	3095.81
912.557	3127.22
912.869	3078.86
913.181	3122.47
913.494	3090.38
913.806	3054.68
914.118	3061.69
914.43	3049.48
914.742	3017.17
915.054	3025.75
915.366	3008.81
915.678	2955.47
915.99	2990.73
916.302	2961.57
916.613	2922.71
916.925	2962.25
917.236	2957.06
917.548	2919.54
917.859	2884.51
918.171	2925.87
918.482	2890.84
918.794	2865.31
919.105	2856.72
919.416	2854.46
919.727	2868.02
920.038	2854.91
920.349	2844.29
920.66	2792.77
920.971	2781.01
921.282	2794.57
921.593	2783.05
921.903	2753.9
922.214	2764.97
922.525	2748.02
922.835	2728.59
923.146	2676.16
923.456	2698.3
923.767	2689.94
924.077	2717.06
924.387	2713.45
924.697	2670.51
925.008	2678.64
925.318	2648.14
925.628	2655.37
925.938	2649.27
926.248	2608.36
926.558	2627.12
926.867	2589.16
927.177	2601.13
927.487	2572.66
927.796	2532.43
928.106	2567.01
928.416	2585.77
928.725	2531.3
929.034	2538.76
929.344	2528.37
929.653	2540.79
929.962	2498.08
930.271	2477.07
930.581	2505.77
930.89	2437.52
931.199	2465.54
931.508	2460.34
931.817	2446.33
932.125	2445.66
932.434	2422.15
932.743	2426.45
933.051	2451.76
933.36	2447.01
933.669	2383.96
933.977	2363.62
934.286	2403.17
934.594	2378.77
934.902	2351.2
935.21	2327.02
935.519	2307.81
935.827	2342.16
936.135	2322.04
936.443	2345.09
936.751	2337.41
937.059	2324.98
937.367	2297.41
937.674	2279.56
937.982	2281.14
938.29	2253.12
938.597	2284.3
938.905	2249.28
939.213	2290.63
939.52	2251.54
939.827	2233.68
940.135	2194.59
940.442	2188.71
940.749	2215.83
941.056	2208.6
941.363	2199.33
941.67	2202.5
941.977	2164.08
942.284	2158.88
942.591	2140.81
942.898	2171.99
943.205	2133.8
943.511	2136.06
943.818	2137.42
944.125	2130.64
944.431	2111.88
944.738	2098.32
945.044	2101.94
945.35	2083.18
945.657	2089.06
945.963	2068.94
946.269	2084.99
946.575	2060.13
946.881	2079.11
947.187	2034.59
947.493	2022.16
947.799	2006.57
948.105	1998.66
948.41	1991.88
948.716	1987.36
949.022	1955.73
949.327	1969.28
949.633	1964.76
949.938	1944.88
950.244	1978.78
950.549	1962.5
950.854	1952.34
951.16	1930.42
951.465	1952.56
951.77	1929.96
952.075	1915.95
952.38	1923.18
952.685	1917.53
952.99	1913.92
953.294	1907.14
953.599	1872.11
953.904	1887.03
954.209	1896.29
954.513	1874.37
954.818	1847.25
955.122	1849.74
955.426	1848.16
955.731	1842.06
956.035	1810.42
956.339	1829.4
956.643	1795.96
956.948	1802.28
957.252	1790.08
957.556	1823.3
957.86	1748.05
958.163	1804.99
958.467	1741.49
958.771	1767.48
959.075	1775.62
959.378	1750.08
959.682	1772.23
959.985	1751.89
960.289	1707.6
960.592	1777.65
960.896	1730.42
961.199	1725
961.502	1721.38
961.805	1720.48
962.108	1691.55
962.411	1693.13
962.714	1648.16
963.017	1692.68
963.32	1701.04
963.623	1687.48
963.926	1704.66
964.228	1623.98
964.531	1700.59
964.833	1664.89
965.136	1630.54
965.438	1606.58
965.741	1619.69
966.043	1614.27
966.345	1602.29
966.648	1590.99
966.95	1627.82
967.252	1569.97
967.554	1588.28
967.856	1602.29
968.158	1596.86
968.46	1574.49
968.761	1575.85
969.063	1581.05
969.365	1552.8
969.666	1535.85
969.968	1546.7
970.269	1545.57
970.571	1551.67
970.872	1510.09
971.174	1518.45
971.475	1509.41
971.776	1502.86
972.077	1503.53
972.378	1489.97
972.679	1492.69
972.98	1476.64
973.281	1477.09
973.582	1478.68
973.883	1452.69
974.183	1456.98
974.484	1466.7
974.785	1435.51
975.085	1453.59
975.386	1441.84
975.686	1457.89
975.986	1446.13
976.287	1468.51
976.587	1461.5
976.887	1413.59
977.187	1405.46
977.487	1414.5
977.787	1420.82
978.087	1366.36
978.387	1388.28
978.687	1382.41
978.987	1385.12
979.286	1393.93
979.586	1377.66
979.885	1384.89
980.185	1367.94
980.484	1374.27
980.784	1332.92
981.083	1332.01
981.382	1358.45
981.682	1340.6
981.981	1352.13
982.28	1341.96
982.579	1313.93
982.878	1313.71
983.177	1316.87
983.475	1332.24
983.774	1287.72
984.073	1298.79
984.372	1314.16
984.67	1290.88
984.969	1285.69
985.267	1249.53
985.566	1265.12
985.864	1278.68
986.162	1267.83
986.461	1253.37
986.759	1270.09
987.057	1247.95
987.355	1265.35
987.653	1266.03
987.951	1240.04
988.249	1213.37
988.547	1223.99
988.844	1211.79
989.142	1219.7
989.44	1194.84
989.737	1205.46
990.035	1212.24
990.332	1224.45
990.63	1205.24
990.927	1219.25
991.224	1167.72
991.521	1181.73
991.819	1184.45
992.116	1190.32
992.413	1178.34
992.71	1204.56
993.006	1172.24
993.303	1165.01
993.6	1151
993.897	1149.87
994.193	1161.4
994.49	1149.87
994.787	1138.35
995.083	1118.91
995.379	1128.18
995.676	1131.57
995.972	1131.79
996.268	1113.94
996.565	1102.41
996.861	1101.06
997.157	1117.78
997.453	1106.03
997.749	1092.92
998.044	1080.04
998.34	1074.17
998.636	1049.31
998.932	1062.64
999.227	1073.04
999.523	1077.33
999.818	1068.07
1000.114	1051.79
1000.409	1057.67
1000.704	1059.7
1001	1044.11
1001.295	1032.81
1001.59	1047.05
1001.885	1017.22
1002.18	1033.49
1002.475	1043.21
1002.77	1021.96
1003.065	1018.8
1003.359	1014.96
1003.654	1016.54
1003.949	988.75
1004.243	978.8
1004.538	986.26
1004.832	1002.98
1005.127	1003.89
1005.421	990.78
1005.715	977.67
1006.009	973.38
1006.304	962.53
1006.598	951.23
1006.892	951.01
1007.186	921.63
1007.48	961.63
1007.773	954.4
1008.067	929.99
1008.361	935.64
1008.655	937.45
1008.948	925.7
1009.242	922.53
1009.535	917.11
1009.829	917.56
1010.122	899.26
1010.415	900.39
1010.708	925.92
1011.001	913.72
1011.295	885.92
1011.588	880.5
1011.881	878.01
1012.173	878.92
1012.466	862.42
1012.759	874.62
1013.052	871.91
1013.344	861.06
1013.637	862.87
1013.93	867.62
1014.222	858.35
1014.514	870.1
1014.807	831.24
1015.099	834.4
1015.391	845.7
1015.683	831.91
1015.976	831.46
1016.268	827.85
1016.56	785.13
1016.851	836.88
1017.143	819.03
1017.435	827.39
1017.727	797.56
1018.018	802.31
1018.31	802.99
1018.602	785.13
1018.893	801.18
1019.185	815.42
1019.476	782.42
1019.767	804.34
1020.058	758.69
1020.35	772.03
1020.641	771.8
1020.932	787.17
1021.223	774.29
1021.514	762.31
1021.804	758.69
1022.095	763.44
1022.386	744.91
1022.677	737.23
1022.967	753.05
1023.258	739.71
1023.548	739.03
1023.839	722.76
1024.129	718.92
1024.419	742.88
1024.709	699.49
1025	715.53
1025.29	701.97
1025.58	730.9
1025.87	723.44
1026.16	714.4
1026.449	715.08
1026.739	706.72
1027.029	696.32
1027.319	699.94
1027.608	686.38
1027.898	690
1028.187	659.26
1028.477	689.54
1028.766	675.76
1029.055	678.47
1029.344	677.34
1029.634	671.69
1029.923	667.85
1030.212	675.08
1030.501	668.75
1030.79	662.65
1031.078	648.64
1031.367	642.31
1031.656	645.93
1031.945	658.13
1032.233	639.15
1032.522	640.51
1032.81	632.14
1033.099	626.72
1033.387	637.12
1033.675	629.66
1033.963	603.22
1034.251	603.22
1034.54	586.95
1034.828	629.88
1035.116	610.22
1035.403	613.39
1035.691	609.55
1035.979	624.01
1036.267	586.27
1036.554	603.22
1036.842	593.5
1037.129	593.95
1037.417	604.35
1037.704	588.98
1037.992	577
1038.279	583.78
1038.566	562.99
1038.853	562.99
1039.14	562.99
