Data from brown_tile_FLMS001491_061.txt Node
Date: Tue Feb 07 10:37:49 GMT 2017
User: dcchb
Spectrometer: FLMS00149
Trigger mode: 0
Integration Time (sec): 2.000000E-2
Scans to average: 10
Electric dark correction enabled: true
Nonlinearity correction enabled: false
Boxcar width: 0
XAxis mode: Wavelengths
Number of Pixels in Spectrum: 2048
>>>>>Begin Spectral Data<<<<<
341.393	-26.12
341.776	-26.12
342.16	-26.12
342.543	-51.88
342.927	-64.98
343.31	-73.12
343.693	-52.56
344.077	-66.79
344.46	-44.42
344.843	-60.24
345.226	-39.45
345.61	-10.07
345.993	-22.73
346.376	-17.98
346.759	-3.29
347.142	22.47
347.525	27.44
347.908	62.24
348.291	65.41
348.674	106.54
349.057	106.54
349.44	137.5
349.823	153.99
350.206	161.9
350.588	172.75
350.971	195.8
351.354	221.79
351.737	231.73
352.119	250.26
352.502	242.35
352.884	251.17
353.267	259.08
353.65	289.13
354.032	285.74
354.414	288.45
354.797	283.26
355.179	295.23
355.562	308.34
355.944	320.77
356.326	299.75
356.709	310.6
357.091	322.8
357.473	338.62
357.855	332.07
358.238	335.01
358.62	323.03
359.002	332.75
359.384	328
359.766	332.52
360.148	311.73
360.53	326.19
360.912	329.36
361.294	320.99
361.676	309.92
362.057	316.7
362.439	324.84
362.821	303.82
363.203	312.86
363.584	318.73
363.966	300.2
364.348	311.5
364.729	296.14
365.111	298.4
365.493	280.09
365.874	300.66
366.256	308.57
366.637	295.23
367.019	300.43
367.4	298.17
367.781	310.37
368.163	310.15
368.544	308.11
368.925	285.29
369.306	297.94
369.688	303.59
370.069	281.67
370.45	297.49
370.831	286.87
371.212	286.42
371.593	304.95
371.974	302.69
372.355	309.7
372.736	318.73
373.117	288
373.498	311.5
373.879	285.06
374.26	282.13
374.641	290.94
375.021	271.5
375.402	298.17
375.783	301.56
376.163	304.05
376.544	322.58
376.925	312.86
377.305	313.99
377.686	307.44
378.066	301.56
378.447	321.9
378.827	324.16
379.208	303.37
379.588	320.32
379.968	318.96
380.349	311.96
380.729	297.27
381.109	304.05
381.489	315.8
381.87	334.55
382.25	315.8
382.63	316.93
383.01	290.94
383.39	330.94
383.77	313.99
384.15	317.15
384.53	325.06
384.91	323.25
385.29	335.91
385.67	319.64
386.049	332.52
386.429	311.5
386.809	325.74
387.189	332.75
387.568	315.57
387.948	316.7
388.328	333.42
388.707	328.23
389.087	336.36
389.466	344.5
389.846	362.35
390.225	352.41
390.605	350.82
390.984	355.12
391.363	332.52
391.743	360.09
392.122	343.37
392.501	339.52
392.881	355.34
393.26	356.93
393.639	375.91
394.018	353.08
394.397	348.79
394.776	336.81
395.155	353.76
395.534	353.76
395.913	368
396.292	365.29
396.671	351.95
397.05	367.55
397.429	360.99
397.808	363.25
398.186	357.83
398.565	351.05
398.944	374.33
399.323	371.16
399.701	358.96
400.08	365.96
400.458	377.94
400.837	379.98
401.215	368.22
401.594	379.75
401.972	385.4
402.351	379.75
402.729	375.68
403.107	374.1
403.486	388.56
403.864	380.65
404.242	403.25
404.62	383.59
404.999	391.05
405.377	391.5
405.755	398.96
406.133	393.76
406.511	416.13
406.889	396.47
407.267	413.42
407.645	406.64
408.023	411.16
408.401	413.42
408.779	416.81
409.156	398.96
409.534	398.73
409.912	415
410.29	417.26
410.667	419.3
411.045	427.21
411.422	407.77
411.8	426.98
412.178	443.03
412.555	426.53
412.933	431.73
413.31	430.37
413.687	450.71
414.065	433.08
414.442	422.23
414.819	439.64
415.197	441.9
415.574	440.99
415.951	437.6
416.328	460.43
416.705	421.33
417.082	458.17
417.46	453.42
417.837	461.33
418.214	481.44
418.591	479.41
418.967	452.29
419.344	485.51
419.721	485.96
420.098	481.89
420.475	475.11
420.852	465.85
421.228	481.67
421.605	475.57
421.982	485.28
422.358	502.68
422.735	483.7
423.111	477.15
423.488	497.49
423.864	499.75
424.241	505.62
424.617	507.2
424.994	502.46
425.37	478.96
425.746	514.66
426.123	503.36
426.499	495.23
426.875	523.7
427.251	530.71
427.627	509.01
428.003	513.31
428.379	538.16
428.756	509.92
429.132	531.84
429.507	560.76
429.883	545.17
430.259	545.17
430.635	561.67
431.011	557.82
431.387	569.12
431.763	557.6
432.138	580.65
432.514	600.31
432.89	590.59
433.265	583.59
433.641	571.38
434.016	583.36
434.392	607.99
434.767	607.09
435.143	602.12
435.518	591.5
435.894	627.65
436.269	631.95
436.644	614.55
437.02	634.66
437.395	628.78
437.77	639.63
438.145	639.63
438.52	637.14
438.895	626.52
439.271	634.66
439.646	645.96
440.021	622
440.395	655.22
440.77	665.84
441.145	660.87
441.52	680.53
441.895	664.49
442.27	661.78
442.645	685.73
443.019	688.89
443.394	695.9
443.769	690.02
444.143	664.26
444.518	683.92
444.892	688.89
445.267	703.13
445.641	690.7
446.016	713.98
446.39	694.77
446.764	718.05
447.139	727.31
447.513	726.86
447.887	725.73
448.262	715.56
448.636	740.64
449.01	738.61
449.384	752.62
449.758	742.68
450.132	748.1
450.506	746.29
450.88	735.22
451.254	759.85
451.628	773.19
452.002	762.34
452.376	768.21
452.75	778.16
453.123	764.6
453.497	785.16
453.871	799.17
454.244	811.6
454.618	801.21
454.992	803.92
455.365	819.29
455.739	843.92
456.112	835.33
456.486	843.92
456.859	826.52
457.232	845.95
457.606	845.73
457.979	881.66
458.352	886.4
458.725	896.8
459.099	888.89
459.472	920.3
459.845	940.41
460.218	906.74
460.591	931.83
460.964	899.06
461.337	962.33
461.71	939.51
462.083	950.81
462.456	968.21
462.829	979.73
463.201	960.3
463.574	965.5
463.947	1005.04
464.32	1013.63
464.692	1002.78
465.065	1033.07
465.438	1045.27
465.81	1042.78
466.183	1062.22
466.555	1074.65
466.928	1078.04
467.3	1095.66
467.672	1087.53
468.045	1101.76
468.417	1137.92
468.789	1117.13
469.161	1111.26
469.534	1136.79
469.906	1163.46
470.278	1176.79
470.65	1196.45
471.022	1204.14
471.394	1204.14
471.766	1187.41
472.138	1225.38
472.51	1248.88
472.882	1260.86
473.253	1280.52
473.625	1297.69
473.997	1328.2
474.369	1340.85
474.74	1324.36
475.112	1346.96
475.484	1400.74
475.855	1409.1
476.227	1412.72
476.598	1442.09
476.97	1461.98
477.341	1474.86
477.713	1485.94
478.084	1486.84
478.455	1522.32
478.827	1545.37
479.198	1555.31
479.569	1574.07
479.94	1607.29
480.311	1605.48
480.682	1641.64
481.053	1697
481.424	1701.75
481.795	1714.86
482.166	1773.61
482.537	1740.84
482.908	1812.93
483.279	1813.16
483.65	1838.47
484.021	1856.55
484.391	1848.41
484.762	1887.73
485.133	1927.28
485.503	1951.01
485.874	1995.98
486.244	1991.46
486.615	2003.66
486.985	2033.27
487.356	2138.57
487.726	2114.17
488.097	2127.05
488.467	2122.53
488.837	2168.4
489.207	2195.97
489.578	2223.32
489.948	2245.01
490.318	2266.03
490.688	2307.16
491.058	2315.52
491.428	2344.67
491.798	2366.14
492.168	2411.11
492.538	2414.5
492.908	2445.23
493.278	2446.81
493.648	2471.9
494.017	2485.68
494.387	2525.23
494.757	2552.57
495.126	2580.14
495.496	2565.23
495.866	2570.2
496.235	2650.65
496.605	2655.62
496.974	2659.46
497.344	2703.08
497.713	2652.68
498.082	2712.12
498.452	2746.69
498.821	2776.75
499.19	2779.23
499.559	2807.26
499.928	2807.48
500.298	2838.67
500.667	2876.63
501.036	2819.91
501.405	2812.23
501.774	2918.44
502.143	2943.98
502.512	2931.32
502.88	2996.4
503.249	2974.94
503.618	3004.54
503.987	3006.57
504.356	3024.2
504.724	3063.97
505.093	3056.97
505.462	3054.48
505.83	3097.64
506.199	3113.46
506.567	3155.95
506.936	3146.46
507.304	3170.86
507.672	3206.34
508.041	3251.99
508.409	3267.58
508.777	3244.99
509.145	3334.47
509.514	3343.06
509.882	3342.61
510.25	3318.66
510.618	3363.4
510.986	3378.32
511.354	3432.55
511.722	3493.34
512.09	3492.66
512.458	3469.39
512.826	3541.02
513.193	3539.67
513.561	3539.89
513.929	3574.02
514.297	3643.84
514.664	3688.36
515.032	3642.94
515.4	3679.1
515.767	3710.51
516.135	3729.04
516.502	3741.47
516.869	3729.04
517.237	3769.72
517.604	3779.89
517.972	3851.3
518.339	3882.48
518.706	3855.36
519.073	3913.67
519.44	3943.95
519.808	3963.16
520.175	4013.1
520.542	4030.05
520.909	4083.38
521.276	4090.84
521.643	4146.43
522.009	4157.73
522.376	4222.13
522.743	4233.43
523.11	4279.53
523.477	4343.94
523.843	4342.13
524.21	4335.58
524.577	4406.31
524.943	4449.25
525.31	4464.16
525.676	4461.9
526.043	4515.91
526.409	4500.55
526.776	4577.15
527.142	4631.84
527.508	4634.55
527.874	4699.86
528.241	4694.21
528.607	4762.23
528.973	4834.77
529.339	4846.07
529.705	4851.27
530.071	4881.1
530.437	4903.7
530.803	4942.12
531.169	4999.97
531.535	4983.7
531.901	5037.03
532.267	5051.72
532.632	5162.9
532.998	5129.91
533.364	5171.71
533.73	5192.73
534.095	5239.51
534.461	5246.74
534.826	5264.59
535.192	5261.66
535.557	5314.99
535.923	5344.37
536.288	5388.43
536.653	5403.12
537.019	5375.1
537.384	5430.01
537.749	5523.12
538.114	5554.98
538.479	5550.46
538.845	5602.66
539.21	5594.98
539.575	5624.36
539.94	5652.83
540.305	5724.02
540.67	5712.72
541.034	5790
541.399	5819.83
541.764	5810.12
542.129	5883.11
542.494	5847.18
542.858	5915.88
543.223	5919.04
543.587	5980.96
543.952	6021.86
544.316	6032.71
544.681	6040.17
545.045	6051.01
545.41	6087.17
545.774	6124.01
546.138	6192.93
546.503	6243.78
546.867	6272.02
547.231	6254.17
547.595	6267.28
547.959	6374.62
548.324	6464.79
548.688	6410.1
549.052	6447.61
549.416	6477.22
549.779	6544.79
550.143	6571.68
550.507	6655.97
550.871	6655.29
551.235	6694.84
551.599	6764.67
551.962	6814.16
552.326	6825.91
552.689	6902.52
553.053	6883.76
553.417	6932.57
553.78	7027.94
554.143	7004.66
554.507	7058.67
554.87	7110.19
555.234	7262.96
555.597	7283.07
555.96	7267.25
556.323	7414.14
556.686	7444.42
557.05	7507.92
557.413	7541.37
557.776	7609.84
558.139	7653.91
558.502	7727.13
558.865	7821.59
559.228	7845.54
559.59	7935.03
559.953	8009.15
560.316	8077.63
560.679	8037.85
561.041	8162.6
561.404	8309.48
561.767	8354.91
562.129	8379.31
562.492	8498.86
562.854	8517.84
563.217	8559.65
563.579	8639.19
563.941	8744.95
564.304	8781.56
564.666	8873.99
565.028	8983.59
565.39	9018.84
565.753	9165.51
566.115	9165.06
566.477	9264.04
566.839	9246.64
567.201	9417.7
567.563	9503.58
567.925	9630.13
568.287	9648.43
568.648	9628.09
569.01	9805.26
569.372	9905.38
569.734	9942.21
570.095	10029.89
570.457	10148.08
570.819	10185.82
571.18	10246.16
571.542	10299.72
571.903	10445.7
572.265	10443.21
572.626	10559.6
572.987	10562.98
573.349	10734.73
573.71	10824.67
574.071	10834.39
574.432	10924.33
574.794	11057.66
575.155	11082.29
575.516	11081.84
575.877	11244.77
576.238	11303.53
576.599	11342.85
576.96	11434.15
577.32	11477.09
577.681	11709.62
578.042	11629.62
578.403	11745.78
578.763	11844.31
579.124	11823.29
579.485	11968.82
579.845	12036.39
580.206	12101.02
580.566	12108.26
580.927	12174.92
581.287	12288.14
581.648	12202.04
582.008	12313.67
582.368	12396.38
582.728	12425.76
583.089	12377.4
583.449	12454.69
583.809	12590.05
584.169	12605.64
584.529	12741.23
584.889	12811.06
585.249	12674.12
585.609	12861
585.969	12899.87
586.329	12898.52
586.688	12953.43
587.048	12999.76
587.408	12996.59
587.768	13161.79
588.127	13111.39
588.487	13099.64
588.846	13265.06
589.206	13200.66
589.565	13298.51
589.925	13373.76
590.284	13406.98
590.643	13434.32
591.003	13500.76
591.362	13627.31
591.721	13584.15
592.08	13567.2
592.44	13700.98
592.799	13628.67
593.158	13716.57
593.517	13669.34
593.876	13813.75
594.235	13797.02
594.593	13811.94
594.952	13941.88
595.311	13913.86
595.67	13877.7
596.029	14114.08
596.387	14048.54
596.746	14184.81
597.104	14113.4
597.463	14135.32
597.822	14194.3
598.18	14215.54
598.538	14281.08
598.897	14381.19
599.255	14205.6
599.613	14418.02
599.972	14386.61
600.33	14426.84
600.688	14527.85
601.046	14526.5
601.404	14562.43
601.762	14608.75
602.12	14688.53
602.478	14708.19
602.836	14725.36
603.194	14636.32
603.552	14731.69
603.91	14772.59
604.268	14835.87
604.625	14764.68
604.983	14871.35
605.341	14864.34
605.698	14938.92
606.056	14971.91
606.413	15015.52
606.771	15002.87
607.128	15087.16
607.485	15036.99
607.843	15086.26
608.2	15145.24
608.557	15176.2
608.914	15218
609.272	15286.48
609.629	15219.13
609.986	15289.41
610.343	15265.91
610.7	15413.93
611.057	15404.21
611.414	15380.49
611.771	15424.55
612.127	15519.01
612.484	15461.39
612.841	15486.47
613.198	15466.36
613.554	15557.43
613.911	15629.29
614.267	15582.29
614.624	15640.59
614.98	15624.09
615.337	15758.1
615.693	15707.48
616.05	15682.62
616.406	15774.6
616.762	15745.9
617.118	15658.67
617.475	15811.66
617.831	15861.83
618.187	15895.95
618.543	15947.25
618.899	16022.73
619.255	16017.53
619.611	15980.02
619.967	15887.14
620.323	16074.25
620.678	15968.49
621.034	15980.92
621.39	15996.29
621.746	16033.12
622.101	16206
622.457	16113.57
622.812	16096.62
623.168	16233.8
623.523	16201.71
623.879	16096.17
624.234	16149.5
624.589	16169.62
624.945	16167.81
625.3	16283.51
625.655	16216.85
626.01	16190.41
626.365	16307.01
626.72	16243.29
627.075	16221.59
627.43	16268.37
627.785	16170.97
628.14	16226.79
628.495	16241.71
628.85	16200.58
629.205	16155.38
629.559	16250.97
629.914	16194.48
630.269	16223.63
630.623	16155.38
630.978	16154.48
631.332	16157.41
631.687	16288.48
632.041	16179.79
632.396	16208.03
632.75	16108.83
633.104	16086.68
633.459	16079.9
633.813	16050.3
634.167	16061.15
634.521	16022.05
634.875	16171.88
635.229	16106.57
635.583	16086.46
635.937	16010.3
636.291	16026.34
636.645	16017.98
636.999	15999.68
637.352	16008.04
637.706	15948.38
638.06	15954.48
638.413	16010.3
638.767	15936.63
639.121	15867.03
639.474	15852.56
639.828	15962.62
640.181	15931.88
640.534	15955.16
640.888	15916.06
641.241	15725.11
641.594	15801.04
641.947	15851.21
642.301	15803.98
642.654	15921.04
643.007	15837.65
643.36	15911.77
643.713	15771.66
644.066	15829.97
644.419	15792
644.771	15727.37
645.124	15530.31
645.477	15573.93
645.83	15393.14
646.182	15349.75
646.535	15289.19
646.888	15327.83
647.24	15182.07
647.593	15430.43
647.945	15275.86
648.298	15343.42
648.65	15244.44
649.002	15209.42
649.355	15326.7
649.707	15326.48
650.059	15342.75
650.411	15486.92
650.763	15574.38
651.115	15650.99
651.467	15751.32
651.819	15665.22
652.171	15656.64
652.523	15614.6
652.875	15571.67
653.227	15546.13
653.578	15636.07
653.93	15599.01
654.282	15551.78
654.633	15541.16
654.985	15557.2
655.337	15572.34
655.688	15584.77
656.039	15685.11
656.391	15488.73
656.742	15509.75
657.094	15479.01
657.445	15635.62
657.796	15580.25
658.147	15582.74
658.498	15495.06
658.849	15521.05
659.2	15499.8
659.551	15559.46
659.902	15577.77
660.253	15486.47
660.604	15516.53
660.955	15504.1
661.306	15555.17
661.656	15525.34
662.007	15655.96
662.358	15520.14
662.708	15571.44
663.059	15485.12
663.409	15491.89
663.76	15517.43
664.11	15636.75
664.461	15630.42
664.811	15536.41
665.161	15616.41
665.511	15586.13
665.862	15588.62
666.212	15569.86
666.562	15644.43
666.912	15639.69
667.262	15541.61
667.612	15613.02
667.962	15650.08
668.312	15533.25
668.662	15750.65
669.011	15663.87
669.361	15599.46
669.711	15628.61
670.06	15612.57
670.41	15592.46
670.76	15593.81
671.109	15679.01
671.459	15650.99
671.808	15594.94
672.157	15749.52
672.507	15640.37
672.856	15627.71
673.205	15650.31
673.554	15682.62
673.904	15661.61
674.253	15671.55
674.602	15662.06
674.951	15385.23
675.3	15392.46
675.649	15625.9
675.998	15767.14
676.346	15712.91
676.695	15779.34
677.044	15661.83
677.393	15646.24
677.741	15678.56
678.09	15666.81
678.438	15541.84
678.787	15692.79
679.135	15715.17
679.484	15527.15
679.832	15667.48
680.181	15655.96
680.529	15700.25
680.877	15641.04
681.225	15605.34
681.573	15773.24
681.922	15637.65
682.27	15539.8
682.618	15616.19
682.966	15580.93
683.314	15608.73
683.661	15573.47
684.009	15488.51
684.357	15454.83
684.705	15469.52
685.053	15434.04
685.4	15504.78
685.748	15468.17
686.095	15481.27
686.443	15291.67
686.79	15335.74
687.138	15380.26
687.485	15324.89
687.832	15329.41
688.18	15407.15
688.527	15299.36
688.874	15261.17
689.221	15340.03
689.568	15296.65
689.915	15268.4
690.262	15262.75
690.609	15199.02
690.956	15146.14
691.303	15213.48
691.65	15157.89
691.997	15113.6
692.344	14982.76
692.69	15062.98
693.037	15118.57
693.383	14925.81
693.73	15045.8
694.077	14909.31
694.423	14965.13
694.769	14841.97
695.116	14808.52
695.462	14844.45
695.808	14754.29
696.155	14837
696.501	14729.2
696.847	14777.79
697.193	14692.14
697.539	14824.12
697.885	14645.59
698.231	14614.4
698.577	14591.58
698.923	14595.87
699.269	14534.86
699.614	14467.97
699.96	14505.71
700.306	14471.13
700.651	14463.9
700.997	14462.09
701.342	14376.67
701.688	14397.01
702.033	14342.77
702.379	14348.65
702.724	14293.06
703.069	14363.56
703.415	14242.89
703.76	14190.91
704.105	14220.74
704.45	14230.23
704.795	14043.8
705.14	14093.74
705.485	14018.04
705.83	14107.3
706.175	14092.16
706.52	14040.86
706.865	14114.08
707.209	13956.12
707.554	13949.79
707.899	14011.93
708.243	13827.98
708.588	13925.83
708.932	13877.7
709.277	13932.39
709.621	13877.7
709.966	13799.96
710.31	13800.41
710.654	13721.77
710.998	13792.73
711.342	13826.63
711.687	13822.11
712.031	13769.68
712.375	13756.35
712.719	13774.2
713.063	13669.57
713.407	13696.69
713.75	13648.33
714.094	13605.84
714.438	13627.31
714.782	13678.84
715.125	13561.55
715.469	13660.76
715.812	13486.98
716.156	13532.85
716.499	13546.41
716.843	13535.11
717.186	13480.65
717.53	13526.97
717.873	13583.47
718.216	13518.84
718.559	13442.01
718.902	13433.87
719.246	13376.02
719.589	13369.24
719.932	13255.12
720.275	13361.1
720.617	13369.01
720.96	13346.19
721.303	13341.89
721.646	13289.69
721.989	13299.41
722.331	13321.56
722.674	13305.51
723.016	13375.11
723.359	13296.7
723.701	13307.55
724.044	13256.25
724.386	13125.86
724.729	13219.86
725.071	13206.08
725.413	13223.71
725.755	13168.79
726.097	13115.23
726.439	13173.99
726.782	13119.75
727.124	13153.2
727.465	13027.33
727.807	12975.58
728.149	13082.92
728.491	13064.39
728.833	13058.96
729.175	13070.72
729.516	13005.63
729.858	12974.67
730.199	13002.24
730.541	12988.91
730.882	12967.44
731.224	12917.5
731.565	12840.44
731.906	12908.69
732.248	12941.68
732.589	12865.75
732.93	12846.54
733.271	12886.09
733.612	12822.81
733.953	12849.48
734.294	12852.42
734.635	12891.51
734.976	12852.87
735.317	12798.86
735.658	12758.86
735.999	12791.17
736.339	12776.49
736.68	12750.95
737.021	12723.38
737.361	12723.61
737.702	12862.81
738.042	12748.69
738.383	12720.67
738.723	12721.35
739.063	12678.41
739.404	12634.34
739.744	12682.48
740.084	12593.67
740.424	12640.9
740.764	12611.74
741.104	12637.51
741.444	12517.06
741.784	12543.27
742.124	12557.96
742.464	12611.52
742.804	12507.11
743.143	12451.97
743.483	12547.79
743.823	12412.2
744.162	12492.2
744.502	12410.17
744.841	12471.18
745.181	12451.97
745.52	12397.06
745.86	12400
746.199	12363.16
746.538	12332.2
746.877	12447.68
747.216	12303.96
747.556	12333.56
747.895	12336.27
748.234	12240
748.573	12204.98
748.911	12188.7
749.25	12230.06
749.589	12094.24
749.928	12142.6
750.267	12185.54
750.605	12124.75
750.944	12067.13
751.283	12037.3
751.621	12046.79
751.96	12020.35
752.298	12014.02
752.636	12018.31
752.975	11958.65
753.313	11877.53
753.651	12005.88
753.989	11832.78
754.327	11783.52
754.666	11739.9
755.004	11804.99
755.342	11879.79
755.679	11746
756.017	11667.81
756.355	11753.24
756.693	11654.93
757.031	11705.1
757.368	11624.2
757.706	11625.33
758.044	11515.5
758.381	11515.28
758.719	11511.21
759.056	11463.07
759.394	11481.15
759.731	11398.9
760.068	11312.34
760.405	11384.43
760.743	11244.1
761.08	11313.93
761.417	11238.9
761.754	11161.39
762.091	11136.76
762.428	11145.34
762.765	11087.26
763.102	11157.09
763.438	11089.3
763.775	11023.99
764.112	10965.91
764.449	10998.91
764.785	10881.85
765.122	10910.32
765.458	10791
765.795	10707.16
766.131	10754.39
766.467	10726.6
766.804	10622.42
767.14	10583.1
767.476	10645.92
767.812	10566.15
768.148	10526.6
768.485	10537
768.821	10456.32
769.157	10404.8
769.492	10447.28
769.828	10391.24
770.164	10275.53
770.5	10311.69
770.836	10291.35
771.171	10211.81
771.507	10238.02
771.842	10116.9
772.178	10106.27
772.513	10068.99
772.849	9996.67
773.184	10008.65
773.519	9960.97
773.855	9954.87
774.19	9936.79
774.525	9855.21
774.86	9961.64
775.195	9797.13
775.53	9799.16
775.865	9653.18
776.2	9639.17
776.535	9565.72
776.87	9653.4
777.205	9527.08
777.539	9532.96
777.874	9527.98
778.209	9476.91
778.543	9369.8
778.878	9318.27
779.212	9412.28
779.547	9314.88
779.881	9343.13
780.215	9234.66
780.55	9211.16
780.884	9159.63
781.218	9178.84
781.552	9191.72
781.886	9078.28
782.22	9046.19
782.554	9007.32
782.888	8941.33
783.222	8909.02
783.556	8842.13
783.889	8888.23
784.223	8753.99
784.557	8761.45
784.89	8770.26
785.224	8707.44
785.557	8629.48
785.891	8632.64
786.224	8590.16
786.558	8545.41
786.891	8481.46
787.224	8487.11
787.557	8488.46
787.891	8423.61
788.224	8421.12
788.557	8411.86
788.89	8325.76
789.223	8405.3
789.556	8248.24
789.888	8227.68
790.221	8192.88
790.554	8172.77
790.887	8163.73
791.219	8128.92
791.552	8083.05
791.884	8099.09
792.217	8041.47
792.549	7992.66
792.882	7937.52
793.214	7950.4
793.546	7926.44
793.879	7868.37
794.211	7812.1
794.543	7811.87
794.875	7843.96
795.207	7836.73
795.539	7755.38
795.871	7730.29
796.203	7608.71
796.535	7672.21
796.867	7632.44
797.198	7605.77
797.53	7546.12
797.862	7487.36
798.193	7527.36
798.525	7449.62
798.856	7487.59
799.188	7409.17
799.519	7360.13
799.85	7364.43
800.182	7309.96
800.513	7386.8
800.844	7235.39
801.175	7292.56
801.506	7299.34
801.837	7162.17
802.168	7209.85
802.499	7135.05
802.83	7141.61
803.161	7098.9
803.491	7153.58
803.822	7063.87
804.153	7070.87
804.483	6991.33
804.814	7024.55
805.145	7001.5
805.475	6937.09
805.805	6895.51
806.136	6909.52
806.466	6867.49
806.796	6860.94
807.126	6825.91
807.457	6781.62
807.787	6808.96
808.117	6745.46
808.447	6740.03
808.777	6740.49
809.107	6702.3
809.436	6666.14
809.766	6718.34
810.096	6678.12
810.426	6622.98
810.755	6653.03
811.085	6625.46
811.414	6590.66
811.744	6541.85
812.073	6530.1
812.403	6506.37
812.732	6480.38
813.061	6430.89
813.39	6447.61
813.719	6416.65
814.049	6455.3
814.378	6400.38
814.707	6430.66
815.036	6311.35
815.365	6287.39
815.693	6228.64
816.022	6300.72
816.351	6234.29
816.68	6244.68
817.008	6256.21
817.337	6128.07
817.665	6106.83
817.994	6186.38
818.322	6172.82
818.651	6171.01
818.979	6109.32
819.307	6124.68
819.636	6136.66
819.964	6048.75
820.292	6055.31
820.62	6084.91
820.948	6053.27
821.276	6042.43
821.604	6019.15
821.932	6088.53
822.259	6041.3
822.587	6032.48
822.915	5985.93
823.243	6025.03
823.57	6026.38
823.898	5977.57
824.225	6010.56
824.553	6035.19
824.88	6012.14
825.207	6006.49
825.535	5999.04
825.862	6009.88
826.189	5954.52
826.516	5984.35
826.843	5990.9
827.17	6011.69
827.497	5952.71
827.824	5985.7
828.151	5953.84
828.478	5948.19
828.805	5959.94
829.131	5933.95
829.458	5901.64
829.785	5867.29
830.111	5890.57
830.438	5963.33
830.764	5888.08
831.09	5892.6
831.417	5843.11
831.743	5887.18
832.069	5892.6
832.395	5876.55
832.722	5896.89
833.048	5876.55
833.374	5867.52
833.7	5818.48
834.026	5848.98
834.351	5850.11
834.677	5827.74
835.003	5839.72
835.329	5844.46
835.654	5796.1
835.98	5796.1
836.306	5789.78
836.631	5790.68
836.956	5766.73
837.282	5755.43
837.607	5689.67
837.932	5695.77
838.258	5685.6
838.583	5741.42
838.908	5655.09
839.233	5703
839.558	5651.93
839.883	5671.59
840.208	5597.01
840.533	5610.35
840.858	5575.77
841.182	5587.3
841.507	5611.02
841.832	5605.6
842.156	5565.38
842.481	5564.92
842.805	5519.5
843.13	5516.11
843.454	5511.37
843.778	5512.72
844.103	5486.96
844.427	5470.24
844.751	5463.68
845.075	5414.65
845.399	5444.25
845.723	5399.5
846.047	5372.16
846.371	5343.46
846.695	5308.89
847.019	5276.12
847.343	5273.86
847.666	5229.34
847.99	5236.12
848.313	5204.26
848.637	5199.74
848.96	5193.18
849.284	5164.93
849.607	5165.61
849.931	5137.36
850.254	5054.43
850.577	5086.29
850.9	5048.1
851.223	5018.95
851.546	4953.19
851.869	4969.69
852.192	4984.83
852.515	4966.97
852.838	4940.53
853.161	4973.98
853.483	4817.6
853.806	4860.76
854.129	4865.73
854.451	4846.98
854.774	4830.25
855.096	4824.6
855.419	4778.28
855.741	4791.16
856.063	4746.19
856.385	4755.68
856.708	4759.52
857.03	4731.5
857.352	4727.43
857.674	4676.81
857.996	4700.31
858.318	4665.96
858.64	4667.32
858.961	4619.86
859.283	4632.07
859.605	4602.24
859.926	4575.12
860.248	4601.11
860.57	4560.2
860.891	4638.39
861.212	4534.89
861.534	4540.54
861.855	4513.2
862.176	4580.77
862.498	4534.67
862.819	4554.78
863.14	4512.3
863.461	4494.9
863.782	4457.38
864.103	4428.23
864.424	4458.06
864.745	4440.66
865.065	4443.37
865.386	4434.78
865.707	4410.38
866.027	4422.13
866.348	4402.24
866.668	4392.3
866.989	4353.43
867.309	4309.82
867.63	4366.54
867.95	4333.54
868.27	4327.89
868.59	4337.39
868.91	4291.06
869.23	4313.88
869.55	4294.22
869.87	4389.14
870.19	4322.92
870.51	4291.51
870.83	4321.57
871.15	4293.77
871.469	4268.24
871.789	4244.96
872.109	4255.58
872.428	4225.75
872.748	4241.8
873.067	4286.09
873.386	4232.3
873.706	4233.66
874.025	4260.33
874.344	4214
874.663	4212.87
874.982	4175.36
875.301	4226.43
875.62	4127.22
875.939	4182.14
876.258	4178.07
876.577	4114.57
876.896	4155.02
877.214	4165.87
877.533	4138.75
877.852	4113.21
878.17	4133.1
878.489	4134
878.807	4079.77
879.125	4087
879.444	4117.96
879.762	4053.78
880.08	4099.2
880.398	4023.72
880.716	4019.43
881.034	4055.59
881.352	4090.16
881.67	4061.91
881.988	4036.15
882.306	3988.02
882.624	4051.74
882.941	3998.64
883.259	3994.57
883.577	3969.26
883.894	3951.63
884.212	3967.45
884.529	3959.54
884.846	3943.72
885.164	3908.02
885.481	3919.32
885.798	3913.22
886.115	3897.85
886.432	3869.15
886.75	3866.44
887.067	3900.11
887.383	3878.19
887.7	3853.56
888.017	3813.56
888.334	3886.1
888.651	3817.85
888.967	3823.28
889.284	3786.67
889.6	3797.74
889.917	3774.01
890.233	3787.34
890.55	3791.41
890.866	3776.72
891.182	3781.69
891.498	3717.74
891.815	3696.05
892.131	3694.24
892.447	3716.61
892.763	3725.88
893.079	3666.67
893.395	3656.05
893.71	3664.41
894.026	3682.71
894.342	3642.04
894.657	3653.56
894.973	3640
895.289	3652.21
895.604	3553
895.92	3585.32
896.235	3568.82
896.55	3576.73
896.865	3564.75
897.181	3581.7
897.496	3579.67
897.811	3523.62
898.126	3524.75
898.441	3502.83
898.756	3493.57
899.071	3446.11
899.386	3446.11
899.7	3447.69
900.015	3383.06
900.33	3438.65
900.644	3473.91
900.959	3433.45
901.273	3397.98
901.588	3407.47
901.902	3382.38
902.216	3366.56
902.531	3414.47
902.845	3325.21
903.159	3339.45
903.473	3320.46
903.787	3325.89
904.101	3319.56
904.415	3300.13
904.729	3278.66
905.042	3268.71
905.356	3277.75
905.67	3257.19
905.984	3251.09
906.297	3235.04
906.611	3217.42
906.924	3192.11
907.237	3248.6
907.551	3219
907.864	3221.48
908.177	3198.66
908.491	3176.51
908.804	3154.82
909.117	3128.38
909.43	3144.2
909.743	3103.52
910.056	3091.09
910.368	3090.19
910.681	3115.72
910.994	3090.19
911.307	3044.99
911.619	3040.24
911.932	3077.76
912.244	3038.89
912.557	3015.39
912.869	2958.67
913.181	3011.32
913.494	2989.85
913.806	2979.23
914.118	2963.18
914.43	2941.72
914.742	2963.64
915.054	2929.06
915.366	2940.13
915.678	2905.11
915.99	2890.19
916.302	2890.64
916.613	2841.83
916.925	2829.63
917.236	2815.17
917.548	2827.6
917.859	2864.2
918.171	2824.43
918.482	2841.15
918.794	2851.32
919.105	2836.41
919.416	2769.74
919.727	2764.09
920.038	2777.43
920.349	2732.46
920.66	2751.89
920.971	2722.97
921.282	2735.62
921.593	2695.4
921.903	2702.63
922.214	2718.9
922.525	2694.04
922.835	2657.66
923.146	2634.83
923.456	2651.33
923.767	2609.3
924.077	2624.21
924.387	2619.01
924.697	2618.56
925.008	2614.04
925.318	2609.75
925.628	2587.38
925.938	2552.12
926.248	2558.22
926.558	2519.81
926.867	2546.25
927.177	2524.55
927.487	2541.05
927.796	2473.93
928.106	2507.15
928.416	2495.85
928.725	2470.09
929.034	2479.13
929.344	2466.02
929.653	2469.86
929.962	2419.02
930.271	2421.05
930.581	2402.3
930.89	2402.52
931.199	2381.73
931.508	2410.66
931.817	2402.97
932.125	2396.19
932.434	2391.9
932.743	2382.41
933.051	2361.62
933.36	2342.41
933.669	2358.91
933.977	2324.33
934.286	2310.55
934.594	2348.51
934.902	2308.51
935.21	2315.07
935.519	2289.53
935.827	2280.26
936.135	2268.06
936.443	2259.25
936.751	2225.13
937.059	2238.01
937.367	2221.74
937.674	2245.24
937.982	2239.59
938.29	2214.5
938.597	2207.05
938.905	2160.95
939.213	2195.52
939.52	2187.39
939.827	2160.72
940.135	2145.81
940.442	2143.77
940.749	2176.54
941.056	2147.61
941.363	2118.01
941.67	2100.83
941.977	2096.77
942.284	2114.62
942.591	2111.46
942.898	2124.34
943.205	2110.78
943.511	2075.98
943.818	2069.42
944.125	2052.93
944.431	2064
944.738	2051.34
945.044	2046.6
945.35	2016.99
945.657	1990.1
945.963	2003.21
946.269	2036.43
946.575	1988.97
946.881	1990.56
947.187	2010.22
947.493	1991.01
947.799	1975.64
948.105	1962.99
948.41	1964.57
948.716	1951.01
949.022	1914.85
949.327	1965.47
949.633	1950.78
949.938	1921.18
950.244	1942.87
950.549	1913.95
950.854	1901.52
951.16	1914.4
951.465	1877.56
951.77	1893.83
952.075	1883.44
952.38	1862.42
952.685	1855.87
952.99	1854.97
953.294	1852.48
953.599	1817.9
953.904	1837.34
954.209	1867.85
954.513	1805.25
954.818	1772.93
955.122	1795.98
955.426	1786.04
955.731	1804.12
956.035	1793.5
956.339	1767.96
956.643	1768.64
956.948	1774.52
957.252	1729.54
957.556	1742.2
957.86	1731.13
958.163	1730.45
958.467	1748.3
958.771	1751.69
959.075	1734.06
959.378	1735.65
959.682	1737.45
959.985	1672.37
960.289	1723.9
960.592	1694.52
960.896	1669.66
961.199	1690.45
961.502	1696.1
961.805	1657
962.108	1653.61
962.411	1658.36
962.714	1634.18
963.017	1620.4
963.32	1642.32
963.623	1601.41
963.926	1629.43
964.228	1618.36
964.531	1619.04
964.833	1630.79
965.136	1594.86
965.438	1580.85
965.741	1574.75
966.043	1557.12
966.345	1572.71
966.648	1564.58
966.95	1568.87
967.252	1535.43
967.554	1551.7
967.856	1547.18
968.158	1509.44
968.46	1544.01
968.761	1507.18
969.063	1519.38
969.365	1506.73
969.666	1518.03
969.968	1526.61
970.269	1518.48
970.571	1492.49
970.872	1487.97
971.174	1501.53
971.475	1460.4
971.776	1488.87
972.077	1502.21
972.378	1465.37
972.679	1466.05
972.98	1464.02
973.281	1451.59
973.582	1445.94
973.883	1415.88
974.183	1442.55
974.484	1421.08
974.785	1400.97
975.085	1422.43
975.386	1420.85
975.686	1443.22
975.986	1420.85
976.287	1407.52
976.587	1394.86
976.887	1393.51
977.187	1352.61
977.487	1382.44
977.787	1377.01
978.087	1366.84
978.387	1364.13
978.687	1391.93
978.987	1350.12
979.286	1359.39
979.586	1358.48
979.885	1350.8
980.185	1334.53
980.484	1347.18
980.784	1344.24
981.083	1299.95
981.382	1300.4
981.682	1279.84
981.981	1311.02
982.28	1312.83
982.579	1310.57
982.878	1297.47
983.177	1290.01
983.475	1268.99
983.774	1262.21
984.073	1278.03
984.372	1246.39
984.67	1252.27
984.969	1283
985.267	1251.59
985.566	1237.13
985.864	1236.9
986.162	1228.99
986.461	1206.17
986.759	1227.19
987.057	1243.46
987.355	1200.75
987.653	1196.23
987.951	1232.83
988.249	1223.34
988.547	1211.14
988.844	1201.2
989.142	1210.91
989.44	1191.93
989.737	1202.1
990.035	1177.92
990.332	1196.9
990.63	1176.34
990.927	1153.51
991.224	1166.17
991.521	1165.27
991.819	1157.81
992.116	1137.47
992.413	1159.84
992.71	1164.81
993.006	1146.96
993.303	1120.75
993.6	1126.4
993.897	1123.69
994.193	1131.14
994.49	1120.3
994.787	1092.95
995.083	1104.7
995.379	1101.99
995.676	1087.75
995.972	1079.17
996.268	1085.72
996.565	1091.14
996.861	1097.47
997.157	1079.39
997.453	1071.26
997.749	1069.45
998.044	1055.66
998.34	1064.25
998.636	1067.87
998.932	1052.73
999.227	1039.39
999.523	1050.01
999.818	1052.05
1000.114	1040.07
1000.409	1033.97
1000.704	1031.03
1001	1020.41
1001.295	1010.24
1001.59	1019.96
1001.885	1007.76
1002.18	1006.4
1002.475	984.71
1002.77	984.48
1003.065	991.03
1003.359	998.26
1003.654	972.73
1003.949	980.86
1004.243	995.78
1004.538	967.98
1004.832	952.62
1005.127	955.78
1005.421	951.71
1005.715	947.42
1006.009	956.68
1006.304	945.38
1006.598	938.61
1006.892	938.15
1007.186	922.33
1007.48	907.87
1007.773	940.87
1008.067	916.91
1008.361	914.43
1008.655	903.35
1008.948	897.7
1009.242	908.32
1009.535	879.62
1009.829	905.84
1010.122	899.96
1010.415	904.71
1010.708	887.53
1011.001	921.88
1011.295	870.81
1011.588	877.14
1011.881	865.61
1012.173	850.47
1012.466	843.47
1012.759	831.72
1013.052	852.28
1013.344	860.19
1013.637	831.72
1013.93	839.4
1014.222	824.03
1014.514	822.22
1014.807	855.9
1015.099	820.42
1015.391	831.49
1015.683	835.56
1015.976	826.07
1016.268	809.12
1016.56	809.34
1016.851	810.25
1017.143	789.46
1017.435	804.82
1017.727	782.9
1018.018	771.6
1018.31	789
1018.602	792.39
1018.893	772.73
1019.185	782.45
1019.476	777.93
1019.767	777.03
1020.058	757.14
1020.35	760.53
1020.641	755.33
1020.932	759.4
1021.223	760.08
1021.514	751.27
1021.804	736.58
1022.095	721.44
1022.386	737.48
1022.677	744.71
1022.967	726.86
1023.258	728.67
1023.548	729.35
1023.839	719.63
1024.129	726.63
1024.419	721.21
1024.709	718.72
1025	715.56
1025.29	694.54
1025.58	689.57
1025.87	713.75
1026.16	680.98
1026.449	693.87
1026.739	683.7
1027.029	693.41
1027.319	683.02
1027.608	681.21
1027.898	668.56
1028.187	669.23
1028.477	662.91
1028.766	690.02
1029.055	647.77
1029.344	642.34
1029.634	642.12
1029.923	639.63
1030.212	647.77
1030.501	643.47
1030.79	645.96
1031.078	659.06
1031.367	633.98
1031.656	626.52
1031.945	632.62
1032.233	646.41
1032.522	625.62
1032.81	635.79
1033.099	590.59
1033.387	625.39
1033.675	598.95
1033.963	611.38
1034.251	578.61
1034.54	603.7
1034.828	586.07
1035.116	610.93
1035.403	584.72
1035.691	591.5
1035.979	578.16
1036.267	580.87
1036.554	583.13
1036.842	593.08
1037.129	598.95
1037.417	584.04
1037.704	587.2
1037.992	589.91
1038.279	589.24
1038.566	582
1038.853	582
1039.14	582
