Data from brown_tile_FLMS001491_005.txt Node
Date: Tue Feb 07 10:36:59 GMT 2017
User: dcchb
Spectrometer: FLMS00149
Trigger mode: 0
Integration Time (sec): 2.000000E-2
Scans to average: 10
Electric dark correction enabled: true
Nonlinearity correction enabled: false
Boxcar width: 0
XAxis mode: Wavelengths
Number of Pixels in Spectrum: 2048
>>>>>Begin Spectral Data<<<<<
341.393	-10.9
341.776	-10.9
342.16	-10.9
342.543	-63.56
342.927	-47.29
343.31	-68.53
343.693	-71.69
344.077	-59.04
344.46	-46.16
344.843	-61.3
345.226	-66.72
345.61	-9.55
345.993	-19.27
346.376	13.73
346.759	14.41
347.142	27.06
347.525	37
347.908	44.46
348.291	73.61
348.674	78.36
349.057	113.61
349.44	139.6
349.823	142.31
350.206	172.14
350.588	197.45
350.971	215.31
351.354	203.78
351.737	227.73
352.119	233.16
352.502	248.52
352.884	254.63
353.267	263.44
353.65	289.2
354.032	281.52
354.414	308.64
354.797	276.55
355.179	326.26
355.562	307.05
355.944	323.78
356.326	344.57
356.709	328.97
357.091	319.71
357.473	340.73
357.855	321.74
358.238	329.2
358.62	328.75
359.002	329.88
359.384	319.26
359.766	317.68
360.148	335.75
360.53	331.91
360.912	324.45
361.294	339.6
361.676	325.81
362.057	323.1
362.439	297.11
362.821	326.26
363.203	316.77
363.584	308.18
363.966	320.16
364.348	306.6
364.729	310.67
365.111	314.29
365.493	324.91
365.874	310.22
366.256	332.14
366.637	324
367.019	301.18
367.4	319.48
367.781	324
368.163	312.48
368.544	310.44
368.925	309.54
369.306	293.27
369.688	309.31
370.069	305.25
370.45	285.59
370.831	309.54
371.212	304.57
371.593	313.61
371.974	302.08
372.355	321.07
372.736	293.5
373.117	300.73
373.498	317.68
373.879	312.93
374.26	297.34
374.641	292.59
375.021	305.47
375.402	322.65
375.783	333.49
376.163	332.14
376.544	305.92
376.925	337.56
377.305	334.4
377.686	311.57
378.066	302.99
378.447	325.58
378.827	322.19
379.208	335.53
379.588	307.05
379.968	336.21
380.349	320.16
380.729	324.68
381.109	319.71
381.489	322.65
381.87	332.82
382.25	328.97
382.63	344.12
383.01	335.08
383.39	330.1
383.77	324.45
384.15	328.3
384.53	349.31
384.91	334.4
385.29	335.3
385.67	344.79
386.049	336.88
386.429	346.83
386.809	337.34
387.189	356.77
387.568	359.26
387.948	339.82
388.328	342.53
388.707	361.97
389.087	343.89
389.466	363.55
389.846	365.36
390.225	361.97
390.605	376.2
390.984	386.6
391.363	374.17
391.743	347.73
392.122	385.7
392.501	380.95
392.881	390.67
393.26	347.05
393.639	377.11
394.018	367.84
394.397	373.49
394.776	383.44
395.155	376.66
395.534	386.83
395.913	360.84
396.292	369.88
396.671	362.65
397.05	385.47
397.429	384.11
397.808	384.79
398.186	377.11
398.565	401.74
398.944	393.15
399.323	396.77
399.701	375.07
400.08	390.89
400.458	410.78
400.837	398.13
401.215	386.37
401.594	398.35
401.972	408.75
402.351	381.63
402.729	401.97
403.107	406.71
403.486	415.98
403.864	384.79
404.242	405.36
404.62	397.22
404.999	403.32
405.377	425.02
405.755	412.36
406.133	421.18
406.511	409.65
406.889	422.53
407.267	427.28
407.645	422.31
408.023	436.99
408.401	445.13
408.779	443.77
409.156	427.05
409.534	424.34
409.912	436.32
410.29	451.68
410.667	446.71
411.045	454.62
411.422	454.85
411.8	469.54
412.178	450.55
412.555	458.69
412.933	445.81
413.31	490.78
413.687	459.37
414.065	453.04
414.442	451.23
414.819	474.96
415.197	488.74
415.574	476.09
415.951	478.12
416.328	478.12
416.705	478.8
417.082	473.83
417.46	506.6
417.837	503.43
418.214	490.55
418.591	504.56
418.967	484.68
419.344	508.63
419.721	496.65
420.098	502.3
420.475	505.69
420.852	529.87
421.228	519.03
421.605	545.01
421.982	536.65
422.358	538.23
422.735	528.52
423.111	527.16
423.488	565.35
423.864	533.71
424.241	533.71
424.617	561.06
424.994	543.21
425.37	556.99
425.746	538.23
426.123	552.92
426.499	558.12
426.875	579.14
427.251	575.97
427.627	556.77
428.003	588.63
428.379	589.31
428.756	589.98
429.132	577.33
429.507	601.06
429.883	576.65
430.259	602.41
430.635	623.43
431.011	603.09
431.387	595.18
431.763	612.81
432.138	613.49
432.514	628.4
432.89	619.36
433.265	636.76
433.641	627.5
434.016	659.59
434.392	644.22
434.767	655.07
435.143	653.71
435.518	662.07
435.894	654.84
436.269	692.81
436.644	675.86
437.02	663.65
437.395	704.11
437.77	700.49
438.145	702.52
438.52	736.42
438.895	714.73
439.271	731.45
439.646	723.54
440.021	707.5
440.395	732.58
440.77	724.22
441.145	744.56
441.52	725.57
441.895	742.52
442.27	717.21
442.645	741.39
443.019	785.46
443.394	745.23
443.769	762.18
444.143	779.36
444.518	773.48
444.892	754.5
445.267	775.29
445.641	789.53
446.016	792.47
446.39	787.72
446.764	799.24
447.139	784.33
447.513	824.33
447.887	803.31
448.262	797.21
448.636	795.63
449.01	839.02
449.384	816.19
449.758	826.36
450.132	795.18
450.506	828.62
450.88	840.6
451.254	841.96
451.628	831.11
452.002	858.23
452.376	860.71
452.75	864.78
453.123	892.58
453.497	881.73
453.871	881.5
454.244	902.07
454.618	910.43
454.992	901.39
455.365	923.76
455.739	927.83
456.112	924.66
456.486	923.54
456.859	946.59
457.232	978.9
457.606	966.7
457.979	984.78
458.352	974.83
458.725	969.64
459.099	1010.76
459.472	1008.05
459.845	1027.94
460.218	1059.35
460.591	1035.62
460.964	1028.84
461.337	1053.93
461.71	1086.69
462.083	1090.08
462.456	1075.62
462.829	1095.28
463.201	1098.22
463.574	1133.02
463.947	1152.68
464.32	1127.82
464.692	1168.5
465.065	1148.61
465.438	1172.79
465.81	1176.64
466.183	1214.6
466.555	1180.93
466.928	1199.69
467.3	1219.12
467.672	1260.25
468.045	1227.48
468.417	1259.35
468.789	1289.85
469.161	1285.33
469.534	1297.54
469.906	1311.1
470.278	1309.97
470.65	1332.79
471.022	1361.72
471.394	1376.63
471.766	1365.78
472.138	1384.77
472.51	1415.73
472.882	1473.58
473.253	1461.15
473.625	1461.83
473.997	1503.18
474.369	1508.6
474.74	1518.1
475.112	1534.82
475.484	1570.52
475.855	1603.29
476.227	1592.44
476.598	1628.38
476.97	1669.28
477.341	1681.71
477.713	1709.05
478.084	1698.43
478.455	1732.55
478.827	1750.86
479.198	1803.29
479.569	1800.8
479.94	1842.61
480.311	1858.88
480.682	1893.91
481.053	1951.3
481.424	1936.62
481.795	1948.37
482.166	1991.53
482.537	2033.79
482.908	2069.72
483.279	2098.87
483.65	2110.62
484.021	2137.06
484.391	2172.32
484.762	2188.36
485.133	2187
485.503	2213.9
485.874	2279.88
486.244	2302.48
486.615	2346.32
486.985	2338.64
487.356	2396.26
487.726	2409.82
488.097	2450.05
488.467	2490.27
488.837	2503.83
489.207	2538.86
489.578	2578.41
489.948	2582.7
490.318	2678.29
490.688	2643.49
491.058	2656.37
491.428	2703.38
491.798	2701.79
492.168	2772.75
492.538	2778.85
492.908	2829.25
493.278	2862.92
493.648	2854.56
494.017	2907.66
494.387	2900.43
494.757	2965.29
495.126	2950.83
495.496	2970.49
495.866	2984.95
496.235	3055.46
496.605	3033.99
496.974	3070.6
497.344	3124.16
497.713	3151.5
498.082	3128.67
498.452	3164.38
498.821	3207.99
499.19	3199.86
499.559	3218.16
499.928	3255.45
500.298	3263.36
500.667	3299.29
501.036	3307.43
501.405	3345.62
501.774	3376.8
502.143	3402.57
502.512	3424.94
502.88	3421.77
503.249	3453.64
503.618	3481.89
503.987	3503.81
504.356	3505.61
504.724	3502.45
505.093	3541.32
505.462	3535.67
505.83	3564.6
506.199	3624.48
506.567	3681.2
506.936	3682.11
507.304	3690.02
507.672	3732.73
508.041	3781.54
508.409	3763.69
508.777	3796.68
509.145	3830.35
509.514	3827.19
509.882	3860.86
510.25	3873.97
510.618	3932.27
510.986	3987.86
511.354	3980.4
511.722	3956.9
512.09	4027.18
512.458	3988.99
512.826	4099.5
513.193	4102.89
513.561	4112.15
513.929	4136.11
514.297	4185.6
514.664	4227.18
515.032	4230.34
515.4	4300.4
515.767	4259.27
516.135	4283.67
516.502	4333.84
516.869	4425.36
517.237	4420.62
517.604	4387.4
517.972	4468.07
518.339	4511.24
518.706	4528.86
519.073	4524.12
519.44	4574.51
519.808	4574.51
520.175	4639.37
520.542	4648.86
520.909	4704.68
521.276	4738.12
521.643	4803.66
522.009	4793.94
522.376	4878.91
522.743	4852.47
523.11	4906.26
523.477	5042.07
523.843	5013.15
524.21	5075.52
524.577	5099.47
524.943	5104.22
525.31	5159.13
525.676	5207.72
526.043	5220.37
526.409	5289.52
526.776	5366.13
527.142	5306.02
527.508	5382.85
527.874	5395.06
528.241	5478.22
528.607	5504.21
528.973	5548.72
529.339	5596.86
529.705	5650.64
530.071	5725.22
530.437	5738.32
530.803	5738.1
531.169	5745.56
531.535	5783.29
531.901	5805.67
532.267	5831.43
532.632	5937.87
532.998	5924.53
533.364	6001.14
533.73	5976.06
534.095	6071.2
534.461	6071.42
534.826	6090.86
535.192	6150.06
535.557	6172.66
535.923	6232.1
536.288	6268.71
536.653	6246.78
537.019	6260.57
537.384	6348.03
537.749	6331.53
538.114	6378.76
538.479	6419.66
538.845	6453.33
539.21	6467.12
539.575	6505.31
539.94	6544.63
540.305	6568.81
540.67	6603.61
541.034	6579.66
541.399	6722.25
541.764	6666.21
542.129	6742.14
542.494	6790.05
542.858	6800.22
543.223	6862.36
543.587	6915.47
543.952	6902.13
544.316	6969.48
544.681	6976.48
545.045	7026.2
545.41	7108.68
545.774	7156.14
546.138	7102.81
546.503	7236.14
546.867	7167.89
547.231	7266.87
547.595	7358.62
547.959	7407.21
548.324	7442.46
548.688	7389.35
549.052	7505.96
549.416	7508.22
549.779	7584.15
550.143	7652.4
550.507	7684.71
550.871	7763.13
551.235	7740.76
551.599	7886.97
551.962	7890.58
552.326	7870.02
552.689	7974.42
553.053	7968.77
553.417	8010.13
553.78	8159.05
554.143	8172.61
554.507	8276.34
554.87	8268.65
555.234	8392.49
555.597	8337.8
555.96	8473.62
556.323	8556.78
556.686	8615.76
557.05	8667.51
557.413	8686.95
557.776	8766.27
558.139	8888.3
558.502	8902.99
558.865	8985.02
559.228	9111.79
559.59	9136.65
559.953	9148.63
560.316	9366.02
560.679	9360.38
561.041	9427.49
561.404	9547.26
561.767	9687.6
562.129	9643.53
562.492	9778.22
562.854	9765.34
563.217	9849.85
563.579	9978.89
563.941	10125.1
564.304	10147.7
564.666	10239.67
565.028	10382.5
565.39	10351.31
565.753	10531.19
566.115	10587.91
566.477	10605.31
566.839	10738.19
567.201	10862.71
567.563	10955.59
567.925	11091.18
568.287	11156.03
568.648	11139.99
569.01	11283.26
569.372	11378.18
569.734	11385.86
570.095	11498.4
570.457	11636.7
570.819	11699.97
571.18	11752.18
571.542	11923.7
571.903	12065.61
572.265	12084.15
572.626	12146.97
572.987	12213.18
573.349	12337.02
573.71	12426.28
574.071	12520.97
574.432	12671.25
574.794	12698.82
575.155	12722.77
575.516	12819.04
575.877	12957.79
576.238	13087.96
576.599	13172.93
576.96	13206.38
577.32	13297
577.681	13369.99
578.042	13427.39
578.403	13525.92
578.763	13478.91
579.124	13651.34
579.485	13793.03
579.845	13815.17
580.206	13729.07
580.566	13914.61
580.927	13978.56
581.287	14115.5
581.648	14091.32
582.008	14184.88
582.368	14181.94
582.728	14312.79
583.089	14380.81
583.449	14363.41
583.809	14500.35
584.169	14494.48
584.529	14593.46
584.889	14671.2
585.249	14624.87
585.609	14704.19
585.969	14784.19
586.329	14765.43
586.688	14813.57
587.048	14915.94
587.408	14884.98
587.768	14981.24
588.127	15029.15
588.487	15052.2
588.846	15178.53
589.206	15114.57
589.565	15152.54
589.925	15246.32
590.284	15304.85
590.643	15294.91
591.003	15419.88
591.362	15532.87
591.721	15534.45
592.08	15485.41
592.44	15580.55
592.799	15632.53
593.158	15671.17
593.517	15669.14
593.876	15672.75
594.235	15669.59
594.593	15826.87
594.952	15882.24
595.311	15875.01
595.67	15890.15
596.029	16039.52
596.387	16058.28
596.746	16219.86
597.104	16132.85
597.463	16129.24
597.822	16200.2
598.18	16226.41
598.538	16263.92
598.897	16342.56
599.255	16239.74
599.613	16478.61
599.972	16444.26
600.33	16510.92
600.688	16430.7
601.046	16602.9
601.404	16629.56
601.762	16632.27
602.12	16807.41
602.478	16892.61
602.836	16854.87
603.194	16651.94
603.552	16801.31
603.91	16745.72
604.268	16960.18
604.625	16863
604.983	16943
605.341	16940.97
605.698	17018.48
606.056	17068.42
606.413	17023.68
606.771	17082.43
607.128	17215.54
607.485	17025.48
607.843	17116.33
608.2	17290.79
608.557	17265.48
608.914	17287.17
609.272	17383.22
609.629	17435.42
609.986	17403.55
610.343	17409.66
610.7	17497.56
611.057	17548.41
611.414	17492.36
611.771	17578.92
612.127	17618.92
612.484	17671.12
612.841	17681.51
613.198	17608.75
613.554	17729.65
613.911	17850.55
614.267	17839.93
614.624	17788.18
614.98	17921.51
615.337	17896.87
615.693	17887.38
616.05	17919.25
616.406	18069.52
616.762	17980.49
617.118	17979.36
617.475	18002.18
617.831	18107.72
618.187	18132.57
618.543	18119.92
618.899	18330.99
619.255	18153.14
619.611	18220.03
619.967	18245.79
620.323	18307.03
620.678	18268.84
621.034	18262.74
621.39	18274.49
621.746	18182.06
622.101	18422.28
622.457	18280.37
622.812	18324.89
623.168	18449.63
623.523	18406.01
623.879	18411.21
624.234	18358.33
624.589	18408.5
624.945	18441.94
625.3	18524.65
625.655	18427.26
626.01	18332.57
626.365	18546.57
626.72	18399.91
627.075	18439.91
627.43	18451.66
627.785	18535.73
628.14	18501.38
628.495	18581.15
628.85	18472
629.205	18426.58
629.559	18431.55
629.914	18441.04
630.269	18403.98
630.623	18328.05
630.978	18368.05
631.332	18501.15
631.687	18466.8
632.041	18444.2
632.396	18443.53
632.75	18375.05
633.104	18388.16
633.459	18349.07
633.813	18328.5
634.167	18293.02
634.521	18288.95
634.875	18363.53
635.229	18307.71
635.583	18216.64
635.937	18261.16
636.291	18206.24
636.645	18171.22
636.999	18160.6
637.352	18234.94
637.706	18158.79
638.06	18214.61
638.413	18151.78
638.767	18140.26
639.121	18195.17
639.474	18157.66
639.828	17996.53
640.181	18097.32
640.534	18130.99
640.888	18078.11
641.241	17904.11
641.594	18110.65
641.947	18114.04
642.301	18074.95
642.654	17992.92
643.007	17986.59
643.36	17942.07
643.713	18011.9
644.066	17990.66
644.419	17916.08
644.771	17821.17
645.124	17536.43
645.477	17610.1
645.83	17551.8
646.182	17407.85
646.535	17435.87
646.888	17470.22
647.24	17344.12
647.593	17539.37
647.945	17483.1
648.298	17360.84
648.65	17266.61
649.002	17363.78
649.355	17441.74
649.707	17328.98
650.059	17444
650.411	17652.59
650.763	17622.08
651.115	17943.88
651.467	17788.85
651.819	17720.61
652.171	17789.08
652.523	17724.68
652.875	17745.01
653.227	17663.21
653.578	17789.76
653.93	17696.88
654.282	17695.98
654.633	17700.04
654.985	17652.81
655.337	17671.8
655.688	17725.35
656.039	17784.33
656.391	17615.53
656.742	17632.02
657.094	17708.86
657.445	17618.92
657.796	17649.87
658.147	17663.89
658.498	17557.22
658.849	17718.35
659.2	17606.03
659.551	17569.65
659.902	17705.92
660.253	17718.35
660.604	17684
660.955	17554.51
661.306	17679.48
661.656	17634.06
662.007	17650.78
662.358	17662.53
662.708	17611.01
663.059	17661.63
663.409	17515.42
663.76	17651.46
664.11	17631.34
664.461	17666.15
664.811	17714.73
665.161	17705.01
665.511	17605.58
665.862	17709.99
666.212	17656.2
666.562	17691.91
666.912	17831.79
667.262	17680.16
667.612	17613.72
667.962	17789.53
668.312	17776.2
668.662	17781.62
669.011	17737.78
669.361	17778.23
669.711	17721.96
670.06	17724.45
670.41	17704.79
670.76	17674.06
671.109	17793.15
671.459	17765.13
671.808	17716.09
672.157	17771
672.507	17652.81
672.856	17688.07
673.205	17715.64
673.554	17748.86
673.904	17644.23
674.253	17845.8
674.602	17765.58
674.951	17448.52
675.3	17410.11
675.649	17704.56
675.998	17625.92
676.346	17664.79
676.695	17699.14
677.044	17670.67
677.393	17660.5
677.741	17716.31
678.09	17632.7
678.438	17641.51
678.787	17743.21
679.135	17705.01
679.484	17561.52
679.832	17600.38
680.181	17625.92
680.529	17699.37
680.877	17622.76
681.225	17604.68
681.573	17816.88
681.922	17669.54
682.27	17587.73
682.618	17511.35
682.966	17593.61
683.314	17572.36
683.661	17575.75
684.009	17532.82
684.357	17474.74
684.705	17430.45
685.053	17537.34
685.4	17433.16
685.748	17330.56
686.095	17397
686.443	17411.69
686.79	17392.93
687.138	17394.29
687.485	17372.14
687.832	17292.14
688.18	17298.02
688.527	17244.91
688.874	17218.93
689.221	17234.29
689.568	17247.17
689.915	17253.95
690.262	17142.54
690.609	17079.72
690.956	17045.37
691.303	17101.64
691.65	17077.69
691.997	16940.52
692.344	16889.22
692.69	16940.52
693.037	16968.54
693.383	16858.26
693.73	16915.43
694.077	16767.19
694.423	16839.73
694.769	16753.85
695.116	16736.45
695.462	16715.89
695.808	16787.75
696.155	16656.91
696.501	16533.75
696.847	16630.01
697.193	16596.57
697.539	16577.36
697.885	16442
698.231	16445.84
698.577	16450.36
698.923	16396.57
699.269	16412.85
699.614	16235
699.96	16311.38
700.306	16350.93
700.651	16206.07
700.997	16221.66
701.342	16202.68
701.688	16172.85
702.033	16261.66
702.379	16058.96
702.724	16133.3
703.069	16285.17
703.415	16034.32
703.76	16070.03
704.105	16093.08
704.45	16038.84
704.795	15983.03
705.14	15935.57
705.485	15978.73
705.83	15857.38
706.175	15981.44
706.52	15783.26
706.865	15889.7
707.209	15832.52
707.554	15761.56
707.899	15716.59
708.243	15783.94
708.588	15714.56
708.932	15595.92
709.277	15679.76
709.621	15756.59
709.966	15493.32
710.31	15605.18
710.654	15477.5
710.998	15606.09
711.342	15575.13
711.687	15378.97
712.031	15389.82
712.375	15422.59
712.719	15503.94
713.063	15316.15
713.407	15454.9
713.75	15330.84
714.094	15350.73
714.438	15330.84
714.782	15428.01
715.125	15255.59
715.469	15332.87
715.812	15228.7
716.156	15123.61
716.499	15176.95
716.843	15288.81
717.186	15139.43
717.53	15305.3
717.873	15241.58
718.216	15263.95
718.559	15127.91
718.902	15078.64
719.246	15067.12
719.589	15033.45
719.932	15021.24
720.275	15042.94
720.617	14980.34
720.96	15004.97
721.303	14952.77
721.646	15015.82
721.989	14936.73
722.331	14939.21
722.674	14884.75
723.016	14891.98
723.359	14867.8
723.701	14913.9
724.044	14841.14
724.386	14782.38
724.729	14927.01
725.071	14836.16
725.413	14802.94
725.755	14825.54
726.097	14634.36
726.439	14656.06
726.782	14712.1
727.124	14758.43
727.465	14689.73
727.807	14689.05
728.149	14709.84
728.491	14674.36
728.833	14616.28
729.175	14627.13
729.516	14555.94
729.858	14554.59
730.199	14647.24
730.541	14623.74
730.882	14550.52
731.224	14586.45
731.565	14485.66
731.906	14516.62
732.248	14544.19
732.589	14476.4
732.93	14453.57
733.271	14490.18
733.612	14434.14
733.953	14503.52
734.294	14489.96
734.635	14281.38
734.976	14441.82
735.317	14334.03
735.658	14332.9
735.999	14427.13
736.339	14290.19
736.68	14339
737.021	14283.41
737.361	14342.84
737.702	14361.83
738.042	14302.84
738.383	14242.73
738.723	14256.07
739.063	14207.25
739.404	14235.95
739.744	14194.6
740.084	14214.94
740.424	14212.68
740.764	14173.81
741.104	14201.83
741.444	14092
741.784	14055.85
742.124	14114.37
742.464	14114.6
742.804	14024.89
743.143	13990.54
743.483	14022.4
743.823	14000.93
744.162	14052.23
744.502	13945.79
744.841	13870.09
745.181	14008.84
745.52	13880.71
745.86	13913.02
746.199	13845
746.538	13845.23
746.877	13909.18
747.216	13818.34
747.556	13791.67
747.895	13811.33
748.234	13764.55
748.573	13750.54
748.911	13665.12
749.25	13681.39
749.589	13680.71
749.928	13609.08
750.267	13645.91
750.605	13624.9
750.944	13563.88
751.283	13577.44
751.621	13530.66
751.96	13448.86
752.298	13409.53
752.636	13464.45
752.975	13407.95
753.313	13425.13
753.651	13423.09
753.989	13346.71
754.327	13270.33
754.666	13253.38
755.004	13170.44
755.342	13193.49
755.679	13184.23
756.017	13229.43
756.355	13146.94
756.693	13133.16
757.031	13069.66
757.368	13111.92
757.706	13009.54
758.044	12991.47
758.381	13026.04
758.719	13003.67
759.056	12918.25
759.394	12848.19
759.731	12791.25
760.068	12757.35
760.405	12653.4
760.743	12666.05
761.08	12704.92
761.417	12534.08
761.754	12591.02
762.091	12602.78
762.428	12595.32
762.765	12524.81
763.102	12484.59
763.438	12436
763.775	12398.26
764.112	12374.31
764.449	12309.9
764.785	12310.81
765.122	12217.25
765.458	12206.18
765.795	12129.34
766.131	12194.43
766.467	12109.46
766.804	11950.59
767.14	11906.98
767.476	12010.02
767.812	11873.98
768.148	11867.65
768.485	11869.91
768.821	11709.92
769.157	11671.95
769.492	11708.11
769.828	11636.47
770.164	11546.08
770.5	11543.37
770.836	11523.93
771.171	11447.78
771.507	11397.16
771.842	11394.45
772.178	11339.98
772.513	11266.31
772.849	11358.06
773.184	11243.26
773.519	11172.76
773.855	11172.98
774.19	11114
774.525	11059.99
774.86	11102.48
775.195	11008.69
775.53	10997.62
775.865	10881.47
776.2	10787.46
776.535	10811.41
776.87	10748.59
777.205	10710.85
777.539	10655.26
777.874	10655.71
778.209	10674.47
778.543	10557.18
778.878	10418.43
779.212	10436.51
779.547	10407.58
779.881	10397.64
780.215	10380.91
780.55	10354.47
780.884	10283.97
781.218	10230.41
781.552	10271.76
781.886	10173.91
782.22	10177.3
782.554	10156.06
782.888	9993.35
783.222	9927.37
783.556	9943.41
783.889	9899.34
784.223	9878.55
784.557	9821.38
784.89	9788.39
785.224	9737.31
785.557	9678.11
785.891	9663.42
786.224	9704.55
786.558	9693.93
786.891	9547.26
787.224	9544.55
787.557	9450.99
787.891	9491.9
788.224	9482.86
788.557	9423.88
788.89	9370.09
789.223	9326.93
789.556	9284.9
789.888	9245.35
790.221	9269.08
790.554	9076.32
790.887	9221.62
791.219	9115.18
791.552	9061.4
791.884	9026.6
792.217	9060.27
792.549	9007.39
792.882	8895.53
793.214	8902.99
793.546	8864.57
793.879	8849.43
794.211	8801.97
794.543	8754.97
794.875	8799.49
795.207	8717.23
795.539	8697.34
795.871	8676.78
796.203	8659.38
796.535	8564.24
796.867	8528.76
797.198	8553.84
797.53	8505.03
797.862	8385.49
798.193	8465.03
798.525	8282.44
798.856	8445.37
799.188	8333.51
799.519	8345.71
799.85	8204.7
800.182	8220.29
800.513	8233.85
800.844	8144.81
801.175	8253.74
801.506	8141.88
801.837	8107.98
802.168	8058.71
802.499	8091.26
802.83	8035.66
803.161	7985.5
803.491	7988.43
803.822	7981.88
804.153	7929.9
804.483	7864.82
804.814	7829.34
805.145	7808.55
805.475	7818.27
805.805	7764.49
806.136	7722
806.466	7779.63
806.796	7705.96
807.126	7625.28
807.457	7637.48
807.787	7638.84
808.117	7616.69
808.447	7591.16
808.777	7551.16
809.107	7566.07
809.436	7519.52
809.766	7510.71
810.096	7416.25
810.426	7404.95
810.755	7356.81
811.085	7418.96
811.414	7354.78
811.744	7340.54
812.073	7322.46
812.403	7276.81
812.732	7233.65
813.061	7251.5
813.39	7146.2
813.719	7164.73
814.049	7147.55
814.378	7126.08
814.707	7107.33
815.036	7099.19
815.365	7119.3
815.693	7037.27
816.022	6958.4
816.351	6970.16
816.68	6917.05
817.008	6943.72
817.337	6961.34
817.665	6881.34
817.994	6897.62
818.322	6864.4
818.651	6830.5
818.979	6848.13
819.307	6872.31
819.636	6847.45
819.964	6784.17
820.292	6797.96
820.62	6781.23
820.948	6760.22
821.276	6793.89
821.604	6822.14
821.932	6802.48
822.259	6750.5
822.587	6718.86
822.915	6740.11
823.243	6696.04
823.57	6689.03
823.898	6732.42
824.225	6657.17
824.553	6649.94
824.88	6661.92
825.207	6661.92
825.535	6682.03
825.862	6651.29
826.189	6656.72
826.516	6718.18
826.843	6650.84
827.17	6667.56
827.497	6672.99
827.824	6660.79
828.151	6657.85
828.478	6570.17
828.805	6641.8
829.131	6665.76
829.458	6647.45
829.785	6578.98
830.111	6659.2
830.438	6668.92
830.764	6611.3
831.09	6604.97
831.417	6557.51
831.743	6574.01
832.069	6530.39
832.395	6607
832.722	6571.07
833.048	6520.22
833.374	6577.17
833.7	6514.57
834.026	6554.35
834.351	6560.22
834.677	6537.62
835.003	6577.4
835.329	6541.47
835.654	6490.85
835.98	6413.79
836.306	6473.67
836.631	6502.37
836.956	6454.46
837.282	6461.02
837.607	6371.98
837.932	6399.55
838.258	6387.12
838.583	6391.41
838.908	6326.78
839.233	6325.65
839.558	6336.73
839.883	6286.56
840.208	6295.6
840.533	6294.47
840.858	6265.99
841.182	6281.59
841.507	6241.36
841.832	6236.62
842.156	6248.82
842.481	6273.45
842.805	6244.98
843.13	6171.08
843.454	6169.27
843.778	6148.26
844.103	6124.53
844.427	6125.43
844.751	6134.25
845.075	6094.02
845.399	6089.05
845.723	5989.84
846.047	6087.47
846.371	6039.11
846.695	5944.19
847.019	5950.52
847.343	5947.13
847.666	5848.6
847.99	5870.75
848.313	5827.59
848.637	5833.24
848.96	5805.44
849.284	5790.75
849.607	5747.59
849.931	5729.28
850.254	5694.71
850.577	5654.71
850.9	5640.02
851.223	5600.25
851.546	5567.71
851.869	5545.11
852.192	5581.04
852.515	5491.1
852.838	5490.65
853.161	5475.73
853.483	5484.77
853.806	5454.72
854.129	5414.04
854.451	5374.49
854.774	5416.52
855.096	5336.53
855.419	5386.69
855.741	5394.6
856.063	5359.12
856.385	5312.12
856.708	5311.22
857.03	5271.44
857.352	5240.71
857.674	5241.16
857.996	5203.65
858.318	5243.65
858.64	5208.62
858.961	5188.51
859.283	5148.51
859.605	5133.14
859.926	5176.53
860.248	5126.14
860.57	5148.73
860.891	5106.48
861.212	5026.48
861.534	5085.91
861.855	5017.44
862.176	5117.78
862.498	5072.35
862.819	5005.69
863.14	5052.01
863.461	5071
863.782	5007.04
864.103	5015.86
864.424	5025.8
864.745	4960.27
865.065	4912.81
865.386	4921.17
865.707	4914.16
866.027	4922.53
866.348	4888.63
866.668	4888.85
866.989	4884.56
867.309	4829.42
867.63	4855.18
867.95	4862.64
868.27	4788.29
868.59	4826.48
868.91	4804.79
869.23	4800.27
869.55	4786.71
869.87	4837.78
870.19	4792.81
870.51	4783.55
870.83	4803.43
871.15	4777.67
871.469	4795.75
871.789	4817.22
872.109	4768.18
872.428	4751.68
872.748	4748.29
873.067	4739.93
873.386	4737.45
873.706	4746.03
874.025	4729.31
874.344	4670.1
874.663	4713.27
874.982	4762.53
875.301	4670.1
875.62	4677.56
875.939	4643.44
876.258	4613.83
876.577	4624.45
876.896	4647.5
877.214	4600.27
877.533	4584.23
877.852	4583.33
878.17	4607.05
878.489	4615.42
878.807	4629.65
879.125	4569.31
879.444	4559.6
879.762	4573.16
880.08	4553.27
880.398	4523.44
880.716	4546.72
881.034	4531.12
881.352	4497
881.67	4504.91
881.988	4516.21
882.306	4496.55
882.624	4498.36
882.941	4445.7
883.259	4467.4
883.577	4429.43
883.894	4398.47
884.212	4376.33
884.529	4440.96
884.846	4379.94
885.164	4408.42
885.481	4385.36
885.798	4378.81
886.115	4349.89
886.432	4379.72
886.75	4314.86
887.067	4303.33
887.383	4332.03
887.7	4327.29
888.017	4282.77
888.334	4256.33
888.651	4271.24
888.967	4241.19
889.284	4269.66
889.6	4225.14
889.917	4218.59
890.233	4230.57
890.55	4215.2
890.866	4225.14
891.182	4204.35
891.498	4207.06
891.815	4170.23
892.131	4142.21
892.447	4118.71
892.763	4145.6
893.079	4136.11
893.395	4090.91
893.71	4092.72
894.026	4116.9
894.342	4063.34
894.657	4025.83
894.973	3990.12
895.289	4009.1
895.604	4047.29
895.92	4009.33
896.235	4010.91
896.55	4023.34
896.865	4010.69
897.181	3952.16
897.496	3953.74
897.811	3926.39
898.126	3947.86
898.441	3908.54
898.756	3892.04
899.071	3868.54
899.386	3889.78
899.7	3836.9
900.015	3810.69
900.33	3820.18
900.644	3841.2
900.959	3865.83
901.273	3780.64
901.588	3826.74
901.902	3758.26
902.216	3742.22
902.531	3749.22
902.845	3736.57
903.159	3724.59
903.473	3658.6
903.787	3682.11
904.101	3665.84
904.415	3653.18
904.729	3674.65
905.042	3665.61
905.356	3596.23
905.67	3637.81
905.984	3621.77
906.297	3591.49
906.611	3601.2
906.924	3566.86
907.237	3566.86
907.551	3539.96
907.864	3546.97
908.177	3524.14
908.491	3550.58
908.804	3496.8
909.117	3489.12
909.43	3470.36
909.743	3435.79
910.056	3442.11
910.368	3423.81
910.681	3400.31
910.994	3435.33
911.307	3352.17
911.619	3385.39
911.932	3394.43
912.244	3356.24
912.557	3345.17
912.869	3334.09
913.181	3323.47
913.494	3332.29
913.806	3291.38
914.118	3313.53
914.43	3267.43
914.742	3250.03
915.054	3224.94
915.366	3252.97
915.678	3211.16
915.99	3226.3
916.302	3201.89
916.613	3195.79
916.925	3189.01
917.236	3174.55
917.548	3164.83
917.859	3158.73
918.171	3136.36
918.482	3097.72
918.794	3126.87
919.105	3087.77
919.416	3011.39
919.727	3065.85
920.038	3072.18
920.349	3044.16
920.66	3060.43
920.971	3019.98
921.282	2984.05
921.593	2981.79
921.903	2985.63
922.214	2987.89
922.525	2966.19
922.835	2955.8
923.146	2925.52
923.456	2932.3
923.767	2941.56
924.077	2875.57
924.387	2892.75
924.697	2903.37
925.008	2898.17
925.318	2902.69
925.628	2854.78
925.938	2839.87
926.248	2831.96
926.558	2861.34
926.867	2820.89
927.177	2814.11
927.487	2801.68
927.796	2805.07
928.106	2762.36
928.416	2746.54
928.725	2772.3
929.034	2711.96
929.344	2751.28
929.653	2720.32
929.962	2705.86
930.271	2680.1
930.581	2676.26
930.89	2651.85
931.199	2645.52
931.508	2685.3
931.817	2653.89
932.125	2643.04
932.434	2628.35
932.743	2594.23
933.051	2599.42
933.36	2612.53
933.669	2547.67
933.977	2578.18
934.286	2600.1
934.594	2543.15
934.902	2510.84
935.21	2546.77
935.519	2542.48
935.827	2525.3
936.135	2492.76
936.443	2465.87
936.751	2459.31
937.059	2475.58
937.367	2477.39
937.674	2490.5
937.982	2453.44
938.29	2477.62
938.597	2415.02
938.905	2436.26
939.213	2431.07
939.52	2408.47
939.827	2393.78
940.135	2379.09
940.442	2349.71
940.749	2368.24
941.056	2390.16
941.363	2339.77
941.67	2326.21
941.977	2324.85
942.284	2332.31
942.591	2313.55
942.898	2297.06
943.205	2281.69
943.511	2288.7
943.818	2281.92
944.125	2256.83
944.431	2250.73
944.738	2232.2
945.044	2258.64
945.35	2226.33
945.657	2222.71
945.963	2226.33
946.269	2236.49
946.575	2204.63
946.881	2169.38
947.187	2170.28
947.493	2142.03
947.799	2160.56
948.105	2153.11
948.41	2152.2
948.716	2175.93
949.022	2158.3
949.327	2150.4
949.633	2132.09
949.938	2111.53
950.244	2076.73
950.549	2087.35
950.854	2121.92
951.16	2106.55
951.465	2063.62
951.77	2076.27
952.075	2064.52
952.38	2035.14
952.685	2055.26
952.99	2039.89
953.294	2004.86
953.599	2000.34
953.904	2010.51
954.209	1991.53
954.513	1989.72
954.818	2000.34
955.122	2004.64
955.426	1962.38
955.731	1954.02
956.035	1935.71
956.339	1897.75
956.643	1957.18
956.948	1932.1
957.252	1935.71
957.556	1929.84
957.86	1914.47
958.163	1888.48
958.467	1910.85
958.771	1901.81
959.075	1886
959.378	1880.8
959.682	1893
959.985	1849.39
960.289	1856.84
960.592	1855.71
960.896	1857.3
961.199	1828.37
961.502	1821.14
961.805	1822.27
962.108	1820.69
962.411	1814.36
962.714	1780.01
963.017	1785.21
963.32	1803.29
963.623	1802.83
963.926	1768.03
964.228	1779.11
964.531	1765.77
964.833	1737.07
965.136	1745.89
965.438	1752.21
965.741	1745.21
966.043	1708.6
966.345	1715.38
966.648	1704.31
966.95	1701.59
967.252	1709.05
967.554	1676.96
967.856	1724.64
968.158	1684.19
968.46	1695.49
968.761	1659.56
969.063	1646.45
969.365	1661.59
969.666	1658.43
969.968	1651.2
970.269	1644.87
970.571	1657.3
970.872	1624.99
971.174	1622.05
971.475	1617.3
971.776	1643.06
972.077	1587.7
972.378	1583.63
972.679	1573.01
972.98	1578.89
973.281	1588.38
973.582	1581.14
973.883	1568.72
974.183	1536.85
974.484	1586.79
974.785	1562.84
975.085	1556.51
975.386	1539.34
975.686	1538.21
975.986	1536.17
976.287	1512.9
976.587	1502.5
976.887	1467.93
977.187	1508.38
977.487	1504.54
977.787	1502.95
978.087	1499.79
978.387	1473.35
978.687	1523.52
978.987	1491.66
979.286	1507.7
979.586	1475.84
979.885	1460.02
980.185	1454.37
980.484	1460.47
980.784	1433.13
981.083	1453.69
981.382	1423.63
981.682	1411.21
981.981	1452.56
982.28	1424.76
982.579	1408.27
982.878	1430.64
983.177	1396.97
983.475	1412.34
983.774	1396.52
984.073	1370.98
984.372	1382.28
984.67	1370.3
984.969	1364.88
985.267	1352.45
985.566	1357.2
985.864	1370.3
986.162	1338.44
986.461	1346.8
986.759	1324.65
987.057	1304.32
987.355	1339.34
987.653	1346.57
987.951	1336.63
988.249	1314.49
988.547	1310.42
988.844	1314.03
989.142	1301.83
989.44	1309.51
989.737	1291.43
990.035	1308.84
990.332	1295.5
990.63	1262.06
990.927	1257.09
991.224	1296.18
991.521	1265.22
991.819	1251.44
992.116	1245.56
992.413	1231.1
992.71	1251.89
993.006	1239.23
993.303	1235.17
993.6	1206.01
993.897	1208.73
994.193	1218.67
994.49	1223.19
994.787	1197.2
995.083	1225.22
995.379	1216.18
995.676	1188.16
995.972	1190.42
996.268	1182.29
996.565	1187.48
996.861	1191.32
997.157	1161.49
997.453	1164.88
997.749	1168.5
998.044	1154.26
998.34	1151.33
998.636	1139.8
998.932	1121.04
999.227	1151.1
999.523	1138.9
999.818	1138.44
1000.114	1138.22
1000.409	1138.67
1000.704	1112.46
1001	1093.25
1001.295	1088.95
1001.59	1083.08
1001.885	1112
1002.18	1067.03
1002.475	1073.36
1002.77	1088.28
1003.065	1062.74
1003.359	1084.66
1003.654	1072.01
1003.949	1067.49
1004.243	1073.59
1004.538	1067.03
1004.832	1077.43
1005.127	1057.77
1005.421	1064.55
1005.715	1024.78
1006.009	1050.76
1006.304	1028.39
1006.598	1042.85
1006.892	1026.58
1007.186	999.92
1007.48	1021.61
1007.773	997.88
1008.067	984.32
1008.361	990.43
1008.655	972.8
1008.948	970.09
1009.242	959.69
1009.535	988.17
1009.829	961.73
1010.122	937.77
1010.415	985.91
1010.708	963.76
1011.001	926.47
1011.295	952.23
1011.588	947.26
1011.881	926.7
1012.173	930.31
1012.466	914.5
1012.759	913.82
1013.052	940.48
1013.344	907.26
1013.637	923.76
1013.93	912.01
1014.222	906.36
1014.514	895.51
1014.807	884.44
1015.099	895.51
1015.391	895.06
1015.683	883.08
1015.976	886.25
1016.268	881.95
1016.56	880.15
1016.851	856.42
1017.143	867.49
1017.435	871.78
1017.727	852.12
1018.018	855.29
1018.31	851.22
1018.602	854.84
1018.893	829.07
1019.185	837.21
1019.476	804.67
1019.767	832.01
1020.058	820.71
1020.35	829.3
1020.641	812.58
1020.932	807.83
1021.223	806.7
1021.514	816.65
1021.804	819.36
1022.095	808.06
1022.386	778.91
1022.677	785.46
1022.967	770.32
1023.258	769.19
1023.548	771.45
1023.839	763.54
1024.129	771.22
1024.419	761.96
1024.709	759.02
1025	769.64
1025.29	749.75
1025.58	736.2
1025.87	740.71
1026.16	725.12
1026.449	725.12
1026.739	748.62
1027.029	720.38
1027.319	728.29
1027.608	748.4
1027.898	679.25
1028.187	716.53
1028.477	729.42
1028.766	683.99
1029.055	689.19
1029.344	698
1029.634	692.13
1029.923	679.25
1030.212	704.11
1030.501	685.35
1030.79	687.38
1031.078	673.82
1031.367	682.19
1031.656	653.03
1031.945	682.19
1032.233	683.32
1032.522	675.86
1032.81	653.26
1033.099	648.74
1033.387	641.06
1033.675	638.12
1033.963	651.45
1034.251	629.98
1034.54	641.73
1034.828	657.1
1035.116	635.63
1035.403	626.14
1035.691	633.83
1035.979	620.49
1036.267	640.38
1036.554	630.21
1036.842	635.86
1037.129	610.1
1037.417	610.1
1037.704	627.27
1037.992	623.66
1038.279	618.46
1038.566	614.39
1038.853	614.39
1039.14	614.39
