Data from brown_tile_FLMS001491_033.txt Node
Date: Tue Feb 07 10:37:25 GMT 2017
User: dcchb
Spectrometer: FLMS00149
Trigger mode: 0
Integration Time (sec): 2.000000E-2
Scans to average: 10
Electric dark correction enabled: true
Nonlinearity correction enabled: false
Boxcar width: 0
XAxis mode: Wavelengths
Number of Pixels in Spectrum: 2048
>>>>>Begin Spectral Data<<<<<
341.393	-13.43
341.776	-13.43
342.16	-13.43
342.543	-59.08
342.927	-50.27
343.31	-75.35
343.693	-53.43
344.077	-72.19
344.46	-36.48
344.843	-55.92
345.226	-68.35
345.61	-21.57
345.993	-26.31
346.376	0.35
346.759	19.34
347.142	24.08
347.525	32.67
347.908	54.14
348.291	79.22
348.674	86.9
349.057	112.89
349.44	154.47
349.823	149.28
350.206	152.67
350.588	178.88
350.971	191.53
351.354	217.07
351.737	226.56
352.119	223.85
352.502	241.93
352.884	274.7
353.267	273.57
353.65	286.67
354.032	274.7
354.414	291.64
354.797	300.46
355.179	299.78
355.562	303.4
355.944	307.92
356.326	311.31
356.709	310.4
357.091	328.93
357.473	331.19
357.855	349.95
358.238	311.76
358.62	345.65
359.002	318.99
359.384	330.06
359.766	316.5
360.148	326.45
360.53	324.19
360.912	330.74
361.294	317.41
361.676	327.12
362.057	321.7
362.439	304.07
362.821	318.54
363.203	321.93
363.584	310.18
363.966	319.44
364.348	288.48
364.729	323.28
365.111	294.36
365.493	326.45
365.874	306.79
366.256	308.82
366.637	300.91
367.019	298.65
367.4	323.28
367.781	307.46
368.163	300.23
368.544	300.23
368.925	304.07
369.306	309.72
369.688	300.01
370.069	305.66
370.45	303.62
370.831	293
371.212	306.79
371.593	302.94
371.974	311.08
372.355	318.08
372.736	321.25
373.117	313.11
373.498	307.46
373.879	301.36
374.26	288.48
374.641	293.23
375.021	300.23
375.402	298.2
375.783	304.53
376.163	298.42
376.544	320.12
376.925	313.11
377.305	326.9
377.686	315.83
378.066	333.68
378.447	303.85
378.827	314.7
379.208	311.98
379.588	307.92
379.968	298.42
380.349	314.02
380.729	295.49
381.109	322.38
381.489	328.25
381.87	347.69
382.25	307.24
382.63	325.99
383.01	310.18
383.39	298.88
383.77	327.35
384.15	320.34
384.53	343.39
384.91	324.19
385.29	334.36
385.67	338.42
386.049	330.51
386.429	346.78
386.809	340.23
387.189	337.75
387.568	335.71
387.948	337.97
388.328	340.23
388.707	340.46
389.087	330.06
389.466	326.67
389.846	335.94
390.225	336.84
390.605	328.71
390.984	364.64
391.363	347.46
391.743	349.95
392.122	356.5
392.501	362.6
392.881	344.98
393.26	357.41
393.639	354.24
394.018	339.33
394.397	365.99
394.776	354.92
395.155	348.37
395.534	356.95
395.913	377.97
396.292	377.29
396.671	346.78
397.05	341.81
397.429	365.32
397.808	370.06
398.186	382.26
398.565	358.76
398.944	365.32
399.323	377.07
399.701	380.23
400.08	401.25
400.458	384.98
400.837	376.61
401.215	388.14
401.594	344.75
401.972	368.03
402.351	381.59
402.729	386.33
403.107	374.35
403.486	384.52
403.864	400.34
404.242	398.08
404.62	387.24
404.999	394.69
405.377	394.02
405.755	396.05
406.133	407.35
406.511	386.56
406.889	399.66
407.267	388.37
407.645	408.7
408.023	401.92
408.401	419.55
408.779	396.05
409.156	426.56
409.534	416.16
409.912	414.35
410.29	409.38
410.667	415.94
411.045	440.12
411.422	423.84
411.8	430.4
412.178	416.61
412.555	425.43
412.933	427.46
413.31	448.93
413.687	437.86
414.065	434.01
414.442	460.45
414.819	448.48
415.197	447.35
415.574	449.15
415.951	441.47
416.328	459.55
416.705	462.26
417.082	464.97
417.46	455.26
417.837	476.95
418.214	472.43
418.591	460.45
418.967	463.84
419.344	461.81
419.721	456.84
420.098	476.27
420.475	472.66
420.852	467.46
421.228	467.46
421.605	485.54
421.982	505.42
422.358	498.65
422.735	509.04
423.111	503.16
423.488	491.41
423.864	488.02
424.241	496.39
424.617	484.86
424.994	511.98
425.37	504.29
425.746	510.4
426.123	517.18
426.499	506.78
426.875	517.63
427.251	520.11
427.627	524.86
428.003	510.62
428.379	527.12
428.756	544.52
429.132	548.81
429.507	548.81
429.883	549.72
430.259	545.42
430.635	534.58
431.011	539.55
431.387	559.89
431.763	550.85
432.138	579.55
432.514	560.34
432.89	583.16
433.265	586.1
433.641	579.09
434.016	595.37
434.392	584.07
434.767	594.01
435.143	603.28
435.518	622.03
435.894	616.83
436.269	615.25
436.644	621.13
437.02	614.8
437.395	620.22
437.77	607.34
438.145	616.16
438.52	636.49
438.895	627
439.271	641.47
439.646	657.96
440.021	650.73
440.395	657.74
440.77	663.39
441.145	636.04
441.52	664.97
441.895	652.31
442.27	683.72
442.645	684.85
443.019	685.53
443.394	708.36
443.769	666.1
444.143	688.92
444.518	701.13
444.892	703.16
445.267	690.28
445.641	710.84
446.016	701.58
446.39	695.48
446.764	717.17
447.139	691.18
447.513	722.14
447.887	709.26
448.262	705.19
448.636	714.46
449.01	726.66
449.384	722.37
449.758	724.4
450.132	740.9
450.506	755.36
450.88	733.89
451.254	762.14
451.628	756.27
452.002	785.64
452.376	742.25
452.75	767.34
453.123	761.46
453.497	773.67
453.871	790.16
454.244	805.98
454.618	787.45
454.992	793.55
455.365	810.28
455.739	807.11
456.112	832.2
456.486	845.08
456.859	850.05
457.232	848.47
457.606	858.64
457.979	837.85
458.352	878.75
458.725	874
459.099	894.34
459.472	881.23
459.845	899.76
460.218	932.98
460.591	900.22
460.964	928.92
461.337	917.62
461.71	954.23
462.083	951.51
462.456	925.75
462.829	956.94
463.201	978.63
463.574	970.05
463.947	968.69
464.32	1008.01
464.692	1034.45
465.065	1012.3
465.438	1029.48
465.81	1037.61
466.183	1045.75
466.555	1043.94
466.928	1072.87
467.3	1070.61
467.672	1077.61
468.045	1099.08
468.417	1094.34
468.789	1112.19
469.161	1148.12
469.534	1108.57
469.906	1149.93
470.278	1158.74
470.65	1163.71
471.022	1207.1
471.394	1183.6
471.766	1195.8
472.138	1217.95
472.51	1253.2
472.882	1237.61
473.253	1271.96
473.625	1265.63
473.997	1304.73
474.369	1297.04
474.74	1328.68
475.112	1326.42
475.484	1361.22
475.855	1344.72
476.227	1363.48
476.598	1421.56
476.97	1413.42
477.341	1447.32
477.713	1447.32
478.084	1480.77
478.455	1482.12
478.827	1536.13
479.198	1537.71
479.569	1524.38
479.94	1565.96
480.311	1608.45
480.682	1597.15
481.053	1644.83
481.424	1699.97
481.795	1654.32
482.166	1726.64
482.537	1723.47
482.908	1711.72
483.279	1759.85
483.65	1805.96
484.021	1833.75
484.391	1863.35
484.762	1866.29
485.133	1881.43
485.503	1925.05
485.874	1963.69
486.244	1941.09
486.615	1993.07
486.985	1995.1
487.356	2004.82
487.726	2052.95
488.097	2083.46
488.467	2107.19
488.837	2144.03
489.207	2145.61
489.578	2188.54
489.948	2210.69
490.318	2236.68
490.688	2220.41
491.058	2269.67
491.428	2306.96
491.798	2301.54
492.168	2388.99
492.538	2360.52
492.908	2426.73
493.278	2438.03
493.648	2403.68
494.017	2477.8
494.387	2489.78
494.757	2516.22
495.126	2511.7
495.496	2567.52
495.866	2546.05
496.235	2600.74
496.605	2591.7
496.974	2587.63
497.344	2648.65
497.713	2661.98
498.082	2706.5
498.452	2696.1
498.821	2703.78
499.19	2682.54
499.559	2763.44
499.928	2786.95
500.298	2789.43
500.667	2820.39
501.036	2790.79
501.405	2852.03
501.774	2814.06
502.143	2829.66
502.512	2863.33
502.88	2929.99
503.249	2931.35
503.618	2925.93
503.987	2949.88
504.356	2963.44
504.724	2998.47
505.093	2966.15
505.462	3045.24
505.83	3022.87
506.199	3058.35
506.567	3109.42
506.936	3084.79
507.304	3186.26
507.672	3168.63
508.041	3151
508.409	3209.08
508.777	3230.1
509.145	3266.03
509.514	3262.41
509.882	3271.23
510.25	3254.05
510.618	3303.77
510.986	3313.03
511.354	3362.98
511.722	3416.53
512.09	3429.42
512.458	3397.78
512.826	3442.75
513.193	3486.82
513.561	3475.97
513.929	3529.3
514.297	3567.26
514.664	3589.86
515.032	3579.02
515.4	3624.21
515.767	3621.05
516.135	3678.22
516.502	3632.57
516.869	3721.39
517.237	3751.89
517.604	3720.93
517.972	3783.76
518.339	3812.91
518.706	3826.92
519.073	3878.9
519.44	3849.29
519.808	3888.39
520.175	3915.96
520.542	3952.34
520.909	3993.02
521.276	4013.35
521.643	4042.73
522.009	4067.36
522.376	4084.77
522.743	4123.63
523.11	4138.1
523.477	4208.15
523.843	4272.78
524.21	4288.83
524.577	4315.95
524.943	4350.52
525.31	4343.29
525.676	4409.95
526.043	4475.26
526.409	4534.02
526.776	4525.66
527.142	4523.85
527.508	4586.22
527.874	4634.36
528.241	4658.76
528.607	4628.93
528.973	4688.37
529.339	4674.81
529.705	4782.6
530.071	4827.12
530.437	4827.34
530.803	4869.83
531.169	4882.26
531.535	4911.86
531.901	4911.86
532.267	4957.28
532.632	5020.11
532.998	5007.23
533.364	5095.59
533.73	5030.28
534.095	5158.18
534.461	5162.7
534.826	5167.22
535.192	5198.63
535.557	5279.99
535.923	5241.57
536.288	5276.37
536.653	5312.08
537.019	5302.59
537.384	5366.31
537.749	5376.93
538.114	5412.64
538.479	5455.35
538.845	5470.49
539.21	5456.48
539.575	5518.4
539.94	5508.91
540.305	5595.23
540.67	5609.02
541.034	5635.91
541.399	5657.15
541.764	5703.03
542.129	5723.59
542.494	5731.5
542.858	5757.94
543.223	5857.15
543.587	5869.35
543.952	5915.45
544.316	5889.01
544.681	5926.98
545.045	6007.43
545.41	6022.79
545.774	6065.96
546.138	6082.68
546.503	6069.8
546.867	6114.09
547.231	6204.03
547.595	6207.42
547.959	6246.06
548.324	6318.38
548.688	6347.98
549.052	6334.2
549.416	6418.72
549.779	6431.82
550.143	6472.5
550.507	6494.42
550.871	6595.66
551.235	6590.69
551.599	6696.22
551.962	6727.63
552.326	6744.36
552.689	6769.67
553.053	6823
553.417	6823.22
553.78	6953.62
554.143	6935.99
554.507	7041.52
554.87	7078.36
555.234	7161.52
555.597	7132.59
555.96	7171.69
556.323	7283.78
556.686	7357.9
557.05	7385.02
557.413	7390.89
557.776	7514.05
558.139	7548.63
558.502	7616.65
558.865	7712.47
559.228	7793.82
559.59	7861.62
559.953	7841.05
560.316	8001.95
560.679	8046.47
561.041	8128.05
561.404	8254.37
561.767	8192.23
562.129	8277.65
562.492	8383.41
562.854	8467.02
563.217	8466.57
563.579	8586.57
563.941	8692.78
564.304	8726.23
564.666	8806.68
565.028	8832.66
565.39	8937.52
565.753	9071.98
566.115	9104.75
566.477	9213.9
566.839	9228.59
567.201	9335.93
567.563	9409.82
567.925	9498.63
568.287	9516.71
568.648	9655.24
569.01	9735.24
569.372	9819.08
569.734	9834.44
570.095	9935.01
570.457	10011.62
570.819	10146.98
571.18	10139.75
571.542	10312.17
571.903	10332.06
572.265	10460.42
572.626	10501.32
572.987	10605.5
573.349	10686.4
573.71	10725.49
574.071	10885.04
574.432	10904.7
574.794	10965.71
575.155	11055.66
575.516	11054.75
575.877	11217.91
576.238	11276.44
576.599	11352.37
576.96	11391.92
577.32	11452.71
577.681	11644.11
578.042	11678.69
578.403	11742.42
578.763	11734.06
579.124	11772.7
579.485	11916.42
579.845	12055.4
580.206	11981.73
580.566	12059.92
580.927	12185.34
581.287	12255.4
581.648	12240.48
582.008	12331.55
582.368	12465.56
582.728	12456.75
583.089	12503.75
583.449	12621.04
583.809	12569.06
584.169	12643.41
584.529	12727.48
584.889	12864.65
585.249	12805.44
585.609	12814.71
585.969	12922.27
586.329	12983.51
586.688	13051.76
587.048	13081.59
587.408	13083.85
587.768	13115.49
588.127	13222.38
588.487	13196.16
588.846	13361.58
589.206	13314.58
589.565	13296.05
589.925	13423.95
590.284	13482.94
590.643	13544.63
591.003	13599.54
591.362	13622.14
591.721	13613.33
592.08	13643.38
592.44	13748.47
592.799	13732.42
593.158	13858.75
593.517	13822.36
593.876	13938.74
594.235	13835.92
594.593	14023.26
594.952	13999.76
595.311	14002.24
595.67	13995.92
596.029	14194.56
596.387	14143.03
596.746	14265.06
597.104	14225.52
597.463	14268.9
597.822	14288.79
598.18	14281.33
598.538	14344.83
598.897	14419.63
599.255	14256.7
599.613	14580.76
599.972	14464.61
600.33	14569.24
600.688	14532.17
601.046	14546.19
601.404	14612.17
601.762	14665.5
602.12	14726.07
602.478	14740.98
602.836	14799.51
603.194	14733.07
603.552	14824.14
603.91	14781.43
604.268	14826.4
604.625	14888.32
604.983	14893.75
605.341	14835.9
605.698	14983.69
606.056	15068.21
606.413	15043.12
606.771	15064.14
607.128	15093.52
607.485	15068.88
607.843	15147.75
608.2	15258.03
608.557	15263
608.914	15204.25
609.272	15299.39
609.629	15373.51
609.986	15495.09
610.343	15385.71
610.7	15528.31
611.057	15485.37
611.414	15465.26
611.771	15590
612.127	15602.43
612.484	15581.86
612.841	15604.69
613.198	15658.25
613.554	15667.74
613.911	15682.2
614.267	15774.63
614.624	15786.15
614.98	15796.1
615.337	15846.72
615.693	15777.57
616.05	15958.35
616.406	15949.09
616.762	15825.93
617.118	15899.82
617.475	15976.66
617.831	16055.75
618.187	15970.55
618.543	16067.95
618.899	16106.82
619.255	16075.86
619.611	16034.96
619.967	16074.05
620.323	16131
620.678	16144.34
621.034	16121.29
621.39	16149.53
621.746	16166.48
622.101	16227.05
622.457	16165.8
622.812	16228.17
623.168	16333.26
623.523	16302.75
623.879	16314.95
624.234	16348.17
624.589	16304.56
624.945	16335.97
625.3	16338.91
625.655	16362.63
626.01	16369.41
626.365	16274.28
626.72	16344.78
627.075	16331.68
627.43	16340.71
627.785	16290.32
628.14	16380.94
628.495	16397.66
628.85	16429.07
629.205	16423.42
629.559	16427.04
629.914	16408.51
630.269	16369.64
630.623	16286.7
630.978	16316.31
631.332	16325.35
631.687	16447.83
632.041	16269.3
632.396	16310.88
632.75	16273.15
633.104	16346.82
633.459	16227.05
633.813	16297.78
634.167	16266.14
634.521	16226.14
634.875	16274.05
635.229	16278.34
635.583	16166.93
635.937	16149.08
636.291	16168.06
636.645	16196.54
636.999	16127.39
637.352	16247.16
637.706	16096.43
638.06	16173.94
638.413	16178.68
638.767	16184.33
639.121	16126.48
639.474	16044
639.828	16078.12
640.181	16067.28
640.534	16169.65
640.888	15966.71
641.241	16030.44
641.594	16040.84
641.947	16007.84
642.301	15970.1
642.654	16020.95
643.007	16050.1
643.36	15924
643.713	16005.13
644.066	15992.25
644.419	15941.4
644.771	15777.57
645.124	15684.46
645.477	15628.64
645.83	15602.65
646.182	15505.71
646.535	15455.99
646.888	15518.14
647.24	15372.6
647.593	15510.91
647.945	15479.27
648.298	15322.44
648.65	15389.1
649.002	15332.15
649.355	15430.91
649.707	15462.55
650.059	15505.26
650.411	15668.19
650.763	15669.32
651.115	15885.13
651.467	15768.98
651.819	15781.63
652.171	15779.6
652.523	15785.02
652.875	15690.34
653.227	15741.41
653.578	15782.09
653.93	15822.54
654.282	15658.7
654.633	15651.92
654.985	15751.13
655.337	15747.51
655.688	15717.45
656.039	15728.75
656.391	15682.88
656.742	15756.55
657.094	15671.81
657.445	15771.46
657.796	15750.9
658.147	15600.39
658.498	15693.27
658.849	15613.73
659.2	15665.03
659.551	15712.71
659.902	15767.85
660.253	15752.93
660.604	15787.06
660.955	15641.3
661.306	15666.16
661.656	15705.02
662.007	15729.21
662.358	15689.88
662.708	15806.49
663.059	15732.14
663.409	15610.34
663.76	15806.27
664.11	15666.38
664.461	15766.94
664.811	15766.72
665.161	15678.13
665.511	15713.61
665.862	15740.96
666.212	15754.97
666.562	15848.3
666.912	15773.95
667.262	15813.72
667.612	15854.4
667.962	15847.85
668.312	15735.31
668.662	15966.49
669.011	15782.09
669.361	15796.77
669.711	15872.7
670.06	15815.76
670.41	15812.14
670.76	15803.1
671.109	15936.21
671.459	15801.75
671.808	15790.9
672.157	15843.78
672.507	15736.66
672.856	15789.32
673.205	15747.74
673.554	15862.08
673.904	15771.69
674.253	15961.06
674.602	15792.03
674.951	15684.46
675.3	15500.74
675.649	15813.04
675.998	15780.05
676.346	15802.42
676.695	15887.17
677.044	15680.84
677.393	15808.07
677.741	15720.84
678.09	15827.28
678.438	15812.82
678.787	15855.08
679.135	15861.18
679.484	15738.7
679.832	15795.42
680.181	15736.89
680.529	15788.64
680.877	15681.07
681.225	15805.36
681.573	15864.79
681.922	15784.8
682.27	15670.45
682.618	15748.19
682.966	15757.45
683.314	15750.67
683.661	15679.26
684.009	15653.5
684.357	15557.91
684.705	15567.63
685.053	15652.14
685.4	15632.94
685.748	15588.19
686.095	15607.85
686.443	15420.96
686.79	15572.82
687.138	15577.8
687.485	15520.85
687.832	15484.69
688.18	15538.7
688.527	15454.86
688.874	15437.91
689.221	15449.66
689.568	15396.33
689.915	15355.2
690.262	15424.13
690.609	15362.89
690.956	15360.63
691.303	15237.69
691.65	15227.98
691.997	15224.59
692.344	15163.8
692.69	15161.54
693.037	15207.64
693.383	15016.68
693.73	15190.46
694.077	15081.54
694.423	15027.3
694.769	15130.12
695.116	15013.29
695.462	14956.34
695.808	14997.7
696.155	15015.55
696.501	14856.23
696.847	14933.29
697.193	14851.26
697.539	14928.77
697.885	14813.3
698.231	14767.42
698.577	14863.24
698.923	14786.63
699.269	14702.57
699.614	14595.22
699.96	14693.53
700.306	14686.07
700.651	14574.66
700.997	14623.92
701.342	14514.32
701.688	14553.64
702.033	14535.79
702.379	14534.89
702.724	14462.8
703.069	14541.89
703.415	14428.9
703.76	14311.84
704.105	14448.11
704.45	14404.27
704.795	14344.61
705.14	14290.37
705.485	14310.26
705.83	14155.69
706.175	14265.29
706.52	14242.69
706.865	14167.44
707.209	14173.09
707.554	14168.12
707.899	14205.86
708.243	14120.89
708.588	13994.56
708.932	13981.91
709.277	13988.91
709.621	14142.35
709.966	13940.55
710.31	13968.35
710.654	13922.47
710.998	14003.83
711.342	13998.18
711.687	14004.73
712.031	13893.55
712.375	13820.33
712.719	13944.85
713.063	13839.09
713.407	13894.23
713.75	13817.62
714.094	13858.75
714.438	13834.57
714.782	13850.38
715.125	13774.45
715.469	13800.22
715.812	13701.01
716.156	13646.1
716.499	13699.65
716.843	13716.6
717.186	13582.82
717.53	13711.41
717.873	13635.93
718.216	13609.71
718.559	13560.67
718.902	13518.19
719.246	13587.34
719.589	13504.18
719.932	13458.3
720.275	13497.63
720.617	13494.91
720.96	13506.21
721.303	13517.06
721.646	13508.92
721.989	13363.62
722.331	13470.96
722.674	13415.37
723.016	13439.1
723.359	13345.31
723.701	13428.7
724.044	13418.53
724.386	13187.13
724.729	13453.11
725.071	13311.19
725.413	13242.72
725.755	13337.63
726.097	13279.78
726.439	13214.69
726.782	13230.51
727.124	13340.12
727.465	13260.8
727.807	13152.78
728.149	13236.84
728.491	13155.71
728.833	13223.06
729.175	13174.7
729.516	13185.32
729.858	13209.95
730.199	13143.06
730.541	13106
730.882	13087.47
731.224	13159.56
731.565	13138.76
731.906	13054.47
732.248	13164.75
732.589	13059.67
732.93	13029.16
733.271	13042.95
733.612	13005.43
733.953	13117.75
734.294	13047.24
734.635	12967.02
734.976	13040.01
735.317	12932.89
735.658	12947.13
735.999	12969.28
736.339	12921.37
736.68	12957.07
737.021	12894.7
737.361	12870.07
737.702	13007.47
738.042	12911.43
738.383	12821.71
738.723	12943.52
739.063	12853.57
739.404	12808.15
739.744	12870.75
740.084	12711.88
740.424	12778.77
740.764	12811.99
741.104	12774.71
741.444	12659
741.784	12652
742.124	12758.89
742.464	12682.05
742.804	12701.04
743.143	12593.92
743.483	12661.94
743.823	12588.72
744.162	12559.57
744.502	12564.09
744.841	12528.16
745.181	12588.72
745.52	12587.14
745.86	12545.56
746.199	12508.27
746.538	12467.82
746.877	12521.61
747.216	12475.96
747.556	12413.36
747.895	12436.64
748.234	12431.66
748.573	12362.51
748.911	12356.64
749.25	12363.87
749.589	12342.63
749.928	12297.88
750.267	12243.42
750.605	12295.17
750.944	12276.41
751.283	12200.94
751.621	12259.01
751.96	12114.61
752.298	12122.97
752.636	12216.3
752.975	12084.1
753.313	12040.49
753.651	12146.02
753.989	12018.12
754.327	12044.78
754.666	11985.35
755.004	11885.92
755.342	12038.91
755.679	11943.99
756.017	11866.48
756.355	11886.14
756.693	11814.28
757.031	11948.06
757.368	11787.16
757.706	11733.15
758.044	11772.25
758.381	11704.23
758.719	11667.39
759.056	11683.21
759.394	11641.63
759.731	11517.11
760.068	11541.97
760.405	11548.75
760.743	11518.92
761.08	11408.64
761.417	11406.15
761.754	11393.27
762.091	11366.16
762.428	11295.65
762.765	11194.18
763.102	11272.6
763.438	11209.55
763.775	11219.04
764.112	11219.49
764.449	11200.28
764.785	11124.13
765.122	11024.47
765.458	11002.1
765.795	10986.5
766.131	10916
766.467	10861.54
766.804	10825.15
767.14	10803.46
767.476	10748.77
767.812	10751.03
768.148	10764.36
768.485	10714.65
768.821	10577.93
769.157	10563.24
769.492	10498.16
769.828	10546.29
770.164	10407.99
770.5	10467.87
770.836	10422.45
771.171	10334.09
771.507	10320.76
771.842	10277.82
772.178	10304.71
772.513	10163.02
772.849	10215.9
773.184	10154.89
773.519	10146.08
773.855	10051.61
774.19	10077.83
774.525	9995.57
774.86	10004.84
775.195	9982.01
775.53	9876.93
775.865	9861.11
776.2	9699.53
776.535	9765.97
776.87	9734.79
777.205	9729.36
777.539	9589.48
777.874	9647.56
778.209	9583.83
778.543	9560.55
778.878	9493.66
779.212	9529.14
779.547	9508.35
779.881	9568.01
780.215	9342.48
780.55	9378.86
780.884	9331.41
781.218	9283.5
781.552	9295.25
781.886	9150.85
782.22	9162.82
782.554	9168.47
782.888	9068.36
783.222	9052.77
783.556	9043.28
783.889	8937.29
784.223	8949.95
784.557	8877.41
784.89	8908.37
785.224	8788.37
785.557	8743.63
785.891	8746.79
786.224	8711.76
786.558	8752.67
786.891	8594.7
787.224	8603.74
787.557	8602.16
787.891	8594.25
788.224	8566.23
788.557	8490.3
788.89	8482.84
789.223	8433.35
789.556	8396.06
789.888	8397.65
790.221	8340.25
790.554	8293.69
790.887	8287.59
791.219	8292.11
791.552	8278.33
791.884	8189.52
792.217	8140.7
792.549	8107.48
792.882	8095.06
793.214	8007.6
793.546	8036.53
793.879	7975.74
794.211	7889.19
794.543	7966.7
794.875	7930.09
795.207	7963.53
795.539	7888.06
795.871	7853.48
796.203	7741.39
796.535	7743.88
796.867	7808.28
797.198	7724.22
797.53	7727.16
797.862	7697.1
798.193	7636.54
798.525	7640.6
798.856	7597.44
799.188	7533.26
799.519	7514.28
799.85	7511.12
800.182	7455.07
800.513	7442.64
800.844	7326.71
801.175	7460.95
801.506	7335.3
801.837	7272.25
802.168	7294.17
802.499	7245.13
802.83	7230.45
803.161	7223.89
803.491	7226.6
803.822	7183.44
804.153	7178.47
804.483	7090.34
804.814	7080.84
805.145	7063.22
805.475	7015.76
805.805	7026.38
806.136	7034.07
806.466	6972.6
806.796	6950.45
807.126	6913.62
807.457	6857.57
807.787	6941.41
808.117	6862.55
808.447	6837.24
808.777	6827.97
809.107	6823.45
809.436	6820.96
809.766	6815.77
810.096	6761.08
810.426	6719.05
810.755	6686.73
811.085	6709.78
811.414	6677.47
811.744	6629.56
812.073	6605.38
812.403	6558.82
812.732	6578.26
813.061	6489.45
813.39	6503.91
813.719	6501.2
814.049	6549.33
814.378	6499.84
814.707	6432.5
815.036	6433.18
815.365	6373.97
815.693	6419.62
816.022	6385.27
816.351	6347.98
816.68	6279.96
817.008	6326.06
817.337	6265.05
817.665	6290.58
817.994	6289.23
818.322	6276.57
818.651	6211.26
818.979	6176.69
819.307	6237.03
819.636	6216.46
819.964	6162.22
820.292	6140.53
820.62	6164.94
820.948	6101.21
821.276	6056.92
821.604	6137.59
821.932	6156.58
822.259	6152.51
822.587	6059.18
822.915	6071.38
823.243	6078.39
823.57	6081.32
823.898	6120.42
824.225	6076.13
824.553	6052.85
824.88	6049.23
825.207	6066.41
825.535	6021.21
825.862	6088.55
826.189	6076.13
826.516	6067.76
826.843	6050.14
827.17	6071.15
827.497	6002.23
827.824	6021.89
828.151	6079.29
828.478	6016.47
828.805	6039.74
829.131	6034.32
829.458	5984.15
829.785	5956.13
830.111	5971.5
830.438	6014.66
830.764	6011.95
831.09	5991.38
831.417	5982.12
831.743	5953.64
832.069	5947.09
832.395	5905.96
832.722	5933.76
833.048	5897.15
833.374	5883.81
833.7	5936.92
834.026	5922.01
834.351	5917.03
834.677	5898.05
835.003	5895.11
835.329	5891.72
835.654	5883.36
835.98	5845.85
836.306	5825.51
836.631	5787.09
836.956	5774.21
837.282	5820.77
837.607	5783.03
837.932	5792.97
838.258	5803.59
838.583	5764.72
838.908	5765.17
839.233	5711.84
839.558	5701.22
839.883	5707.77
840.208	5699.41
840.533	5696.47
840.858	5701.45
841.182	5674.33
841.507	5648.79
841.832	5639.98
842.156	5597.27
842.481	5614.22
842.805	5598.62
843.13	5623.26
843.454	5609.92
843.778	5572.64
844.103	5513.2
844.427	5510.04
844.751	5541
845.075	5519.98
845.399	5465.52
845.723	5493.32
846.047	5480.66
846.371	5365.64
846.695	5438.18
847.019	5355.69
847.343	5340.55
847.666	5330.16
847.99	5268.01
848.313	5298.97
848.637	5257.39
848.96	5189.82
849.284	5264.62
849.607	5181.01
849.931	5177.84
850.254	5153.44
850.577	5099.2
850.9	5075.25
851.223	5076.15
851.546	5084.06
851.869	4990.05
852.192	5069.6
852.515	5004.29
852.838	4978.53
853.161	4936.27
853.483	4980.11
853.806	4944.4
854.129	4938.75
854.451	4910.73
854.774	4856.72
855.096	4839.1
855.419	4830.06
855.741	4868.93
856.063	4823.28
856.385	4807.46
856.708	4756.39
857.03	4794.13
857.352	4768.14
857.674	4764.07
857.996	4776.72
858.318	4728.82
858.64	4684.3
858.961	4696.5
859.283	4690.17
859.605	4604.3
859.926	4675.26
860.248	4606.79
860.57	4645.88
860.891	4644.98
861.212	4560.91
861.534	4598.42
861.855	4575.6
862.176	4550.52
862.498	4598.88
862.819	4576.5
863.14	4513.68
863.461	4519.56
863.782	4522.27
864.103	4518.88
864.424	4510.07
864.745	4534.92
865.065	4496.73
865.386	4471.2
865.707	4464.19
866.027	4453.34
866.348	4465.09
866.668	4450.41
866.989	4455.38
867.309	4386.9
867.63	4404.31
867.95	4379
868.27	4391.88
868.59	4396.17
868.91	4346.23
869.23	4348.26
869.55	4378.09
869.87	4337.41
870.19	4342.61
870.51	4345.78
870.83	4316.62
871.15	4354.36
871.469	4305.32
871.789	4356.85
872.109	4279.56
872.428	4295.38
872.748	4347.58
873.067	4291.77
873.386	4257.64
873.706	4274.82
874.025	4287.47
874.344	4275.95
874.663	4280.01
874.982	4205.44
875.301	4237.08
875.62	4237.98
875.939	4171.32
876.258	4206.12
876.577	4188.27
876.896	4170.41
877.214	4180.81
877.533	4176.74
877.852	4191.88
878.17	4174.71
878.489	4219.23
878.807	4159.79
879.125	4136.06
879.444	4147.14
879.762	4143.3
880.08	4165.67
880.398	4098.55
880.716	4102.84
881.034	4103.52
881.352	4079.57
881.67	4067.36
881.988	4048.38
882.306	4021.04
882.624	4059.91
882.941	4080.02
883.259	3999.57
883.577	4009.29
883.894	3998.44
884.212	4014.26
884.529	4013.58
884.846	3996.41
885.164	3943.98
885.481	3947.82
885.798	3979.46
886.115	3959.35
886.432	3953.92
886.75	3925
887.067	3907.82
887.383	3933.13
887.7	3933.13
888.017	3892.45
888.334	3883.19
888.651	3872.12
888.967	3880.48
889.284	3847.26
889.6	3822.85
889.917	3814.49
890.233	3845.9
890.55	3826.24
890.866	3828.28
891.182	3793.93
891.498	3789.86
891.815	3795.28
892.131	3758.22
892.447	3740.59
892.763	3705.34
893.079	3744.44
893.395	3708.05
893.71	3722.52
894.026	3696.98
894.342	3693.36
894.657	3686.58
894.973	3697.43
895.289	3713.93
895.604	3665.34
895.92	3618.56
896.235	3592.35
896.55	3617.89
896.865	3645.91
897.181	3605.68
897.496	3604.55
897.811	3572.91
898.126	3584.44
898.441	3550.77
898.756	3553.25
899.071	3532.01
899.386	3558.23
899.7	3499.02
900.015	3502.41
900.33	3449.3
900.644	3502.18
900.959	3485.01
901.273	3503.76
901.588	3484.78
901.902	3409.08
902.216	3402.07
902.531	3438.45
902.845	3431
903.159	3400.04
903.473	3376.99
903.787	3369.53
904.101	3329.76
904.415	3366.37
904.729	3335.63
905.042	3292.02
905.356	3273.04
905.67	3312.13
905.984	3304.67
906.297	3264.67
906.611	3242.75
906.924	3228.06
907.237	3232.81
907.551	3214.28
907.864	3232.13
908.177	3229.87
908.491	3193.26
908.804	3206.14
909.117	3167.28
909.43	3140.38
909.743	3129.99
910.056	3139.93
910.368	3126.15
910.681	3108.07
910.994	3126.82
911.307	3103.32
911.619	3067.84
911.932	3056.77
912.244	3041.86
912.557	3074.62
912.869	3052.48
913.181	3026.94
913.494	3014.74
913.806	3014.74
914.118	2994.85
914.43	3025.81
914.742	2938.13
915.054	2986.72
915.366	2958.69
915.678	2974.06
915.99	2918.02
916.302	2949.43
916.613	2896.32
916.925	2901.29
917.236	2904.46
917.548	2874.63
917.859	2862.2
918.171	2848.87
918.482	2874.85
918.794	2851.8
919.105	2826.95
919.416	2804.8
919.727	2805.03
920.038	2789.43
920.349	2767.96
920.66	2781.52
920.971	2756.44
921.282	2762.99
921.593	2743.56
921.903	2749.66
922.214	2691.13
922.525	2752.15
922.835	2675.99
923.146	2661.3
923.456	2644.8
923.767	2657.01
924.077	2624.24
924.387	2630.34
924.697	2616.1
925.008	2625.37
925.318	2617.46
925.628	2638.02
925.938	2584.01
926.248	2573.84
926.558	2566.39
926.867	2586.5
927.177	2576.78
927.487	2537.24
927.796	2479.38
928.106	2507.41
928.416	2481.64
928.725	2515.09
929.034	2523.22
929.344	2476.22
929.653	2487.07
929.962	2474.86
930.271	2449.78
930.581	2425.15
930.89	2423.34
931.199	2421.98
931.508	2416.33
931.817	2418.59
932.125	2428.09
932.434	2433.96
932.743	2386.96
933.051	2382.44
933.36	2391.48
933.669	2349.9
933.977	2368.43
934.286	2329.56
934.594	2345.6
934.902	2356.22
935.21	2304.02
935.519	2313.06
935.827	2287.3
936.135	2299.05
936.443	2306.73
936.751	2266.51
937.059	2251.82
937.367	2252.05
937.674	2244.36
937.982	2236.9
938.29	2217.02
938.597	2245.94
938.905	2252.27
939.213	2214.53
939.52	2207.75
939.827	2232.16
940.135	2225.83
940.442	2186.06
940.749	2191.48
941.056	2177.02
941.363	2148.77
941.67	2143.57
941.977	2131.6
942.284	2115.1
942.591	2099.05
942.898	2150.81
943.205	2113.29
943.511	2096.57
943.818	2096.8
944.125	2082.11
944.431	2068.1
944.738	2076.68
945.044	2034.42
945.35	2068.32
945.657	2006.63
945.963	2019.51
946.269	2052.95
946.575	2036.68
946.881	2011.6
947.187	2000.3
947.493	1986.29
947.799	1972.28
948.105	1991.94
948.41	1960.08
948.716	2001.88
949.022	1976.57
949.327	1971.6
949.633	1944.93
949.938	1952.84
950.244	1958.49
950.549	1892.51
950.854	1897.25
951.16	1937.48
951.465	1894.31
951.77	1887.08
952.075	1890.25
952.38	1909.91
952.685	1875.56
952.99	1874.2
953.294	1858.16
953.599	1861.77
953.904	1859.51
954.209	1835.56
954.513	1851.6
954.818	1823.81
955.122	1860.19
955.426	1794.88
955.731	1806.86
956.035	1823.36
956.339	1812.28
956.643	1814.32
956.948	1776.58
957.252	1787.42
957.556	1789.23
957.86	1766.86
958.163	1754.43
958.467	1749.69
958.771	1732.06
959.075	1758.27
959.378	1747.43
959.682	1728.44
959.985	1721.21
960.289	1725.73
960.592	1711.27
960.896	1729.12
961.199	1682.79
961.502	1685.28
961.805	1693.64
962.108	1667.43
962.411	1642.57
962.714	1659.29
963.017	1647.54
963.32	1657.48
963.623	1633.53
963.926	1665.85
964.228	1625.4
964.531	1601.44
964.833	1629.24
965.136	1612.29
965.438	1609.8
965.741	1629.01
966.043	1588.11
966.345	1614.32
966.648	1586.3
966.95	1594.44
967.252	1575
967.554	1565.74
967.856	1559.63
968.158	1562.57
968.46	1540.88
968.761	1552.4
969.063	1516.47
969.365	1531.16
969.666	1573.19
969.968	1527.54
970.269	1508.11
970.571	1516.02
970.872	1497.71
971.174	1514.44
971.475	1510.37
971.776	1475.12
972.077	1474.89
972.378	1470.82
972.679	1472.63
972.98	1457.94
973.281	1458.17
973.582	1439.86
973.883	1444.83
974.183	1446.42
974.484	1431.73
974.785	1426.53
975.085	1455.68
975.386	1462.01
975.686	1406.42
975.986	1431.95
976.287	1428.11
976.587	1408.45
976.887	1391.95
977.187	1393.08
977.487	1404.16
977.787	1346.31
978.087	1382.24
978.387	1366.64
978.687	1365.51
978.987	1353.31
979.286	1352.86
979.586	1385.85
979.885	1339.98
980.185	1353.76
980.484	1363.93
980.784	1332.3
981.083	1347.21
981.382	1332.52
981.682	1366.87
981.981	1322.8
982.28	1291.84
982.579	1309.02
982.878	1316.48
983.177	1310.83
983.475	1299.98
983.774	1271.05
984.073	1275.12
984.372	1273.09
984.67	1291.17
984.969	1277.61
985.267	1276.03
985.566	1273.54
985.864	1254.33
986.162	1248.68
986.461	1243.94
986.759	1228.34
987.057	1233.99
987.355	1223.37
987.653	1232.64
987.951	1219.53
988.249	1253.88
988.547	1239.19
988.844	1231.06
989.142	1223.82
989.44	1218.4
989.737	1188.57
990.035	1198.06
990.332	1195.12
990.63	1181.34
990.927	1178.85
991.224	1172.53
991.521	1169.36
991.819	1176.59
992.116	1151.51
992.413	1145.41
992.71	1173.88
993.006	1152.19
993.303	1139.08
993.6	1156.25
993.897	1134.11
994.193	1149.48
994.49	1137.95
994.787	1125.07
995.083	1101.57
995.379	1121.91
995.676	1118.29
995.972	1121.23
996.268	1120.32
996.565	1130.72
996.861	1126.43
997.157	1089.14
997.453	1099.31
997.749	1109.48
998.044	1092.08
998.34	1079.65
998.636	1089.36
998.932	1088.23
999.227	1076.93
999.523	1068.12
999.818	1070.16
1000.114	1048.91
1000.409	1040.33
1000.704	1029.03
1001	1012.53
1001.295	1043.94
1001.59	1016.82
1001.885	994.45
1002.18	1043.94
1002.475	1003.49
1002.77	1006.65
1003.065	1006.2
1003.359	990.38
1003.654	991.51
1003.949	1000.78
1004.243	995.81
1004.538	980.44
1004.832	990.84
1005.127	988.58
1005.421	980.89
1005.715	967.11
1006.009	947.67
1006.304	968.46
1006.598	959.42
1006.892	960.55
1007.186	936.37
1007.48	891.86
1007.773	946.32
1008.067	923.27
1008.361	945.86
1008.655	924.62
1008.948	917.17
1009.242	947.67
1009.535	901.8
1009.829	926.88
1010.122	897.28
1010.415	911.06
1010.708	893.44
1011.001	885.53
1011.295	899.31
1011.588	900.67
1011.881	874.45
1012.173	877.39
1012.466	877.84
1012.759	861.57
1013.052	883.04
1013.344	853.44
1013.637	889.37
1013.93	869.26
1014.222	832.65
1014.514	859.99
1014.807	838.07
1015.099	826.09
1015.391	855.7
1015.683	828.81
1015.976	835.81
1016.268	835.36
1016.56	821.35
1016.851	824.96
1017.143	823.83
1017.435	811.18
1017.727	798.52
1018.018	808.02
1018.31	794.68
1018.602	784.74
1018.893	776.6
1019.185	791.97
1019.476	767.11
1019.767	791.74
1020.058	787
1020.35	769.37
1020.641	758.75
1020.932	775.47
1021.223	752.42
1021.514	754.01
1021.804	753.1
1022.095	744.97
1022.386	744.97
1022.677	748.81
1022.967	727.79
1023.258	753.78
1023.548	753.1
1023.839	735.93
1024.129	719.2
1024.419	746.1
1024.709	734.12
1025	712.42
1025.29	727.79
1025.58	697.28
1025.87	689.15
1026.16	702.48
1026.449	698.19
1026.739	706.78
1027.029	709.04
1027.319	674.91
1027.608	681.69
1027.898	692.54
1028.187	653.22
1028.477	666.32
1028.766	666.55
1029.055	681.24
1029.344	645.31
1029.634	660.9
1029.923	656.83
1030.212	668.36
1030.501	669.04
1030.79	664.06
1031.078	647.57
1031.367	653.9
1031.656	630.62
1031.945	662.71
1032.233	658.64
1032.522	630.84
1032.81	615.93
1033.099	626.78
1033.387	620.68
1033.675	618.87
1033.963	638.75
1034.251	637.4
1034.54	635.82
1034.828	601.02
1035.116	589.49
1035.403	599.21
1035.691	591.75
1035.979	615.7
1036.267	587.91
1036.554	608.25
1036.842	607.34
1037.129	581.58
1037.417	582.94
1037.704	596.72
1037.992	566.21
1038.279	602.6
1038.566	589.94
1038.853	589.94
1039.14	589.94
