Data from brown_tile_FLMS001491_010.txt Node
Date: Tue Feb 07 10:37:00 GMT 2017
User: dcchb
Spectrometer: FLMS00149
Trigger mode: 0
Integration Time (sec): 2.000000E-2
Scans to average: 10
Electric dark correction enabled: true
Nonlinearity correction enabled: false
Boxcar width: 0
XAxis mode: Wavelengths
Number of Pixels in Spectrum: 2048
>>>>>Begin Spectral Data<<<<<
341.393	-26.57
341.776	-26.57
342.16	-26.57
342.543	-74.7
342.927	-67.7
343.31	-80.35
343.693	-62.27
344.077	-57.53
344.46	-60.69
344.843	-64.76
345.226	-57.07
345.61	-10.97
345.993	12.08
346.376	-13.46
346.759	7.56
347.142	26.76
347.525	64.05
347.908	64.05
348.291	65.86
348.674	74
349.057	92.75
349.44	125.29
349.823	132.52
350.206	153.32
350.588	162.81
350.971	202.35
351.354	209.13
351.737	239.19
352.119	240.77
352.502	246.19
352.884	255.69
353.267	285.06
353.65	254.1
354.032	278.96
354.414	293.42
354.797	299.07
355.179	323.25
355.562	328.45
355.944	313.99
356.326	304.72
356.709	327.1
357.091	313.31
357.473	335.23
357.855	302.24
358.238	318.06
358.62	325.97
359.002	331.39
359.384	338.4
359.766	316.7
360.148	330.94
360.53	328.68
360.912	316.47
361.294	333.42
361.676	321.9
362.057	300.88
362.439	353.76
362.821	329.81
363.203	309.92
363.584	297.49
363.966	303.59
364.348	306.53
364.729	306.08
365.111	314.67
365.493	320.32
365.874	314.44
366.256	317.38
366.637	304.05
367.019	320.77
367.4	284.16
367.781	320.99
368.163	292.75
368.544	307.89
368.925	296.81
369.306	320.32
369.688	299.98
370.069	294.78
370.45	297.72
370.831	313.31
371.212	322.58
371.593	316.93
371.974	301.33
372.355	300.2
372.736	292.75
373.117	304.27
373.498	309.92
373.879	312.63
374.26	297.72
374.641	317.83
375.021	300.66
375.402	292.52
375.783	308.57
376.163	312.18
376.544	330.03
376.925	328
377.305	309.92
377.686	311.05
378.066	313.08
378.447	317.15
378.827	319.64
379.208	327.1
379.588	312.18
379.968	301.33
380.349	333.42
380.729	318.51
381.109	318.06
381.489	314.89
381.87	337.04
382.25	321.45
382.63	340.2
383.01	305.4
383.39	345.17
383.77	335.23
384.15	324.84
384.53	334.78
384.91	335.91
385.29	341.33
385.67	351.28
386.049	344.95
386.429	344.5
386.809	358.06
387.189	353.99
387.568	339.52
387.948	330.94
388.328	357.38
388.707	354.89
389.087	335.46
389.466	338.17
389.846	336.81
390.225	348.56
390.605	341.11
390.984	355.8
391.363	370.26
391.743	356.02
392.122	385.17
392.501	384.72
392.881	363.93
393.26	365.06
393.639	348.79
394.018	351.05
394.397	357.15
394.776	363.03
395.155	364.38
395.534	363.93
395.913	362.12
396.292	366.19
396.671	363.71
397.05	374.33
397.429	368.45
397.808	394.44
398.186	370.26
398.565	366.64
398.944	364.61
399.323	403.25
399.701	385.17
400.08	408.68
400.458	408.22
400.837	397.83
401.215	406.19
401.594	403.03
401.972	391.73
402.351	386.76
402.729	413.87
403.107	369.13
403.486	413.87
403.864	386.53
404.242	394.66
404.62	391.05
404.999	384.04
405.377	427.66
405.755	411.39
406.133	422.69
406.511	409.13
406.889	429.47
407.267	428.56
407.645	439.86
408.023	423.14
408.401	421.56
408.779	425.85
409.156	414.1
409.534	426.53
409.912	441.9
410.29	438.73
410.667	437.15
411.045	457.49
411.422	457.94
411.8	444.38
412.178	457.26
412.555	460.88
412.933	460.88
413.31	488.45
413.687	463.36
414.065	459.75
414.442	478.5
414.819	480.09
415.197	456.58
415.574	483.7
415.951	477.83
416.328	485.96
416.705	490.71
417.082	496.81
417.46	511.27
417.837	499.97
418.214	481.67
418.591	521.89
418.967	508.79
419.344	503.36
419.721	503.36
420.098	505.4
420.475	516.47
420.852	523.7
421.228	518.73
421.605	507.66
421.982	529.58
422.358	506.53
422.735	529.8
423.111	538.39
423.488	520.31
423.864	542.23
424.241	531.61
424.617	540.2
424.994	553.98
425.37	562.8
425.746	550.59
426.123	530.93
426.499	550.82
426.875	574.32
427.251	563.93
427.627	588.56
428.003	550.14
428.379	600.54
428.756	577.71
429.132	593.53
429.507	601.44
429.883	602.79
430.259	595.34
430.635	587.2
431.011	617.48
431.387	617.26
431.763	612.29
432.138	599.18
432.514	638.73
432.89	661.32
433.265	636.92
433.641	655
434.016	626.98
434.392	655.9
434.767	647.99
435.143	668.78
435.518	656.35
435.894	662
436.269	695.45
436.644	675.79
437.02	669.01
437.395	683.92
437.77	670.36
438.145	724.37
438.52	726.86
438.895	716.69
439.271	717.59
439.646	729.35
440.021	710.36
440.395	727.09
440.77	722.11
441.145	729.35
441.52	750.14
441.895	736.8
442.27	745.84
442.645	759.85
443.019	757.82
443.394	765.5
443.769	770.7
444.143	758.95
444.518	789.68
444.892	765.73
445.267	784.03
445.641	764.6
446.016	786.07
446.39	779.97
446.764	791.94
447.139	776.35
447.513	790.59
447.887	802.11
448.262	791.94
448.636	786.07
449.01	817.25
449.384	791.94
449.758	843.47
450.132	811.15
450.506	831.04
450.88	846.86
451.254	822.45
451.628	847.76
452.002	862.9
452.376	866.74
452.75	854.09
453.123	874.65
453.497	878.95
453.871	886.18
454.244	910.36
454.618	894.09
454.992	922.79
455.365	938.15
455.739	906.06
456.112	937.7
456.486	973.86
456.859	972.73
457.232	960.3
457.606	971.82
457.979	968.66
458.352	986.06
458.725	1008.66
459.099	1003.24
459.472	990.36
459.845	1023.35
460.218	1028.55
460.591	1037.81
460.964	1038.26
461.337	1047.3
461.71	1069.45
462.083	1086.62
462.456	1070.81
462.829	1093.63
463.201	1094.76
463.574	1097.25
463.947	1117.58
464.32	1167.07
464.692	1151.71
465.065	1151.03
465.438	1179.28
465.81	1174.08
466.183	1199.62
466.555	1208.65
466.928	1211.14
467.3	1206.62
467.672	1226.96
468.045	1272.16
468.417	1259.27
468.789	1275.09
469.161	1275.09
469.534	1303.34
469.906	1317.13
470.278	1329.78
470.65	1323
471.022	1338.59
471.394	1393.96
471.766	1364.36
472.138	1414.3
472.51	1428.76
472.882	1456.56
473.253	1446.39
473.625	1479.38
473.997	1511.7
474.369	1505.82
474.74	1511.92
475.112	1554.86
475.484	1573.16
475.855	1565.93
476.227	1582.88
476.598	1640.51
476.97	1638.25
477.341	1659.49
477.713	1692.48
478.084	1713.95
478.455	1738.81
478.827	1780.62
479.198	1800.5
479.569	1838.69
479.94	1850.22
480.311	1856.1
480.682	1886.15
481.053	1901.52
481.424	1933.61
481.795	1979.26
482.166	2012.25
482.537	2019.25
482.908	2055.19
483.279	2039.59
483.65	2118.91
484.021	2167.05
484.391	2178.57
484.762	2188.97
485.133	2212.92
485.503	2223.09
485.874	2260.38
486.244	2316.65
486.615	2346.93
486.985	2376.08
487.356	2380.83
487.726	2456.08
488.097	2461.05
488.467	2465.12
488.837	2513.48
489.207	2534.95
489.578	2558.45
489.948	2584.44
490.318	2620.59
490.688	2680.03
491.058	2666.7
491.428	2698.56
491.798	2736.52
492.168	2782.17
492.538	2770.87
492.908	2778.33
493.278	2850.87
493.648	2860.81
494.017	2880.48
494.387	2926.35
494.757	2948.27
495.126	2989.85
495.496	2991.66
495.866	3033.01
496.235	3038.21
496.605	3070.07
496.974	3090.19
497.344	3066.01
497.713	3094.93
498.082	3157.53
498.452	3179.9
498.821	3200.47
499.19	3210.41
499.559	3216.51
499.928	3296.28
500.298	3227.81
500.667	3329.28
501.036	3329.5
501.405	3352.33
501.774	3372.67
502.143	3363.63
502.512	3389.84
502.88	3448.37
503.249	3426.9
503.618	3497.63
503.987	3503.51
504.356	3532.21
504.724	3533.79
505.093	3536.5
505.462	3583.51
505.83	3571.98
506.199	3635.71
506.567	3685.43
506.936	3673.9
507.304	3680
507.672	3675.03
508.041	3749.6
508.409	3768.36
508.777	3776.95
509.145	3836.16
509.514	3826.21
509.882	3849.49
510.25	3889.49
510.618	3938.98
510.986	3939.2
511.354	3942.14
511.722	4014.23
512.09	4032.99
512.458	4035.7
512.826	4065.08
513.193	4083.16
513.561	4088.8
513.929	4201.8
514.297	4185.53
514.664	4214.45
515.032	4253.77
515.4	4264.85
515.767	4270.72
516.135	4315.69
516.502	4275.01
516.869	4357.72
517.237	4385.75
517.604	4414.45
517.972	4496.48
518.339	4501.22
518.706	4525.86
519.073	4544.39
519.44	4575.12
519.808	4576.48
520.175	4652.41
520.542	4668.45
520.909	4692.18
521.276	4722.69
521.643	4764.95
522.009	4846.3
522.376	4849.91
522.743	4873.64
523.11	4915.68
523.477	4955.67
523.843	5032.96
524.21	5052.62
524.577	5098.04
524.943	5147.76
525.31	5170.13
525.676	5238.15
526.043	5276.8
526.409	5288.77
526.776	5321.31
527.142	5376.23
527.508	5424.81
527.874	5442.67
528.241	5481.08
528.607	5480.86
528.973	5540.29
529.339	5558.6
529.705	5603.34
530.071	5669.55
530.437	5683.34
530.803	5723.56
531.169	5757.91
531.535	5793.39
531.901	5818.48
532.267	5819.15
532.632	5896.44
532.998	5976.89
533.364	5913.62
533.73	5976.89
534.095	6058.02
534.461	6091.46
534.826	6076.78
535.192	6159.48
535.557	6173.04
535.923	6164.23
536.288	6215.53
536.653	6291.46
537.019	6306.37
537.384	6293.49
537.749	6409.87
538.114	6423.43
538.479	6385.92
538.845	6415.75
539.21	6431.79
539.575	6502.75
539.94	6551.34
540.305	6575.52
540.67	6583.43
541.034	6631.56
541.399	6673.37
541.764	6718.57
542.129	6734.61
542.494	6810.99
542.858	6865.91
543.223	6814.16
543.587	6921.72
543.952	6916.3
544.316	6953.14
544.681	7003.76
545.045	6975.06
545.41	7042.85
545.774	7144.77
546.138	7115.84
546.503	7197.42
546.867	7178.22
547.231	7324.88
547.595	7302.28
547.959	7384.31
548.324	7446.68
548.688	7422.95
549.052	7525.55
549.416	7523.29
549.779	7567.36
550.143	7579.56
550.507	7754.25
550.871	7727.81
551.235	7799.67
551.599	7840.8
551.962	7909.27
552.326	7911.08
552.689	7963.51
553.053	7996.27
553.417	8051.64
553.78	8183.39
554.143	8140.22
554.507	8264.74
554.87	8295.93
555.234	8399.65
555.597	8400.33
555.96	8469.93
556.323	8551.96
556.686	8626.31
557.05	8683.94
557.413	8662.24
557.776	8746.31
558.139	8887.32
558.502	8926.42
558.865	8912.86
559.228	9068.79
559.59	9078.05
559.953	9163.47
560.316	9313.98
560.679	9324.37
561.041	9481.66
561.404	9523.01
561.767	9612.73
562.129	9702.67
562.492	9804.36
562.854	9873.29
563.217	9892.27
563.579	10000.29
563.941	10068.53
564.304	10147.63
564.666	10288.64
565.028	10306.95
565.39	10385.36
565.753	10525.7
566.115	10591.46
566.477	10692.93
566.839	10700.16
567.201	10851.11
567.563	10959.58
567.925	11063.08
568.287	11125.46
568.648	11240.93
569.01	11329.97
569.372	11413.81
569.734	11421.27
570.095	11657.19
570.457	11662.39
570.819	11755.04
571.18	11859.45
571.542	11915.94
571.903	12091.98
572.265	12060.8
572.626	12184.19
572.987	12300.57
573.349	12327.91
573.71	12390.96
574.071	12482.26
574.432	12661.23
574.794	12737.39
575.155	12764.73
575.516	12836.82
575.877	12924.05
576.238	12962.02
576.599	13102.35
576.96	13216.25
577.32	13220.99
577.681	13333.53
578.042	13474.55
578.403	13423.47
578.763	13527.2
579.124	13643.81
579.485	13703.24
579.845	13746.4
580.206	13865.27
580.566	13802
580.927	13965.16
581.287	14067.98
581.648	14096.23
582.008	14223.45
582.368	14256.22
582.728	14307.75
583.089	14320.63
583.449	14379.16
583.809	14477.46
584.169	14573.95
584.529	14454.63
584.889	14731.69
585.249	14613.5
585.609	14634.52
585.969	14809.88
586.329	14787.05
586.688	14885.81
587.048	14851.46
587.408	14947.95
587.768	14968.29
588.127	14964.68
588.487	15108.63
588.846	15226.82
589.206	15125.35
589.565	15189.76
589.925	15406.93
590.284	15233.37
590.643	15367.83
591.003	15442.4
591.362	15489.86
591.721	15481.05
592.08	15561.05
592.44	15665.22
592.799	15591.33
593.158	15693.92
593.517	15699.12
593.876	15822.96
594.235	15761.04
594.593	15814.82
594.952	15889.85
595.311	15871.32
595.67	15892.79
596.029	16128.26
596.387	16118.77
596.746	16088.26
597.104	16122.84
597.463	16076.74
597.822	16208.26
598.18	16171.88
598.538	16203.97
598.897	16333.91
599.255	16257.52
599.613	16488.48
599.972	16432.44
600.33	16589.49
600.688	16476.95
601.046	16589.49
601.404	16598.98
601.762	16582.94
602.12	16681.02
602.478	16751.75
602.836	16787.91
603.194	16770.28
603.552	16735.25
603.91	16751.97
604.268	16906.55
604.625	16869.94
604.983	16947.45
605.341	16881.91
605.698	17018.18
606.056	17043.49
606.413	17037.62
606.771	17142.25
607.128	17161
607.485	17049.37
607.843	17109.25
608.2	17193.09
608.557	17302.47
608.914	17190.38
609.272	17431.05
609.629	17453.88
609.986	17442.13
610.343	17413.88
610.7	17538.85
611.057	17424.5
611.414	17589.01
611.771	17580.88
612.127	17627.43
612.484	17652.52
612.841	17749.91
613.198	17672.63
613.554	17729.35
613.911	17799.18
614.267	17879.18
614.624	17805.51
614.98	17777.71
615.337	18044.82
615.693	17793.53
616.05	17940.87
616.406	18073.75
616.762	18029.68
617.118	17988.55
617.475	17999.63
617.831	18073.3
618.187	18205.72
618.543	18107.19
618.899	18232.84
619.255	18088.89
619.611	18142.9
619.967	18320.52
620.323	18415.66
620.678	18232.84
621.034	18207.98
621.39	18254.08
621.746	18296.57
622.101	18473.29
622.457	18256.12
622.812	18360.52
623.168	18395.32
623.523	18440.97
623.879	18445.72
624.234	18301.99
624.589	18471.7
624.945	18421.08
625.3	18511.7
625.655	18475.32
626.01	18497.01
626.365	18546.96
626.72	18407.75
627.075	18491.59
627.43	18471.48
627.785	18473.29
628.14	18514.87
628.495	18504.92
628.85	18565.03
629.205	18409.33
629.559	18500.86
629.914	18448.43
630.269	18470.8
630.623	18433.74
630.978	18350.12
631.332	18517.58
631.687	18565.71
632.041	18382.67
632.396	18457.01
632.75	18310.35
633.104	18346.28
633.459	18212.5
633.813	18334.53
634.167	18277.13
634.521	18258.38
634.875	18315.1
635.229	18269
635.583	18212.95
635.937	18147.64
636.291	18192.16
636.645	18231.03
636.999	18174.76
637.352	18187.64
637.706	18177.25
638.06	18143.35
638.413	18171.6
638.767	18123.69
639.121	18261.99
639.474	18123.92
639.828	18061.09
640.181	18013.18
640.534	18101.32
640.888	18043.24
641.241	17988.33
641.594	17977.71
641.947	17965.28
642.301	17923.47
642.654	18066.06
643.007	18003.24
643.36	17965.05
643.713	17926.18
644.066	18027.2
644.419	17912.85
644.771	17787.65
645.124	17667.88
645.477	17619.07
645.83	17430.83
646.182	17470.15
646.535	17411.84
646.888	17483.25
647.24	17365.29
647.593	17453.88
647.945	17432.63
648.298	17371.85
648.65	17257.72
649.002	17310.38
649.355	17365.74
649.707	17372.07
650.059	17325.52
650.411	17696.13
650.763	17713.08
651.115	17882.57
651.467	17785.17
651.819	17771.38
652.171	17761.21
652.523	17688.45
652.875	17671.05
653.227	17681.89
653.578	17698.39
653.93	17685.28
654.282	17616.58
654.633	17598.73
654.985	17661.56
655.337	17746.98
655.688	17699.97
656.039	17778.39
656.391	17529.58
656.742	17648.22
657.094	17673.08
657.445	17723.02
657.796	17645.06
658.147	17638.96
658.498	17686.64
658.849	17615.68
659.2	17647.09
659.551	17598.73
659.902	17625.62
660.253	17654.78
660.604	17633.99
660.955	17569.13
661.306	17686.87
661.656	17530.71
662.007	17591.73
662.358	17635.57
662.708	17669.46
663.059	17644.61
663.409	17576.59
663.76	17681.67
664.11	17670.14
664.461	17655.45
664.811	17690.93
665.161	17685.06
665.511	17587.43
665.862	17648.67
666.212	17735.9
666.562	17765.06
666.912	17716.24
667.262	17713.76
667.612	17661.56
667.962	17692.29
668.312	17649.35
668.662	17794.89
669.011	17693.64
669.361	17758.5
669.711	17611.84
670.06	17743.14
670.41	17726.64
670.76	17672.85
671.109	17805.51
671.459	17791.27
671.808	17687.09
672.157	17717.83
672.507	17618.84
672.856	17646.19
673.205	17646.87
673.554	17739.52
673.904	17697.03
674.253	17745.17
674.602	17774.32
674.951	17465.4
675.3	17388.57
675.649	17759.63
675.998	17671.72
676.346	17675.57
676.695	17778.61
677.044	17649.58
677.393	17687.32
677.741	17736.81
678.09	17662.69
678.438	17687.32
678.787	17716.24
679.135	17777.71
679.484	17669.92
679.832	17556.7
680.181	17579.52
680.529	17678.5
680.877	17677.37
681.225	17609.13
681.573	17704.72
681.922	17572.74
682.27	17600.54
682.618	17583.14
682.966	17558.96
683.314	17650.93
683.661	17606.19
684.009	17522.35
684.357	17533.2
684.705	17521.9
685.053	17448.68
685.4	17501.79
685.748	17325.29
686.095	17462.24
686.443	17311.51
686.79	17318.74
687.138	17388.79
687.485	17433.31
687.832	17236.03
688.18	17330.72
688.527	17223.15
688.874	17203.94
689.221	17219.99
689.568	17232.41
689.915	17139.54
690.262	17150.83
690.609	17104.51
690.956	17106.32
691.303	16997.17
691.65	17027.9
691.997	17139.76
692.344	16959.88
692.69	16914
693.037	17013.21
693.383	16739.55
693.73	17001.69
694.077	16804.18
694.423	16811.63
694.769	16725.31
695.116	16743.84
695.462	16657.29
695.808	16638.98
696.155	16678.98
696.501	16655.93
696.847	16732.77
697.193	16481.25
697.539	16586.1
697.885	16483.73
698.231	16423.62
698.577	16475.82
698.923	16524.86
699.269	16338.43
699.614	16323.74
699.96	16336.17
700.306	16350.86
700.651	16323.74
700.997	16188.83
701.342	16208.03
701.688	16208.26
702.033	16212.78
702.379	16209.16
702.724	16095.72
703.069	16221.82
703.415	16040.81
703.76	16022.95
704.105	16024.54
704.45	15959.68
704.795	15959.68
705.14	15852.56
705.485	15969.4
705.83	15829.97
706.175	15882.62
706.52	15806.69
706.865	15736.41
707.209	15854.37
707.554	15766.24
707.899	15836.29
708.243	15758.33
708.588	15688.73
708.932	15663.42
709.277	15618.45
709.621	15661.16
709.966	15589.07
710.31	15638.56
710.654	15486.7
710.998	15545.23
711.342	15662.51
711.687	15496.87
712.031	15378
712.375	15396.3
712.719	15350.88
713.063	15407.83
713.407	15530.99
713.75	15465.23
714.094	15343.42
714.438	15319.92
714.782	15341.84
715.125	15242.41
715.469	15354.72
715.812	15217.1
716.156	15173.71
716.499	15100.04
716.843	15195.41
717.186	15141.4
717.53	15142.07
717.873	15240.15
718.216	15145.46
718.559	15127.38
718.902	14976.88
719.246	15098.23
719.589	15078.57
719.932	14937.56
720.275	14961.06
720.617	14994.51
720.96	14948.86
721.303	14969.2
721.646	14931.01
721.989	14831.35
722.331	14959.71
722.674	14926.03
723.016	14857.56
723.359	14811.01
723.701	14925.81
724.044	14876.77
724.386	14726.04
724.729	14802.2
725.071	14702.09
725.413	14782.08
725.755	14834.51
726.097	14719.49
726.439	14708.64
726.782	14712.25
727.124	14766.72
727.465	14648.75
727.807	14655.76
728.149	14619.38
728.491	14616.21
728.833	14684.46
729.175	14525.14
729.516	14545.25
729.858	14630.22
730.199	14608.98
730.541	14600.84
730.882	14504.12
731.224	14672.03
731.565	14507.06
731.906	14504.58
732.248	14472.71
732.589	14465.03
732.93	14454.86
733.271	14412.15
733.612	14519.27
733.953	14468.19
734.294	14441.53
734.635	14404.01
734.976	14488.53
735.317	14397.01
735.658	14411.47
735.999	14332.38
736.339	14353.39
736.68	14387.74
737.021	14340.51
737.361	14231.14
737.702	14353.85
738.042	14300.29
738.383	14374.86
738.723	14253.96
739.063	14210.57
739.404	14306.16
739.744	14206.73
740.084	14195.43
740.424	14195.88
740.764	14120.41
741.104	14282.66
741.444	14172.16
741.784	14038.6
742.124	14104.59
742.464	14075.66
742.804	14086.28
743.143	14003.57
743.483	14056.45
743.823	14001.31
744.162	13951.6
744.502	13967.64
744.841	13863.46
745.181	13963.57
745.52	13893.52
745.86	13928.77
746.199	13921.54
746.538	13848.1
746.877	13849.23
747.216	13825.95
747.556	13765.84
747.895	13747.99
748.234	13652.62
748.573	13743.47
748.911	13665.05
749.25	13716.35
749.589	13674.32
749.928	13668.21
750.267	13701.66
750.605	13595.9
750.944	13636.58
751.283	13523.81
751.621	13564.04
751.96	13456.69
752.298	13454.21
752.636	13498.28
752.975	13402.68
753.313	13314.78
753.651	13436.58
753.989	13318.39
754.327	13298.73
754.666	13209.02
755.004	13290.6
755.342	13256.25
755.679	13275.91
756.017	13194.1
756.355	13167.44
756.693	13088.12
757.031	13148.68
757.368	13153.65
757.706	13021
758.044	13028.68
758.381	12994.56
758.719	12951.85
759.056	12928.35
759.394	12775.81
759.731	12776.26
760.068	12767.9
760.405	12742.14
760.743	12644.51
761.08	12636.38
761.417	12607
761.754	12611.97
762.091	12550.5
762.428	12550.5
762.765	12474.8
763.102	12462.14
763.438	12425.31
763.775	12417.63
764.112	12289.27
764.449	12292.88
764.785	12343.05
765.122	12173.11
765.458	12141.47
765.795	12152.1
766.131	12145.77
766.467	12000.69
766.804	11898.09
767.14	11959.33
767.476	11954.59
767.812	11863.97
768.148	11858.09
768.485	11833.46
768.821	11751.65
769.157	11747.59
769.492	11781.48
769.828	11651.32
770.164	11537.2
770.5	11550.3
770.836	11526.12
771.171	11440.93
771.507	11414.26
771.842	11355.73
772.178	11300.59
772.513	11316.41
772.849	11254.04
773.184	11153.48
773.519	11244.77
773.855	11134.5
774.19	11019.47
774.525	11078
774.86	11083.2
775.195	11025.12
775.53	10932.24
775.865	10951.68
776.2	10803.2
776.535	10772.02
776.87	10730.66
777.205	10772.7
777.539	10656.77
777.874	10629.2
778.209	10542.65
778.543	10526.38
778.878	10463.1
779.212	10447.28
779.547	10380.62
779.881	10457
780.215	10335.19
780.55	10391.46
780.884	10253.16
781.218	10293.84
781.552	10331.35
781.886	10138.59
782.22	10136.56
782.554	10039.38
782.888	9954.41
783.222	9953.28
783.556	9919.84
783.889	9897.47
784.223	9807.3
784.557	9753.29
784.89	9795.55
785.224	9713.06
785.557	9692.5
785.891	9741.09
786.224	9679.62
786.558	9640.07
786.891	9525.95
787.224	9555.78
787.557	9447.99
787.891	9459.74
788.224	9471.49
788.557	9406.18
788.89	9357.14
789.223	9403.02
789.556	9253.64
789.888	9229.23
790.221	9218.61
790.554	9152.63
790.887	9152.17
791.219	9142.91
791.552	9015
791.884	9078.05
792.217	8953.31
792.549	9005.29
792.882	8937.04
793.214	8892.75
793.546	8877.15
793.879	8850.94
794.211	8752.41
794.543	8793.54
794.875	8716.25
795.207	8777.95
795.539	8659.98
795.871	8685.75
796.203	8604.62
796.535	8589.48
796.867	8555.13
797.198	8475.81
797.53	8540.44
797.862	8404.17
798.193	8474.68
798.525	8404.62
798.856	8368.01
799.188	8297.28
799.519	8280.79
799.85	8252.31
800.182	8241.69
800.513	8220.9
800.844	8116.72
801.175	8213.89
801.506	8138.87
801.837	8149.04
802.168	8135.48
802.499	7995.59
802.83	8024.07
803.161	8031.75
803.491	7969.83
803.822	7984.07
804.153	7883.73
804.483	7901.36
804.814	7909.72
805.145	7800.57
805.475	7840.12
805.805	7793.57
806.136	7722.38
806.466	7781.82
806.796	7716.05
807.126	7674.02
807.457	7627.47
807.787	7576.17
808.117	7558.32
808.447	7567.13
808.777	7548.15
809.107	7528.71
809.436	7483.97
809.766	7486.46
810.096	7480.35
810.426	7429.73
810.755	7380.7
811.085	7389.96
811.414	7291.88
811.744	7334.37
812.073	7333.92
812.403	7322.84
812.732	7182.96
813.061	7262.73
813.39	7196.75
813.719	7162.4
814.049	7220.02
814.378	7140.7
814.707	7094.83
815.036	7046.02
815.365	7035.39
815.693	6980.03
816.022	6992.01
816.351	6977.32
816.68	6939.58
817.008	6975.96
817.337	6851.9
817.665	6852.35
817.994	6904.78
818.322	6893.48
818.651	6877.21
818.979	6877.88
819.307	6856.42
819.636	6806.47
819.964	6731.67
820.292	6811.9
820.62	6773.71
820.948	6764.89
821.276	6822.29
821.604	6735.74
821.932	6784.78
822.259	6763.76
822.587	6729.87
822.915	6717.21
823.243	6712.92
823.57	6742.29
823.898	6714.72
824.225	6736.87
824.553	6652.35
824.88	6627.72
825.207	6703.88
825.535	6689.64
825.862	6658
826.189	6681.28
826.516	6654.39
826.843	6695.29
827.17	6693.93
827.497	6652.35
827.824	6679.92
828.151	6624.78
828.478	6644.44
828.805	6663.43
829.131	6566.25
829.458	6638.79
829.785	6568.97
830.111	6631.11
830.438	6594.5
830.764	6588.17
831.09	6616.2
831.417	6560.38
831.743	6609.19
832.069	6576.88
832.395	6533.26
832.722	6542.07
833.048	6595.63
833.374	6504.33
833.7	6542.75
834.026	6519.48
834.351	6562.19
834.677	6489.19
835.003	6506.59
835.329	6495.3
835.654	6449.42
835.98	6401.51
836.306	6501.4
836.631	6425.47
836.956	6450.1
837.282	6422.75
837.607	6410.33
837.932	6395.64
838.258	6425.24
838.583	6392.47
838.908	6337.79
839.233	6380.04
839.558	6334.4
839.883	6332.81
840.208	6300.27
840.533	6197.9
840.858	6269.99
841.182	6241.52
841.507	6242.19
841.832	6235.64
842.156	6233.38
842.481	6213.27
842.805	6182.08
843.13	6186.38
843.454	6174.63
843.778	6171.69
844.103	6129.43
844.427	6101.63
844.751	6110.45
845.075	6082.42
845.399	6098.7
845.723	6054.4
846.047	6080.84
846.371	6004.46
846.695	5985.7
847.019	5949.77
847.343	5935.54
847.666	5891.47
847.99	5874.75
848.313	5851.7
848.637	5793.39
848.96	5853.05
849.284	5808.31
849.607	5771.7
849.931	5719.04
850.254	5734.64
850.577	5666.62
850.9	5618.48
851.223	5608.99
851.546	5602.44
851.869	5564.02
852.192	5576.45
852.515	5531.03
852.838	5527.64
853.161	5539.61
853.483	5518.82
853.806	5442.22
854.129	5418.26
854.451	5427.53
854.774	5389.11
855.096	5418.26
855.419	5355.21
855.741	5387.53
856.063	5310.69
856.385	5323.35
856.708	5258.72
857.03	5264.37
857.352	5292.16
857.674	5218.72
857.996	5238.61
858.318	5199.06
858.64	5233.41
858.961	5204.71
859.283	5185.05
859.605	5180.53
859.926	5129.68
860.248	5105.28
860.57	5132.17
860.891	5133.07
861.212	5085.39
861.534	5057.59
861.855	5057.82
862.176	5087.42
862.498	5074.77
862.819	5072.28
863.14	4998.84
863.461	4985.96
863.782	5000.65
864.103	4945.73
864.424	4981.21
864.745	5011.72
865.065	4959.06
865.386	4950.03
865.707	4925.85
866.027	4948.22
866.348	4958.61
866.668	4900.31
866.989	4883.13
867.309	4886.98
867.63	4871.84
867.95	4872.97
868.27	4852.85
868.59	4866.86
868.91	4826.86
869.23	4831.84
869.55	4793.19
869.87	4790.93
870.19	4793.65
870.51	4848.11
870.83	4800.2
871.15	4770.37
871.469	4766.3
871.789	4763.59
872.109	4791.61
872.428	4756.58
872.748	4748.45
873.067	4723.59
873.386	4727.21
873.706	4743.7
874.025	4688.79
874.344	4668.22
874.663	4719.07
874.982	4695.34
875.301	4676.36
875.62	4635.01
875.939	4684.27
876.258	4679.07
876.577	4619.19
876.896	4616.25
877.214	4626.64
877.533	4633.88
877.852	4590.03
878.17	4631.16
878.489	4619.64
878.807	4566.31
879.125	4532.41
879.444	4587.77
879.762	4561.56
880.08	4549.81
880.398	4555.01
880.716	4518.62
881.034	4544.16
881.352	4526.31
881.67	4517.72
881.988	4526.31
882.306	4497.61
882.624	4442.02
882.941	4434.56
883.259	4448.34
883.577	4419.87
883.894	4420.1
884.212	4419.42
884.529	4400.66
884.846	4410.38
885.164	4367.44
885.481	4364.96
885.798	4370.38
886.115	4325.63
886.432	4372.19
886.75	4328.8
887.067	4342.81
887.383	4299.42
887.7	4338.97
888.017	4244.28
888.334	4300.32
888.651	4284.73
888.967	4315.24
889.284	4272.75
889.6	4263.72
889.917	4225.98
890.233	4224.17
890.55	4243.15
890.866	4195.24
891.182	4162.25
891.498	4195.92
891.815	4181.91
892.131	4126.54
892.447	4146.88
892.763	4148.92
893.079	4092.87
893.395	4075.92
893.71	4082.25
894.026	4072.76
894.342	4072.76
894.657	4060.78
894.973	4070.95
895.289	4052.87
895.604	4060.56
895.92	3964.74
896.235	3972.88
896.55	4020.56
896.865	4004.29
897.181	3934.23
897.496	4009.26
897.811	3971.07
898.126	3982.37
898.441	3904.4
898.756	3880.9
899.071	3911.86
899.386	3917.96
899.7	3843.16
900.015	3848.81
900.33	3823.28
900.644	3801.35
900.959	3791.86
901.273	3782.6
901.588	3767.01
901.902	3747.8
902.216	3748.25
902.531	3769.27
902.845	3700.79
903.159	3715.26
903.473	3698.31
903.787	3712.77
904.101	3633.68
904.415	3672.77
904.729	3657.63
905.042	3625.99
905.356	3628.03
905.67	3637.29
905.984	3603.62
906.297	3609.5
906.611	3575.37
906.924	3550.97
907.237	3566.78
907.551	3559.55
907.864	3537.18
908.177	3500.12
908.491	3510.97
908.804	3484.53
909.117	3464.87
909.43	3439.56
909.743	3448.14
910.056	3418.77
910.368	3442.72
910.681	3402.72
910.994	3397.75
911.307	3399.56
911.619	3333.8
911.932	3364.08
912.244	3362.72
912.557	3341.48
912.869	3348.03
913.181	3310.29
913.494	3281.37
913.806	3291.09
914.118	3261.71
914.43	3258.32
914.742	3258.54
915.054	3259.45
915.366	3246.79
915.678	3222.39
915.99	3218.09
916.302	3210.86
916.613	3222.84
916.925	3202.27
917.236	3156.17
917.548	3146
917.859	3166.34
918.171	3131.54
918.482	3140.58
918.794	3084.09
919.105	3124.31
919.416	3059.91
919.727	3090.87
920.038	3078.89
920.349	3056.74
920.66	3033.24
920.971	3010.87
921.282	3044.99
921.593	2964.54
921.903	2990.3
922.214	2979.23
922.525	2936.52
922.835	2949.4
923.146	2948.95
923.456	2921.6
923.767	2955.05
924.077	2908.95
924.387	2903.98
924.697	2873.47
925.008	2820.59
925.318	2890.87
925.628	2858.33
925.938	2862.4
926.248	2827.37
926.558	2830.76
926.867	2791.21
927.177	2834.83
927.487	2797.54
927.796	2764.09
928.106	2763.87
928.416	2748.5
928.725	2772.23
929.034	2717.99
929.344	2729.52
929.653	2732.91
929.962	2742.63
930.271	2697.88
930.581	2713.47
930.89	2652.46
931.199	2711.44
931.508	2655.17
931.817	2640.26
932.125	2628.73
932.434	2625.34
932.743	2628.05
933.051	2603.19
933.36	2599.35
933.669	2601.39
933.977	2576.53
934.286	2547.15
934.594	2563.2
934.902	2511.67
935.21	2543.99
935.519	2520.71
935.827	2539.92
936.135	2495.85
936.443	2490.88
936.751	2506.02
937.059	2494.95
937.367	2488.17
937.674	2460.37
937.982	2442.07
938.29	2444.78
938.597	2449.3
938.905	2438.9
939.213	2393.26
939.52	2406.82
939.827	2396.65
940.135	2410.2
940.442	2377.89
940.749	2394.16
941.056	2373.14
941.363	2345.12
941.67	2338.34
941.977	2297.44
942.284	2349.42
942.591	2281.85
942.898	2319.36
943.205	2282.07
943.511	2265.35
943.818	2300.6
944.125	2279.36
944.431	2254.05
944.738	2226.48
945.044	2259.93
945.35	2211.34
945.657	2229.19
945.963	2200.72
946.269	2195.3
946.575	2178.35
946.881	2167.05
947.187	2173.6
947.493	2200.94
947.799	2176.76
948.105	2178.35
948.41	2138.57
948.716	2143.09
949.022	2174.73
949.327	2101.74
949.633	2114.17
949.938	2111.68
950.244	2141.29
950.549	2084.79
950.854	2091.34
951.16	2067.84
951.465	2033.94
951.77	2050.21
952.075	2083.43
952.38	2052.02
952.685	2035.75
952.99	2018.8
953.294	2043.21
953.599	2002.53
953.904	2003.21
954.209	2006.83
954.513	1965.47
954.818	1984.91
955.122	1955.75
955.426	1983.55
955.731	1960.73
956.035	1960.05
956.339	1970.22
956.643	1969.54
956.948	1935.19
957.252	1917.79
957.556	1923.21
957.86	1886.83
958.163	1918.47
958.467	1903.78
958.771	1883.67
959.075	1875.3
959.378	1877.56
959.682	1864
959.985	1865.13
960.289	1851.12
960.592	1833.95
960.896	1858.36
961.199	1869.43
961.502	1836.66
961.805	1815.19
962.108	1830.11
962.411	1781.97
962.714	1809.99
963.017	1786.04
963.32	1805.48
963.623	1778.13
963.926	1765.93
964.228	1764.35
964.531	1768.19
964.833	1734.06
965.136	1726.16
965.438	1747.4
965.741	1732.71
966.043	1703.56
966.345	1733.61
966.648	1731.35
966.95	1701.52
967.252	1715.08
967.554	1720.28
967.856	1672.15
968.158	1674.18
968.46	1688.42
968.761	1706.27
969.063	1665.14
969.365	1653.61
969.666	1622.43
969.968	1648.87
970.269	1632.37
970.571	1636.44
970.872	1654.74
971.174	1621.75
971.475	1606.61
971.776	1612.49
972.077	1620.4
972.378	1570.68
972.679	1585.59
972.98	1619.72
973.281	1587.85
973.582	1579.94
973.883	1555.76
974.183	1545.59
974.484	1565.71
974.785	1530.23
975.085	1539.27
975.386	1547.85
975.686	1510.12
975.986	1533.62
976.287	1514.41
976.587	1535.88
976.887	1520.96
977.187	1511.92
977.487	1535.43
977.787	1510.34
978.087	1490.23
978.387	1501.3
978.687	1494.75
978.987	1474.18
979.286	1467.4
979.586	1474.18
979.885	1461.76
980.185	1461.53
980.484	1441.19
980.784	1444.81
981.083	1457.91
981.382	1417.24
981.682	1424.69
981.981	1418.59
982.28	1405.94
982.579	1416.33
982.878	1414.75
983.177	1436.45
983.475	1417.91
983.774	1399.61
984.073	1407.97
984.372	1378.82
984.67	1399.38
984.969	1362.1
985.267	1383.79
985.566	1381.08
985.864	1373.62
986.162	1360.29
986.461	1339.95
986.759	1333.85
987.057	1354.19
987.355	1326.39
987.653	1339.72
987.951	1338.37
988.249	1310.12
988.547	1316.22
988.844	1297.24
989.142	1282.55
989.44	1287.07
989.737	1302.89
990.035	1297.01
990.332	1287.97
990.63	1274.19
990.927	1272.61
991.224	1240.97
991.521	1260.86
991.819	1245.26
992.116	1264.02
992.413	1248.65
992.71	1245.72
993.006	1219.5
993.303	1196.45
993.6	1232.83
993.897	1233.96
994.193	1228.54
994.49	1246.17
994.787	1218.15
995.083	1203.68
995.379	1181.54
995.676	1219.05
995.972	1197.58
996.268	1169.11
996.565	1159.39
996.861	1186.06
997.157	1157.36
997.453	1176.11
997.749	1156.23
998.044	1154.19
998.34	1157.81
998.636	1138.15
998.932	1150.8
999.227	1115.55
999.523	1139.28
999.818	1149.22
1000.114	1118.94
1000.409	1115.1
1000.704	1116.45
1001	1115.32
1001.295	1125.94
1001.59	1093.86
1001.885	1095.21
1002.18	1079.39
1002.475	1089.11
1002.77	1066.51
1003.065	1049.11
1003.359	1053.86
1003.654	1059.96
1003.949	1032.84
1004.243	1078.04
1004.538	1044.14
1004.832	1019.51
1005.127	1020.19
1005.421	1037.13
1005.715	1034.42
1006.009	1032.16
1006.304	1001.43
1006.598	1023.12
1006.892	1018.15
1007.186	1014.54
1007.48	1021.99
1007.773	996.68
1008.067	993.52
1008.361	978.38
1008.655	973.63
1008.948	996.91
1009.242	975.67
1009.535	972.28
1009.829	965.95
1010.122	956.23
1010.415	961.43
1010.708	936.35
1011.001	935.67
1011.295	947.19
1011.588	935.67
1011.881	948.55
1012.173	912.17
1012.466	956.68
1012.759	927.53
1013.052	919.4
1013.344	904.93
1013.637	916.68
1013.93	892.05
1014.222	906.97
1014.514	925.05
1014.807	886.18
1015.099	878.27
1015.391	879.4
1015.683	868.78
1015.976	868.78
1016.268	882.56
1016.56	891.83
1016.851	865.16
1017.143	868.55
1017.435	855.9
1017.727	831.94
1018.018	866.29
1018.31	817.93
1018.602	846.4
1018.893	840.53
1019.185	802.11
1019.476	798.72
1019.767	807.99
1020.058	804.15
1020.35	802.56
1020.641	824.26
1020.932	807.99
1021.223	786.52
1021.514	804.82
1021.804	825.39
1022.095	792.62
1022.386	789.23
1022.677	764.82
1022.967	772.06
1023.258	783.36
1023.548	778.38
1023.839	759.63
1024.129	779.51
1024.419	753.07
1024.709	771.15
1025	741.77
1025.29	760.3
1025.58	749.46
1025.87	748.78
1026.16	738.16
1026.449	728.89
1026.739	718.95
1027.029	735.9
1027.319	716.24
1027.608	708.55
1027.898	707.42
1028.187	709.46
1028.477	725.73
1028.766	714.43
1029.055	708.78
1029.344	680.98
1029.634	680.31
1029.923	670.36
1030.212	694.09
1030.501	681.89
1030.79	679.86
1031.078	677.82
1031.367	670.14
1031.656	663.13
1031.945	645.51
1032.233	657.48
1032.522	661.32
1032.81	664.26
1033.099	674.88
1033.387	667.65
1033.675	640.08
1033.963	655
1034.251	654.09
1034.54	665.84
1034.828	642.79
1035.116	621.33
1035.403	630.36
1035.691	609.35
1035.979	620.42
1036.267	611.61
1036.554	608.44
1036.842	633.08
1037.129	601.66
1037.417	618.84
1037.704	599.86
1037.992	590.37
1038.279	611.83
1038.566	621.55
1038.853	621.55
1039.14	621.55
