Data from brown_tile_FLMS001491_094.txt Node
Date: Tue Feb 07 10:38:16 GMT 2017
User: dcchb
Spectrometer: FLMS00149
Trigger mode: 0
Integration Time (sec): 2.000000E-2
Scans to average: 10
Electric dark correction enabled: true
Nonlinearity correction enabled: false
Boxcar width: 0
XAxis mode: Wavelengths
Number of Pixels in Spectrum: 2048
>>>>>Begin Spectral Data<<<<<
341.393	-12.57
341.776	-12.57
342.16	-12.57
342.543	-62.51
342.927	-65
343.31	-59.35
343.693	-56.41
344.077	-55.73
344.46	-71.55
344.843	-48.28
345.226	-37.88
345.61	-37.65
345.993	-34.26
346.376	8.22
346.759	6.86
347.142	38.73
347.525	29.46
347.908	63.13
348.291	62.23
348.674	80.31
349.057	112.17
349.44	142.68
349.823	123.92
350.206	163.02
350.588	185.16
350.971	188.33
351.354	236.46
351.737	201.21
352.119	222.23
352.502	243.02
352.884	240.98
353.267	260.87
353.65	287.76
354.032	271.26
354.414	297.03
354.797	289.34
355.179	296.35
355.562	296.8
355.944	311.04
356.326	300.87
356.709	307.42
357.091	327.08
357.473	304.48
357.855	304.71
358.238	332.05
358.62	309
359.002	322.34
359.384	351.49
359.766	303.13
360.148	323.01
360.53	333.64
360.912	328.89
361.294	311.04
361.676	332.05
362.057	312.39
362.439	328.66
362.821	310.13
363.203	329.79
363.584	304.94
363.966	308.1
364.348	291.15
364.729	303.81
365.111	318.04
365.493	316.23
365.874	315.56
366.256	292.51
366.637	292.05
367.019	308.78
367.4	289.34
367.781	291.15
368.163	303.35
368.544	303.58
368.925	292.28
369.306	303.35
369.688	289.12
370.069	288.66
370.45	311.26
370.831	302.9
371.212	281.89
371.593	288.66
371.974	303.58
372.355	291.38
372.736	282.34
373.117	289.12
373.498	273.52
373.879	307.65
374.26	315.56
374.641	286.4
375.021	295.44
375.402	308.33
375.783	305.16
376.163	312.84
376.544	315.56
376.925	303.58
377.305	294.99
377.686	311.49
378.066	310.13
378.447	311.94
378.827	313.52
379.208	321.21
379.588	302
379.968	314.65
380.349	314.88
380.729	316.46
381.109	320.53
381.489	311.94
381.87	317.14
382.25	316.91
382.63	319.85
383.01	327.99
383.39	313.75
383.77	317.82
384.15	326.18
384.53	332.51
384.91	332.73
385.29	317.59
385.67	299.06
386.049	320.98
386.429	316.69
386.809	321.21
387.189	323.92
387.568	326.63
387.948	326.86
388.328	335.22
388.707	353.07
389.087	323.69
389.466	318.27
389.846	357.82
390.225	351.49
390.605	330.47
390.984	362.34
391.363	347.65
391.743	358.95
392.122	340.64
392.501	359.4
392.881	347.87
393.26	338.61
393.639	338.61
394.018	369.79
394.397	345.39
394.776	358.04
395.155	358.95
395.534	362.79
395.913	328.66
396.292	360.53
396.671	358.95
397.05	363.69
397.429	356.23
397.808	353.75
398.186	366.4
398.565	360.98
398.944	377.93
399.323	367.53
399.701	362.34
400.08	391.49
400.458	368.44
400.837	361.66
401.215	384.48
401.594	393.07
401.972	376.57
402.351	382.67
402.729	392.84
403.107	363.92
403.486	375.22
403.864	387.19
404.242	382.9
404.62	407.98
404.999	397.59
405.377	381.32
405.755	393.52
406.133	387.19
406.511	393.75
406.889	400.3
407.267	410.7
407.645	399.4
408.023	405.05
408.401	400.53
408.779	414.09
409.156	410.24
409.534	407.98
409.912	417.47
410.29	427.19
410.667	404.59
411.045	403.46
411.422	408.21
411.8	406.63
412.178	429.68
412.555	431.26
412.933	443.69
413.31	419.96
413.687	451.37
414.065	440.3
414.442	431.71
414.819	436.01
415.197	456.12
415.574	445.27
415.951	454.08
416.328	468.1
416.705	425.16
417.082	473.07
417.46	481.65
417.837	464.03
418.214	468.55
418.591	483.01
418.967	463.58
419.344	465.61
419.721	448.43
420.098	477.13
420.475	473.29
420.852	475.1
421.228	475.1
421.605	461.77
421.982	487.98
422.358	473.07
422.735	493.18
423.111	504.93
423.488	512.16
423.864	494.54
424.241	518.04
424.617	496.57
424.994	505.61
425.37	511.71
425.746	495.44
426.123	529.79
426.499	507.64
426.875	507.19
427.251	510.81
427.627	534.08
428.003	532.27
428.379	549.67
428.756	553.29
429.132	547.41
429.507	567.08
429.883	566.17
430.259	559.39
430.635	539.51
431.011	563.91
431.387	575.66
431.763	600.07
432.138	579.5
432.514	581.31
432.89	607.3
433.265	605.94
433.641	626.96
434.016	624.02
434.392	611.37
434.767	619.28
435.143	630.58
435.518	599.84
435.894	609.56
436.269	624.93
436.644	636.9
437.02	650.69
437.395	625.83
437.77	616.79
438.145	644.36
438.52	662.89
438.895	663.12
439.271	637.36
439.646	657.24
440.021	675.32
440.395	642.1
440.77	679.16
441.145	677.13
441.52	693.17
441.895	685.72
442.27	680.29
442.645	681.65
443.019	673.06
443.394	687.75
443.769	710.8
444.143	703.57
444.518	694.53
444.892	711.93
445.267	717.81
445.641	724.59
446.016	722.55
446.39	716
446.764	720.97
447.139	715.77
447.513	744.7
447.887	730.24
448.262	750.35
448.636	722.55
449.01	757.8
449.384	749.9
449.758	742.21
450.132	758.71
450.506	750.8
450.88	745.6
451.254	762.55
451.628	775.88
452.002	773.17
452.376	771.36
452.75	801.42
453.123	802.1
453.497	778.6
453.871	810.68
454.244	814.75
454.618	830.35
454.992	841.64
455.365	843.9
455.739	850.46
456.112	837.35
456.486	857.24
456.859	858.82
457.232	862.89
457.606	883.68
457.979	883.9
458.352	889.1
458.725	899.5
459.099	906.5
459.472	930.91
459.845	937.69
460.218	953.28
460.591	962.55
460.964	980.62
461.337	972.71
461.71	963.22
462.083	993.73
462.456	984.01
462.829	968.42
463.201	1026.72
463.574	991.02
463.947	1020.85
464.32	1028.08
464.692	1047.97
465.065	1045.26
465.438	1071.92
465.81	1047.51
466.183	1058.81
466.555	1087.51
466.928	1108.76
467.3	1100.17
467.672	1121.64
468.045	1127.96
468.417	1133.39
468.789	1118.25
469.161	1148.53
469.534	1194.63
469.906	1202.99
470.278	1201.86
470.65	1190.11
471.022	1256.77
471.394	1256.1
471.766	1226.95
472.138	1240.28
472.51	1278.24
472.882	1289.09
473.253	1290.9
473.625	1323.89
473.997	1374.96
474.369	1345.59
474.74	1384.23
475.112	1396.88
475.484	1409.99
475.855	1411.35
476.227	1423.55
476.598	1472.81
476.97	1471.46
477.341	1481.4
477.713	1516.2
478.084	1545.58
478.455	1569.76
478.827	1573.38
479.198	1586.94
479.569	1592.81
479.94	1631.91
480.311	1674.39
480.682	1693.6
481.053	1731.34
481.424	1739.25
481.795	1769.08
482.166	1762.75
482.537	1808.85
482.908	1835.29
483.279	1823.54
483.65	1876.87
484.021	1909.19
484.391	1948.51
484.762	1951.67
485.133	1988.28
485.503	1971.11
485.874	2023.53
486.244	2028.51
486.615	2049.07
486.985	2130.88
487.356	2155.28
487.726	2147.82
488.097	2167.94
488.467	2187.82
488.837	2194.83
489.207	2233.25
489.578	2278.67
489.948	2266.69
490.318	2310.76
490.688	2343.07
491.058	2412.9
491.428	2386.69
491.798	2414.26
492.168	2478.44
492.538	2445.44
492.908	2485.22
493.278	2508.95
493.648	2540.13
494.017	2577.19
494.387	2557.76
494.757	2639.34
495.126	2663.74
495.496	2639.79
495.866	2659.22
496.235	2685.21
496.605	2693.8
496.974	2736.74
497.344	2739.67
497.713	2777.86
498.082	2783.74
498.452	2822.84
498.821	2853.57
499.19	2837.75
499.559	2871.42
499.928	2868.48
500.298	2900.8
500.667	2917.07
501.036	2896.73
501.405	2926.79
501.774	2956.17
502.143	2964.3
502.512	3012.43
502.88	3047.01
503.249	3024.41
503.618	3090.85
503.987	3100.57
504.356	3099.89
504.724	3110.29
505.093	3162.26
505.462	3164.52
505.83	3177.85
506.199	3215.82
506.567	3199.55
506.936	3240
507.304	3255.82
507.672	3263.95
508.041	3292.2
508.409	3352.09
508.777	3375.82
509.145	3375.14
509.514	3396.83
509.882	3436.15
510.25	3442.03
510.618	3466.89
510.986	3470.28
511.354	3487
511.722	3498.98
512.09	3577.17
512.458	3599.54
512.826	3609.93
513.193	3638.18
513.561	3670.04
513.929	3679.31
514.297	3733.09
514.664	3783.26
515.032	3775.58
515.4	3785.52
515.767	3814.45
516.135	3814
516.502	3801.57
516.869	3893.09
517.237	3881.34
517.604	3885.18
517.972	4020.09
518.339	4004.05
518.706	4004.5
519.073	4004.27
519.44	4070.71
519.808	4090.37
520.175	4082.92
520.542	4101.67
520.909	4188.68
521.276	4219.63
521.643	4229.13
522.009	4260.54
522.376	4298.28
522.743	4311.61
523.11	4356.58
523.477	4396.35
523.843	4433.87
524.21	4493.98
524.577	4516.35
524.943	4538.72
525.31	4552.28
525.676	4620.98
526.043	4621.43
526.409	4661.43
526.776	4719.51
527.142	4724.03
527.508	4778.04
527.874	4828.88
528.241	4848.32
528.607	4863.01
528.973	4886.96
529.339	4897.81
529.705	4986.62
530.071	4991.14
530.437	5048.54
530.803	5060.97
531.169	5136.9
531.535	5176.45
531.901	5082.66
532.267	5196.78
532.632	5227.74
532.998	5288.53
533.364	5310.23
533.73	5305.48
534.095	5355.88
534.461	5406.72
534.826	5413.73
535.192	5410.56
535.557	5443.56
535.923	5459.38
536.288	5535.76
536.653	5599.94
537.019	5558.13
537.384	5599.26
537.749	5641.29
538.114	5622.76
538.479	5688.75
538.845	5734.85
539.21	5743.44
539.575	5782.53
539.94	5858.46
540.305	5865.47
540.67	5862.76
541.034	5874.96
541.399	5939.82
541.764	5933.04
542.129	5992.24
542.494	6038.12
542.858	6085.57
543.223	6063.2
543.587	6142.97
543.952	6140.94
544.316	6156.76
544.681	6233.59
545.045	6271.78
545.41	6270.88
545.774	6346.36
546.138	6380.03
546.503	6402.18
546.867	6393.14
547.231	6508.39
547.595	6484.66
547.959	6552.91
548.324	6538.67
548.688	6579.57
549.052	6648.27
549.416	6627.03
549.779	6725.56
550.143	6704.77
550.507	6848.04
550.871	6869.73
551.235	6850.07
551.599	6999.67
551.962	6988.6
552.326	7052.55
552.689	7118.32
553.053	7094.81
553.417	7124.19
553.78	7311.76
554.143	7296.39
554.507	7353.79
554.87	7398.08
555.234	7424.07
555.597	7504.29
555.96	7494.35
556.323	7653.67
556.686	7625.65
557.05	7785.64
557.413	7732.08
557.776	7854.34
558.139	7920.33
558.502	8008.91
558.865	8052.75
559.228	8156.03
559.59	8147.44
559.953	8239.42
560.316	8414.33
560.679	8423.14
561.041	8448.22
561.404	8550.59
561.767	8625.85
562.129	8620.42
562.492	8807.08
562.854	8820.64
563.217	8817.71
563.579	8909.23
563.941	9051.6
564.304	9067.42
564.666	9250.69
565.028	9278.71
565.39	9368.2
565.753	9448.42
566.115	9553.28
566.477	9618.59
566.839	9676.21
567.201	9747.4
567.563	9846.83
567.925	9981.74
568.287	9962.53
568.648	10039.14
569.01	10144.9
569.372	10245.01
569.734	10295.18
570.095	10447.27
570.457	10525.68
570.819	10547.6
571.18	10610.2
571.542	10703.98
571.903	10856.3
572.265	10857.43
572.626	10965.9
572.987	11049.51
573.349	11063.07
573.71	11176.51
574.071	11284.53
574.432	11402.72
574.794	11478.2
575.155	11595.03
575.516	11510.74
575.877	11668.93
576.238	11769.72
576.599	11855.37
576.96	11854.69
577.32	11936.95
577.681	12121.57
578.042	12149.37
578.403	12216.26
578.763	12220.1
579.124	12277.95
579.485	12362.92
579.845	12539.87
580.206	12515.01
580.566	12544.16
580.927	12596.59
581.287	12650.6
581.648	12719.3
582.008	12785.29
582.368	12833.42
582.728	12909.35
583.089	12960.2
583.449	13037.93
583.809	13032.06
584.169	13171.04
584.529	13221.21
584.889	13327.19
585.249	13375.1
585.609	13393.18
585.969	13564.47
586.329	13451.03
586.688	13530.12
587.048	13619.84
587.408	13634.3
587.768	13627.07
588.127	13725.15
588.487	13681.98
588.846	13813.28
589.206	13775.09
589.565	13783.9
589.925	13953.39
590.284	13896.89
590.643	13996.78
591.003	14059.38
591.362	14201.07
591.721	14173.95
592.08	14256.21
592.44	14218.69
592.799	14330.1
593.158	14261.18
593.517	14289.2
593.876	14361.29
594.235	14372.14
594.593	14445.81
594.952	14505.69
595.311	14616.88
595.67	14602.41
596.029	14689.42
596.387	14785.46
596.746	14762.18
597.104	14644.9
597.463	14722.18
597.822	14839.02
598.18	14900.71
598.538	14755.85
598.897	14928.28
599.255	14916.75
599.613	15085.79
599.972	14977.54
600.33	15113.36
600.688	15068.39
601.046	15086.24
601.404	15201.04
601.762	15242.17
602.12	15314.26
602.478	15282.17
602.836	15383.41
603.194	15310.19
603.552	15380.7
603.91	15352.68
604.268	15415.72
604.625	15382.05
604.983	15497.76
605.341	15435.61
605.698	15469.96
606.056	15644.87
606.413	15719.67
606.771	15685.32
607.128	15726
607.485	15673.34
607.843	15673.34
608.2	15841.02
608.557	15873.79
608.914	15844.41
609.272	15917.41
609.629	16003.05
609.986	15972.77
610.343	16006.22
610.7	16180.68
611.057	16062.04
611.414	16038.08
611.771	16147
612.127	16152.65
612.484	16225.65
612.841	16256.83
613.198	16237.85
613.554	16206.44
613.911	16341.58
614.267	16335.25
614.624	16422.03
614.98	16464.51
615.337	16510.61
615.693	16448.69
616.05	16439.2
616.406	16549.48
616.762	16499.76
617.118	16573.66
617.475	16557.39
617.831	16588.58
618.187	16639.42
618.543	16650.49
618.899	16802.13
619.255	16720.32
619.611	16746.99
619.967	16807.55
620.323	16738.18
620.678	16742.7
621.034	16779.08
621.39	16725.29
621.746	16760.55
622.101	16910.15
622.457	16819.53
622.812	16806.42
623.168	16949.24
623.523	16807.33
623.879	16935.23
624.234	16894.1
624.589	16910.37
624.945	16906.53
625.3	16955.35
625.655	16953.09
626.01	16938.17
626.365	16989.92
626.72	16917.38
627.075	17068.11
627.43	17031.73
627.785	16963.25
628.14	16961.22
628.495	17062.91
628.85	17005.74
629.205	16998.28
629.559	17035.8
629.914	17023.82
630.269	17020.43
630.623	16916.93
630.978	16908.79
631.332	17043.25
631.687	17092.52
632.041	16992.63
632.396	17052.29
632.75	16960.77
633.104	17008.68
633.459	16875.8
633.813	16865.18
634.167	16911.96
634.521	16846.65
634.875	16882.58
635.229	16857.72
635.583	16918.28
635.937	16822.02
636.291	16853.43
636.645	16732.3
636.999	16823.15
637.352	16894.1
637.706	16674
638.06	16897.72
638.413	16728.23
638.767	16765.97
639.121	16714.45
639.474	16826.53
639.828	16753.32
640.181	16729.14
640.534	16869.92
640.888	16719.87
641.241	16679.65
641.594	16686.88
641.947	16643.26
642.301	16606.43
642.654	16701.79
643.007	16631.51
643.36	16690.04
643.713	16568.69
644.066	16665.64
644.419	16517.84
644.771	16474.45
645.124	16218.87
645.477	16260
645.83	16213.44
646.182	16158.76
646.535	16134.58
646.888	16093.9
647.24	16002.6
647.593	16079.66
647.945	16096.61
648.298	15998.76
648.65	15991.98
649.002	16019.32
649.355	16059.32
649.707	15966.44
650.059	16076.05
650.411	16254.12
650.763	16366.66
651.115	16478.75
651.467	16475.81
651.819	16479.88
652.171	16420.9
652.523	16418.86
652.875	16384.96
653.227	16377.73
653.578	16537.73
653.93	16411.4
654.282	16310.39
654.633	16384.96
654.985	16319.43
655.337	16401.24
655.688	16368.47
656.039	16432.87
656.391	16212.09
656.742	16351.75
657.094	16269.94
657.445	16375.47
657.796	16310.84
658.147	16278.07
658.498	16270.62
658.849	16404.17
659.2	16377.73
659.551	16285.53
659.902	16312.88
660.253	16320.56
660.604	16354.46
660.955	16220.9
661.306	16337.28
661.656	16278.3
662.007	16313.78
662.358	16330.95
662.708	16252.09
663.059	16282.59
663.409	16224.52
663.76	16328.24
664.11	16390.39
664.461	16415.92
664.811	16396.72
665.161	16403.04
665.511	16326.21
665.862	16330.05
666.212	16412.76
666.562	16397.17
666.912	16372.31
667.262	16397.85
667.612	16435.36
667.962	16430.16
668.312	16392.65
668.662	16499.31
669.011	16419.99
669.361	16419.77
669.711	16416.6
670.06	16388.35
670.41	16382.48
670.76	16441.69
671.109	16462.25
671.459	16376.38
671.808	16400.78
672.157	16472.65
672.507	16345.64
672.856	16381.12
673.205	16442.82
673.554	16365.98
673.904	16406.21
674.253	16427.22
674.602	16407.56
674.951	16208.47
675.3	16190.17
675.649	16410.5
675.998	16384.06
676.346	16431.97
676.695	16504.28
677.044	16420.44
677.393	16396.49
677.741	16414.57
678.09	16347
678.438	16309.03
678.787	16373.21
679.135	16496.6
679.484	16369.6
679.832	16417.73
680.181	16278.53
680.529	16337.51
680.877	16334.57
681.225	16342.25
681.573	16368.24
681.922	16319.43
682.27	16270.39
682.618	16387.68
682.966	16291.41
683.314	16317.62
683.661	16280.56
684.009	16256.38
684.357	16165.76
684.705	16188.81
685.053	16146.78
685.4	16136.38
685.748	16087.57
686.095	16121.92
686.443	16140.9
686.79	16062.49
687.138	16095.93
687.485	16048.7
687.832	16071.3
688.18	16092.32
688.527	16051.64
688.874	16007.8
689.221	16040.34
689.568	15932.1
689.915	15915.6
690.262	15906.11
690.609	15982.04
690.956	15872.44
691.303	15879.44
691.65	15842.61
691.997	15798.99
692.344	15793.57
692.69	15780.23
693.037	15734.36
693.383	15653.91
693.73	15734.81
694.077	15613.23
694.423	15694.36
694.769	15610.3
695.116	15623.18
695.462	15643.74
695.808	15556.29
696.155	15557.42
696.501	15517.64
696.847	15497.98
697.193	15361.71
697.539	15534.59
697.885	15307.25
698.231	15363.52
698.577	15356.74
698.923	15284.2
699.269	15305.67
699.614	15110.42
699.96	15201.04
700.306	15208.27
700.651	15097.54
700.997	15129.18
701.342	15194.49
701.688	15198.78
702.033	15021.84
702.379	14988.84
702.724	15055.96
703.069	15072.68
703.415	14862.29
703.76	14993.81
704.105	14943.87
704.45	14945.68
704.795	14846.7
705.14	14856.87
705.485	14836.3
705.83	14678.57
706.175	14749.3
706.52	14798.79
706.865	14732.35
707.209	14645.58
707.554	14673.15
707.899	14788.62
708.243	14665.24
708.588	14679.92
708.932	14582.07
709.277	14540.72
709.621	14618.68
709.966	14486.03
710.31	14531.23
710.654	14478.12
710.998	14523.09
711.342	14490.78
711.687	14475.18
712.031	14427.5
712.375	14307.73
712.719	14422.53
713.063	14443.09
713.407	14334.62
713.75	14355.87
714.094	14310.22
714.438	14334.17
714.782	14350.67
715.125	14229.32
715.469	14344.34
715.812	14166.27
716.156	14159.71
716.499	14164.68
716.843	14229.09
717.186	14050.56
717.53	14229.54
717.873	14169.2
718.216	14229.77
718.559	14219.37
718.902	13983.22
719.246	14080.39
719.589	14070.9
719.932	14048.08
720.275	13999.49
720.617	14046.5
720.96	14027.51
721.303	13938.02
721.646	14012.37
721.989	13960.4
722.331	14016.21
722.674	13890.79
723.016	13973.73
723.359	13950.45
723.701	13977.57
724.044	13859.83
724.386	13793.17
724.729	13883.79
725.071	13849.89
725.413	13773.51
725.755	13812.83
726.097	13783
726.439	13733.73
726.782	13750.91
727.124	13864.35
727.465	13681.76
727.807	13708.2
728.149	13675.21
728.491	13657.8
728.833	13694.64
729.175	13674.98
729.516	13691.7
729.858	13668.43
730.199	13573.51
730.541	13655.54
730.882	13698.03
731.224	13588.43
731.565	13630.91
731.906	13555.89
732.248	13590.91
732.589	13510.69
732.93	13542.1
733.271	13525.6
733.612	13512.5
733.953	13627.3
734.294	13534.19
734.635	13446.51
734.976	13465.95
735.317	13433.18
735.658	13468.43
735.999	13467.3
736.339	13444.25
736.68	13386.63
737.021	13365.16
737.361	13318.15
737.702	13428.66
738.042	13403.57
738.383	13342.78
738.723	13334.42
739.063	13341.88
739.404	13403.8
739.744	13295.33
740.084	13231.38
740.424	13260.98
740.764	13257.82
741.104	13265.27
741.444	13221.21
741.784	13159.06
742.124	13174.88
742.464	13191.15
742.804	13143.92
743.143	13131.72
743.483	13082.23
743.823	13026.86
744.162	13049.23
744.502	13062.34
744.841	13033.41
745.181	13023.02
745.52	12962.46
745.86	13004.71
746.199	13041.78
746.538	13012.85
746.877	12920.42
747.216	12973.53
747.556	12935.11
747.895	12911.38
748.234	12910.48
748.573	12806.98
748.911	12855.34
749.25	12875
749.589	12752.29
749.928	12808.56
750.267	12798.62
750.605	12770.6
750.944	12704.84
751.283	12689.47
751.621	12732.18
751.96	12644.27
752.298	12624.16
752.636	12603.14
752.975	12499.19
753.313	12534.22
753.651	12569.02
753.989	12490.83
754.327	12485.41
754.666	12356.82
755.004	12473.88
755.342	12408.8
755.679	12409.93
756.017	12328.12
756.355	12342.81
756.693	12266.2
757.031	12324.73
757.368	12295.13
757.706	12078.41
758.044	12125.19
758.381	12098.52
758.719	12154.12
759.056	12110.05
759.394	12068.02
759.731	11910.51
760.068	12028.47
760.405	11896.72
760.743	11907.57
761.08	11841.36
761.417	11890.62
761.754	11795.03
762.091	11717.97
762.428	11718.87
762.765	11708.03
763.102	11700.79
763.438	11571.08
763.775	11564.53
764.112	11575.83
764.449	11552.1
764.785	11511.42
765.122	11408.37
765.458	11347.36
765.795	11343.52
766.131	11381.71
766.467	11278.66
766.804	11331.09
767.14	11248.15
767.476	11198.21
767.812	11158.66
768.148	11142.16
768.485	10996.86
768.821	11063.07
769.157	11028.04
769.492	10998.21
769.828	10995.95
770.164	10845.22
770.5	10833.25
770.836	10809.29
771.171	10804.55
771.507	10790.08
771.842	10630.77
772.178	10708.28
772.513	10656.75
772.849	10602.74
773.184	10490.88
773.519	10526.81
773.855	10475.74
774.19	10434.39
774.525	10426.7
774.86	10242.98
775.195	10322.3
775.53	10317.78
775.865	10236.88
776.2	10171.79
776.535	10086.83
776.87	10160.27
777.205	10072.36
777.539	10014.96
777.874	10061.29
778.209	10000.73
778.543	9945.13
778.878	9800.73
779.212	9866.04
779.547	9763.9
779.881	9823.56
780.215	9756.66
780.55	9787.85
780.884	9658.81
781.218	9685.71
781.552	9624.24
781.886	9617.23
782.22	9536.11
782.554	9565.03
782.888	9400.52
783.222	9357.8
783.556	9358.03
783.889	9273.06
784.223	9247.98
784.557	9215.66
784.89	9284.36
785.224	9175.89
785.557	9122.78
785.891	9069.9
786.224	9031.49
786.558	9094.99
786.891	8984.26
787.224	8955.56
787.557	8864.94
787.891	8913.3
788.224	8876.01
788.557	8855.45
788.89	8862.68
789.223	8784.49
789.556	8745.62
789.888	8721.66
790.221	8750.82
790.554	8589.01
790.887	8645.73
791.219	8531.39
791.552	8551.27
791.884	8451.39
792.217	8473.99
792.549	8440.77
792.882	8388.79
793.214	8325.06
793.546	8377.04
793.879	8276.7
794.211	8175.91
794.543	8237.16
794.875	8238.51
795.207	8221.34
795.539	8173.43
795.871	8103.83
796.203	8037.39
796.535	7999.65
796.867	7975.92
797.198	8006.65
797.53	7968.01
797.862	7888.92
798.193	7974.11
798.525	7851.86
798.856	7874.45
799.188	7802.37
799.519	7740.45
799.85	7737.06
800.182	7741.12
800.513	7731.18
800.844	7601.69
801.175	7650.51
801.506	7653.22
801.837	7612.31
802.168	7552.2
802.499	7579.77
802.83	7594.46
803.161	7515.37
803.491	7495.03
803.822	7477.18
804.153	7453
804.483	7379.78
804.814	7347.24
805.145	7352.89
805.475	7306.11
805.805	7278.99
806.136	7306.56
806.466	7311.98
806.796	7254.36
807.126	7164.19
807.457	7162.61
807.787	7215.49
808.117	7122.84
808.447	7108.82
808.777	7103.85
809.107	7080.35
809.436	7018.88
809.766	6988.6
810.096	6977.3
810.426	6935.72
810.755	7000.8
811.085	6938.43
811.414	6912.45
811.744	6879.45
812.073	6866.57
812.403	6877.42
812.732	6800.36
813.061	6775.95
813.39	6738.21
813.719	6741.15
814.049	6790.64
814.378	6710.42
814.707	6738.21
815.036	6639.91
815.365	6695.28
815.693	6619.12
816.022	6608.27
816.351	6516.52
816.68	6562.17
817.008	6565.79
817.337	6489.41
817.665	6450.99
817.994	6474.94
818.322	6514.72
818.651	6389.3
818.979	6474.26
819.307	6389.07
819.636	6438.11
819.964	6366.47
820.292	6387.94
820.62	6400.37
820.948	6334.83
821.276	6355.85
821.604	6329.18
821.932	6328.28
822.259	6319.24
822.587	6343.65
822.915	6332.35
823.243	6278.79
823.57	6378
823.898	6270.2
824.225	6241.73
824.553	6264.33
824.88	6263.42
825.207	6257.55
825.535	6233.14
825.862	6294.38
826.189	6280.37
826.516	6280.15
826.843	6258.9
827.17	6279.02
827.497	6240.15
827.824	6248.73
828.151	6255.29
828.478	6225.46
828.805	6235.63
829.131	6204.44
829.458	6233.59
829.785	6178
830.111	6204.22
830.438	6232.92
830.764	6221.84
831.09	6220.71
831.417	6136.42
831.743	6189.53
832.069	6201.05
832.395	6171.22
832.722	6134.61
833.048	6111.34
833.374	6127.61
833.7	6105.23
834.026	6082.41
834.351	6152.24
834.677	6105.01
835.003	6090.55
835.329	6072.47
835.654	6108.62
835.98	6067.27
836.306	6048.97
836.631	6066.37
836.956	6004.67
837.282	6045.8
837.607	5963.09
837.932	6003.99
838.258	5963.09
838.583	5986.14
838.908	5955.41
839.233	6022.3
839.558	5926.26
839.883	5879.03
840.208	5905.69
840.533	5891.68
840.858	5877.9
841.182	5876.54
841.507	5848.74
841.832	5868.18
842.156	5871.12
842.481	5816.2
842.805	5820.5
843.13	5767.84
843.454	5773.04
843.778	5771.91
844.103	5747.05
844.427	5718.8
844.751	5680.16
845.075	5709.09
845.399	5658.24
845.723	5666.38
846.047	5663.89
846.371	5599.03
846.695	5583.44
847.019	5536.21
847.343	5495.99
847.666	5508.87
847.99	5457.79
848.313	5495.76
848.637	5456.66
848.96	5438.81
849.284	5359.04
849.607	5348.19
849.931	5354.29
850.254	5320.4
850.577	5284.69
850.9	5238.59
851.223	5254.18
851.546	5212.15
851.869	5167.86
852.192	5208.99
852.515	5150.68
852.838	5162.21
853.161	5161.98
853.483	5138.93
853.806	5144.13
854.129	5098.48
854.451	5109.55
854.774	5030.46
855.096	5006.73
855.419	5049.22
855.741	5028.88
856.063	4993.4
856.385	4955.66
856.708	4959.95
857.03	4962.67
857.352	4940.29
857.674	4996.34
857.996	4882.22
858.318	4916.79
858.64	4869.34
858.961	4870.24
859.283	4823.01
859.605	4846.96
859.926	4764.48
860.248	4761.54
860.57	4741.2
860.891	4778.72
861.212	4775.33
861.534	4724.03
861.855	4735.1
862.176	4762.45
862.498	4725.61
862.819	4738.72
863.14	4691.26
863.461	4682.45
863.782	4667.76
864.103	4733.07
864.424	4638.15
864.745	4678.15
865.065	4596.12
865.386	4645.39
865.707	4627.76
866.027	4631.6
866.348	4609.91
866.668	4594.99
866.989	4592.51
867.309	4575.78
867.63	4551.38
867.95	4576.01
868.27	4571.94
868.59	4552.28
868.91	4532.17
869.23	4521.77
869.55	4510.02
869.87	4523.81
870.19	4520.87
870.51	4504.15
870.83	4512.96
871.15	4463.47
871.469	4494.43
871.789	4476.8
872.109	4445.17
872.428	4435.22
872.748	4457.14
873.067	4417.37
873.386	4448.1
873.706	4447.2
874.025	4408.78
874.344	4396.13
874.663	4386.64
874.982	4389.8
875.301	4381.66
875.62	4374.66
875.939	4380.08
876.258	4386.86
876.577	4325.62
876.896	4383.02
877.214	4329.46
877.533	4321.78
877.852	4303.7
878.17	4300.08
878.489	4256.02
878.807	4342.57
879.125	4288.11
879.444	4274.77
879.762	4253.76
880.08	4272.29
880.398	4264.15
880.716	4212.4
881.034	4203.82
881.352	4187.55
881.67	4231.39
881.988	4227.32
882.306	4217.83
882.624	4138.96
882.941	4152.52
883.259	4156.59
883.577	4213.08
883.894	4150.26
884.212	4145.96
884.529	4117.26
884.846	4147.55
885.164	4132.41
885.481	4132.18
885.798	4070.03
886.115	4070.71
886.432	4091.05
886.75	4091.95
887.067	4085.85
887.383	4068.9
887.7	4072.52
888.017	4043.14
888.334	4042.69
888.651	4035.23
888.967	4008.57
889.284	4006.31
889.6	3971.28
889.917	3950.04
890.233	3970.38
890.55	3953.88
890.866	3938.06
891.182	3903.48
891.498	3886.08
891.815	3897.38
892.131	3876.14
892.447	3875.69
892.763	3891.73
893.079	3857.38
893.395	3820.1
893.71	3809.93
894.026	3832.07
894.342	3800.21
894.657	3800.21
894.973	3798.63
895.289	3826.42
895.604	3793.66
895.92	3764.28
896.235	3734.45
896.55	3773.32
896.865	3778.29
897.181	3715.47
897.496	3743.94
897.811	3684.73
898.126	3674.56
898.441	3659.2
898.756	3681.8
899.071	3621.46
899.386	3677.73
899.7	3610.61
900.015	3614.68
900.33	3621.23
900.644	3594.11
900.959	3599.09
901.273	3538.52
901.588	3573.1
901.902	3529.03
902.216	3538.97
902.531	3510.27
902.845	3514.57
903.159	3500.33
903.473	3528.13
903.787	3496.04
904.101	3468.02
904.415	3436.38
904.729	3423.27
905.042	3418.53
905.356	3435.25
905.67	3410.39
905.984	3386.44
906.297	3379.43
906.611	3369.26
906.924	3345.53
907.237	3364.06
907.551	3371.07
907.864	3346.66
908.177	3363.61
908.491	3322.71
908.804	3331.97
909.117	3279.09
909.43	3272.77
909.743	3232.09
910.056	3251.3
910.368	3215.14
910.681	3183.73
910.994	3217.4
911.307	3198.19
911.619	3185.09
911.932	3194.8
912.244	3170.4
912.557	3138.31
912.869	3157.52
913.181	3129.27
913.494	3105.99
913.806	3169.49
914.118	3067.57
914.43	3047.24
914.742	3080
915.054	3080.68
915.366	3098.31
915.678	3042.94
915.99	3080.23
916.302	3026.67
916.613	3014.24
916.925	3014.02
917.236	2995.94
917.548	2946.45
917.859	2984.87
918.171	2950.29
918.482	2955.94
918.794	2895.83
919.105	2915.04
919.416	2915.94
919.727	2902.83
920.038	2921.14
920.349	2855.38
920.66	2877.98
920.971	2848.6
921.282	2829.39
921.593	2845.21
921.903	2828.94
922.214	2841.14
922.525	2824.87
922.835	2809.05
923.146	2737.41
923.456	2764.98
923.767	2752.78
924.077	2759.79
924.387	2734.02
924.697	2708.04
925.008	2696.96
925.318	2727.24
925.628	2684.76
925.938	2718.66
926.248	2673.69
926.558	2667.36
926.867	2654.25
927.177	2669.85
927.487	2641.82
927.796	2598.21
928.106	2599.11
928.416	2556.18
928.725	2586.01
929.034	2554.14
929.344	2600.69
929.653	2578.55
929.962	2532.22
930.271	2589.17
930.581	2517.76
930.89	2487.03
931.199	2485.22
931.508	2477.76
931.817	2509.85
932.125	2516.18
932.434	2454.03
932.743	2475.5
933.051	2443.64
933.36	2424.2
933.669	2436.86
933.977	2442.28
934.286	2425.11
934.594	2428.95
934.902	2377.2
935.21	2381.27
935.519	2362.06
935.827	2409.29
936.135	2331.55
936.443	2335.62
936.751	2321.15
937.059	2350.53
937.367	2363.19
937.674	2306.46
937.982	2335.84
938.29	2299.01
938.597	2269.18
938.905	2294.94
939.213	2254.26
939.52	2263.08
939.827	2262.85
940.135	2239.57
940.442	2224.89
940.749	2235.51
941.056	2258.56
941.363	2214.04
941.67	2216.98
941.977	2212
942.284	2168.16
942.591	2230.08
942.898	2175.85
943.205	2159.35
943.511	2113.93
943.818	2140.59
944.125	2146.47
944.431	2154.38
944.738	2128.62
945.044	2129.29
945.35	2104.66
945.657	2143.08
945.963	2099.92
946.269	2075.28
946.575	2105.79
946.881	2074.83
947.187	2086.58
947.493	2077.09
947.799	2060.6
948.105	2030.31
948.41	2034.38
948.716	2025.34
949.022	2009.75
949.327	2032.12
949.633	2009.52
949.938	2009.75
950.244	2010.88
950.549	2000.03
950.854	1974.5
951.16	1949.19
951.465	1939.69
951.77	1948.06
952.075	1947.6
952.38	1939.02
952.685	1932.24
952.99	1899.24
953.294	1945.57
953.599	1910.77
953.904	1902.86
954.209	1922.07
954.513	1881.39
954.818	1899.92
955.122	1856.53
955.426	1856.31
955.731	1894.95
956.035	1852.24
956.339	1867.61
956.643	1844.56
956.948	1826.48
957.252	1813.37
957.556	1827.83
957.86	1791.9
958.163	1809.08
958.467	1812.24
958.771	1799.59
959.075	1778.34
959.378	1783.09
959.682	1782.64
959.985	1750.77
960.289	1759.81
960.592	1768.63
960.896	1768.17
961.199	1763.2
961.502	1715.52
961.805	1727.04
962.108	1710.1
962.411	1702.19
962.714	1696.99
963.017	1719.36
963.32	1726.37
963.623	1715.29
963.926	1690.44
964.228	1676.42
964.531	1681.62
964.833	1654.5
965.136	1665.8
965.438	1672.81
965.741	1625.8
966.043	1640.49
966.345	1648.63
966.648	1620.83
966.95	1626.03
967.252	1619.48
967.554	1598.91
967.856	1609.31
968.158	1616.54
968.46	1620.38
968.761	1593.04
969.063	1582.19
969.365	1593.94
969.666	1574.96
969.968	1561.4
970.269	1561.4
970.571	1567.95
970.872	1552.36
971.174	1553.26
971.475	1536.09
971.776	1540.61
972.077	1525.69
972.378	1543.32
972.679	1510.55
972.98	1508.97
973.281	1555.75
973.582	1499.71
973.883	1496.32
974.183	1489.09
974.484	1479.37
974.785	1464.68
975.085	1459.71
975.386	1476.2
975.686	1473.04
975.986	1444.79
976.287	1457.22
976.587	1456.32
976.887	1445.92
977.187	1435.75
977.487	1450.89
977.787	1430.1
978.087	1413.15
978.387	1413.38
978.687	1398.92
978.987	1403.89
979.286	1419.93
979.586	1392.59
979.885	1381.52
980.185	1375.87
980.484	1389.43
980.784	1366.15
981.083	1378.58
981.382	1381.74
981.682	1375.87
981.981	1352.37
982.28	1323.21
982.579	1337
982.878	1314.85
983.177	1343.78
983.475	1365.25
983.774	1300.16
984.073	1330.22
984.372	1287.28
984.67	1300.84
984.969	1303.1
985.267	1307.17
985.566	1324.12
985.864	1256.32
986.162	1277.79
986.461	1298.81
986.759	1267.62
987.057	1250.22
987.355	1265.14
987.653	1242.54
987.951	1240.73
988.249	1253.16
988.547	1288.64
988.844	1241.86
989.142	1252.48
989.44	1251.13
989.737	1235.53
990.035	1238.24
990.332	1240.05
990.63	1218.13
990.927	1223.33
991.224	1198.92
991.521	1231.24
991.819	1211.35
992.116	1179.49
992.413	1174.07
992.71	1166.61
993.006	1173.39
993.303	1172.94
993.6	1181.07
993.897	1144.69
994.193	1151.47
994.49	1146.72
994.787	1167.74
995.083	1134.07
995.379	1141.98
995.676	1122.09
995.972	1127.74
996.268	1134.97
996.565	1116.21
996.861	1096.33
997.157	1125.7
997.453	1094.75
997.749	1110.11
998.044	1134.97
998.34	1108.08
998.636	1096.1
998.932	1090.9
999.227	1076.67
999.523	1093.16
999.818	1094.52
1000.114	1077.12
1000.409	1076.89
1000.704	1078.7
1001	1049.55
1001.295	1068.08
1001.59	1061.07
1001.885	1033.05
1002.18	1042.77
1002.475	1014.75
1002.77	1043.45
1003.065	1025.59
1003.359	988.76
1003.654	1010.45
1003.949	1022.2
1004.243	1037.12
1004.538	997.35
1004.832	990.57
1005.127	1006.16
1005.421	978.36
1005.715	996.44
1006.009	998.25
1006.304	989.89
1006.598	985.82
1006.892	955.99
1007.186	960.06
1007.48	957.8
1007.773	955.77
1008.067	955.54
1008.361	936.33
1008.655	976.78
1008.948	939.95
1009.242	945.6
1009.535	930.23
1009.829	914.64
1010.122	919.38
1010.415	926.39
1010.708	904.02
1011.001	904.02
1011.295	905.82
1011.588	901.53
1011.881	906.73
1012.173	883.68
1012.466	878.48
1012.759	880.29
1013.052	879.84
1013.344	885.26
1013.637	870.12
1013.93	867.41
1014.222	869.44
1014.514	862.89
1014.807	855.88
1015.099	859.05
1015.391	850.46
1015.683	843.23
1015.976	847.07
1016.268	858.37
1016.56	850.23
1016.851	811.14
1017.143	839.61
1017.435	828.99
1017.727	808.43
1018.018	788.99
1018.31	803.23
1018.602	789.67
1018.893	805.49
1019.185	793.51
1019.476	803
1019.767	792.83
1020.058	791.7
1020.35	786.73
1020.641	786.96
1020.932	770.23
1021.223	771.82
1021.514	769.78
1021.804	756
1022.095	753.96
1022.386	750.57
1022.677	738.82
1022.967	754.19
1023.258	747.86
1023.548	737.92
1023.839	734.98
1024.129	741.31
1024.419	750.35
1024.709	739.95
1025	708.99
1025.29	719.84
1025.58	706.28
1025.87	723
1026.16	705.6
1026.449	699.28
1026.739	687.07
1027.029	685.26
1027.319	702.21
1027.608	710.57
1027.898	683.46
1028.187	687.75
1028.477	682.33
1028.766	678.26
1029.055	684.36
1029.344	676.45
1029.634	669.45
1029.923	685.26
1030.212	659.73
1030.501	656.11
1030.79	671.93
1031.078	661.31
1031.367	652.95
1031.656	649.33
1031.945	652.05
1032.233	638.71
1032.522	665.6
1032.81	624.48
1033.099	647.98
1033.387	629.67
1033.675	637.13
1033.963	630.58
1034.251	631.48
1034.54	608.88
1034.828	612.72
1035.116	587.41
1035.403	598.26
1035.691	600.29
1035.979	629.9
1036.267	587.64
1036.554	598.94
1036.842	595.55
1037.129	602.78
1037.417	588.32
1037.704	567.75
1037.992	604.81
1038.279	600.97
1038.566	593.29
1038.853	593.29
1039.14	593.29
