Data from brown_tile_FLMS001491_025.txt Node
Date: Tue Feb 07 10:37:17 GMT 2017
User: dcchb
Spectrometer: FLMS00149
Trigger mode: 0
Integration Time (sec): 2.000000E-2
Scans to average: 10
Electric dark correction enabled: true
Nonlinearity correction enabled: false
Boxcar width: 0
XAxis mode: Wavelengths
Number of Pixels in Spectrum: 2048
>>>>>Begin Spectral Data<<<<<
341.393	-10.14
341.776	-10.14
342.16	-10.14
342.543	-51.72
342.927	-78.39
343.31	-56.47
343.693	-62.34
344.077	-60.76
344.46	-61.89
344.843	-63.25
345.226	-30.48
345.61	-33.19
345.993	-28.45
346.376	-0.88
346.759	15.62
347.142	1.38
347.525	32.12
347.908	67.82
348.291	70.99
348.674	97.65
349.057	112.12
349.44	129.52
349.823	140.59
350.206	172
350.588	162.51
350.971	191.66
351.354	225.79
351.737	235.28
352.119	230.3
352.502	226.46
352.884	257.2
353.267	263.52
353.65	281.15
354.032	261.94
354.414	281.15
354.797	288.16
355.179	298.33
355.562	323.18
355.944	295.61
356.326	320.25
356.709	295.61
357.091	325.9
357.473	322.73
357.855	348.72
358.238	332.67
358.62	344.2
359.002	334.93
359.384	333.58
359.766	337.65
360.148	313.24
360.53	321.15
360.912	307.14
361.294	326.57
361.676	331.54
362.057	312.34
362.439	312.56
362.821	315.95
363.203	311.66
363.584	315.27
363.966	313.69
364.348	317.08
364.729	301.26
365.111	310.98
365.493	290.64
365.874	309.85
366.256	307.59
366.637	304.2
367.019	313.01
367.4	312.11
367.781	295.61
368.163	288.16
368.544	300.13
368.925	279.12
369.306	309.4
369.688	290.42
370.069	304.2
370.45	281.83
370.831	285.67
371.212	308.04
371.593	287.7
371.974	299.68
372.355	287.93
372.736	296.97
373.117	282.51
373.498	312.79
373.879	304.43
374.26	279.34
374.641	312.56
375.021	280.7
375.402	294.26
375.783	290.19
376.163	294.71
376.544	315.05
376.925	318.89
377.305	318.44
377.686	302.39
378.066	308.49
378.447	322.96
378.827	320.92
379.208	318.44
379.588	323.86
379.968	302.85
380.349	304.65
380.729	328.38
381.109	321.15
381.489	312.79
381.87	320.02
382.25	322.96
382.63	319.57
383.01	329.74
383.39	314.37
383.77	334.48
384.15	324.77
384.53	333.13
384.91	323.64
385.29	346.46
385.67	321.6
386.049	350.3
386.429	338.55
386.809	338.55
387.189	332.22
387.568	334.48
387.948	340.36
388.328	349.85
388.707	331.09
389.087	358.89
389.466	329.29
389.846	344.43
390.225	345.1
390.605	362.96
390.984	347.14
391.363	343.75
391.743	368.38
392.122	347.14
392.501	337.65
392.881	361.83
393.26	362.5
393.639	357.08
394.018	325.22
394.397	353.47
394.776	368.61
395.155	347.82
395.534	348.49
395.913	352.56
396.292	362.5
396.671	366.57
397.05	356.86
397.429	357.53
397.808	362.28
398.186	374.48
398.565	368.61
398.944	360.92
399.323	366.12
399.701	359.34
400.08	331.77
400.458	355.27
400.837	382.62
401.215	386.23
401.594	372.9
401.972	385.1
402.351	370.64
402.729	374.71
403.107	381.26
403.486	389.62
403.864	388.27
404.242	384.42
404.62	360.92
404.999	391.43
405.377	389.4
405.755	386.01
406.133	403.41
406.511	389.17
406.889	401.15
407.267	399.11
407.645	405.67
408.023	407.02
408.401	393.92
408.779	392.79
409.156	405.67
409.534	403.86
409.912	397.31
410.29	417.42
410.667	421.49
411.045	435.72
411.422	407.02
411.8	431.2
412.178	423.52
412.555	437.98
412.933	422.39
413.31	446.12
413.687	407.7
414.065	429.17
414.442	432.79
414.819	420.58
415.197	452.67
415.574	445.44
415.951	457.64
416.328	442.05
416.705	443.18
417.082	443.18
417.46	467.81
417.837	451.09
418.214	465.1
418.591	462.84
418.967	473.69
419.344	473.24
419.721	470.52
420.098	468.49
420.475	490.86
420.852	476.63
421.228	471.65
421.605	480.92
421.982	463.29
422.358	471.43
422.735	483.86
423.111	501.48
423.488	466.46
423.864	485.89
424.241	494.93
424.617	500.13
424.994	484.08
425.37	521.14
425.746	499
426.123	520.01
426.499	521.82
426.875	523.86
427.251	517.98
427.627	538.77
428.003	522.5
428.379	550.3
428.756	545.1
429.132	548.49
429.507	531.09
429.883	545.1
430.259	539.45
430.635	550.3
431.011	554.36
431.387	577.87
431.763	573.57
432.138	583.74
432.514	561.6
432.89	562.5
433.265	560.01
433.641	570.86
434.016	574.7
434.392	606.79
434.767	591.43
435.143	584.87
435.518	587.36
435.894	599.56
436.269	621.93
436.644	622.16
437.02	610.18
437.395	628.03
437.77	631.65
438.145	634.14
438.52	645.89
438.895	659.67
439.271	623.51
439.646	632.33
440.021	650.63
440.395	653.57
440.77	636.85
441.145	639.33
441.52	665.55
441.895	653.8
442.27	677.07
442.645	659.22
443.019	667.81
443.394	675.04
443.769	662.61
444.143	676.17
444.518	688.37
444.892	679.33
445.267	691.76
445.641	689.05
446.016	708.26
446.39	689.73
446.764	699.9
447.139	732.66
447.513	706.68
447.887	695.6
448.262	688.37
448.636	719.78
449.01	699.22
449.384	744.87
449.758	713.46
450.132	740.57
450.506	720.69
450.88	741.7
451.254	749.39
451.628	768.14
452.002	756.84
452.376	784.41
452.75	759.56
453.123	772.44
453.497	772.21
453.871	772.21
454.244	796.39
454.618	786.22
454.992	805.88
455.365	815.37
455.739	809.27
456.112	817.86
456.486	816.28
456.859	831.64
457.232	821.7
457.606	829.38
457.979	847.46
458.352	882.49
458.725	871.19
459.099	871.19
459.472	885.65
459.845	895.37
460.218	892.43
460.591	910.96
460.964	889.5
461.337	917.29
461.71	923.85
462.083	930.63
462.456	928.82
462.829	945.99
463.201	959.78
463.574	967.23
463.947	969.95
464.32	983.73
464.692	974.92
465.065	1012.21
465.438	1014.01
465.81	1023.73
466.183	996.61
466.555	1035.71
466.928	1049.27
467.3	1049.27
467.672	1047.68
468.045	1094.91
468.417	1076.61
468.789	1073.9
469.161	1097.4
469.534	1123.61
469.906	1118.42
470.278	1133.11
470.65	1160.9
471.022	1167
471.394	1206.55
471.766	1203.16
472.138	1223.5
472.51	1222.59
472.882	1228.47
473.253	1221.92
473.625	1269.15
473.997	1285.87
474.369	1298.3
474.74	1294.01
475.112	1320.9
475.484	1362.48
475.855	1344.4
476.227	1342.82
476.598	1413.1
476.97	1401.12
477.341	1423.04
477.713	1462.14
478.084	1446.54
478.455	1492.42
478.827	1486.77
479.198	1518.41
479.569	1520.21
479.94	1569.48
480.311	1559.76
480.682	1602.02
481.053	1637.05
481.424	1640.44
481.795	1674.56
482.166	1694
482.537	1706.2
482.908	1724.28
483.279	1748
483.65	1773.99
484.021	1783.26
484.391	1818.06
484.762	1836.82
485.133	1844.73
485.503	1844.27
485.874	1903.03
486.244	1937.38
486.615	1960.43
486.985	1991.61
487.356	1980.09
487.726	2029.13
488.097	2077.71
488.467	2077.49
488.837	2124.72
489.207	2153.87
489.578	2137.15
489.948	2205.39
490.318	2170.82
490.688	2206.75
491.058	2224.6
491.428	2269.12
491.798	2278.39
492.168	2369.46
492.538	2327.2
492.908	2305.5
493.278	2366.97
493.648	2391.83
494.017	2465.73
494.387	2437.03
494.757	2444.26
495.126	2455.1
495.496	2472.05
495.866	2460.53
496.235	2530.36
496.605	2518.61
496.974	2567.42
497.344	2549.79
497.713	2619.17
498.082	2613.97
498.452	2636.57
498.821	2663.91
499.19	2662.33
499.559	2725.15
499.928	2718.83
500.298	2765.38
500.667	2732.39
501.036	2757.47
501.405	2802.89
501.774	2772.38
502.143	2843.12
502.512	2845.15
502.88	2858.71
503.249	2833.63
503.618	2887.86
503.987	2903
504.356	2913.17
504.724	2945.49
505.093	2931.7
505.462	2977.13
505.83	3009.44
506.199	3023.68
506.567	3054.41
506.936	3052.15
507.304	3090.12
507.672	3105.94
508.041	3093.05
508.409	3114.52
508.777	3148.42
509.145	3198.36
509.514	3221.19
509.882	3202.88
510.25	3251.69
510.618	3249.89
510.986	3257.34
511.354	3289.89
511.722	3300.05
512.09	3339.15
512.458	3329.66
512.826	3390
513.193	3410.79
513.561	3421.63
513.929	3474.51
514.297	3471.35
514.664	3523.55
515.032	3517.9
515.4	3504.57
515.767	3566.04
516.135	3611.91
516.502	3590.44
516.869	3657.79
517.237	3643.77
517.604	3646.94
517.972	3690.1
518.339	3735.98
518.706	3769.19
519.073	3748.86
519.44	3795.41
519.808	3820.04
520.175	3838.57
520.542	3902.3
520.909	3920.38
521.276	3948.62
521.643	3957.21
522.009	4008.51
522.376	4047.83
522.743	4026.36
523.11	4130.99
523.477	4158.34
523.843	4154.95
524.21	4202.4
524.577	4239.01
524.943	4292.8
525.31	4272.68
525.676	4316.3
526.043	4364.43
526.409	4366.47
526.776	4421.83
527.142	4416.64
527.508	4449.85
527.874	4475.16
528.241	4526.24
528.607	4569.17
528.973	4632.22
529.339	4585.9
529.705	4716.51
530.071	4725.33
530.437	4658.21
530.803	4800.35
531.169	4806.68
531.535	4795.61
531.901	4873.8
532.267	4883.06
532.632	4873.8
532.998	4921.93
533.364	4930.29
533.73	4976.17
534.095	5006.68
534.461	5005.77
534.826	5041.48
535.192	5116.5
535.557	5191.53
535.923	5142.94
536.288	5220
536.653	5283.96
537.019	5223.62
537.384	5280.34
537.749	5361.7
538.114	5325.54
538.479	5340.9
538.845	5415.25
539.21	5420
539.575	5412.77
539.94	5433.78
540.305	5517.17
540.67	5558.75
541.034	5514.69
541.399	5601.01
541.764	5578.86
542.129	5621.8
542.494	5627.9
542.858	5697.73
543.223	5723.27
543.587	5734.57
543.952	5798.07
544.316	5773.44
544.681	5845.52
545.045	5899.76
545.41	5987.89
545.774	5939.31
546.138	5900.21
546.503	6026.08
546.867	6043.03
547.231	6088
547.595	6140.43
547.959	6140.88
548.324	6178.4
548.688	6196.02
549.052	6260.65
549.416	6308.34
549.779	6393.76
550.143	6388.11
550.507	6390.14
550.871	6459.07
551.235	6423.59
551.599	6512.4
551.962	6546.75
552.326	6658.38
552.689	6673.98
553.053	6696.35
553.417	6702
553.78	6882.33
554.143	6855.44
554.507	6870.13
554.87	6903.58
555.234	7045.49
555.597	6995.1
555.96	7056.34
556.323	7188.09
556.686	7162.78
557.05	7220.63
557.413	7388.53
557.776	7400.29
558.139	7473.28
558.502	7452.49
558.865	7501.53
559.228	7603.67
559.59	7682.31
559.953	7766.15
560.316	7823.78
560.679	7911.91
561.041	7999.37
561.404	8013.15
561.767	8101.96
562.129	8125.46
562.492	8253.37
562.854	8300.37
563.217	8325.01
563.579	8404.1
563.941	8509.64
564.304	8583.98
564.666	8685.9
565.028	8691.1
565.39	8751.66
565.753	8928.83
566.115	8988.27
566.477	9049.51
566.839	9106.68
567.201	9228.94
567.563	9226.68
567.925	9336.05
568.287	9406.79
568.648	9453.34
569.01	9577.18
569.372	9698.3
569.734	9735.14
570.095	9832.09
570.457	9874.34
570.819	10008.35
571.18	10029.82
571.542	10170.83
571.903	10140.33
572.265	10295.8
572.626	10353.88
572.987	10447.44
573.349	10483.37
573.71	10662.12
574.071	10710.48
574.432	10766.75
574.794	10813.53
575.155	10907.99
575.516	10956.12
575.877	10987.08
576.238	11156.57
576.599	11233.86
576.96	11264.14
577.32	11304.59
577.681	11363.57
578.042	11471.82
578.403	11567.41
578.763	11573.28
579.124	11676.33
579.485	11741.64
579.845	11846.5
580.206	11858.47
580.566	11865.93
580.927	11931.24
581.287	12016.44
581.648	12073.38
582.008	12136.21
582.368	12175.08
582.728	12215.3
583.089	12260.95
583.449	12354.51
583.809	12397.89
584.169	12448.97
584.529	12517.89
584.889	12636.98
585.249	12525.57
585.609	12561.96
585.969	12766.92
586.329	12697.77
586.688	12740.48
587.048	12748.85
587.408	12909.29
587.768	12932.34
588.127	12868.84
588.487	12972.79
588.846	13030.87
589.206	13019.12
589.565	13092.11
589.925	13162.85
590.284	13191.55
590.643	13248.49
591.003	13309.51
591.362	13373.69
591.721	13380.92
592.08	13338.89
592.44	13426.79
592.799	13522.38
593.158	13503.63
593.517	13518.09
593.876	13613
594.235	13683.28
594.593	13597.86
594.952	13748.37
595.311	13687.35
595.67	13725.09
596.029	13813.68
596.387	13875.14
596.746	13861.81
597.104	13918.53
597.463	13976.61
597.822	13968.02
598.18	13986.78
598.538	14046.21
598.897	14196.49
599.255	14017.29
599.613	14211.63
599.972	14146.1
600.33	14233.1
600.688	14244.63
601.046	14297.73
601.404	14363.04
601.762	14351.06
602.12	14463.15
602.478	14467.22
602.836	14446.43
603.194	14375.24
603.552	14436.03
603.91	14453.66
604.268	14533.21
604.625	14501.12
604.983	14656.37
605.341	14574.33
605.698	14634.67
606.056	14693.88
606.413	14732.3
606.771	14808.9
607.128	14842.35
607.485	14774.33
607.843	14783.14
608.2	14909.69
608.557	15026.07
608.914	14922.35
609.272	14959.41
609.629	15053.42
609.986	15058.62
610.343	15033.98
610.7	15092.06
611.057	15158.27
611.414	15096.13
611.771	15152.62
612.127	15265.84
612.484	15342
612.841	15234.2
613.198	15323.02
613.554	15315.11
613.911	15383.58
614.267	15399.62
614.624	15441.66
614.98	15480.07
615.337	15594.19
615.693	15517.81
616.05	15619.96
616.406	15590.13
616.762	15566.17
617.118	15563.91
617.475	15582.67
617.831	15634.19
618.187	15647.53
618.543	15690.69
618.899	15759.84
619.255	15717.81
619.611	15743.34
619.967	15833.74
620.323	15855.43
620.678	15754.42
621.034	15769.33
621.39	15832.61
621.746	15842.1
622.101	15923.45
622.457	15878.03
622.812	15878.25
623.168	15975.43
623.523	15979.04
623.879	15913.06
624.234	15920.51
624.589	16010.91
624.945	15973.39
625.3	15976.78
625.655	16006.61
626.01	15980.63
626.365	16142.88
626.72	15990.57
627.075	16013.39
627.43	16030.57
627.785	16021.08
628.14	16006.16
628.495	16076.22
628.85	16040.51
629.205	15933.39
629.559	16084.13
629.914	16026.73
630.269	16084.35
630.623	16052.94
630.978	16087.29
631.332	16083.45
631.687	16097.68
632.041	15974.07
632.396	16059.04
632.75	15983.11
633.104	15980.4
633.459	15865.6
633.813	15927.75
634.167	15972.72
634.521	15944.69
634.875	15909.44
635.229	15931.13
635.583	15920.74
635.937	15836
636.291	15760.52
636.645	15924.58
636.999	15804.81
637.352	15935.2
637.706	15792.38
638.06	15868.99
638.413	15827.41
638.767	15883.9
639.121	15776.79
639.474	15713.06
639.828	15765.72
640.181	15672.38
640.534	15753.51
640.888	15742.44
641.241	15646.62
641.594	15624.7
641.947	15727.07
642.301	15712.16
642.654	15667.64
643.007	15662.44
643.36	15627.64
643.713	15719.16
644.066	15735.89
644.419	15603.01
644.771	15411.6
645.124	15320.08
645.477	15377.03
645.83	15280.53
646.182	15144.71
646.535	15187.2
646.888	15213.19
647.24	15120.99
647.593	15300.19
647.945	15193.3
648.298	15099.97
648.65	15083.7
649.002	15069.46
649.355	15151.72
649.707	15109.24
650.059	15170.25
650.411	15345.16
650.763	15367.76
651.115	15516
651.467	15411.6
651.819	15455.22
652.171	15417.25
652.523	15363.92
652.875	15389
653.227	15436.01
653.578	15503.8
653.93	15445.95
654.282	15382.67
654.633	15393.52
654.985	15370.7
655.337	15313.98
655.688	15398.49
656.039	15415.89
656.391	15331.6
656.742	15274.65
657.094	15358.04
657.445	15462.45
657.796	15390.36
658.147	15299.06
658.498	15386.29
658.849	15415.67
659.2	15302.22
659.551	15368.44
659.902	15421.32
660.253	15351.71
660.604	15284.37
660.955	15367.53
661.306	15406.85
661.656	15306.74
662.007	15353.75
662.358	15366.86
662.708	15363.01
663.059	15370.47
663.409	15303.58
663.76	15589.22
664.11	15388.1
664.461	15393.52
664.811	15364.6
665.161	15446.18
665.511	15377.25
665.862	15465.61
666.212	15437.14
666.562	15420.19
666.912	15439.17
667.262	15391.04
667.612	15460.64
667.962	15496.34
668.312	15405.27
668.662	15522.78
669.011	15469
669.361	15415.89
669.711	15411.37
670.06	15395.56
670.41	15339.51
670.76	15432.84
671.109	15439.62
671.459	15421.32
671.808	15417.48
672.157	15489.79
672.507	15342.45
672.856	15397.36
673.205	15431.03
673.554	15419.96
673.904	15449.57
674.253	15481.66
674.602	15474.2
674.951	15220.42
675.3	15137.03
675.649	15446.63
675.998	15403.69
676.346	15456.12
676.695	15509
677.044	15338.61
677.393	15469.23
677.741	15381.54
678.09	15355.1
678.438	15331.83
678.787	15440.3
679.135	15479.4
679.484	15323.47
679.832	15356.01
680.181	15343.13
680.529	15361.21
680.877	15371.38
681.225	15319.17
681.573	15377.03
681.922	15285.05
682.27	15284.6
682.618	15247.08
682.966	15305.61
683.314	15335.22
683.661	15308.78
684.009	15269.68
684.357	15254.32
684.705	15212.28
685.053	15212.74
685.4	15230.81
685.748	15127.54
686.095	15095.22
686.443	15164.83
686.79	15048.67
687.138	15155.11
687.485	15113.08
687.832	15089.57
688.18	15135.68
688.527	15050.03
688.874	15014.32
689.221	15039.63
689.568	15082.12
689.915	14916.47
690.262	15023.59
690.609	14916.47
690.956	15000.31
691.303	14968.45
691.65	14831.05
691.997	14922.12
692.344	14812.97
692.69	14815.91
693.037	14871.5
693.383	14738.4
693.73	14789.7
694.077	14700.21
694.423	14789.92
694.769	14660.21
695.116	14655.24
695.462	14580.21
695.808	14633.32
696.155	14656.14
696.501	14489.82
696.847	14549.93
697.193	14475.58
697.539	14518.29
697.885	14424.28
698.231	14481.68
698.577	14505.64
698.923	14426.77
699.269	14410.5
699.614	14299.77
699.96	14340.89
700.306	14337.5
700.651	14208.02
700.997	14236.49
701.342	14322.82
701.688	14240.11
702.033	14200.78
702.379	14208.24
702.724	14224.96
703.069	14127.57
703.415	14002.15
703.76	14071.07
704.105	14035.82
704.45	14097.96
704.795	14003.05
705.14	13893.9
705.485	14023.61
705.83	13861.58
706.175	13959.44
706.52	13991.3
706.865	13903.62
707.209	13888.25
707.554	13831.98
707.899	13867.01
708.243	13733
708.588	13849.16
708.932	13745.43
709.277	13725.77
709.621	13773.23
709.966	13693
710.31	13758.08
710.654	13616.39
710.998	13546.79
711.342	13633.79
711.687	13556.28
712.031	13577.07
712.375	13558.77
712.719	13576.62
713.063	13558.32
713.407	13657.07
713.75	13535.49
714.094	13477.87
714.438	13486.23
714.782	13479.67
715.125	13433.57
715.469	13441.93
715.812	13370.3
716.156	13285.1
716.499	13331.66
716.843	13422.05
717.186	13380.92
717.53	13391.31
717.873	13365.78
718.216	13325.33
718.559	13367.13
718.902	13234.48
719.246	13273.8
719.589	13213.24
719.932	13211.43
720.275	13224.99
720.617	13215.27
720.96	13204.88
721.303	13138.67
721.646	13201.04
721.989	13103.86
722.331	13176.86
722.674	13112.9
723.016	13122.85
723.359	13117.88
723.701	13098.67
724.044	13107.03
724.386	13021.83
724.729	13120.59
725.071	13044.66
725.413	13094.6
725.755	13043.3
726.097	12993.81
726.439	12972.12
726.782	12952.46
727.124	13024.09
727.465	12979.57
727.807	12928.95
728.149	12858.67
728.491	12923.3
728.833	12927.6
729.175	12900.71
729.516	12850.09
729.858	12825.68
730.199	12866.58
730.541	12880.14
730.882	12836.53
731.224	12906.58
731.565	12800.14
731.906	12856.87
732.248	12818
732.589	12825.45
732.93	12790.2
733.271	12761.27
733.612	12869.97
733.953	12757.66
734.294	12761.73
734.635	12695.74
734.976	12713.59
735.317	12670.43
735.658	12647.38
735.999	12633.14
736.339	12609.41
736.68	12629.75
737.021	12644.22
737.361	12596.99
737.702	12699.58
738.042	12574.39
738.383	12592.24
738.723	12571.68
739.063	12542.07
739.404	12589.98
739.744	12544.33
740.084	12476.54
740.424	12468.17
740.764	12465.46
741.104	12466.37
741.444	12457.1
741.784	12399.25
742.124	12343.43
742.464	12358.35
742.804	12392.02
743.143	12347.27
743.483	12338.23
743.823	12286.26
744.162	12236.99
744.502	12320.83
744.841	12357.44
745.181	12275.64
745.52	12187.5
745.86	12176.66
746.199	12171.01
746.538	12226.37
746.877	12227.05
747.216	12220.5
747.556	12243.32
747.895	12205.13
748.234	12123.33
748.573	12023.89
748.911	12129.2
749.25	12032.03
749.589	12040.84
749.928	12040.16
750.267	12108.64
750.605	12051.01
750.944	11994.97
751.283	11961.75
751.621	11994.74
751.96	11832.26
752.298	11924.01
752.636	11939.83
752.975	11826.16
753.313	11824.35
753.651	11806.5
753.989	11751.58
754.327	11770.79
754.666	11618.03
755.004	11665.48
755.342	11718.36
755.679	11699.16
756.017	11569.22
756.355	11550.01
756.693	11551.81
757.031	11583.23
757.368	11529.67
757.706	11492.83
758.044	11394.3
758.381	11514.3
758.719	11296.45
759.056	11402.44
759.394	11299.62
759.731	11287.19
760.068	11220.75
760.405	11168.77
760.743	11167.42
761.08	11223.69
761.417	11124.71
761.754	11094.65
762.091	11066.86
762.428	11024.15
762.765	11021.21
763.102	11024.6
763.438	10910.02
763.775	10869.12
764.112	10785.28
764.449	10917.71
764.785	10852.62
765.122	10668.45
765.458	10711.61
765.795	10695.34
766.131	10648.11
766.467	10672.29
766.804	10591.84
767.14	10539.64
767.476	10601.33
767.812	10493.54
768.148	10521.79
768.485	10402.69
768.821	10366.54
769.157	10408.79
769.492	10304.39
769.828	10291.06
770.164	10203.83
770.5	10201.12
770.836	10196.6
771.171	10148.24
771.507	10070.95
771.842	10029.14
772.178	9971.52
772.513	9921.35
772.849	9917.51
773.184	9892.65
773.519	9884.51
773.855	9865.08
774.19	9774.69
774.525	9774.23
774.86	9760.22
775.195	9735.59
775.53	9643.39
775.865	9616.27
776.2	9491.76
776.535	9497.63
776.87	9501.47
777.205	9440.23
777.539	9396.17
777.874	9355.94
778.209	9359.78
778.543	9354.36
778.878	9317.75
779.212	9280.91
779.547	9214.7
779.881	9282.95
780.215	9186.23
780.55	9159.79
780.884	9044.08
781.218	9052.9
781.552	9042.95
781.886	8976.52
782.22	8949.85
782.554	8892.22
782.888	8839.34
783.222	8858.78
783.556	8878.21
783.889	8798.21
784.223	8649.29
784.557	8601.84
784.89	8670.31
785.224	8617.2
785.557	8561.16
785.891	8602.97
786.224	8485.91
786.558	8475.96
786.891	8334.72
787.224	8389.86
787.557	8398.68
787.891	8355.29
788.224	8314.16
788.557	8247.5
788.89	8286.14
789.223	8257.66
789.556	8228.96
789.888	8150.55
790.221	8085.92
790.554	8056.54
790.887	8052.7
791.219	8098.8
791.552	8003.66
791.884	7966.6
792.217	7907.62
792.549	7889.99
792.882	7875.08
793.214	7795.53
793.546	7810.22
793.879	7750.11
794.211	7729.32
794.543	7774.51
794.875	7735.42
795.207	7698.13
795.539	7613.16
795.871	7710.79
796.203	7622.43
796.535	7565.48
796.867	7496.33
797.198	7538.81
797.53	7508.98
797.862	7402.55
798.193	7448.65
798.525	7385.37
798.856	7433.96
799.188	7355.09
799.519	7298.82
799.85	7248.88
800.182	7276.9
800.513	7225.15
800.844	7167.98
801.175	7185.6
801.506	7167.52
801.837	7159.16
802.168	7181.99
802.499	7054.31
802.83	7061.54
803.161	7014.76
803.491	7053.63
803.822	7079.39
804.153	6994.42
804.483	6956.23
804.814	6979.73
805.145	6863.35
805.475	6894.99
805.805	6828.1
806.136	6804.6
806.466	6858.15
806.796	6827.19
807.126	6761.21
807.457	6752.39
807.787	6756.46
808.117	6729.79
808.447	6685.5
808.777	6685.73
809.107	6677.14
809.436	6606.86
809.766	6554.21
810.096	6608.67
810.426	6563.47
810.755	6589.01
811.085	6560.53
811.414	6486.64
811.744	6458.84
812.073	6496.81
812.403	6435.57
812.732	6406.41
813.061	6403.25
813.39	6353.31
813.719	6307.88
814.049	6359.64
814.378	6392.63
814.707	6273.76
815.036	6280.77
815.365	6253.2
815.693	6191.96
816.022	6226.08
816.351	6193.54
816.68	6160.77
817.008	6168.91
817.337	6121.22
817.665	6127.78
817.994	6091.17
818.322	6112.64
818.651	6080.77
818.979	6037.84
819.307	6090.72
819.636	6055.46
819.964	6011.62
820.292	5999.87
820.62	6012.07
820.948	5970.49
821.276	6018.63
821.604	5987.67
821.932	5978.4
822.259	5936.82
822.587	5986.54
822.915	5910.83
823.243	5993.54
823.57	5971.85
823.898	5991.28
824.225	5910.61
824.553	5955.13
824.88	5894.56
825.207	5956.93
825.535	5965.52
825.862	5942.02
826.189	5925.75
826.516	5927.78
826.843	5885.07
827.17	5897.27
827.497	5920.78
827.824	5901.79
828.151	5894.11
828.478	5928.23
828.805	5857.05
829.131	5831.51
829.458	5842.59
829.785	5793.55
830.111	5845.07
830.438	5864.51
830.764	5851.85
831.09	5868.35
831.417	5737.05
831.743	5822.25
832.069	5831.29
832.395	5777.28
832.722	5808.69
833.048	5794.68
833.374	5730.05
833.7	5773.66
834.026	5748.13
834.351	5741.35
834.677	5783.15
835.003	5743.61
835.329	5792.42
835.654	5742.48
835.98	5703.38
836.306	5732.98
836.631	5702.7
836.956	5686.43
837.282	5672.2
837.607	5655.7
837.932	5640.56
838.258	5699.54
838.583	5659.99
838.908	5572.54
839.233	5590.39
839.558	5603.5
839.883	5559.66
840.208	5626.1
840.533	5592.88
840.858	5598.3
841.182	5555.59
841.507	5575.93
841.832	5509.49
842.156	5534.35
842.481	5485.53
842.805	5499.09
843.13	5452.09
843.454	5389.49
843.778	5462.48
844.103	5406.67
844.427	5409.38
844.751	5444.4
845.075	5384.07
845.399	5352.88
845.723	5337.97
846.047	5359.21
846.371	5255.26
846.695	5261.81
847.019	5252.09
847.343	5250.06
847.666	5203.73
847.99	5213.68
848.313	5206.22
848.637	5183.39
848.96	5121.93
849.284	5118.99
849.607	5036.28
849.931	5053.45
850.254	4999.67
850.577	4980.46
850.9	4994.25
851.223	4963.29
851.546	4913.35
851.869	4949.05
852.192	4949.95
852.515	4883.97
852.838	4890.07
853.161	4864.08
853.483	4822.05
853.806	4832.67
854.129	4801.26
854.451	4746.8
854.774	4767.59
855.096	4724.88
855.419	4758.32
855.741	4746.57
856.063	4725.78
856.385	4701.37
856.708	4655.5
857.03	4653.24
857.352	4642.62
857.674	4626.12
857.996	4592.45
858.318	4578.21
858.64	4605.33
858.961	4589.29
859.283	4543.41
859.605	4553.58
859.926	4540.25
860.248	4492.57
860.57	4489.85
860.891	4544.99
861.212	4456.86
861.534	4470.19
861.855	4476.75
862.176	4473.58
862.498	4467.93
862.819	4419.12
863.14	4442.85
863.461	4415.28
863.782	4417.31
864.103	4391.1
864.424	4404.43
864.745	4399.91
865.065	4397.43
865.386	4289.86
865.707	4321.72
866.027	4361.5
866.348	4370.53
866.668	4327.82
866.989	4358.11
867.309	4352.23
867.63	4322.63
867.95	4288.5
868.27	4263.87
868.59	4243.31
868.91	4271.1
869.23	4280.14
869.55	4265.68
869.87	4309.29
870.19	4215.96
870.51	4256.87
870.83	4226.81
871.15	4192.69
871.469	4226.36
871.789	4222.06
872.109	4212.35
872.428	4211.22
872.748	4195.62
873.067	4203.53
873.386	4187.71
873.706	4213.93
874.025	4184.55
874.344	4150.2
874.663	4175.51
874.982	4124.21
875.301	4144.78
875.62	4143.42
875.939	4089.64
876.258	4138.22
876.577	4093.71
876.896	4116.76
877.214	4034.72
877.533	4069.75
877.852	4107.72
878.17	4039.47
878.489	4072.46
878.807	4081.95
879.125	4034.95
879.444	4038.11
879.762	4022.3
880.08	4026.82
880.398	4015.29
880.716	4027.27
881.034	4056.87
881.352	3997.21
881.67	3965.12
881.988	3984.78
882.306	3975.52
882.624	3971.45
882.941	3926.93
883.259	3888.51
883.577	3899.59
883.894	3928.96
884.212	3958.34
884.529	3920.83
884.846	3897.78
885.164	3909.76
885.481	3846.71
885.798	3877.44
886.115	3887.38
886.432	3881.06
886.75	3862.07
887.067	3856.2
887.383	3857.78
887.7	3821.85
888.017	3845.12
888.334	3837.22
888.651	3816.2
888.967	3791.79
889.284	3778.91
889.6	3757.67
889.917	3714.73
890.233	3732.59
890.55	3725.58
890.866	3743.43
891.182	3721.29
891.498	3736.88
891.815	3686.71
892.131	3660.72
892.447	3667.28
892.763	3630.22
893.079	3617.79
893.395	3621.63
893.71	3594.06
894.026	3618.01
894.342	3607.39
894.657	3588.18
894.973	3548.18
895.289	3567.17
895.604	3610.55
895.92	3553.38
896.235	3550.22
896.55	3537.34
896.865	3548.64
897.181	3503.89
897.496	3520.84
897.811	3466.83
898.126	3456.66
898.441	3473.84
898.756	3419.37
899.071	3419.6
899.386	3441.75
899.7	3417.79
900.015	3441.75
900.33	3373.95
900.644	3392.48
900.959	3411.24
901.273	3340.73
901.588	3352.26
901.902	3323.56
902.216	3334.18
902.531	3284.69
902.845	3313.16
903.159	3302.77
903.473	3320.62
903.787	3265.25
904.101	3274.29
904.415	3279.72
904.729	3268.19
905.042	3276.55
905.356	3195.88
905.67	3159.72
905.984	3242.43
906.297	3200.85
906.611	3191.13
906.924	3194.52
907.237	3185.93
907.551	3156.56
907.864	3139.61
908.177	3147.29
908.491	3092.38
908.804	3149.32
909.117	3101.64
909.43	3082.21
909.743	3067.97
910.056	3033.39
910.368	3052.38
910.681	3015.54
910.994	3071.13
911.307	3027.52
911.619	2987.75
911.932	2992.04
912.244	2970.57
912.557	2949.1
912.869	2964.7
913.181	2917.47
913.494	2963.34
913.806	2921.99
914.118	2899.84
914.43	2863
914.742	2893.29
915.054	2933.51
915.366	2870.91
915.678	2845.83
915.99	2843.8
916.302	2834.08
916.613	2813.51
916.925	2844.7
917.236	2825.26
917.548	2812.16
917.859	2843.12
918.171	2757.47
918.482	2810.12
918.794	2742.1
919.105	2748.43
919.416	2705.27
919.727	2727.41
920.038	2701.2
920.349	2697.13
920.66	2720.63
920.971	2696
921.282	2678.83
921.593	2663.69
921.903	2650.13
922.214	2626.63
922.525	2637.7
922.835	2623.46
923.146	2622.56
923.456	2631.6
923.767	2602.45
924.077	2592.73
924.387	2583.46
924.697	2574.65
925.008	2542.79
925.318	2551.6
925.628	2567.42
925.938	2527.87
926.248	2502.56
926.558	2496.01
926.867	2506.85
927.177	2495.78
927.487	2476.8
927.796	2443.13
928.106	2455.33
928.416	2448.78
928.725	2459.85
929.034	2426.86
929.344	2427.31
929.653	2432.05
929.962	2397.25
930.271	2411.04
930.581	2402.9
930.89	2379.63
931.199	2363.58
931.508	2408.33
931.817	2372.62
932.125	2328.33
932.434	2314.54
932.743	2358.38
933.051	2326.52
933.36	2307.31
933.669	2293.08
933.977	2263.92
934.286	2322
934.594	2323.58
934.902	2283.13
935.21	2261.66
935.519	2275.67
935.827	2261.66
936.135	2273.19
936.443	2224.83
936.751	2250.59
937.059	2220.53
937.367	2170.14
937.674	2158.62
937.982	2145.06
938.29	2180.31
938.597	2160.2
938.905	2141.44
939.213	2160.2
939.52	2159.29
939.827	2145.06
940.135	2136.47
940.442	2122.68
940.749	2130.37
941.056	2152.06
941.363	2142.12
941.67	2108.22
941.977	2095.57
942.284	2065.96
942.591	2091.5
942.898	2050.82
943.205	2112.74
943.511	2070.71
943.818	2020.09
944.125	2043.82
944.431	2041.78
944.738	2032.52
945.044	2024.16
945.35	2002.01
945.657	1983.7
945.963	1994.78
946.269	1998.62
946.575	1985.51
946.881	1966.76
947.187	2004.95
947.493	1937.38
947.799	1911.16
948.105	1933.54
948.41	1917.72
948.716	1937.15
949.022	1925.18
949.327	1874.33
949.633	1907.77
949.938	1908.9
950.244	1915.91
950.549	1881.11
950.854	1903.48
951.16	1843.14
951.465	1866.87
951.77	1854.22
952.075	1852.63
952.38	1832.3
952.685	1830.94
952.99	1859.64
953.294	1814.22
953.599	1828.23
953.904	1821
954.209	1783.71
954.513	1768.12
954.818	1788
955.122	1760.21
955.426	1812.18
955.731	1785.52
956.035	1775.8
956.339	1792.07
956.643	1756.37
956.948	1759.98
957.252	1750.94
957.556	1708.01
957.86	1717.5
958.163	1722.24
958.467	1737.38
958.771	1716.59
959.075	1710.94
959.378	1696.03
959.682	1712.75
959.985	1660.55
960.289	1702.13
960.592	1668.01
960.896	1675.69
961.199	1648.35
961.502	1667.33
961.805	1639.76
962.108	1625.97
962.411	1659.42
962.714	1592.53
963.017	1630.95
963.32	1621.45
963.623	1615.8
963.926	1577.84
964.228	1614.45
964.531	1603.15
964.833	1561.8
965.136	1592.3
965.438	1563.83
965.741	1562.93
966.043	1537.39
966.345	1561.8
966.648	1543.26
966.95	1537.84
967.252	1557.95
967.554	1562.7
967.856	1529.03
968.158	1531.51
968.46	1536.03
968.761	1517.5
969.063	1539.2
969.365	1498.07
969.666	1516.37
969.968	1490.61
970.269	1473.21
970.571	1510.72
970.872	1474.11
971.174	1474.34
971.475	1489.48
971.776	1471.18
972.077	1456.26
972.378	1451.06
972.679	1456.94
972.98	1461.01
973.281	1402.25
973.582	1413.32
973.883	1433.89
974.183	1468.92
974.484	1399.09
974.785	1415.81
975.085	1419.2
975.386	1426.21
975.686	1426.43
975.986	1400.67
976.287	1360.67
976.587	1405.87
976.887	1357.73
977.187	1362.93
977.487	1364.74
977.787	1362.48
978.087	1375.81
978.387	1363.83
978.687	1337.39
978.987	1334.23
979.286	1326.32
979.586	1340.33
979.885	1332.87
980.185	1301.01
980.484	1343.72
980.784	1318.19
981.083	1313.67
981.382	1308.47
981.682	1297.62
981.981	1291.75
982.28	1285.64
982.579	1286.32
982.878	1261.01
983.177	1300.11
983.475	1289.94
983.774	1274.57
984.073	1245.65
984.372	1262.14
984.67	1255.36
984.969	1277.28
985.267	1255.36
985.566	1232.09
985.864	1260.11
986.162	1244.52
986.461	1245.19
986.759	1232.09
987.057	1207.45
987.355	1196.15
987.653	1201.8
987.951	1221.69
988.249	1198.87
988.547	1211.07
988.844	1176.27
989.142	1197.74
989.44	1201.8
989.737	1215.36
990.035	1166.55
990.332	1135.37
990.63	1155.48
990.927	1167.23
991.224	1163.16
991.521	1138.98
991.819	1127.23
992.116	1134.24
992.413	1148.92
992.71	1142.15
993.006	1121.35
993.303	1099.21
993.6	1141.24
993.897	1117.06
994.193	1127.68
994.49	1122.48
994.787	1112.32
995.083	1103.05
995.379	1094.01
995.676	1086.33
995.972	1072.32
996.268	1086.33
996.565	1105.54
996.861	1082.94
997.157	1072.32
997.453	1075.93
997.749	1051.07
998.044	1068.25
998.34	1066.44
998.636	1064.86
998.932	1053.11
999.227	1019.66
999.523	1018.98
999.818	1022.37
1000.114	1024.63
1000.409	1016.27
1000.704	1019.66
1001	1017.18
1001.295	1043.39
1001.59	1002.71
1001.885	1011.53
1002.18	989.61
1002.475	997.97
1002.77	987.57
1003.065	995.03
1003.359	972.43
1003.654	974.92
1003.949	993.67
1004.243	950.29
1004.538	971.75
1004.832	953.68
1005.127	969.27
1005.421	944.41
1005.715	934.92
1006.009	975.6
1006.304	917.07
1006.598	933.79
1006.892	944.18
1007.186	938.31
1007.48	932.66
1007.773	932.43
1008.067	928.59
1008.361	899.21
1008.655	915.71
1008.948	898.31
1009.242	910.29
1009.535	920.68
1009.829	915.03
1010.122	893.56
1010.415	881.81
1010.708	893.11
1011.001	896.73
1011.295	877.52
1011.588	862.38
1011.881	863.96
1012.173	879.78
1012.466	860.57
1012.759	858.54
1013.052	841.81
1013.344	854.02
1013.637	835.71
1013.93	830.06
1014.222	842.04
1014.514	831.42
1014.807	856.05
1015.099	847.46
1015.391	813.11
1015.683	802.49
1015.976	826.22
1016.268	821.7
1016.56	799.56
1016.851	813.11
1017.143	827.8
1017.435	797.3
1017.727	777.18
1018.018	807.69
1018.31	784.41
1018.602	816.28
1018.893	781.02
1019.185	768.37
1019.476	783.28
1019.767	796.62
1020.058	790.29
1020.35	753.91
1020.641	769.05
1020.932	759.1
1021.223	765.43
1021.514	743.06
1021.804	740.12
1022.095	742.83
1022.386	733.12
1022.677	707.81
1022.967	745.55
1023.258	701.03
1023.548	728.82
1023.839	709.61
1024.129	708.03
1024.419	707.58
1024.709	723.85
1025	709.84
1025.29	708.26
1025.58	701.25
1025.87	694.7
1026.16	706.22
1026.449	709.84
1026.739	689.73
1027.029	701.48
1027.319	695.15
1027.608	680.91
1027.898	702.61
1028.187	677.98
1028.477	672.1
1028.766	683.4
1029.055	654.25
1029.344	672.1
1029.634	674.36
1029.923	648.37
1030.212	646.11
1030.501	628.49
1030.79	623.74
1031.078	651.54
1031.367	624.64
1031.656	630.75
1031.945	629.16
1032.233	631.65
1032.522	637.07
1032.81	611.09
1033.099	632.33
1033.387	626.23
1033.675	572.44
1033.963	607.7
1034.251	609.5
1034.54	577.19
1034.828	591.88
1035.116	592.78
1035.403	599.56
1035.691	594.36
1035.979	603.4
1036.267	584.42
1036.554	584.19
1036.842	560.69
1037.129	595.04
1037.417	570.86
1037.704	574.7
1037.992	574.25
1038.279	563.4
1038.566	569.28
1038.853	569.28
1039.14	569.28
