Data from brown_tile_FLMS001491_022.txt Node
Date: Tue Feb 07 10:37:16 GMT 2017
User: dcchb
Spectrometer: FLMS00149
Trigger mode: 0
Integration Time (sec): 2.000000E-2
Scans to average: 10
Electric dark correction enabled: true
Nonlinearity correction enabled: false
Boxcar width: 0
XAxis mode: Wavelengths
Number of Pixels in Spectrum: 2048
>>>>>Begin Spectral Data<<<<<
341.393	-6.44
341.776	-6.44
342.16	-6.44
342.543	-46.89
342.927	-49.38
343.31	-80.79
343.693	-76.5
344.077	-70.85
344.46	-65.87
344.843	-54.12
345.226	-42.15
345.61	-24.97
345.993	-26.78
346.376	5.54
346.759	-2.6
347.142	26.1
347.525	31.07
347.908	73.78
348.291	81.24
348.674	92.54
349.057	134.35
349.44	126.89
349.823	127.34
350.206	175.25
350.588	177.28
350.971	193.78
351.354	210.28
351.737	217.73
352.119	220.45
352.502	252.99
352.884	303.38
353.267	257.51
353.65	281.46
354.032	290.5
354.414	286.89
354.797	290.5
355.179	341.57
355.562	299.31
355.944	327.56
356.326	321.46
356.709	330.95
357.091	333.21
357.473	316.04
357.855	334.57
358.238	318.75
358.62	336.6
359.002	323.95
359.384	323.72
359.766	330.73
360.148	330.27
360.53	326.88
360.912	313.55
361.294	328.47
361.676	321.46
362.057	344.96
362.439	301.35
362.821	316.94
363.203	302.48
363.584	316.94
363.966	323.95
364.348	316.94
364.729	320.78
365.111	327.34
365.493	292.76
365.874	312.87
366.256	290.27
366.637	310.61
367.019	315.81
367.4	314.46
367.781	304.74
368.163	306.55
368.544	311.07
368.925	302.93
369.306	281.24
369.688	289.37
370.069	299.31
370.45	313.1
370.831	282.59
371.212	286.66
371.593	296.15
371.974	304.51
372.355	286.89
372.736	281.24
373.117	301.35
373.498	289.14
373.879	299.09
374.26	296.38
374.641	281.69
375.021	309.94
375.402	315.36
375.783	300.9
376.163	302.03
376.544	313.55
376.925	300.44
377.305	307
377.686	313.33
378.066	295.25
378.447	317.39
378.827	308.58
379.208	282.14
379.588	327.34
379.968	332.53
380.349	307.22
380.729	325.75
381.109	306.09
381.489	299.77
381.87	301.57
382.25	320.78
382.63	321.91
383.01	329.37
383.39	317.84
383.77	341.35
384.15	314
384.53	328.92
384.91	327.79
385.29	346.32
385.67	333.66
386.049	333.89
386.429	344.28
386.809	328.24
387.189	347.9
387.568	340.44
387.948	339.54
388.328	338.64
388.707	318.07
389.087	332.53
389.466	329.82
389.846	345.19
390.225	342.93
390.605	330.27
390.984	344.06
391.363	328.01
391.743	323.04
392.122	324.17
392.501	319.65
392.881	354.23
393.26	345.87
393.639	354.68
394.018	362.82
394.397	347
394.776	350.16
395.155	368.92
395.534	353.55
395.913	366.88
396.292	354
396.671	364.62
397.05	365.53
397.429	375.02
397.808	363.72
398.186	372.08
398.565	376.15
398.944	363.95
399.323	372.76
399.701	388.8
400.08	354
400.458	377.5
400.837	370.95
401.215	374.79
401.594	399.2
401.972	372.76
402.351	369.82
402.729	376.83
403.107	399.65
403.486	375.02
403.864	387.22
404.242	368.01
404.62	391.06
404.999	387.67
405.377	386.09
405.755	387.67
406.133	409.14
406.511	383.15
406.889	410.72
407.267	401.68
407.645	399.88
408.023	420.89
408.401	388.35
408.779	407.11
409.156	427.9
409.534	419.54
409.912	413.66
410.29	434.9
410.667	430.38
411.045	436.03
411.422	418.86
411.8	420.67
412.178	423.6
412.555	430.84
412.933	426.54
413.31	444.4
413.687	440.78
414.065	446.88
414.442	434.23
414.819	422.93
415.197	462.47
415.574	437.39
415.951	444.4
416.328	455.47
416.705	473.09
417.082	459.76
417.46	473.55
417.837	451.17
418.214	461.8
418.591	460.89
418.967	460.21
419.344	471.74
419.721	474.9
420.098	485.75
420.475	469.48
420.852	485.75
421.228	454.79
421.605	463.83
421.982	513.09
422.358	496.37
422.735	496.15
423.111	495.69
423.488	493.43
423.864	488.69
424.241	506.54
424.617	496.6
424.994	498.18
425.37	492.76
425.746	511.29
426.123	511.06
426.499	531.85
426.875	523.94
427.251	508.12
427.627	545.64
428.003	532.53
428.379	537.73
428.756	532.53
429.132	527.1
429.507	575.69
429.883	525.97
430.259	582.47
430.635	547.9
431.011	561.68
431.387	548.57
431.763	563.04
432.138	549.48
432.514	571.4
432.89	570.95
433.265	596.26
433.641	594.67
434.016	577.5
434.392	586.54
434.767	593.32
435.143	607.1
435.518	628.57
435.894	604.62
436.269	619.76
436.644	620.89
437.02	611.62
437.395	626.54
437.77	627.89
438.145	619.98
438.52	618.63
438.895	656.14
439.271	643.71
439.646	633.77
440.021	655.24
440.395	661.79
440.77	644.84
441.145	657.5
441.52	687.33
441.895	651.17
442.27	666.08
442.645	664.73
443.019	673.54
443.394	668.8
443.769	678.51
444.143	673.54
444.518	675.8
444.892	681.68
445.267	706.76
445.641	707.89
446.016	703.15
446.39	691.85
446.764	719.42
447.139	681.9
447.513	707.21
447.887	718.96
448.262	736.36
448.636	719.19
449.01	720.32
449.384	723.26
449.758	725.29
450.132	757.61
450.506	708.79
450.88	758.06
451.254	746.53
451.628	744.95
452.002	756.03
452.376	762.13
452.75	745.18
453.123	771.17
453.497	778.62
453.871	797.83
454.244	794.44
454.618	792.41
454.992	808.45
455.365	801.9
455.739	796.48
456.112	820.88
456.486	829.24
456.859	843.71
457.232	845.29
457.606	849.81
457.979	859.53
458.352	878.51
458.725	855.23
459.099	855.91
459.472	890.71
459.845	895.91
460.218	886.64
460.591	905.63
460.964	910.6
461.337	915.57
461.71	931.84
462.083	946.75
462.456	943.14
462.829	943.59
463.201	965.29
463.574	972.97
463.947	974.55
464.32	1003.25
464.692	991.95
465.065	1010.48
465.438	1011.16
465.81	1041.22
466.183	1044.61
466.555	1039.41
466.928	1041.44
467.3	1054.1
467.672	1060.42
468.045	1091.61
468.417	1089.35
468.789	1075.34
469.161	1110.82
469.534	1138.61
469.906	1144.49
470.278	1139.97
470.65	1137.71
471.022	1188.33
471.394	1170.7
471.766	1172.51
472.138	1224.71
472.51	1183.81
472.882	1233.98
473.253	1233.3
473.625	1268.55
473.997	1277.37
474.369	1269.91
474.74	1293.41
475.112	1304.26
475.484	1353.3
475.855	1359.4
476.227	1343.35
476.598	1388.55
476.97	1408.44
477.341	1418.61
477.713	1440.08
478.084	1483.01
478.455	1462.9
478.827	1489.79
479.198	1529.11
479.569	1520.52
479.94	1574.76
480.311	1561.88
480.682	1605.49
481.053	1639.84
481.424	1678.71
481.795	1663.12
482.166	1671.93
482.537	1711.71
482.908	1740.18
483.279	1773.85
483.65	1791.03
484.021	1820.63
484.391	1801.42
484.762	1853.62
485.133	1849.33
485.503	1862.44
485.874	1936.79
486.244	1940.85
486.615	1969.33
486.985	1989.67
487.356	2015.43
487.726	2030.57
488.097	2059.72
488.467	2050.91
488.837	2107.18
489.207	2146.5
489.578	2164.8
489.948	2154.86
490.318	2210.68
490.688	2190.34
491.058	2243.44
491.428	2302.2
491.798	2304.01
492.168	2356.21
492.538	2298.36
492.908	2389.88
493.278	2369.09
493.648	2387.39
494.017	2428.07
494.387	2415.19
494.757	2461.29
495.126	2479.6
495.496	2513.95
495.866	2504.68
496.235	2527.05
496.605	2564.34
496.974	2568.86
497.344	2585.81
497.713	2584.45
498.082	2628.07
498.452	2613.38
498.821	2714.84
499.19	2675.3
499.559	2700.83
499.928	2733.83
500.298	2749.65
500.667	2747.39
501.036	2802.75
501.405	2783.09
501.774	2813.15
502.143	2815.63
502.512	2803.2
502.88	2851.79
503.249	2878.23
503.618	2885.23
503.987	2932.92
504.356	2933.37
504.724	2954.84
505.093	2959.13
505.462	2949.64
505.83	2986.48
506.199	3023.31
506.567	3063.54
506.936	3013.14
507.304	3057.43
507.672	3125.68
508.041	3106.92
508.409	3105.79
508.777	3141.27
509.145	3215.62
509.514	3229.86
509.882	3228.28
510.25	3214.27
510.618	3266.24
510.986	3288.84
511.354	3287.94
511.722	3338.56
512.09	3355.73
512.458	3359.12
512.826	3401.61
513.193	3405.22
513.561	3417.42
513.929	3425.56
514.297	3473.47
514.664	3486.12
515.032	3504.2
515.4	3529.29
515.767	3525.22
516.135	3617.42
516.502	3599.11
516.869	3655.38
517.237	3653.58
517.604	3695.16
517.972	3678.43
518.339	3714.82
518.706	3745.78
519.073	3745.55
519.44	3774.48
519.808	3848.6
520.175	3806.57
520.542	3864.19
520.909	3900.35
521.276	3942.38
521.643	3960.23
522.009	3969.73
522.376	4029.84
522.743	4113
523.11	4104.41
523.477	4118.2
523.843	4191.42
524.21	4210.4
524.577	4204.52
524.943	4257.18
525.31	4303.28
525.676	4343.28
526.043	4362.03
526.409	4396.16
526.776	4414.01
527.142	4401.13
527.508	4442.03
527.874	4530.39
528.241	4566.32
528.607	4585.53
528.973	4611.29
529.339	4573.78
529.705	4694.45
530.071	4713.89
530.437	4706.2
530.803	4750.27
531.169	4787.78
531.535	4798.86
531.901	4837.27
532.267	4866.65
532.632	4879.08
532.998	4909.14
533.364	5013.99
533.73	4987.55
534.095	4978.06
534.461	5054.67
534.826	5072.75
535.192	5123.37
535.557	5179.41
535.923	5140.99
536.288	5202.46
536.653	5280.2
537.019	5224.83
537.384	5219.64
537.749	5274.1
538.114	5336.47
538.479	5328.33
538.845	5380.54
539.21	5401.78
539.575	5449.46
539.94	5427.99
540.305	5503.92
540.67	5508.89
541.034	5508.67
541.399	5596.35
541.764	5640.64
542.129	5624.6
542.494	5694.43
542.858	5692.84
543.223	5727.65
543.587	5777.14
543.952	5786.63
544.316	5811.03
544.681	5817.36
545.045	5912.05
545.41	5928.54
545.774	5934.65
546.138	5977.81
546.503	5995.66
546.867	6038.15
547.231	6093.29
547.595	6065.94
547.959	6161.76
548.324	6167.63
548.688	6226.16
549.052	6242.43
549.416	6262.32
549.779	6349.55
550.143	6407.85
550.507	6381.87
550.871	6475.2
551.235	6528.3
551.599	6572.14
551.962	6626.61
552.326	6674.51
552.689	6672.03
553.053	6689.43
553.417	6744.34
553.78	6826.83
554.143	6816.43
554.507	6881.51
554.87	6955.41
555.234	7017.56
555.597	7020.72
555.96	7062.3
556.323	7187.49
556.686	7200.15
557.05	7249.87
557.413	7319.02
557.776	7356.3
558.139	7425.91
558.502	7480.82
558.865	7520.82
559.228	7621.38
559.59	7726.46
559.953	7717.88
560.316	7857.31
560.679	7890.08
561.041	7984.54
561.404	7997.42
561.767	8181.37
562.129	8104.31
562.492	8310.18
562.854	8296.17
563.217	8336.62
563.579	8408.48
563.941	8490.06
564.304	8635.37
564.666	8714.01
565.028	8711.75
565.39	8835.59
565.753	8880.56
566.115	8945.64
566.477	9064.28
566.839	9132.08
567.201	9210.49
567.563	9275.58
567.925	9386.08
568.287	9422.24
568.648	9490.03
569.01	9541.56
569.372	9750.82
569.734	9653.87
570.095	9857.48
570.457	9961.43
570.819	9999.4
571.18	10031.94
571.542	10177.7
571.903	10235.78
572.265	10339.28
572.626	10342.44
572.987	10443
573.349	10530.46
573.71	10656.33
574.071	10664.01
574.432	10740.17
574.794	10822.65
575.155	10855.42
575.516	10946.94
575.877	11049.77
576.238	11139.93
576.599	11176.54
576.96	11215.64
577.32	11362.53
577.681	11391.68
578.042	11438.91
578.403	11469.64
578.763	11529.53
579.124	11602.07
579.485	11759.13
579.845	11781.5
580.206	11814.49
580.566	11905.11
580.927	11967.48
581.287	12008.84
581.648	12045.22
582.008	12147.59
582.368	12261.94
582.728	12232.11
583.089	12265.78
583.449	12334.48
583.809	12419
584.169	12536.51
584.529	12416.06
584.889	12589.16
585.249	12620.12
585.609	12548.03
585.969	12626.22
586.329	12742.83
586.688	12834.13
587.048	12849.94
587.408	12854.24
587.768	12866.44
588.127	12946.67
588.487	12918.64
588.846	13042.71
589.206	12978.75
589.565	13088.58
589.925	13181.01
590.284	13198.41
590.643	13185.98
591.003	13251.06
591.362	13304.4
591.721	13421
592.08	13400.89
592.44	13531.28
592.799	13452.19
593.158	13493.09
593.517	13489.48
593.876	13602.02
594.235	13595.01
594.593	13689.7
594.952	13725.4
595.311	13712.07
595.67	13734.67
596.029	13896.7
596.387	13884.72
596.746	13950.03
597.104	13884.49
597.463	13921.55
597.822	13908.45
598.18	13959.07
598.538	14033.87
598.897	14163.36
599.255	14035.68
599.613	14261.88
599.972	14178.5
600.33	14238.83
600.688	14182.34
601.046	14274.54
601.404	14376.91
601.762	14371.49
602.12	14413.07
602.478	14431.37
602.836	14444.03
603.194	14402.9
603.552	14479.51
603.91	14464.82
604.268	14539.84
604.625	14482.22
604.983	14633.4
605.341	14562.67
605.698	14693.51
606.056	14706.62
606.413	14690.12
606.771	14798.82
607.128	14843.79
607.485	14780.97
607.843	14757.47
608.2	14909.33
608.557	14979.61
608.914	14911.13
609.272	14994.3
609.629	14999.72
609.986	15086.5
610.343	15066.16
610.7	15200.39
611.057	15115.87
611.414	15155.19
611.771	15219.6
612.127	15278.81
612.484	15285.13
612.841	15328.52
613.198	15299.37
613.554	15292.59
613.911	15495.3
614.267	15430.22
614.624	15410.78
614.98	15421.85
615.337	15556.31
615.693	15587.27
616.05	15516.09
616.406	15627.05
616.762	15647.61
617.118	15599.25
617.475	15674.05
617.831	15579.36
618.187	15625.01
618.543	15685.12
618.899	15863.2
619.255	15706.37
619.611	15754.05
619.967	15829.98
620.323	15807.38
620.678	15821.62
621.034	15740.04
621.39	15831.79
621.746	15862.29
622.101	16020.71
622.457	15814.16
622.812	15899.58
623.168	15978.9
623.523	15954.72
623.879	16002.63
624.234	15937.1
624.589	15955.63
624.945	16013.7
625.3	16032.23
625.655	16008.73
626.01	15992.46
626.365	16043.31
626.72	15982.97
627.075	16055.28
627.43	16000.82
627.785	15942.52
628.14	16112.46
628.495	16039.69
628.85	16029.52
629.205	15920.6
629.559	16149.74
629.914	16010.09
630.269	15995.17
630.623	16003.08
630.978	15970.54
631.332	16013.25
631.687	16001.05
632.041	16008.51
632.396	16078.79
632.75	15909.53
633.104	16010.77
633.459	15940.71
633.813	15921.5
634.167	15869.3
634.521	15954.95
634.875	15899.36
635.229	15831.11
635.583	15910.88
635.937	15885.57
636.291	15740.26
636.645	15843.54
636.999	15809.19
637.352	15914.04
637.706	15790.88
638.06	15817.1
638.413	15818.68
638.767	15748.17
639.121	15786.36
639.474	15705.69
639.828	15823.88
640.181	15792.24
640.534	15752.69
640.888	15646.71
641.241	15610.78
641.594	15670.44
641.947	15647.16
642.301	15668.18
642.654	15633.15
643.007	15702.52
643.36	15751.34
643.713	15629.76
644.066	15691.9
644.419	15580.72
644.771	15521.51
645.124	15348.64
645.477	15396.09
645.83	15330.56
646.182	15225.02
646.535	15180.05
646.888	15247.17
647.24	15213.72
647.593	15262.76
647.945	15227.28
648.298	15173.95
648.65	15094.41
649.002	14995.2
649.355	15104.35
649.707	15127.85
650.059	15132.37
650.411	15434.06
650.763	15391.57
651.115	15454.17
651.467	15500.95
651.819	15484.23
652.171	15430.44
652.523	15474.73
652.875	15435.87
653.227	15329.2
653.578	15470.21
653.93	15471.57
654.282	15455.98
654.633	15351.8
654.985	15443.32
655.337	15318.13
655.688	15340.27
656.039	15526.94
656.391	15292.59
656.742	15358.58
657.094	15376.43
657.445	15390.89
657.796	15356.32
658.147	15308.86
658.498	15448.97
658.849	15422.08
659.2	15372.82
659.551	15333.04
659.902	15401.52
660.253	15339.37
660.604	15334.4
660.955	15321.74
661.306	15348.86
661.656	15469.08
662.007	15377.56
662.358	15302.76
662.708	15469.31
663.059	15338.92
663.409	15355.87
663.76	15363.32
664.11	15489.65
664.461	15418.69
664.811	15399.48
665.161	15442.19
665.511	15347.51
665.862	15408.75
666.212	15457.11
666.562	15472.47
666.912	15494.62
667.262	15432.25
667.612	15453.94
667.962	15462.31
668.312	15331.69
668.662	15429.54
669.011	15480.84
669.361	15371.46
669.711	15391.12
670.06	15529.2
670.41	15449.88
670.76	15390.22
671.109	15483.77
671.459	15434.06
671.808	15411.91
672.157	15406.26
672.507	15409.88
672.856	15363.32
673.205	15469.76
673.554	15468.41
673.904	15394.51
674.253	15490.55
674.602	15446.94
674.951	15312.25
675.3	15144.12
675.649	15430.44
675.998	15403.32
676.346	15416.2
676.695	15464.57
677.044	15366.49
677.393	15418.46
677.741	15430.22
678.09	15371.69
678.438	15501.63
678.787	15431.35
679.135	15442.42
679.484	15293.72
679.832	15432.25
680.181	15322.42
680.529	15405.58
680.877	15376.66
681.225	15338.24
681.573	15422.53
681.922	15389.54
682.27	15261.41
682.618	15242.65
682.966	15333.27
683.314	15279.03
683.661	15227.51
684.009	15258.02
684.357	15203.1
684.705	15130.34
685.053	15168.08
685.4	15199.71
685.748	15147.06
686.095	15220.96
686.443	15126.27
686.79	15137.57
687.138	15129.21
687.485	15115.2
687.832	15141.64
688.18	15243.33
688.527	15109.32
688.874	15050.11
689.221	15058.47
689.568	14952.71
689.915	15048.3
690.262	14983.67
690.609	14969.44
690.956	14990.45
691.303	14943.67
691.65	14916.1
691.997	14842.66
692.344	14787.97
692.69	14857.58
693.037	14788.65
693.383	14790.68
693.73	14763.57
694.077	14658.03
694.423	14655.55
694.769	14638.37
695.116	14697.35
695.462	14674.53
695.808	14605.15
696.155	14643.34
696.501	14534.19
696.847	14590.92
697.193	14488.55
697.539	14552.95
697.885	14517.92
698.231	14492.39
698.577	14447.64
698.923	14471.82
699.269	14421.88
699.614	14372.16
699.96	14328.55
700.306	14365.16
700.651	14195.22
700.997	14273.18
701.342	14320.19
701.688	14092.85
702.033	14135.33
702.379	14158.38
702.724	14112.28
703.069	14133.07
703.415	14018.95
703.76	14131.04
704.105	14173.98
704.45	14037.48
704.795	13951.61
705.14	13996.81
705.485	13904.61
705.83	13957.94
706.175	13912.52
706.52	13841.1
706.865	13900.76
707.209	13909.8
707.554	13773.31
707.899	13825.51
708.243	13833.65
708.588	13834.1
708.932	13714.33
709.277	13741.9
709.621	13846.98
709.966	13655.8
710.31	13736.7
710.654	13638.62
710.998	13692.18
711.342	13613.99
711.687	13628.91
712.031	13563.15
712.375	13460.55
712.719	13564.05
713.063	13562.69
713.407	13545.52
713.75	13518.63
714.094	13505.97
714.438	13438.63
714.782	13450.15
715.125	13449.25
715.469	13461.68
715.812	13443.15
716.156	13371.74
716.499	13386.43
716.843	13369.7
717.186	13290.84
717.53	13402.02
717.873	13367.22
718.216	13358.86
718.559	13228.47
718.902	13271.85
719.246	13331.97
719.589	13254.68
719.932	13184.17
720.275	13255.58
720.617	13250.84
720.96	13188.01
721.303	13200.9
721.646	13256.04
721.989	13140.33
722.331	13192.31
722.674	13103.72
723.016	13215.13
723.359	13115.47
723.701	13121.35
724.044	13085.64
724.386	13009.26
724.729	13084.06
725.071	13024.18
725.413	13055.81
725.755	13000.68
726.097	13033.89
726.439	12938.98
726.782	13003.84
727.124	13166.77
727.465	12963.84
727.807	12948.93
728.149	12974.01
728.491	12916.16
728.833	12911.86
729.175	12938.3
729.516	12908.47
729.858	12764.98
730.199	12905.08
730.541	12839.32
730.882	12819.66
731.224	12862.6
731.565	12791.42
731.906	12868.93
732.248	12825.76
732.589	12741.02
732.93	12695.82
733.271	12737.18
733.612	12724.52
733.953	12776.95
734.294	12716.16
734.635	12762.26
734.976	12774.47
735.317	12671.19
735.658	12656.28
735.999	12677.07
736.339	12611.31
736.68	12774.01
737.021	12618.09
737.361	12546.22
737.702	12599.33
738.042	12633.91
738.383	12562.04
738.723	12568.82
739.063	12488.37
739.404	12585.54
739.744	12502.61
740.084	12489.5
740.424	12506.45
740.764	12420.58
741.104	12461.03
741.444	12431.65
741.784	12434.81
742.124	12464.19
742.464	12389.62
742.804	12288.38
743.143	12337.64
743.483	12404.08
743.823	12311.43
744.162	12257.64
744.502	12303.29
744.841	12169.74
745.181	12301.94
745.52	12219
745.86	12268.26
746.199	12235.95
746.538	12249.73
746.877	12212.22
747.216	12214.26
747.556	12109.4
747.895	12142.17
748.234	12095.39
748.573	12078.89
748.911	12097.65
749.25	12102.17
749.589	12071.21
749.928	12012.45
750.267	12006.58
750.605	11967.71
750.944	12012.45
751.283	11915.28
751.621	11946.47
751.96	11855.17
752.298	11905.56
752.636	11884.55
752.975	11791.22
753.313	11755.74
753.651	11848.84
753.989	11763.42
754.327	11711.44
754.666	11601.62
755.004	11648.85
755.342	11634.16
755.679	11642.29
756.017	11622.63
756.355	11609.98
756.693	11528.4
757.031	11533.82
757.368	11411.56
757.706	11511.9
758.044	11377.89
758.381	11427.61
758.719	11420.83
759.056	11383.77
759.394	11325.01
759.731	11303.09
760.068	11316.43
760.405	11180.16
760.743	11110.56
761.08	11147.39
761.417	11132.7
761.754	11152.36
762.091	11118.46
762.428	11043.66
762.765	10995.08
763.102	11014.06
763.438	10932.71
763.775	10939.26
764.112	10944.46
764.449	10903.1
764.785	10774.97
765.122	10703.79
765.458	10703.56
765.795	10728.19
766.131	10666.73
766.467	10622.21
766.804	10572.94
767.14	10552.38
767.476	10608.2
767.812	10422.21
768.148	10527.75
768.485	10422.89
768.821	10350.12
769.157	10301.99
769.492	10342.44
769.828	10318.94
770.164	10269.67
770.5	10232.61
770.836	10151.03
771.171	10083.24
771.507	10095.21
771.842	10004.14
772.178	10021.77
772.513	10052.5
772.849	10015.89
773.184	9923.24
773.519	9890.47
773.855	9838.05
774.19	9780.42
774.525	9765.28
774.86	9741.78
775.195	9676.02
775.53	9643.02
775.865	9651.38
776.2	9567.55
776.535	9549.01
776.87	9484.61
777.205	9447.1
777.539	9354.22
777.874	9451.16
778.209	9327.55
778.543	9288.68
778.878	9305.63
779.212	9264.05
779.547	9180.89
779.881	9214.11
780.215	9160.1
780.55	9178.18
780.884	9122.81
781.218	9067.67
781.552	9006.43
781.886	9007.33
782.22	8907
782.554	8848.69
782.888	8820.9
783.222	8788.58
783.556	8785.87
783.889	8798.98
784.223	8657.06
784.557	8679.43
784.89	8670.62
785.224	8668.36
785.557	8595.37
785.891	8565.31
786.224	8497.52
786.558	8453.9
786.891	8479.66
787.224	8407.8
787.557	8391.3
787.891	8355.6
788.224	8359.22
788.557	8321.48
788.89	8262.49
789.223	8284.41
789.556	8222.95
789.888	8144.98
790.221	8130.75
790.554	8089.84
790.887	7986.8
791.219	8016.4
791.552	8023.4
791.884	7963.07
792.217	7920.81
792.549	7956.51
792.882	7828.61
793.214	7802.39
793.546	7861.15
793.879	7778.44
794.211	7713.13
794.543	7657.09
794.875	7665.22
795.207	7696.86
795.539	7620.93
795.871	7685.11
796.203	7614.38
796.535	7598.78
796.867	7593.13
797.198	7490.09
797.53	7448.96
797.862	7475.85
798.193	7481.95
798.525	7375.29
798.856	7422.74
799.188	7347.94
799.519	7260.71
799.85	7265.91
800.182	7243.99
800.513	7167.83
800.844	7123.99
801.175	7201.73
801.506	7179.81
801.837	7116.08
802.168	7078.57
802.499	7146.59
802.83	7119.02
803.161	7053.94
803.491	7066.37
803.822	7062.98
804.153	7007.61
804.483	6891.23
804.814	6956.99
805.145	6854.85
805.475	6828.41
805.805	6874.06
806.136	6824.57
806.466	6832.7
806.796	6798.8
807.126	6728.98
807.457	6758.35
807.787	6725.13
808.117	6667.06
808.447	6703.89
808.777	6671.35
809.107	6669.09
809.436	6627.51
809.766	6613.05
810.096	6556.1
810.426	6604.91
810.755	6547.06
811.085	6543.67
811.414	6522.2
811.744	6489.21
812.073	6447.18
812.403	6439.27
812.732	6413.96
813.061	6417.35
813.39	6372.37
813.719	6351.81
814.049	6357.69
814.378	6313.39
814.707	6274.07
815.036	6304.13
815.365	6237.24
815.693	6201.31
816.022	6195.2
816.351	6170.12
816.68	6164.47
817.008	6177.13
817.337	6101.2
817.665	6082.21
817.994	6109.78
818.322	6076.11
818.651	6088.54
818.979	6075.89
819.307	6023.68
819.636	6041.76
819.964	5982.55
820.292	6009.45
820.62	5998.15
820.948	5990.24
821.276	5985.94
821.604	5940.52
821.932	6029.33
822.259	5956.34
822.587	5975.32
822.915	5973.74
823.243	5939.84
823.57	5973.97
823.898	5938.26
824.225	5911.37
824.553	5952.72
824.88	5947.08
825.207	5920.41
825.535	5954.08
825.862	5949.79
826.189	5867.98
826.516	5938.94
826.843	5914.76
827.17	5899.39
827.497	5950.47
827.824	5889.9
828.151	5972.39
828.478	5855.78
828.805	5893.97
829.131	5864.59
829.458	5884.93
829.785	5844.03
830.111	5810.58
830.438	5881.31
830.764	5818.72
831.09	5883.12
831.417	5782.11
831.743	5828.21
832.069	5820.3
832.395	5796.57
832.722	5804.71
833.048	5832.73
833.374	5813.75
833.7	5739.85
834.026	5745.72
834.351	5767.87
834.677	5794.08
835.003	5787.98
835.329	5733.07
835.654	5721.77
835.98	5737.82
836.306	5694.2
836.631	5688.33
836.956	5717.25
837.282	5744.37
837.607	5658.72
837.932	5676.35
838.258	5652.62
838.583	5611.49
838.908	5635.67
839.233	5637.48
839.558	5614.43
839.883	5565.62
840.208	5538.27
840.533	5550.25
840.858	5552.28
841.182	5517.48
841.507	5536.92
841.832	5435.9
842.156	5476.35
842.481	5488.33
842.805	5534.88
843.13	5459.86
843.454	5445.85
843.778	5411.04
844.103	5395.45
844.427	5458.5
844.751	5379.18
845.075	5374.21
845.399	5342.8
845.723	5328.11
846.047	5366.3
846.371	5286.53
846.695	5277.04
847.019	5274.55
847.343	5243.59
847.666	5223.03
847.99	5190.71
848.313	5186.42
848.637	5123.82
848.96	5094.44
849.284	5118.62
849.607	5055.12
849.931	5078.4
850.254	5043.37
850.577	4987.1
850.9	4957.72
851.223	4920.44
851.546	4947.33
851.869	4915.01
852.192	4934.22
852.515	4904.84
852.838	4838.4
853.161	4895.13
853.483	4822.36
853.806	4806.77
854.129	4799.99
854.451	4824.39
854.774	4780.33
855.096	4753.66
855.419	4774.9
855.741	4706.2
856.063	4719.08
856.385	4665.3
856.708	4711.4
857.03	4660.56
857.352	4649.71
857.674	4650.61
857.996	4640.89
858.318	4606.55
858.64	4635.02
858.961	4559.32
859.283	4549.37
859.605	4523.84
859.926	4581.46
860.248	4542.14
860.57	4493.33
860.891	4513.44
861.212	4496.04
861.534	4466.66
861.855	4477.06
862.176	4473.44
862.498	4468.02
862.819	4534.68
863.14	4445.87
863.461	4377.63
863.782	4465.76
864.103	4403.84
864.424	4406.1
864.745	4458.53
865.065	4378.08
865.386	4376.72
865.707	4382.6
866.027	4370.85
866.348	4369.49
866.668	4375.59
866.989	4323.16
867.309	4306.89
867.63	4355.93
867.95	4300.34
868.27	4232.32
868.59	4310.51
868.91	4295.37
869.23	4306.44
869.55	4305.08
869.87	4243.39
870.19	4251.3
870.51	4255.82
870.83	4250.17
871.15	4190.74
871.469	4210.62
871.789	4232.32
872.109	4215.14
872.428	4131.53
872.748	4206.56
873.067	4179.44
873.386	4213.79
873.706	4211.75
874.025	4165.65
874.344	4148.48
874.663	4153.45
874.982	4086.11
875.301	4145.99
875.62	4111.87
875.939	4121.59
876.258	4131.08
876.577	4064.64
876.896	4121.59
877.214	4072.77
877.533	4073.68
877.852	4111.19
878.17	4105.77
878.489	4098.08
878.807	4057.18
879.125	4043.4
879.444	4029.84
879.762	4024.41
880.08	4051.98
880.398	4019.44
880.716	4037.29
881.034	4013.79
881.352	4051.76
881.67	4001.82
881.988	4006.79
882.306	3983.06
882.624	4002.27
882.941	3953.68
883.259	3937.18
883.577	3941.48
883.894	3940.8
884.212	3964.3
884.529	3898.77
884.846	3891.99
885.164	3878.88
885.481	3890.63
885.798	3906.68
886.115	3887.47
886.432	3870.75
886.75	3850.18
887.067	3872.1
887.383	3844.98
887.7	3852.89
888.017	3818.54
888.334	3823.97
888.651	3779.22
888.967	3809.96
889.284	3774.03
889.6	3769.05
889.917	3761.6
890.233	3720.47
890.55	3736.74
890.866	3765.21
891.182	3683.18
891.498	3697.87
891.815	3678.66
892.131	3667.36
892.447	3675.5
892.763	3677.08
893.079	3677.3
893.395	3626.68
893.71	3611.77
894.026	3594.14
894.342	3592.33
894.657	3570.19
894.973	3576.29
895.289	3595.27
895.604	3590.98
895.92	3562.05
896.235	3514.37
896.55	3526.57
896.865	3535.84
897.181	3525.22
897.496	3537.42
897.811	3470.3
898.126	3466.91
898.441	3489.29
898.756	3484.54
899.071	3464.88
899.386	3434.37
899.7	3424.43
900.015	3417.88
900.33	3375.84
900.644	3364.32
900.959	3358.67
901.273	3362.28
901.588	3343.3
901.902	3342.17
902.216	3313.7
902.531	3353.7
902.845	3296.98
903.159	3285.9
903.473	3311.44
903.787	3289.52
904.101	3252.91
904.415	3278.67
904.729	3239.8
905.042	3257.43
905.356	3227.82
905.67	3208.84
905.984	3230.54
906.297	3191.67
906.611	3164.32
906.924	3185.57
907.237	3159.13
907.551	3141.27
907.864	3132.23
908.177	3114.16
908.491	3113.03
908.804	3119.8
909.117	3076.87
909.43	3068.51
909.743	3078.45
910.056	3081.39
910.368	3038
910.681	3019.02
910.994	3010.2
911.307	2996.87
911.619	2977.21
911.932	3011.56
912.244	2996.87
912.557	3000.03
912.869	2978.34
913.181	2966.81
913.494	2933.14
913.806	2908.29
914.118	2928.4
914.43	2895.86
914.742	2897.21
915.054	2893.82
915.366	2892.92
915.678	2845.01
915.99	2863.09
916.302	2856.76
916.613	2840.94
916.925	2772.02
917.236	2772.7
917.548	2784.9
917.859	2806.14
918.171	2795.07
918.482	2738.35
918.794	2788.74
919.105	2770.21
919.416	2723.88
919.727	2755.52
920.038	2702.64
920.349	2677.56
920.66	2696.99
920.971	2686.6
921.282	2668.74
921.593	2670.1
921.903	2632.59
922.214	2635.75
922.525	2641.17
922.835	2615.19
923.146	2637.78
923.456	2612.02
923.767	2560.72
924.077	2607.05
924.387	2584
924.697	2550.78
925.008	2521.85
925.318	2546.03
925.628	2513.27
925.938	2510.33
926.248	2519.37
926.558	2530.89
926.867	2471.69
927.177	2477.11
927.487	2463.1
927.796	2463.55
928.106	2434.63
928.416	2468.07
928.725	2436.89
929.034	2431.24
929.344	2442.08
929.653	2407.51
929.962	2416.55
930.271	2402.99
930.581	2393.04
930.89	2370.67
931.199	2381.07
931.508	2372.03
931.817	2390.78
932.125	2355.76
932.434	2376.1
932.743	2332.93
933.051	2317.34
933.36	2325.02
933.669	2315.76
933.977	2326.61
934.286	2325.48
934.594	2273.95
934.902	2264.91
935.21	2265.36
935.519	2281.63
935.827	2250.22
936.135	2228.08
936.443	2188.53
936.751	2205.93
937.059	2204.57
937.367	2178.13
937.674	2186.04
937.982	2160.28
938.29	2186.95
938.597	2169.77
938.905	2184.01
939.213	2138.81
939.52	2154.63
939.827	2165.93
940.135	2151.47
940.442	2118.48
940.749	2140.85
941.056	2119.38
941.363	2116.89
941.67	2105.59
941.977	2106.27
942.284	2039.83
942.591	2078.93
942.898	2072.6
943.205	2061.08
943.511	2053.39
943.818	2039.38
944.125	2028.99
944.431	2022.66
944.738	2031.25
945.044	2043.68
945.35	1993.73
945.657	2017.91
945.963	2013.85
946.269	1990.34
946.575	2007.29
946.881	1972.49
947.187	1953.96
947.493	1928.42
947.799	1972.04
948.105	1940.17
948.41	1924.58
948.716	1933.62
949.022	1944.24
949.327	1939.95
949.633	1894.07
949.938	1889.33
950.244	1884.58
950.549	1868.31
950.854	1865.83
951.16	1854.53
951.465	1856.34
951.77	1852.04
952.075	1848.65
952.38	1850.23
952.685	1838.26
952.99	1876.9
953.294	1809.56
953.599	1843.45
953.904	1811.82
954.209	1816.34
954.513	1805.72
954.818	1818.6
955.122	1781.99
955.426	1779.95
955.731	1780.41
956.035	1753.74
956.339	1795.09
956.643	1753.51
956.948	1765.72
957.252	1717.13
957.556	1737.47
957.86	1740.86
958.163	1731.37
958.467	1696.11
958.771	1701.76
959.075	1714.64
959.378	1677.13
959.682	1697.02
959.985	1660.63
960.289	1667.19
960.592	1661.99
960.896	1669.22
961.199	1645.95
961.502	1655.66
961.805	1657.02
962.108	1625.83
962.411	1659.05
962.714	1625.16
963.017	1639.17
963.32	1659.5
963.623	1623.8
963.926	1622.9
964.228	1617.92
964.531	1607.75
964.833	1605.72
965.136	1559.62
965.438	1569.11
965.741	1560.75
966.043	1563.91
966.345	1544.25
966.648	1539.73
966.95	1558.94
967.252	1521.2
967.554	1556.23
967.856	1521.88
968.158	1521.88
968.46	1494.31
968.761	1488.21
969.063	1503.12
969.365	1502.67
969.666	1505.38
969.968	1519.62
970.269	1475.78
970.571	1468.1
970.872	1494.76
971.174	1456.12
971.475	1471.26
971.776	1476.23
972.077	1481.88
972.378	1463.8
972.679	1471.94
972.98	1436.01
973.281	1431.71
973.582	1435.56
973.883	1433.3
974.183	1407.31
974.484	1436.01
974.785	1408.66
975.085	1399.4
975.386	1387.87
975.686	1396.01
975.986	1426.74
976.287	1399.85
976.587	1361.21
976.887	1372.51
977.187	1375.67
977.487	1342.45
977.787	1379.29
978.087	1351.04
978.387	1347.87
978.687	1324.82
978.987	1335.45
979.286	1367.99
979.586	1310.59
979.885	1363.24
980.185	1316.91
980.484	1290.02
980.784	1331.15
981.083	1302.23
981.382	1317.82
981.682	1319.17
981.981	1331.83
982.28	1305.84
982.579	1325.05
982.878	1315.11
983.177	1266.52
983.475	1252.51
983.774	1283.02
984.073	1267.2
984.372	1244.37
984.67	1255
984.969	1262.45
985.267	1260.42
985.566	1228.78
985.864	1240.98
986.162	1227.43
986.461	1203.47
986.759	1233.53
987.057	1203.92
987.355	1222.23
987.653	1224.71
987.951	1199.86
988.249	1206.63
988.547	1179.52
988.844	1211.15
989.142	1207.31
989.44	1196.01
989.737	1175.22
990.035	1180.87
990.332	1172.96
990.63	1186.3
990.927	1146.75
991.224	1163.02
991.521	1153.3
991.819	1154.21
992.116	1149.91
992.413	1140.2
992.71	1144.49
993.006	1148.56
993.303	1125.28
993.6	1120.54
993.897	1098.62
994.193	1114.43
994.49	1110.59
994.787	1129.35
995.083	1123.25
995.379	1097.49
995.676	1114.43
995.972	1101.33
996.268	1084.15
996.565	1075.11
996.861	1133.19
997.157	1082.34
997.453	1060.2
997.749	1050.48
998.044	1059.52
998.34	1059.75
998.636	1032.4
998.932	1052.74
999.227	1047.09
999.523	1048.22
999.818	1040.99
1000.114	1038.73
1000.409	1009.13
1000.704	1027.88
1001	1020.65
1001.295	1009.35
1001.59	999.63
1001.885	1004.38
1002.18	996.24
1002.475	976.13
1002.77	991.95
1003.065	966.87
1003.359	970.26
1003.654	982.69
1003.949	969.58
1004.243	984.04
1004.538	967.09
1004.832	959.64
1005.127	978.17
1005.421	951.05
1005.715	956.02
1006.009	932.97
1006.304	961.44
1006.598	946.3
1006.892	947.66
1007.186	926.19
1007.48	924.38
1007.773	911.95
1008.067	932.29
1008.361	903.14
1008.655	903.14
1008.948	917.15
1009.242	900.2
1009.535	909.92
1009.829	889.58
1010.122	865.85
1010.415	889.58
1010.708	869.47
1011.001	882.58
1011.295	876.93
1011.588	884.61
1011.881	873.99
1012.173	862.01
1012.466	862.46
1012.759	863.37
1013.052	856.81
1013.344	856.36
1013.637	844.38
1013.93	858.62
1014.222	842.58
1014.514	821.56
1014.807	829.02
1015.099	817.49
1015.391	834.22
1015.683	810.26
1015.976	815.91
1016.268	812.75
1016.56	817.72
1016.851	781.11
1017.143	809.36
1017.435	804.16
1017.727	787.89
1018.018	766.42
1018.31	783.37
1018.602	784.27
1018.893	779.75
1019.185	777.27
1019.476	778.17
1019.767	764.61
1020.058	752.18
1020.35	748.12
1020.641	781.34
1020.932	749.7
1021.223	748.34
1021.514	744.73
1021.804	732.3
1022.095	715.8
1022.386	746.99
1022.677	745.63
1022.967	721.68
1023.258	753.09
1023.548	755.57
1023.839	683.94
1024.129	707.89
1024.419	695.24
1024.709	694.78
1025	698.4
1025.29	707.21
1025.58	676.93
1025.87	692.3
1026.16	694.56
1026.449	688.23
1026.739	684.61
1027.029	680.77
1027.319	700.43
1027.608	684.16
1027.898	677.16
1028.187	655.24
1028.477	664.5
1028.766	660.43
1029.055	667.44
1029.344	678.51
1029.634	645.75
1029.923	638.29
1030.212	647.1
1030.501	645.52
1030.79	656.14
1031.078	619.76
1031.367	655.91
1031.656	658.85
1031.945	631.28
1032.233	614.56
1032.522	624.73
1032.81	600.78
1033.099	607.55
1033.387	611.85
1033.675	585.86
1033.963	618.4
1034.251	605.75
1034.54	617.95
1034.828	624.5
1035.116	596.26
1035.403	594.9
1035.691	592.64
1035.979	602.36
1036.267	588.35
1036.554	574.34
1036.842	585.18
1037.129	579.31
1037.417	574.79
1037.704	579.98
1037.992	572.3
1038.279	548.12
1038.566	572.08
1038.853	572.08
1039.14	572.08
