Data from brown_tile_FLMS001491_098.txt Node
Date: Tue Feb 07 10:38:17 GMT 2017
User: dcchb
Spectrometer: FLMS00149
Trigger mode: 0
Integration Time (sec): 2.000000E-2
Scans to average: 10
Electric dark correction enabled: true
Nonlinearity correction enabled: false
Boxcar width: 0
XAxis mode: Wavelengths
Number of Pixels in Spectrum: 2048
>>>>>Begin Spectral Data<<<<<
341.393	-14.82
341.776	-14.82
342.16	-14.82
342.543	-44.19
342.927	-61.82
343.31	-53.91
343.693	-67.7
344.077	-57.3
344.46	-57.53
344.843	-55.04
345.226	-36.51
345.61	-18.66
345.993	-27.02
346.376	-19.34
346.759	5.52
347.142	32.87
347.525	32.19
347.908	52.98
348.291	76.26
348.674	85.75
349.057	107.44
349.44	117.84
349.823	135.91
350.206	156.48
350.588	178.4
350.971	187.66
351.354	224.05
351.737	234.22
352.119	250.94
352.502	245.52
352.884	262.69
353.267	265.4
353.65	270.37
354.032	304.72
354.414	287.1
354.797	327.32
355.179	305.4
355.562	317.6
355.944	300.66
356.326	314.21
356.709	300.2
357.091	309.47
357.473	319.86
357.855	311.05
358.238	351.28
358.62	302.69
359.002	323.25
359.384	329.81
359.766	343.82
360.148	323.48
360.53	337.72
360.912	324.84
361.294	309.24
361.676	324.16
362.057	301.56
362.439	302.92
362.821	315.12
363.203	310.6
363.584	287.77
363.966	319.41
364.348	325.97
364.729	317.6
365.111	301.33
365.493	318.51
365.874	308.11
366.256	317.83
366.637	308.11
367.019	301.56
367.4	293.88
367.781	292.75
368.163	294.33
368.544	275.57
368.925	290.94
369.306	295.23
369.688	306.31
370.069	302.46
370.45	281.45
370.831	292.97
371.212	298.85
371.593	291.62
371.974	300.88
372.355	300.43
372.736	306.98
373.117	299.3
373.498	312.41
373.879	289.13
374.26	302.46
374.641	295.91
375.021	295.23
375.402	315.8
375.783	298.4
376.163	304.72
376.544	308.34
376.925	301.33
377.305	309.7
377.686	295.23
378.066	308.34
378.447	311.73
378.827	313.99
379.208	328.9
379.588	309.24
379.968	292.75
380.349	328.9
380.729	307.21
381.109	322.35
381.489	317.6
381.87	320.32
382.25	310.83
382.63	330.94
383.01	320.77
383.39	331.62
383.77	317.15
384.15	320.32
384.53	325.97
384.91	310.83
385.29	337.49
385.67	330.49
386.049	330.03
386.429	325.29
386.809	351.95
387.189	336.59
387.568	348.34
387.948	341.11
388.328	345.4
388.707	324.61
389.087	360.99
389.466	368.68
389.846	337.27
390.225	347.66
390.605	346.53
390.984	353.76
391.363	342.24
391.743	338.62
392.122	346.08
392.501	353.99
392.881	338.4
393.26	349.47
393.639	370.26
394.018	350.82
394.397	362.35
394.776	372.97
395.155	340.2
395.534	363.71
395.913	364.38
396.292	371.61
396.671	353.31
397.05	372.74
397.429	356.7
397.808	368.22
398.186	363.48
398.565	360.09
398.944	379.75
399.323	373.65
399.701	359.86
400.08	367.77
400.458	366.64
400.837	373.42
401.215	385.4
401.594	384.5
401.972	361.22
402.351	402.12
402.729	376.81
403.107	402.35
403.486	387.21
403.864	397.38
404.242	402.35
404.62	385.4
404.999	399.64
405.377	380.88
405.755	391.5
406.133	391.5
406.511	417.94
406.889	416.13
407.267	393.53
407.645	389.92
408.023	427.88
408.401	433.76
408.779	414.33
409.156	405.51
409.534	430.37
409.912	442.8
410.29	417.72
410.667	415.91
411.045	419.52
411.422	436.25
411.8	417.72
412.178	440.99
412.555	433.08
412.933	443.03
413.31	479.18
413.687	436.02
414.065	460.88
414.442	461.1
414.819	456.58
415.197	472.63
415.574	445.51
415.951	457.04
416.328	456.13
416.705	473.76
417.082	470.14
417.46	486.64
417.837	483.02
418.214	468.79
418.591	456.13
418.967	466.98
419.344	459.52
419.721	495
420.098	474.66
420.475	483.02
420.852	479.18
421.228	499.07
421.605	496.58
421.982	489.8
422.358	502.01
422.735	500.88
423.111	513.31
423.488	509.01
423.864	482.12
424.241	518.05
424.617	510.14
424.994	524.15
425.37	515.79
425.746	509.69
426.123	530.03
426.499	538.39
426.875	528.67
427.251	521.44
427.627	523.25
428.003	518.5
428.379	543.81
428.756	540.65
429.132	534.32
429.507	567.77
429.883	544.72
430.259	560.76
430.635	560.76
431.011	569.35
431.387	559.18
431.763	610.48
432.138	582
432.514	578.39
432.89	593.3
433.265	603.02
433.641	588.11
434.016	589.46
434.392	596.24
434.767	619.29
435.143	617.94
435.518	630.14
435.894	637.6
436.269	643.92
436.644	645.28
437.02	634.43
437.395	642.34
437.77	648.67
438.145	678.95
438.52	640.31
438.895	648.44
439.271	666.97
439.646	650.7
440.021	682.57
440.395	663.58
440.77	678.27
441.145	688.89
441.52	699.97
441.895	682.34
442.27	701.78
442.645	680.76
443.019	702.91
443.394	716.46
443.769	686.63
444.143	694.09
444.518	694.09
444.892	707.65
445.267	706.52
445.641	730.7
446.016	706.29
446.39	713.07
446.764	723.92
447.139	725.28
447.513	751.94
447.887	739.06
448.262	733.86
448.636	745.16
449.01	744.03
449.384	726.86
449.758	732.06
450.132	763.02
450.506	765.5
450.88	803.47
451.254	786.74
451.628	776.8
452.002	797.82
452.376	781.77
452.75	780.42
453.123	794.43
453.497	805.28
453.871	814.09
454.244	822.22
454.618	851.83
454.992	842.56
455.365	849.79
455.739	862
456.112	878.49
456.486	877.82
456.859	865.61
457.232	881.43
457.606	862.22
457.979	903.58
458.352	890.47
458.725	912.84
459.099	938.38
459.472	905.61
459.845	941.54
460.218	924.59
460.591	953.75
460.964	975.44
461.337	974.31
461.71	957.81
462.083	989.23
462.456	975.21
462.829	1031.94
463.201	993.97
463.574	1010.24
463.947	1010.02
464.32	1033.07
464.692	1046.4
465.065	1046.4
465.438	1066.06
465.81	1085.49
466.183	1084.82
466.555	1104.7
466.928	1126.4
467.3	1089.34
467.672	1099.05
468.045	1123.46
468.417	1127.53
468.789	1138.83
469.161	1171.14
469.534	1164.36
469.906	1183.8
470.278	1201.2
470.65	1196.9
471.022	1222.67
471.394	1209.33
471.766	1261.76
472.138	1281.2
472.51	1281.2
472.882	1291.36
473.253	1329.56
473.625	1328.43
473.997	1348.99
474.369	1363.23
474.74	1351.7
475.112	1378.37
475.484	1402.55
475.855	1412.72
476.227	1417.24
476.598	1414.07
476.97	1464.02
477.341	1501.3
477.713	1513.51
478.084	1518.93
478.455	1553.28
478.827	1570.68
479.198	1590.57
479.569	1597.8
479.94	1648.64
480.311	1649.55
480.682	1684.57
481.053	1711.01
481.424	1733.39
481.795	1734.97
482.166	1767.51
482.537	1802.76
482.908	1832.14
483.279	1852.25
483.65	1890.67
484.021	1943.1
484.391	1952.59
484.762	1946.49
485.133	1952.36
485.503	2025.81
485.874	2047.05
486.244	2038.69
486.615	2050.21
486.985	2113.26
487.356	2146.71
487.726	2162.98
488.097	2158.46
488.467	2196.43
488.837	2232.81
489.207	2225.58
489.578	2288.63
489.948	2301.73
490.318	2335.4
490.688	2351.9
491.058	2365.23
491.428	2409.3
491.798	2406.59
492.168	2449.53
492.538	2475.97
492.908	2478
493.278	2507.83
493.648	2542.4
494.017	2567.94
494.387	2568.17
494.757	2594.38
495.126	2602.29
495.496	2604.32
495.866	2661.95
496.235	2686.58
496.605	2692.46
496.974	2711.67
497.344	2745.11
497.713	2757.54
498.082	2802.51
498.452	2825.79
498.821	2839.35
499.19	2822.85
499.559	2875.73
499.928	2897.65
500.298	2869.4
500.667	2934.03
501.036	2940.13
501.405	2960.47
501.774	3009.29
502.143	3028.72
502.512	2978.78
502.88	3039.57
503.249	3029.62
503.618	3060.81
503.987	3068.72
504.356	3160.02
504.724	3123.63
505.093	3149.39
505.462	3152.33
505.83	3162.5
506.199	3237.98
506.567	3250.86
506.936	3248.83
507.304	3307.58
507.672	3270.75
508.041	3317.53
508.409	3348.71
508.777	3370.41
509.145	3374.93
509.514	3388.71
509.882	3421.7
510.25	3453.57
510.618	3496.28
510.986	3468.03
511.354	3482.95
511.722	3559.55
512.09	3551.87
512.458	3577.18
512.826	3664.18
513.193	3619.21
513.561	3637.52
513.929	3713.9
514.297	3762.26
514.664	3712.54
515.032	3745.09
515.4	3778.08
515.767	3816.5
516.135	3843.61
516.502	3840.45
516.869	3908.02
517.237	3881.58
517.604	3867.34
517.972	3922.03
518.339	3957.51
518.706	3991.41
519.073	4026.89
519.44	4068.24
519.808	4071.86
520.175	4110.95
520.542	4151.18
520.909	4162.02
521.276	4188.92
521.643	4261.46
522.009	4252.19
522.376	4295.81
522.743	4332.64
523.11	4302.36
523.477	4418.51
523.843	4419.42
524.21	4516.14
524.577	4512.07
524.943	4518.62
525.31	4490.83
525.676	4583.71
526.043	4661.67
526.409	4638.17
526.776	4741.44
527.142	4733.08
527.508	4808.56
527.874	4816.24
528.241	4842.46
528.607	4866.64
528.973	4936.24
529.339	4953.87
529.705	5003.81
530.071	5002.23
530.437	5033.86
530.803	5052.4
531.169	5108.67
531.535	5138.27
531.901	5169.68
532.267	5192.28
532.632	5260.53
532.998	5248.1
533.364	5297.59
533.73	5293.29
534.095	5347.53
534.461	5370.35
534.826	5396.57
535.192	5424.59
535.557	5509.56
535.923	5495.77
536.288	5515.89
536.653	5558.6
537.019	5552.72
537.384	5677.46
537.749	5636.33
538.114	5646.05
538.479	5697.12
538.845	5742.09
539.21	5708.65
539.575	5785.26
539.94	5822.54
540.305	5895.09
540.67	5865.93
541.034	5861.41
541.399	5905.93
541.764	5938.7
542.129	6015.31
542.494	6023.9
542.858	6073.84
543.223	6092.82
543.587	6149.54
543.952	6114.97
544.316	6178.92
544.681	6207.17
545.045	6243.1
545.41	6312.02
545.774	6331.68
546.138	6331.91
546.503	6411.91
546.867	6340.72
547.231	6493.26
547.595	6477.22
547.959	6563.09
548.324	6539.81
548.688	6647.38
549.052	6681.51
549.416	6733.48
549.779	6721.73
550.143	6760.83
550.507	6868.17
550.871	6868.17
551.235	6898.67
551.599	7000.14
551.962	6987.49
552.326	7008.95
552.689	7098.9
553.053	7087.14
553.417	7107.93
553.78	7323.52
554.143	7214.6
554.507	7354.03
554.87	7420.92
555.234	7482.84
555.597	7476.74
555.96	7553.35
556.323	7613.91
556.686	7675.6
557.05	7791.08
557.413	7837.86
557.776	7861.81
558.139	7952.21
558.502	8023.84
558.865	8071.3
559.228	8116.5
559.59	8216.38
559.953	8288.24
560.316	8352.42
560.679	8367.56
561.041	8457.5
561.404	8525.52
561.767	8591.96
562.129	8609.59
562.492	8749.47
562.854	8870.15
563.217	8822.24
563.579	8930.26
563.941	9066.98
564.304	9122.57
564.666	9252.74
565.028	9305.16
565.39	9361.89
565.753	9411.38
566.115	9505.16
566.477	9629.9
566.839	9696.34
567.201	9737.92
567.563	9813.17
567.925	9962.77
568.287	10003.45
568.648	10075.99
569.01	10196.21
569.372	10260.62
569.734	10336.78
570.095	10426.72
570.457	10534.74
570.819	10554.17
571.18	10602.98
571.542	10694.51
571.903	10815.41
572.265	10852.47
572.626	10944.67
572.987	11055.18
573.349	11177.88
573.71	11216.53
574.071	11321.16
574.432	11340.82
574.794	11522.28
575.155	11575.84
575.516	11640.7
575.877	11638.44
576.238	11752.78
576.599	11859
576.96	11950.29
577.32	11908.49
577.681	12058.09
578.042	12115.49
578.403	12138.76
578.763	12204.52
579.124	12308.02
579.485	12436.61
579.845	12457.62
580.206	12517.74
580.566	12527.45
580.927	12643.16
581.287	12754.57
581.648	12671.18
582.008	12857.39
582.368	12897.16
582.728	12916.6
583.089	13048.12
583.449	13033.2
583.809	13074.56
584.169	13179.64
584.529	13162.69
584.889	13319.07
585.249	13298.51
585.609	13291.73
585.969	13443.14
586.329	13472.96
586.688	13529.69
587.048	13561.32
587.408	13621.44
587.768	13661.21
588.127	13757.93
588.487	13710.47
588.846	13827.31
589.206	13771.04
589.565	13832.05
589.925	13971.26
590.284	13940.75
590.643	14040.41
591.003	14052.61
591.362	14208.54
591.721	14152.72
592.08	14148.43
592.44	14288.76
592.799	14316.56
593.158	14324.24
593.517	14399.49
593.876	14435.2
594.235	14364.92
594.593	14492.15
594.952	14496.67
595.311	14597.91
595.67	14559.26
596.029	14747.28
596.387	14761.74
596.746	14690.56
597.104	14732.37
597.463	14684.46
597.822	14944.56
598.18	14857.79
598.538	14891.46
598.897	15040.61
599.255	14830.22
599.613	15138.46
599.972	15035.18
600.33	15097.33
600.688	15075.63
601.046	15135.97
601.404	15229.98
601.762	15258.68
602.12	15331.22
602.478	15371.45
602.836	15348.85
603.194	15265.01
603.552	15396.98
603.91	15331.9
604.268	15472.46
604.625	15448.05
604.983	15542.29
605.341	15526.47
605.698	15572.12
606.056	15604.89
606.413	15643.98
606.771	15678.1
607.128	15752
607.485	15632.46
607.843	15701.83
608.2	15863.64
608.557	15857.31
608.914	15881.26
609.272	15982.73
609.629	15968.94
609.986	16079.68
610.343	16013.24
610.7	16130.97
611.057	16079
611.414	16045.55
611.771	16123.29
612.127	16194.48
612.484	16251.87
612.841	16325.32
613.198	16212.33
613.554	16152.22
613.911	16389.05
614.267	16358.09
614.624	16347.92
614.98	16375.94
615.337	16519.66
615.693	16460.46
616.05	16458.42
616.406	16542.71
616.762	16543.84
617.118	16552.66
617.475	16592.66
617.831	16727.79
618.187	16750.17
618.543	16703.16
618.899	16807.11
619.255	16714.91
619.611	16752.2
619.967	16769.15
620.323	16841.01
620.678	16753.1
621.034	16761.01
621.39	16719.89
621.746	16792.43
622.101	16930.5
622.457	16868.36
622.812	16843.95
623.168	16956.72
623.523	16959.65
623.879	16924.63
624.234	16852.09
624.589	16907.9
624.945	16901.58
625.3	16971.63
625.655	16981.35
626.01	17028.35
626.365	17030.84
626.72	16983.38
627.075	17005.3
627.43	17033.1
627.785	16926.21
628.14	16951.07
628.495	17031.52
628.85	17071.74
629.205	16956.94
629.559	17027.45
629.914	16948.81
630.269	16911.52
630.623	16947
630.978	16903.61
631.332	17020.22
631.687	17056.6
632.041	16926.89
632.396	17055.24
632.75	16907.68
633.104	16887.11
633.459	16914.23
633.813	16978.86
634.167	16902.25
634.521	16944.06
634.875	16943.83
635.229	16922.59
635.583	16836.04
635.937	16934.79
636.291	16830.16
636.645	16763.05
636.999	16865.64
637.352	16832.65
637.706	16703.39
638.06	16799.43
638.413	16861.58
638.767	16823.16
639.121	16843.72
639.474	16757.4
639.828	16715.82
640.181	16727.12
640.534	16771.86
640.888	16633.33
641.241	16715.14
641.594	16741.58
641.947	16701.35
642.301	16614.8
642.654	16681.02
643.007	16678.53
643.36	16598.98
643.713	16678.98
644.066	16694.58
644.419	16521.92
644.771	16443.06
645.124	16206.45
645.477	16377.07
645.83	16162.61
646.182	16187.24
646.535	16063.86
646.888	16154.25
647.24	15996.74
647.593	16160.8
647.945	16124.87
648.298	16106.34
648.65	15999.9
649.002	15935.27
649.355	15996.97
649.707	16016.63
650.059	16172.33
650.411	16308.37
650.763	16327.58
651.115	16542.94
651.467	16362.83
651.819	16422.94
652.171	16383.62
652.523	16361.25
652.875	16463.85
653.227	16432.44
653.578	16455.94
653.93	16382.72
654.282	16421.36
654.633	16260.69
654.985	16314.92
655.337	16300.46
655.688	16405.54
656.039	16415.71
656.391	16309.27
656.742	16335.26
657.094	16340.01
657.445	16350.86
657.796	16317.64
658.147	16287.13
658.498	16327.81
658.849	16356.73
659.2	16299.11
659.551	16249.16
659.902	16342.04
660.253	16257.98
660.604	16392.21
660.955	16193.57
661.306	16337.52
661.656	16337.52
662.007	16285.09
662.358	16281.25
662.708	16301.14
663.059	16316.28
663.409	16217.75
663.76	16303.85
664.11	16347.47
664.461	16359.67
664.811	16412.1
665.161	16384.3
665.511	16340.01
665.862	16385.2
666.212	16445.32
666.562	16406.22
666.912	16361.93
667.262	16385.2
667.612	16409.84
667.962	16388.37
668.312	16484.86
668.662	16516.05
669.011	16389.72
669.361	16462.04
669.711	16439.67
670.06	16303.62
670.41	16381.36
670.76	16420.46
671.109	16455.49
671.459	16455.71
671.808	16331.87
672.157	16448.48
672.507	16370.52
672.856	16308.6
673.205	16398.54
673.554	16415.26
673.904	16352.21
674.253	16487.12
674.602	16436.05
674.951	16326.9
675.3	16183.18
675.649	16403.96
675.998	16398.09
676.346	16412.32
676.695	16528.48
677.044	16324.87
677.393	16311.53
677.741	16487.57
678.09	16456.84
678.438	16422.49
678.787	16474.69
679.135	16507.91
679.484	16293
679.832	16437.86
680.181	16233.12
680.529	16463.62
680.877	16278.31
681.225	16261.37
681.573	16524.18
681.922	16340.46
682.27	16333.68
682.618	16298.43
682.966	16302.27
683.314	16270.86
683.661	16293.23
684.009	16195.83
684.357	16191.09
684.705	16080.13
685.053	16137.98
685.4	16089.85
685.748	16076.96
686.095	16166.23
686.443	16086.23
686.79	16100.47
687.138	16076.29
687.485	16114.7
687.832	16048.94
688.18	16094.36
688.527	16015.05
688.874	16024.31
689.221	16001.03
689.568	15976.4
689.915	15956.29
690.262	15917.65
690.609	15929.85
690.956	15870.87
691.303	15794.26
691.65	15857.08
691.997	15796.97
692.344	15743.64
692.69	15680.14
693.037	15678.33
693.383	15628.61
693.73	15784.32
694.077	15680.59
694.423	15722.17
694.769	15678.33
695.116	15628.61
695.462	15542.29
695.808	15583.87
696.155	15580.48
696.501	15461.16
696.847	15457.55
697.193	15379.36
697.539	15447.6
697.885	15359.02
698.231	15329.41
698.577	15372.8
698.923	15313.59
699.269	15196.99
699.614	15228.4
699.96	15163.09
700.306	15261.84
700.651	15146.59
700.997	15093.71
701.342	15166.48
701.688	15098.46
702.033	15141.4
702.379	15040.83
702.724	15054.17
703.069	15128.74
703.415	14886.49
703.76	14977.56
704.105	15029.08
704.45	14876.32
704.795	14899.59
705.14	14825.02
705.485	14889.2
705.83	14818.92
706.175	14736.66
706.52	14711.8
706.865	14756.77
707.209	14683.78
707.554	14729.2
707.899	14657.11
708.243	14636.1
708.588	14642.65
708.932	14613.05
709.277	14597
709.621	14641.3
709.966	14492.83
710.31	14550.22
710.654	14403.79
710.998	14468.19
711.342	14491.7
711.687	14390.91
712.031	14413.05
712.375	14376.9
712.719	14437.01
713.063	14365.14
713.407	14462.77
713.75	14331.25
714.094	14285.6
714.438	14295.09
714.782	14267.75
715.125	14241.31
715.469	14259.38
715.812	14279.27
716.156	14135.55
716.499	14207.86
716.843	14159.5
717.186	14162.44
717.53	14258.26
717.873	14201.53
718.216	14126.06
718.559	14099.84
718.902	14009
719.246	14034.76
719.589	14074.76
719.932	14031.37
720.275	14039.05
720.617	13983.91
720.96	14029.11
721.303	13992.5
721.646	14026.4
721.989	13954.53
722.331	13975.1
722.674	13856.91
723.016	14001.54
723.359	13945.27
723.701	13948.21
724.044	13841.99
724.386	13869.56
724.729	13914.08
725.071	13793.86
725.413	13802.67
725.755	13783.01
726.097	13811.49
726.439	13733.98
726.782	13738.04
727.124	13779.85
727.465	13675.45
727.807	13786.63
728.149	13687.87
728.491	13667.54
728.833	13716.35
729.175	13709.12
729.516	13583.02
729.858	13703.02
730.199	13664.82
730.541	13593.41
730.882	13567.65
731.224	13643.13
731.565	13623.24
731.906	13585.5
732.248	13594.54
732.589	13510.48
732.93	13490.82
733.271	13513.42
733.612	13569.91
733.953	13592.06
734.294	13476.58
734.635	13417.15
734.976	13511.38
735.317	13454.43
735.658	13458.05
735.999	13476.13
736.339	13378.05
736.68	13482.23
737.021	13395.45
737.361	13368.11
737.702	13443.36
738.042	13362.91
738.383	13273.65
738.723	13360.2
739.063	13318.62
739.404	13350.48
739.744	13328.79
740.084	13280.88
740.424	13224.84
740.764	13213.54
741.104	13286.76
741.444	13255.8
741.784	13110.04
742.124	13130.6
742.464	13109.13
742.804	13081.34
743.143	13089.25
743.483	13130.6
743.823	13005.41
744.162	13015.12
744.502	13083.37
744.841	12982.36
745.181	13035.24
745.52	12979.19
745.86	12974.67
746.199	12972.41
746.538	13000.89
746.877	12897.39
747.216	12919.31
747.556	12949.14
747.895	12985.07
748.234	12908.69
748.573	12799.31
748.911	12887.22
749.25	12797.95
749.589	12741.68
749.928	12766.54
750.267	12813.55
750.605	12790.95
750.944	12779.2
751.283	12696.71
751.621	12716.6
751.96	12664.85
752.298	12594.12
752.636	12638.18
752.975	12590.28
753.313	12596.38
753.651	12533.55
753.989	12541.24
754.327	12425.08
754.666	12428.02
755.004	12464.63
755.342	12487
755.679	12422.6
756.017	12281.58
756.355	12351.64
756.693	12359.55
757.031	12325.42
757.368	12231.19
757.706	12197.52
758.044	12163.39
758.381	12128.14
758.719	12116.16
759.056	12140.57
759.394	12048.14
759.731	12037.3
760.068	12019.9
760.405	11894.93
760.743	11823.06
761.08	11864.42
761.417	11835.04
761.754	11825.78
762.091	11736.06
762.428	11770.86
762.765	11647.7
763.102	11717.3
763.438	11701.03
763.775	11545.78
764.112	11606.35
764.449	11529.29
764.785	11470.76
765.122	11437.31
765.458	11392.57
765.795	11387.37
766.131	11255.4
766.467	11367.71
766.804	11216.98
767.14	11144.44
767.476	11131.11
767.812	11112.12
768.148	11151.9
768.485	11053.82
768.821	10993.48
769.157	10984.22
769.492	10933.6
769.828	10920.49
770.164	10856.76
770.5	10826.71
770.836	10856.54
771.171	10675.3
771.507	10680.72
771.842	10657.9
772.178	10630.78
772.513	10650.21
772.849	10573.61
773.184	10508.52
773.519	10519.37
773.855	10500.61
774.19	10441.41
774.525	10413.16
774.86	10344.91
775.195	10328.87
775.53	10339.49
775.865	10235.76
776.2	10152.37
776.535	10085.71
776.87	10094.3
777.205	10063.79
777.539	10042.77
777.874	10015.88
778.209	9958.93
778.543	9954.41
778.878	9806.85
779.212	9924.58
779.547	9774.98
779.881	9804.81
780.215	9746.06
780.55	9765.49
780.884	9679.62
781.218	9652.95
781.552	9628.55
781.886	9530.24
782.22	9490.24
782.554	9499.96
782.888	9411.83
783.222	9360.08
783.556	9390.36
783.889	9371.38
784.223	9248.67
784.557	9169.58
784.89	9216.13
785.224	9128.67
785.557	9178.16
785.891	9092.06
786.224	9095.68
786.558	9030.37
786.891	8981.56
787.224	8948.34
787.557	8915.57
787.891	8956.25
788.224	8868.57
788.557	8841
788.89	8792.18
789.223	8797.83
789.556	8714.9
789.888	8693.88
790.221	8707.67
790.554	8705.86
790.887	8642.81
791.219	8559.2
791.552	8535.69
791.884	8539.31
792.217	8454.79
792.549	8443.94
792.882	8398.07
793.214	8330.05
793.546	8356.94
793.879	8312.2
794.211	8241.46
794.543	8276.49
794.875	8194.23
795.207	8229.94
795.539	8211.18
795.871	8167.57
796.203	8023.39
796.535	8038.08
796.867	8092.99
797.198	8001.02
797.53	7960.34
797.862	7911.76
798.193	7989.49
798.525	7914.24
798.856	7831.08
799.188	7790.63
799.519	7800.12
799.85	7677.64
800.182	7694.13
800.513	7685.32
800.844	7617.75
801.175	7686.68
801.506	7680.8
801.837	7628.37
802.168	7596.28
802.499	7554.48
802.83	7544.53
803.161	7493.24
803.491	7513.57
803.822	7512.22
804.153	7451.65
804.483	7410.75
804.814	7307.48
805.145	7345.89
805.475	7308.61
805.805	7316.52
806.136	7262.96
806.466	7258.67
806.796	7291.43
807.126	7195.62
807.457	7188.84
807.787	7207.14
808.117	7126.47
808.447	7097.99
808.777	7171.44
809.107	7027.48
809.436	7079.23
809.766	7053.25
810.096	7015.73
810.426	6977.99
810.755	6970.99
811.085	6898.22
811.414	7001.95
811.744	6852.57
812.073	6845.12
812.403	6864.55
812.732	6822.97
813.061	6814.38
813.39	6738.23
813.719	6742.75
814.049	6762.18
814.378	6738.9
814.707	6686.7
815.036	6689.87
815.365	6679.7
815.693	6591.56
816.022	6603.77
816.351	6589.3
816.68	6564.67
817.008	6566.03
817.337	6530.55
817.665	6503.88
817.994	6486.26
818.322	6488.06
818.651	6403.09
818.979	6427.95
819.307	6432.7
819.636	6468.18
819.964	6355.41
820.292	6375.52
820.62	6372.13
820.948	6367.62
821.276	6371.68
821.604	6334.17
821.932	6380.95
822.259	6312.7
822.587	6252.14
822.915	6297.11
823.243	6305.7
823.57	6316.77
823.898	6244.68
824.225	6281.74
824.553	6274.28
824.88	6323.77
825.207	6266.37
825.535	6261.18
825.862	6332.14
826.189	6291.01
826.516	6264.57
826.843	6259.37
827.17	6259.6
827.497	6246.94
827.824	6223.44
828.151	6205.13
828.478	6221.63
828.805	6239.03
829.131	6230.22
829.458	6280.39
829.785	6172.82
830.111	6166.94
830.438	6225.25
830.764	6256.21
831.09	6190.22
831.417	6153.61
831.743	6205.13
832.069	6183.89
832.395	6127.85
832.722	6183.89
833.048	6111.35
833.374	6136.66
833.7	6110.45
834.026	6120.62
834.351	6132.14
834.677	6080.39
835.003	6094.18
835.329	6097.79
835.654	6093.95
835.98	6047.17
836.306	6042.2
836.631	6060.05
836.956	6054.4
837.282	6041.97
837.607	5994.52
837.932	6004.23
838.258	5972.6
838.583	6010.56
838.908	5933.95
839.233	5993.61
839.558	5937.12
839.883	5921.75
840.208	5875.88
840.533	5871.81
840.858	5906.61
841.182	5905.25
841.507	5898.25
841.832	5804.01
842.156	5835.65
842.481	5794.75
842.805	5846.72
843.13	5808.76
843.454	5818.25
843.778	5755.88
844.103	5785.71
844.427	5728.54
844.751	5762.21
845.075	5683.11
845.399	5683.34
845.723	5667.52
846.047	5627.75
846.371	5603.79
846.695	5570.35
847.019	5557.01
847.343	5526.06
847.666	5512.5
847.99	5475.89
848.313	5450.35
848.637	5451.93
848.96	5448.54
849.284	5425.04
849.607	5381.65
849.931	5388.21
850.254	5312.28
850.577	5283.58
850.9	5205.39
851.223	5288.55
851.546	5298.72
851.869	5179.62
852.192	5253.29
852.515	5138.49
852.838	5126.52
853.161	5128.33
853.483	5100.98
853.806	5073.41
854.129	5070.93
854.451	5073.41
854.774	5067.08
855.096	4998.16
855.419	5009.46
855.741	5067.08
856.063	4972.85
856.385	4977.14
856.708	4980.98
857.03	4945.73
857.352	4934.43
857.674	4960.87
857.996	4900.53
858.318	4886.07
858.64	4925.85
858.961	4864.15
859.283	4791.39
859.605	4749.13
859.926	4795.23
860.248	4805.17
860.57	4796.36
860.891	4774.44
861.212	4750.71
861.534	4787.77
861.855	4785.51
862.176	4722.23
862.498	4716.13
862.819	4673.42
863.14	4699.18
863.461	4689.02
863.782	4731.05
864.103	4736.25
864.424	4688.56
864.745	4666.87
865.065	4654.89
865.386	4629.58
865.707	4617.6
866.027	4661.45
866.348	4595.01
866.668	4606.98
866.989	4588.23
867.309	4576.02
867.63	4599.98
867.95	4583.93
868.27	4519.08
868.59	4586.19
868.91	4552.07
869.23	4517.04
869.55	4512.75
869.87	4540.09
870.19	4475.46
870.51	4498.96
870.83	4501.9
871.15	4466.42
871.469	4470.94
871.789	4486.31
872.109	4479.98
872.428	4423.71
872.748	4449.7
873.067	4444.95
873.386	4458.06
873.706	4418.29
874.025	4413.54
874.344	4407.21
874.663	4414.22
874.982	4413.77
875.301	4380.55
875.62	4398.4
875.939	4327.44
876.258	4335.13
876.577	4363.6
876.896	4315.24
877.214	4315.47
877.533	4329.25
877.852	4328.35
878.17	4353.43
878.489	4270.27
878.807	4283.15
879.125	4257.16
879.444	4323.83
879.762	4286.09
880.08	4245.64
880.398	4292.42
880.716	4247.44
881.034	4205.86
881.352	4242.02
881.67	4244.51
881.988	4246.54
882.306	4202.47
882.624	4173.1
882.941	4184.85
883.259	4175.13
883.577	4143.72
883.894	4158.18
884.212	4124.96
884.529	4108.01
884.846	4145.07
885.164	4134.23
885.481	4122.25
885.798	4096.71
886.115	4074.57
886.432	4092.42
886.75	4032.31
887.067	4088.35
887.383	4047.22
887.7	4052.2
888.017	4010.39
888.334	4082.93
888.651	3992.54
888.967	4022.14
889.284	3988.92
889.6	3952.09
889.917	3949.6
890.233	3984.4
890.55	3941.69
890.866	3948.92
891.182	3958.41
891.498	3927.68
891.815	3882.48
892.131	3892.2
892.447	3866.44
892.763	3894.23
893.079	3861.69
893.395	3884.29
893.71	3878.19
894.026	3840.68
894.342	3813.33
894.657	3812.88
894.973	3812.2
895.289	3781.24
895.604	3822.37
895.92	3757.74
896.235	3760.9
896.55	3762.94
896.865	3748.93
897.181	3733.79
897.496	3731.07
897.811	3730.85
898.126	3693.79
898.441	3680.91
898.756	3675.48
899.071	3666.67
899.386	3619.21
899.7	3601.81
900.015	3636.84
900.33	3597.97
900.644	3605.2
900.959	3605.65
901.273	3620.34
901.588	3583.51
901.902	3524.07
902.216	3524.53
902.531	3518.2
902.845	3484.98
903.159	3479.33
903.473	3494.02
903.787	3475.94
904.101	3459.44
904.415	3455.6
904.729	3482.04
905.042	3445.21
905.356	3403.85
905.67	3457.86
905.984	3411.53
906.297	3388.26
906.611	3411.08
906.924	3355.04
907.237	3371.76
907.551	3338.99
907.864	3333.34
908.177	3282.95
908.491	3369.5
908.804	3291.09
909.117	3281.82
909.43	3239.11
909.743	3243.63
910.056	3247.47
910.368	3220.13
910.681	3228.04
910.994	3233.91
911.307	3185.55
911.619	3143.29
911.932	3171.31
912.244	3178.55
912.557	3155.04
912.869	3159.56
913.181	3151.88
913.494	3123.41
913.806	3099.23
914.118	3118.43
914.43	3067.81
914.742	3082.96
915.054	3033.47
915.366	3048.83
915.678	3063.3
915.99	3029.85
916.302	3019.45
916.613	3005.22
916.925	2967.25
917.236	3030.08
917.548	2962.51
917.859	2986.69
918.171	2967.03
918.482	2955.28
918.794	2935.39
919.105	2961.6
919.416	2934.26
919.727	2932
920.038	2872.34
920.349	2883.64
920.66	2877.54
920.971	2855.17
921.282	2845.67
921.593	2839.8
921.903	2849.74
922.214	2785.56
922.525	2814.26
922.835	2788.27
923.146	2781.95
923.456	2768.61
923.767	2748.73
924.077	2736.98
924.387	2761.38
924.697	2739.46
925.008	2701.72
925.318	2671.67
925.628	2702.17
925.938	2699.24
926.248	2666.02
926.558	2642.97
926.867	2684.55
927.177	2639.58
927.487	2655.17
927.796	2639.58
928.106	2588.05
928.416	2575.17
928.725	2592.57
929.034	2591.22
929.344	2571.1
929.653	2569.52
929.962	2549.18
930.271	2533.37
930.581	2547.15
930.89	2534.04
931.199	2516.19
931.508	2487.04
931.817	2509.86
932.125	2508.73
932.434	2475.74
932.743	2453.59
933.051	2442.75
933.36	2440.26
933.669	2424.67
933.977	2414.27
934.286	2400.49
934.594	2387.15
934.902	2395.52
935.21	2414.05
935.519	2357.1
935.827	2389.19
936.135	2367.49
936.443	2375.18
936.751	2352.58
937.059	2365.91
937.367	2308.06
937.674	2344.67
937.982	2286.14
938.29	2334.5
938.597	2283.65
938.905	2291.79
939.213	2271.23
939.52	2284.56
939.827	2236.42
940.135	2269.19
940.442	2225.13
940.749	2242.3
941.056	2240.04
941.363	2211.11
941.67	2207.72
941.977	2205.24
942.284	2163.88
942.591	2175.41
942.898	2169.99
943.205	2162.3
943.511	2141.96
943.818	2152.13
944.125	2143.55
944.431	2132.7
944.738	2125.47
945.044	2160.72
945.35	2123.88
945.657	2089.76
945.963	2088.18
946.269	2066.49
946.575	2092.02
946.881	2079.82
947.187	2069.42
947.493	2039.37
947.799	2083.89
948.105	2074.17
948.41	2031.91
948.716	2021.74
949.022	2043.66
949.327	2031.01
949.633	1995.53
949.938	1985.81
950.244	2014.96
950.549	1955.08
950.854	1976.32
951.16	2008.86
951.465	1974.28
951.77	1958.01
952.075	1944.68
952.38	1967.05
952.685	1937
952.99	1906.04
953.294	1941.74
953.599	1914.85
953.904	1922.99
954.209	1917.56
954.513	1906.04
954.818	1911.24
955.122	1886.83
955.426	1868.75
955.731	1861.52
956.035	1848.64
956.339	1859.03
956.643	1849.99
956.948	1875.08
957.252	1846.6
957.556	1820.16
957.86	1816.32
958.163	1811.35
958.467	1809.99
958.771	1799.37
959.075	1807.96
959.378	1799.6
959.682	1778.36
959.985	1769.09
960.289	1819.26
960.592	1754.4
960.896	1750.79
961.199	1787.4
961.502	1761.41
961.805	1721.18
962.108	1709.66
962.411	1746.95
962.714	1720.05
963.017	1720.51
963.32	1722.77
963.623	1703.78
963.926	1692.48
964.228	1698.13
964.531	1681.86
964.833	1672.37
965.136	1675.76
965.438	1657.23
965.741	1627.85
966.043	1650.68
966.345	1648.19
966.648	1640.73
966.95	1629.66
967.252	1646.16
967.554	1637.34
967.856	1633.28
968.158	1602.09
968.46	1603.45
968.761	1586.95
969.063	1594.63
969.365	1579.49
969.666	1595.99
969.968	1571.36
970.269	1558.48
970.571	1540.85
970.872	1521.19
971.174	1544.24
971.475	1567.29
971.776	1540.62
972.077	1513.96
972.378	1536.1
972.679	1542.43
972.98	1520.06
973.281	1496.33
973.582	1502.21
973.883	1494.07
974.183	1483.68
974.484	1509.21
974.785	1471.92
975.085	1504.69
975.386	1485.94
975.686	1467.86
975.986	1456.78
976.287	1454.07
976.587	1443.45
976.887	1438.03
977.187	1418.37
977.487	1431.47
977.787	1423.11
978.087	1437.12
978.387	1401.64
978.687	1430.57
978.987	1403.45
979.286	1386.73
979.586	1406.39
979.885	1391.25
980.185	1365.94
980.484	1375.66
980.784	1389.89
981.083	1377.01
981.382	1368.65
981.682	1370.68
981.981	1375.66
982.28	1359.16
982.579	1352.38
982.878	1350.8
983.177	1319.39
983.475	1313.74
983.774	1322.55
984.073	1335.88
984.372	1299.5
984.67	1319.16
984.969	1309.44
985.267	1299.73
985.566	1319.61
985.864	1285.49
986.162	1308.77
986.461	1297.69
986.759	1269.22
987.057	1279.61
987.355	1252.5
987.653	1295.21
987.951	1275.77
988.249	1256.34
988.547	1268.77
988.844	1267.86
989.142	1229.67
989.44	1250.69
989.737	1223.57
990.035	1227.41
990.332	1211.59
990.63	1222.89
990.927	1212.04
991.224	1192.16
991.521	1221.08
991.819	1213.4
992.116	1218.15
992.413	1193.29
992.71	1198.26
993.006	1174.08
993.303	1185.15
993.6	1173.63
993.897	1167.07
994.193	1179.05
994.49	1141.99
994.787	1163.23
995.083	1145.15
995.379	1153.74
995.676	1130.46
995.972	1138.6
996.268	1128.2
996.565	1133.18
996.861	1113.97
997.157	1116.23
997.453	1123.23
997.749	1092.05
998.044	1122.33
998.34	1120.52
998.636	1084.59
998.932	1083.23
999.227	1108.09
999.523	1088.66
999.818	1087.08
1000.114	1083.23
1000.409	1039.85
1000.704	1080.97
1001	1071.26
1001.295	1051.14
1001.59	1039.62
1001.885	1074.87
1002.18	1051.6
1002.475	1021.77
1002.77	1032.61
1003.065	1034.2
1003.359	1011.82
1003.654	1018.15
1003.949	1012.5
1004.243	1014.08
1004.538	1015.89
1004.832	1014.31
1005.127	1001.43
1005.421	988.77
1005.715	960.75
1006.009	990.36
1006.304	968.89
1006.598	976.34
1006.892	976.34
1007.186	965.72
1007.48	979.73
1007.773	972.28
1008.067	966.18
1008.361	948.77
1008.655	941.54
1008.948	922.79
1009.242	946.29
1009.535	981.99
1009.829	936.12
1010.122	915.78
1010.415	919.4
1010.708	911.26
1011.001	923.92
1011.295	916.68
1011.588	927.98
1011.881	911.71
1012.173	888.44
1012.466	904.71
1012.759	876.01
1013.052	873.07
1013.344	891.37
1013.637	866.52
1013.93	871.71
1014.222	876.01
1014.514	855.67
1014.807	861.77
1015.099	847.99
1015.391	837.59
1015.683	852.28
1015.976	849.57
1016.268	805.73
1016.56	831.94
1016.851	841.88
1017.143	817.25
1017.435	836.24
1017.727	805.95
1018.018	820.87
1018.31	829.46
1018.602	794.43
1018.893	798.04
1019.185	800.53
1019.476	796.91
1019.767	780.87
1020.058	788.33
1020.35	778.38
1020.641	801.43
1020.932	777.48
1021.223	770.25
1021.514	779.74
1021.804	773.86
1022.095	736.35
1022.386	780.87
1022.677	729.35
1022.967	759.4
1023.258	758.5
1023.548	764.15
1023.839	748.78
1024.129	745.16
1024.419	722.79
1024.709	744.03
1025	736.58
1025.29	742.45
1025.58	705.62
1025.87	714.43
1026.16	720.53
1026.449	701.1
1026.739	716.46
1027.029	699.97
1027.319	719.18
1027.608	675.79
1027.898	681.21
1028.187	680.31
1028.477	688.44
1028.766	679.18
1029.055	685.05
1029.344	667.65
1029.634	683.7
1029.923	675.34
1030.212	650.25
1030.501	673.3
1030.79	670.59
1031.078	652.51
1031.367	641.44
1031.656	651.61
1031.945	632.4
1032.233	645.05
1032.522	649.8
1032.81	644.15
1033.099	627.2
1033.387	638.95
1033.675	615.22
1033.963	636.92
1034.251	635.79
1034.54	607.99
1034.828	628.33
1035.116	615.9
1035.403	602.79
1035.691	614.77
1035.979	618.84
1036.267	639.86
1036.554	612.74
1036.842	624.72
1037.129	609.12
1037.417	617.03
1037.704	600.54
1037.992	579.52
1038.279	591.04
1038.566	581.33
1038.853	581.33
1039.14	581.33
