Data from brown_tile_FLMS001491_035.txt Node
Date: Tue Feb 07 10:37:25 GMT 2017
User: dcchb
Spectrometer: FLMS00149
Trigger mode: 0
Integration Time (sec): 2.000000E-2
Scans to average: 10
Electric dark correction enabled: true
Nonlinearity correction enabled: false
Boxcar width: 0
XAxis mode: Wavelengths
Number of Pixels in Spectrum: 2048
>>>>>Begin Spectral Data<<<<<
341.393	-11.17
341.776	-11.17
342.16	-11.17
342.543	-78.06
342.927	-70.15
343.31	-76.93
343.693	-75.13
344.077	-67.67
344.46	-78.29
344.843	-44.84
345.226	-33.54
345.61	-44.84
345.993	-36.26
346.376	3.06
346.759	13.69
347.142	40.58
347.525	49.84
347.908	50.07
348.291	92.1
348.674	90.07
349.057	118.09
349.44	142.72
349.823	136.62
350.206	163.74
350.588	184.76
350.971	201.48
351.354	219.56
351.737	208.48
352.119	248.26
352.502	259.1
352.884	260.23
353.267	253.91
353.65	283.06
354.032	275.15
354.414	291.87
354.797	290.06
355.179	308.82
355.562	309.95
355.944	305.2
356.326	341.81
356.709	304.98
357.091	312.21
357.473	320.57
357.855	312.66
358.238	341.14
358.62	319.89
359.002	309.95
359.384	331.87
359.766	317.41
360.148	311.53
360.53	321.93
360.912	317.86
361.294	323.28
361.676	342.27
362.057	326.22
362.439	319.89
362.821	343.39
363.203	313.79
363.584	307.46
363.966	302.27
364.348	303.85
364.729	295.03
365.111	300.46
365.493	302.94
365.874	314.02
366.256	298.65
366.637	290.97
367.019	301.59
367.4	300.01
367.781	299.33
368.163	317.86
368.544	297.07
368.925	311.31
369.306	326.67
369.688	311.76
370.069	297.29
370.45	305.2
370.831	289.84
371.212	302.04
371.593	284.87
371.974	307.46
372.355	267.01
372.736	293.23
373.117	304.75
373.498	307.69
373.879	301.81
374.26	310.4
374.641	293.68
375.021	307.01
375.402	302.49
375.783	302.72
376.163	321.93
376.544	296.39
376.925	319.67
377.305	317.86
377.686	309.27
378.066	310.18
378.447	305.88
378.827	334.13
379.208	312.44
379.588	334.13
379.968	341.59
380.349	308.59
380.729	317.86
381.109	340.01
381.489	314.92
381.87	318.99
382.25	316.28
382.63	321.93
383.01	320.34
383.39	321.93
383.77	342.27
384.15	320.8
384.53	333.9
384.91	319.67
385.29	345.43
385.67	345.2
386.049	331.42
386.429	327.58
386.809	336.84
387.189	351.08
387.568	337.52
387.948	339.1
388.328	327.35
388.707	323.28
389.087	339.78
389.466	337.29
389.846	351.53
390.225	335.03
390.605	344.98
390.984	349.5
391.363	351.98
391.743	345.88
392.122	347.01
392.501	359.21
392.881	356.73
393.26	342.49
393.639	358.54
394.018	345.65
394.397	337.97
394.776	359.89
395.155	375.71
395.534	358.99
395.913	375.03
396.292	357.41
396.671	370.74
397.05	356.28
397.429	356.73
397.808	359.67
398.186	377.97
398.565	371.64
398.944	378.65
399.323	374.81
399.701	362.6
400.08	368.25
400.458	375.71
400.837	391.3
401.215	371.87
401.594	374.58
401.972	391.98
402.351	394.24
402.729	384.07
403.107	371.87
403.486	386.11
403.864	371.64
404.242	413.68
404.62	397.86
404.999	395.82
405.377	407.8
405.755	377.97
406.133	398.76
406.511	399.44
406.889	408.48
407.267	410.29
407.645	395.37
408.023	417.07
408.401	403.51
408.779	413.45
409.156	427.23
409.534	434.69
409.912	420
410.29	412.32
410.667	408.7
411.045	431.53
411.422	427.23
411.8	420.68
412.178	408.25
412.555	431.75
412.933	434.69
413.31	438.08
413.687	419.33
414.065	435.6
414.442	450.28
414.819	437.63
415.197	461.58
415.574	456.61
415.951	435.14
416.328	444.18
416.705	430.62
417.082	469.49
417.46	461.13
417.837	455.93
418.214	467.46
418.591	469.04
418.967	462.94
419.344	466.56
419.721	469.04
420.098	467.46
420.475	472.43
420.852	460.91
421.228	474.01
421.605	472.21
421.982	473.34
422.358	488.02
422.735	482.6
423.111	490.51
423.488	489.61
423.864	509.72
424.241	496.84
424.617	485.54
424.994	499.1
425.37	497.52
425.746	499.1
426.123	532.77
426.499	511.75
426.875	522.6
427.251	526.21
427.627	521.02
428.003	506.55
428.379	548.14
428.756	540
429.132	542.71
429.507	553.78
429.883	553.33
430.259	559.66
430.635	569.83
431.011	551.75
431.387	555.37
431.763	568.7
432.138	576.61
432.514	564.86
432.89	572.54
433.265	582.26
433.641	581.81
434.016	574.35
434.392	590.85
434.767	614.8
435.143	606.89
435.518	610.73
435.894	630.17
436.269	602.6
436.644	610.28
437.02	624.97
437.395	614.12
437.77	621.13
438.145	656.83
438.52	628.36
438.895	643.73
439.271	634.23
439.646	658.64
440.021	681.69
440.395	667
440.77	638.08
441.145	660.9
441.52	676.72
441.895	650.05
442.27	684.18
442.645	685.98
443.019	666.55
443.394	678.3
443.769	680.11
444.143	687.79
444.518	683.05
444.892	690.5
445.267	690.28
445.641	701.13
446.016	696.83
446.39	710.16
446.764	710.16
447.139	704.97
447.513	732.99
447.887	716.27
448.262	727.57
448.636	728.24
449.01	723.72
449.384	734.8
449.758	737.73
450.132	740.9
450.506	739.09
450.88	739.54
451.254	750.39
451.628	800.78
452.002	753.33
452.376	785.42
452.75	786.55
453.123	789.03
453.497	785.64
453.871	800.78
454.244	809.37
454.618	808.92
454.992	833.33
455.365	803.95
455.739	829.03
456.112	826.77
456.486	838.3
456.859	852.99
457.232	853.89
457.606	880.33
457.979	854.12
458.352	848.24
458.725	878.75
459.099	877.17
459.472	883.49
459.845	888.24
460.218	900.89
460.591	928.46
460.964	907.22
461.337	924.62
461.71	951.51
462.083	936.15
462.456	966.66
462.829	962.81
463.201	973.89
463.574	979.31
463.947	988.12
464.32	998.07
464.692	999.65
465.065	1038.07
465.438	1024.51
465.81	1029.48
466.183	1033.77
466.555	1024.73
466.928	1055.47
467.3	1060.66
467.672	1069.7
468.045	1121.23
468.417	1105.18
468.789	1088.91
469.161	1113.54
469.534	1139.53
469.906	1135.69
470.278	1163.71
470.65	1175.46
471.022	1207.1
471.394	1209.13
471.766	1226.54
472.138	1204.39
472.51	1263.82
472.882	1235.57
473.253	1258.85
473.625	1276.03
473.997	1313.76
474.369	1325.74
474.74	1321.22
475.112	1337.95
475.484	1365.97
475.855	1373.2
476.227	1359.19
476.598	1401.22
476.97	1389.92
477.341	1450.26
477.713	1457.49
478.084	1472.18
478.455	1534.78
478.827	1525.06
479.198	1542.01
479.569	1561.67
479.94	1591.72
480.311	1593.53
480.682	1640.54
481.053	1649.58
481.424	1668.33
481.795	1696.58
482.166	1705.62
482.537	1727.31
482.908	1765.28
483.279	1785.84
483.65	1797.37
484.021	1827.2
484.391	1874.2
484.762	1877.37
485.133	1896.35
485.503	1896.57
485.874	1907.87
486.244	1937.03
486.615	1989.91
486.985	2034.88
487.356	2030.36
487.726	2091.82
488.097	2086.4
488.467	2122.33
488.837	2113.07
489.207	2161.2
489.578	2197.13
489.948	2220.86
490.318	2271.48
490.688	2221.09
491.058	2266.96
491.428	2275.32
491.798	2327.07
492.168	2346.05
492.538	2375.21
492.908	2403.45
493.278	2388.09
493.648	2438.03
494.017	2428.09
494.387	2489.78
494.757	2504.02
495.126	2540.85
495.496	2512.6
495.866	2537.01
496.235	2558.93
496.605	2648.19
496.974	2597.35
497.344	2640.96
497.713	2655.42
498.082	2674.41
498.452	2670.11
498.821	2714.41
499.19	2694.97
499.559	2730.9
499.928	2766.16
500.298	2785.82
500.667	2834.18
501.036	2824.69
501.405	2812.48
501.774	2805.25
502.143	2853.84
502.512	2875.76
502.88	2921.86
503.249	2924.8
503.618	2922.99
503.987	2939.03
504.356	2944
504.724	2977.45
505.093	2998.92
505.462	2991.23
505.83	3026.71
506.199	3056.77
506.567	3126.82
506.936	3062.65
507.304	3115.53
507.672	3157.56
508.041	3142.19
508.409	3200.27
508.777	3195.07
509.145	3233.49
509.514	3226.93
509.882	3229.65
510.25	3323.88
510.618	3284.33
510.986	3331.79
511.354	3339.02
511.722	3416.08
512.09	3425.35
512.458	3398.91
512.826	3461.28
513.193	3486.59
513.561	3491.56
513.929	3519.81
514.297	3509.41
514.664	3548.28
515.032	3597.77
515.4	3598.45
515.767	3632.8
516.135	3668.05
516.502	3630.77
516.869	3710.09
517.237	3743.08
517.604	3685.68
517.972	3722.06
518.339	3775.17
518.706	3824.89
519.073	3838.44
519.44	3856.3
519.808	3921.38
520.175	3932
520.542	4000.47
520.909	3999.34
521.276	4007.71
521.643	4059.46
522.009	4080.02
522.376	4079.57
522.743	4122.96
523.11	4180.36
523.477	4232.56
523.843	4246.12
524.21	4277.53
524.577	4303.74
524.943	4361.37
525.31	4371.76
525.676	4412.67
526.043	4461.48
526.409	4446.34
526.776	4488.82
527.142	4548.71
527.508	4566.79
527.874	4612.44
528.241	4614.47
528.607	4664.64
528.973	4722.26
529.339	4709.16
529.705	4774.24
530.071	4784.63
530.437	4849.04
530.803	4891.3
531.169	4892.88
531.535	4877.74
531.901	4928.36
532.267	4990.05
532.632	4931.07
532.998	4947.12
533.364	5034.57
533.73	5056.49
534.095	5066.21
534.461	5156.83
534.826	5154.79
535.192	5204.74
535.557	5271.4
535.923	5192.31
536.288	5353.21
536.653	5319.31
537.019	5327.22
537.384	5345.98
537.749	5383.94
538.114	5386.43
538.479	5434.56
538.845	5496.25
539.21	5519.98
539.575	5502.36
539.94	5522.92
540.305	5614.22
540.67	5631.84
541.034	5637.94
541.399	5663.71
541.764	5665.06
542.129	5745.96
542.494	5770.37
542.858	5824.61
543.223	5812.86
543.587	5905.51
543.952	5823.93
544.316	5880.65
544.681	5962.23
545.045	5985.05
545.41	5991.16
545.774	6055.34
546.138	6031.83
546.503	6087.42
546.867	6132.85
547.231	6244.03
547.595	6226.63
547.959	6284.03
548.324	6282.45
548.688	6286.97
549.052	6378.72
549.416	6409.45
549.779	6409.9
550.143	6436.34
550.507	6565.15
550.871	6545.27
551.235	6617.13
551.599	6653.74
551.962	6700.97
552.326	6747.75
552.689	6780.51
553.053	6777.8
553.417	6826.61
553.78	6881.98
554.143	7001.07
554.507	6982.32
554.87	7065.25
555.234	7226.15
555.597	7173.5
555.96	7206.27
556.323	7299.14
556.686	7328.3
557.05	7346.37
557.413	7452.81
557.776	7512.02
558.139	7555.63
558.502	7682.19
558.865	7679.93
559.228	7798.11
559.59	7882.18
559.953	7897.77
560.316	8034.04
560.679	7990.88
561.041	8127.6
561.404	8189.29
561.767	8281.49
562.129	8265.9
562.492	8381.83
562.854	8449.17
563.217	8420.92
563.579	8582.27
563.941	8676.28
564.304	8771.87
564.666	8777.75
565.028	8865.2
565.39	8893.23
565.753	9060.68
566.115	9105.65
566.477	9193.11
566.839	9199.89
567.201	9320.11
567.563	9424.96
567.925	9493.44
568.287	9551.74
568.648	9629.7
569.01	9678.52
569.372	9829.47
569.734	9873.99
570.095	9905.18
570.457	10007.77
570.819	10108.11
571.18	10152.4
571.542	10283.7
571.903	10311.27
572.265	10401.21
572.626	10560.3
572.987	10560.08
573.349	10720.3
573.71	10752.61
574.071	10837.58
574.432	10926.85
574.794	11074.41
575.155	11078.25
575.516	11057.69
575.877	11152.83
576.238	11294.75
576.599	11355.08
576.96	11448.41
577.32	11489.09
577.681	11583.1
578.042	11674.85
578.403	11703.32
578.763	11754.62
579.124	11863.54
579.485	11961.85
579.845	12074.39
580.206	12059.47
580.566	12081.39
580.927	12152.12
581.287	12230.54
581.648	12180.6
582.008	12323.64
582.368	12378.33
582.728	12494.49
583.089	12544.88
583.449	12559.34
583.809	12515.96
584.169	12711.88
584.529	12769.28
584.889	12827.59
585.249	12823.97
585.609	12804.76
585.969	12991.2
586.329	12978.99
586.688	13110.29
587.048	13012.21
587.408	13087.01
587.768	13162.27
588.127	13206.56
588.487	13207.46
588.846	13338.76
589.206	13350.74
589.565	13349.38
589.925	13450.17
590.284	13400.23
590.643	13542.82
591.003	13608.81
591.362	13690.61
591.721	13597.96
592.08	13651.29
592.44	13744.85
592.799	13738.07
593.158	13826.88
593.517	13846.99
593.876	13846.77
594.235	13919.54
594.593	13990.49
594.952	13934.22
595.311	14020.32
595.67	14072.75
596.029	14183.93
596.387	14178.29
596.746	14257.38
597.104	14164.5
597.463	14160.88
597.822	14316.59
598.18	14272.29
598.538	14324.5
598.897	14317.72
599.255	14214.44
599.613	14550.48
599.972	14432.06
600.33	14503.47
600.688	14525.17
601.046	14511.38
601.404	14646.75
601.762	14576.47
602.12	14700.53
602.478	14707.54
602.836	14823.24
603.194	14704.15
603.552	14721.32
603.91	14748.67
604.268	14907.31
604.625	14830.02
604.983	14959.06
605.341	14955.21
605.698	15044.93
606.056	15072.73
606.413	15037.25
606.771	15142.78
607.128	15214.87
607.485	15126.74
607.843	15165.15
608.2	15239.95
608.557	15335.09
608.914	15253.96
609.272	15306.62
609.629	15417.12
609.986	15489.89
610.343	15362.44
610.7	15461.19
611.057	15465.26
611.414	15456.44
611.771	15502.77
612.127	15672.48
612.484	15552.71
612.841	15737.11
613.198	15644.69
613.554	15649.89
613.911	15735.31
614.267	15772.37
614.624	15708.64
614.98	15704.57
615.337	15863.44
615.693	15859.6
616.05	15790.45
616.406	16002.19
616.762	15926.04
617.118	15872.7
617.475	15964.45
617.831	16037.45
618.187	16019.59
618.543	15957.22
618.899	16080.16
619.255	16070.44
619.611	16091.23
619.967	16200.38
620.323	16183.43
620.678	16165.13
621.034	16087.84
621.39	16189.76
621.746	16169.87
622.101	16434.5
622.457	16168.06
622.812	16220.04
623.168	16308.4
623.523	16292.35
623.879	16298.23
624.234	16133.26
624.589	16320.83
624.945	16337.1
625.3	16388.85
625.655	16307.49
626.01	16345.23
626.365	16356.08
626.72	16424.1
627.075	16407.83
627.43	16373.48
627.785	16314.05
628.14	16413.03
628.495	16309.3
628.85	16420.71
629.205	16291.45
629.559	16429.53
629.914	16372.35
630.269	16386.81
630.623	16320.38
630.978	16297.33
631.332	16329.87
631.687	16355.18
632.041	16350.43
632.396	16306.82
632.75	16201.51
633.104	16378.45
633.459	16195.41
633.813	16306.37
634.167	16229.76
634.521	16228.63
634.875	16327.83
635.229	16250.55
635.583	16249.19
635.937	16272.69
636.291	16138.23
636.645	16215.07
636.999	16196.99
637.352	16141.4
637.706	16085.35
638.06	16202.41
638.413	16060.27
638.767	16102.08
639.121	16134.62
639.474	16049.2
639.828	16046.26
640.181	16100.27
640.534	16064.56
640.888	16066.37
641.241	15996.99
641.594	15980.95
641.947	16071.79
642.301	15934.62
642.654	16040.38
643.007	16021.17
643.36	15973.04
643.713	15957.45
644.066	16006.03
644.419	15889.88
644.771	15799.94
645.124	15761.29
645.477	15632.48
645.83	15536.67
646.182	15556.33
646.535	15486.5
646.888	15520.4
647.24	15375.54
647.593	15545.03
647.945	15501.41
648.298	15441.75
648.65	15400.4
649.002	15356.11
649.355	15469.78
649.707	15384.81
650.059	15441.75
650.411	15603.78
650.763	15701.64
651.115	15911.35
651.467	15802.65
651.819	15841.52
652.171	15746.83
652.523	15752.03
652.875	15721.3
653.227	15625.93
653.578	15780.05
653.93	15813.5
654.282	15716.55
654.633	15712.48
654.985	15717.45
655.337	15644.01
655.688	15714.74
656.039	15747.51
656.391	15663.22
656.742	15693.73
657.094	15651.92
657.445	15738.02
657.796	15712.71
658.147	15649.43
658.498	15664.12
658.849	15712.93
659.2	15699.38
659.551	15644.01
659.902	15735.98
660.253	15763.1
660.604	15785.7
660.955	15681.97
661.306	15674.97
661.656	15685.82
662.007	15696.89
662.358	15653.5
662.708	15656.66
663.059	15734.85
663.409	15586.84
663.76	15739.37
664.11	15709.09
664.461	15796.32
664.811	15788.19
665.161	15769.66
665.511	15681.3
665.862	15755.65
666.212	15796.32
666.562	15773.72
666.912	15774.18
667.262	15732.59
667.612	15756.32
667.962	15844.46
668.312	15831.58
668.662	15877.22
669.011	15853.5
669.361	15847.62
669.711	15766.72
670.06	15723.56
670.41	15751.13
670.76	15775.76
671.109	15867.73
671.459	15825.47
671.808	15717.91
672.157	15798.58
672.507	15730.11
672.856	15756.77
673.205	15821.63
673.554	15918.13
673.904	15816.89
674.253	15881.74
674.602	15900.05
674.951	15679.49
675.3	15562.2
675.649	15747.51
675.998	15747.28
676.346	15835.64
676.695	15862.99
677.044	15724.46
677.393	15870.9
677.741	15804.01
678.09	15837
678.438	15777.57
678.787	15769.88
679.135	15794.06
679.484	15683.1
679.832	15805.59
680.181	15766.72
680.529	15687.62
680.877	15704.8
681.225	15712.93
681.573	15835.87
681.922	15799.71
682.27	15711.13
682.618	15675.42
682.966	15776.66
683.314	15723.1
683.661	15679.49
684.009	15620.73
684.357	15697.79
684.705	15545.48
685.053	15737.34
685.4	15592.94
685.748	15643.78
686.095	15520.17
686.443	15503.45
686.79	15529.44
687.138	15582.32
687.485	15586.84
687.832	15545.93
688.18	15509.1
688.527	15398.82
688.874	15483.79
689.221	15430.46
689.568	15462.55
689.915	15363.56
690.262	15390.68
690.609	15370.8
690.956	15302.78
691.303	15336.9
691.65	15247.41
691.997	15278.14
692.344	15199.73
692.69	15089.67
693.037	15180.07
693.383	15113.4
693.73	15196.56
694.077	15079.73
694.423	15109.11
694.769	15084.48
695.116	15025.27
695.462	14992.28
695.808	15009.68
696.155	14985.27
696.501	14909.57
696.847	14940.53
697.193	14856.91
697.539	14943.24
697.885	14722.68
698.231	14746.63
698.577	14810.13
698.923	14715.9
699.269	14773.75
699.614	14691.27
699.96	14627.99
700.306	14634.54
700.651	14610.59
700.997	14512.97
701.342	14568.33
701.688	14574.89
702.033	14512.29
702.379	14461.89
702.724	14489.24
703.069	14506.86
703.415	14401.56
703.76	14401.1
704.105	14385.96
704.45	14363.82
704.795	14303.25
705.14	14304.38
705.485	14244.95
705.83	14157.27
706.175	14164.73
706.52	14178.96
706.865	14173.99
707.209	14171.28
707.554	14110.04
707.899	14170.38
708.243	14046.76
708.588	14147.1
708.932	14052.64
709.277	14044.73
709.621	14068.91
709.966	13900.33
710.31	13977.16
710.654	13920.89
710.998	13936.03
711.342	13943.94
711.687	13971.29
712.031	13904.85
712.375	13809.03
712.719	13856.49
713.063	13819.2
713.407	13848.58
713.75	13815.13
714.094	13778.97
714.438	13741.91
714.782	13817.16
715.125	13812.65
715.469	13825.98
715.812	13701.46
716.156	13647.9
716.499	13648.58
716.843	13652.2
717.186	13562.03
717.53	13674.12
717.873	13694.68
718.216	13575.82
718.559	13548.02
718.902	13534.69
719.246	13581.69
719.589	13476.16
719.932	13493.11
720.275	13520.45
720.617	13509.83
720.96	13454.69
721.303	13511.18
721.646	13467.57
721.989	13444.52
722.331	13414.92
722.674	13407.68
723.016	13466.67
723.359	13395.71
723.701	13428.47
724.044	13320.45
724.386	13240.23
724.729	13328.36
725.071	13254.02
725.413	13316.16
725.755	13377.85
726.097	13349.15
726.439	13246.11
726.782	13317.52
727.124	13289.04
727.465	13222.15
727.807	13143.28
728.149	13200.68
728.491	13217.63
728.833	13183.51
729.175	13254.92
729.516	13142.38
729.858	13094.7
730.199	13156.84
730.541	13171.08
730.882	13098.99
731.224	13200.01
731.565	13001.82
731.906	13073.46
732.248	13113.45
732.589	13066.22
732.93	13026.9
733.271	13034.81
733.612	13072.78
733.953	12991.65
734.294	12955.27
734.635	12953.68
734.976	13016.51
735.317	12921.37
735.658	12977.41
735.999	12972.67
736.339	13018.77
736.68	12929.28
737.021	12937.64
737.361	12775.84
737.702	12975.83
738.042	12862.16
738.383	12854.03
738.723	12869.39
739.063	12855.83
739.404	12885.21
739.744	12844.54
740.084	12716.63
740.424	12779.68
740.764	12730.87
741.104	12812.45
741.444	12714.6
741.784	12669.4
742.124	12661.04
742.464	12658.1
742.804	12668.49
743.143	12567.93
743.483	12687.93
743.823	12558.89
744.162	12627.14
744.502	12606.8
744.841	12487.48
745.181	12555.5
745.52	12500.82
745.86	12517.54
746.199	12476.64
746.538	12455.17
746.877	12496.75
747.216	12474.15
747.556	12481.38
747.895	12440.03
748.234	12413.81
748.573	12420.82
748.911	12392.34
749.25	12314.61
749.589	12319.58
749.928	12284.78
750.267	12329.52
750.605	12238.22
750.944	12299.69
751.283	12172.91
751.621	12176.76
751.96	12107.38
752.298	12175.4
752.636	12166.13
752.975	12165.23
753.313	12080.71
753.651	12148.51
753.989	12051.11
754.327	12041.62
754.666	11914.84
755.004	12061.05
755.342	12042.75
755.679	12000.26
756.017	11867.16
756.355	11894.5
756.693	11732.25
757.031	11813.83
757.368	11787.61
757.706	11793.04
758.044	11739.71
758.381	11728.41
758.719	11671.23
759.056	11702.64
759.394	11617.9
759.731	11489.09
760.068	11562.31
760.405	11455.42
760.743	11499.94
761.08	11539.03
761.417	11400.96
761.754	11386.95
762.091	11322.99
762.428	11321.19
762.765	11185.37
763.102	11315.31
763.438	11191.92
763.775	11167.52
764.112	11144.01
764.449	11114.64
764.785	11132.94
765.122	11027.18
765.458	10984.47
765.795	10898.15
766.131	10906.06
766.467	10869.67
766.804	10849.56
767.14	10765.72
767.476	10807.07
767.812	10761.43
768.148	10745.83
768.485	10707.64
768.821	10621.77
769.157	10612.5
769.492	10622.9
769.828	10564.37
770.164	10453.86
770.5	10372.06
770.836	10423.13
771.171	10351.04
771.507	10360.76
771.842	10292.51
772.178	10247.99
772.513	10261.1
772.849	10172.29
773.184	10120.99
773.519	10191.27
773.855	10120.76
774.19	10028.34
774.525	9961.9
774.86	9952.86
775.195	9995.57
775.53	9900.21
775.865	9898.4
776.2	9811.17
776.535	9745.63
776.87	9714.67
777.205	9686.88
777.539	9669.25
777.874	9658.4
778.209	9571.85
778.543	9569.14
778.878	9465.87
779.212	9515.58
779.547	9468.13
779.881	9473.78
780.215	9384.97
780.55	9369.6
780.884	9264.97
781.218	9315.36
781.552	9294.12
781.886	9184.52
782.22	9164.63
782.554	9168.7
782.888	9041.25
783.222	9005.99
783.556	9028.36
783.889	8982.26
784.223	8938.65
784.557	8881.02
784.89	8932.55
785.224	8835.6
785.557	8780.91
785.891	8756.06
786.224	8749.95
786.558	8711.76
786.891	8646.23
787.224	8654.81
787.557	8573.24
787.891	8541.15
788.224	8520.81
788.557	8520.36
788.89	8454.82
789.223	8495.04
789.556	8396.29
789.888	8345.22
790.221	8272.68
790.554	8257.31
790.887	8285.56
791.219	8236.29
791.552	8265.9
791.884	8170.99
792.217	8160.59
792.549	8112.68
792.882	8077.65
793.214	8079.01
793.546	8055.51
793.879	8006.47
794.211	7954.95
794.543	7970.54
794.875	7907.26
795.207	7960.6
795.539	7889.19
795.871	7844.21
796.203	7820.71
796.535	7737.55
796.867	7733.71
797.198	7714.73
797.53	7649.42
797.862	7646.03
798.193	7635.86
798.525	7576.88
798.856	7589.31
799.188	7486.48
799.519	7505.01
799.85	7439.25
800.182	7460.27
800.513	7450.33
800.844	7330.1
801.175	7391.57
801.506	7403.77
801.837	7340.73
802.168	7330.1
802.499	7270.9
802.83	7185.25
803.161	7207.62
803.491	7312.93
803.822	7222.54
804.153	7180.05
804.483	7112.71
804.814	7076.33
805.145	7101.18
805.475	7006.95
805.805	7066.61
806.136	7058.47
806.466	6988.42
806.796	6933.05
807.126	6905.03
807.457	6871.58
807.787	6866.16
808.117	6858.25
808.447	6828.65
808.777	6850.34
809.107	6805.82
809.436	6843.11
809.766	6815.09
810.096	6670.01
810.426	6717.46
810.755	6662.78
811.085	6702.32
811.414	6643.34
811.744	6642.89
812.073	6592.5
812.403	6601.08
812.732	6539.39
813.061	6572.16
813.39	6568.09
813.719	6472.05
814.049	6528.32
814.378	6443.8
814.707	6399.51
815.036	6453.52
815.365	6373.74
815.693	6333.75
816.022	6355.44
816.351	6317.48
816.68	6312.05
817.008	6313.86
817.337	6263.01
817.665	6319.28
817.994	6219.85
818.322	6213.3
818.651	6196.35
818.979	6198.61
819.307	6212.17
819.636	6098.5
819.964	6096.92
820.292	6129.46
820.62	6156.12
820.948	6149.8
821.276	6172.39
821.604	6111.83
821.932	6182.11
822.259	6103.02
822.587	6123.13
822.915	6117.48
823.243	6113.64
823.57	6115.67
823.898	6060.31
824.225	6110.93
824.553	6144.15
824.88	6020.99
825.207	6072.51
825.535	6072.96
825.862	6065.73
826.189	6036.8
826.516	6060.53
826.843	6075.45
827.17	6015.56
827.497	6033.19
827.824	6002.23
828.151	6059.4
828.478	5999.74
828.805	6047.2
829.131	6039.29
829.458	5986.86
829.785	5970.82
830.111	6014.66
830.438	5946.64
830.764	5986.86
831.09	6014.88
831.417	5937.37
831.743	5973.53
832.069	5971.72
832.395	5947.32
832.722	5955.22
833.048	5956.35
833.374	5877.71
833.7	5914.1
834.026	5893.76
834.351	5894.44
834.677	5868
835.003	5913.87
835.329	5821.67
835.654	5847.88
835.98	5891.95
836.306	5812.86
836.631	5803.36
836.956	5819.86
837.282	5828.67
837.607	5749.81
837.932	5772.63
838.258	5741.45
838.583	5746.42
838.908	5775.34
839.233	5726.53
839.558	5701.9
839.883	5676.81
840.208	5707.32
840.533	5695.12
840.858	5628.68
841.182	5664.16
841.507	5630.04
841.832	5599.3
842.156	5612.18
842.481	5624.61
842.805	5543.03
843.13	5585.97
843.454	5547.55
843.778	5533.99
844.103	5566.53
844.427	5492.64
844.751	5527.67
845.075	5477.5
845.399	5486.31
845.723	5456.71
846.047	5468.68
846.371	5399.53
846.695	5393.88
847.019	5393.21
847.343	5345.98
847.666	5281.12
847.99	5285.41
848.313	5285.86
848.637	5238.18
848.96	5258.07
849.284	5244.51
849.607	5203.38
849.931	5184.62
850.254	5197.96
850.577	5082.48
850.9	5084.97
851.223	5062.82
851.546	5068.92
851.869	5027.57
852.192	5036.6
852.515	5018.07
852.838	4920.9
853.161	4966.78
853.483	4952.09
853.806	4891.98
854.129	4925.42
854.451	4948.7
854.774	4855.59
855.096	4883.16
855.419	4820.57
855.741	4806.1
856.063	4817.63
856.385	4779.66
856.708	4765.43
857.03	4787.8
857.352	4812.43
857.674	4728.14
857.996	4724.97
858.318	4716.61
858.64	4685.43
858.961	4759.1
859.283	4674.13
859.605	4624.64
859.926	4695.37
860.248	4665.32
860.57	4615.37
860.891	4603.17
861.212	4636.39
861.534	4586.22
861.855	4568.59
862.176	4557.75
862.498	4552.78
862.819	4583.96
863.14	4567.01
863.461	4540.57
863.782	4523.62
864.103	4515.49
864.424	4489.5
864.745	4523.85
865.065	4438.2
865.386	4464.42
865.707	4482.72
866.027	4476.85
866.348	4444.08
866.668	4406.34
866.989	4426.45
867.309	4346.68
867.63	4397.3
867.95	4429.62
868.27	4343.74
868.59	4412.67
868.91	4376.51
869.23	4323.86
869.55	4329.73
869.87	4374.48
870.19	4363.4
870.51	4327.02
870.83	4377.41
871.15	4298.55
871.469	4339.22
871.789	4328.6
872.109	4329.28
872.428	4281.14
872.748	4284.08
873.067	4307.81
873.386	4296.74
873.706	4274.14
874.025	4258.09
874.344	4278.88
874.663	4222.61
874.982	4242.95
875.301	4219.23
875.62	4197.3
875.939	4197.53
876.258	4229.85
876.577	4207.02
876.896	4201.15
877.214	4178.1
877.533	4196.85
877.852	4178.1
878.17	4193.92
878.489	4143.52
878.807	4140.81
879.125	4140.36
879.444	4130.64
879.762	4090.87
880.08	4124.31
880.398	4048.83
880.716	4118.21
881.034	4122.28
881.352	4096.74
881.67	4105.56
881.988	4078.21
882.306	4094.71
882.624	4051.77
882.941	4040.25
883.259	4048.83
883.577	4036.63
883.894	3993.02
884.212	4024.88
884.529	4004.54
884.846	4004.32
885.164	3987.14
885.481	3944.2
885.798	3974.71
886.115	3958.44
886.432	3928.16
886.75	3957.99
887.067	3922.74
887.383	3928.39
887.7	3929.06
888.017	3860.82
888.334	3877.77
888.651	3844.77
888.967	3863.08
889.284	3850.87
889.6	3831.21
889.917	3833.02
890.233	3807.03
890.55	3778.56
890.866	3783.53
891.182	3789.63
891.498	3751.67
891.815	3779.69
892.131	3746.92
892.447	3728.39
892.763	3721.16
893.079	3704.44
893.395	3724.32
893.71	3729.07
894.026	3679.35
894.342	3737.43
894.657	3678.9
894.973	3697.43
895.289	3689.3
895.604	3650.65
895.92	3661.73
896.235	3579.24
896.55	3623.31
896.865	3629.86
897.181	3602.97
897.496	3633.93
897.811	3581.5
898.126	3555.74
898.441	3565.23
898.756	3590.09
899.071	3518.68
899.386	3530.88
899.7	3514.16
900.015	3489.98
900.33	3501.28
900.644	3448.17
900.959	3448.62
901.273	3458.79
901.588	3472.8
901.902	3430.32
902.216	3446.36
902.531	3419.7
902.845	3400.04
903.159	3335.63
903.473	3380.38
903.787	3336.99
904.101	3337.44
904.415	3346.93
904.729	3332.69
905.042	3345.12
905.356	3352.13
905.67	3312.36
905.984	3283.88
906.297	3302.41
906.611	3245.47
906.924	3252.92
907.237	3242.53
907.551	3247.73
907.864	3214.05
908.177	3226.93
908.491	3195.52
908.804	3172.47
909.117	3182.42
909.43	3142.64
909.743	3146.03
910.056	3141.06
910.368	3164.11
910.681	3136.77
910.994	3122.98
911.307	3144.23
911.619	3046.83
911.932	3054.28
912.244	3068.97
912.557	3088.63
912.869	3074.4
913.181	3005.92
913.494	3015.87
913.806	3007.51
914.118	2970.9
914.43	3005.02
914.742	2973.38
915.054	2981.29
915.366	2927.06
915.678	2930.9
915.99	2941.07
916.302	2899.71
916.613	2908.53
916.925	2900.84
917.236	2878.7
917.548	2840.73
917.859	2852.71
918.171	2854.06
918.482	2798.92
918.794	2850.9
919.105	2809.09
919.416	2786.95
919.727	2803.22
920.038	2795.53
920.349	2771.81
920.66	2763.22
920.971	2736.78
921.282	2725.25
921.593	2702.43
921.903	2684.58
922.214	2709.21
922.525	2721.64
922.835	2676.44
923.146	2670.34
923.456	2687.51
923.767	2655.2
924.077	2654.52
924.387	2644.8
924.697	2632.83
925.008	2659.04
925.318	2612.49
925.628	2642.54
925.938	2579.04
926.248	2567.29
926.558	2560.96
926.867	2560.74
927.177	2527.07
927.487	2531.59
927.796	2506.95
928.106	2521.42
928.416	2521.64
928.725	2491.81
929.034	2504.92
929.344	2496.78
929.653	2462.21
929.962	2476.67
930.271	2415.43
930.581	2433.28
930.89	2431.48
931.199	2428.54
931.508	2436.22
931.817	2407.07
932.125	2399.61
932.434	2401.42
932.743	2373.17
933.051	2399.84
933.36	2368.88
933.669	2374.3
933.977	2362.32
934.286	2327.98
934.594	2313.51
934.902	2308.32
935.21	2308.99
935.519	2313.29
935.827	2266.28
936.135	2295.89
936.443	2270.8
936.751	2271.71
937.059	2266.96
937.367	2254.76
937.674	2252.05
937.982	2250.24
938.29	2214.76
938.597	2228.54
938.905	2210.46
939.213	2189.22
939.52	2186.96
939.827	2198.04
940.135	2174.31
940.442	2175.89
940.749	2192.39
941.056	2158.71
941.363	2153.74
941.67	2120.3
941.977	2128.21
942.284	2104.93
942.591	2139.96
942.898	2101.54
943.205	2106.06
943.511	2091.6
943.818	2090.69
944.125	2076.91
944.431	2099.51
944.738	2069
945.044	2045.27
945.35	2059.06
945.657	2046.85
945.963	2048.43
946.269	2054.08
946.575	2021.32
946.881	2022.45
947.187	2002.79
947.493	2005.05
947.799	1991.49
948.105	1976.8
948.41	1986.06
948.716	1970.24
949.022	1938.83
949.327	1935.9
949.633	1939.74
949.938	1988.78
950.244	1940.19
950.549	1924.37
950.854	1929.12
951.16	1895.67
951.465	1910.36
951.77	1895.9
952.075	1883.92
952.38	1908.55
952.685	1888.21
952.99	1854.77
953.294	1837.82
953.599	1843.69
953.904	1853.19
954.209	1840.3
954.513	1831.49
954.818	1811.6
955.122	1812.28
955.426	1792.4
955.731	1808.22
956.035	1807.76
956.339	1804.83
956.643	1770.48
956.948	1797.59
957.252	1782.45
957.556	1756.24
957.86	1760.98
958.163	1765.73
958.467	1756.92
958.771	1734.09
959.075	1729.12
959.378	1736.8
959.682	1734.32
959.985	1732.96
960.289	1700.42
960.592	1678.73
960.896	1694.09
961.199	1693.87
961.502	1669.46
961.805	1685.28
962.108	1684.15
962.411	1672.4
962.714	1664.49
963.017	1669.24
963.32	1662.46
963.623	1638.5
963.926	1648.9
964.228	1640.76
964.531	1646.41
964.833	1628.33
965.136	1599.18
965.438	1610.93
965.741	1603.47
966.043	1604.6
966.345	1593.76
966.648	1610.93
966.95	1577.94
967.252	1572.29
967.554	1560.09
967.856	1563.02
968.158	1563.02
968.46	1546.3
968.761	1555.34
969.063	1525.51
969.365	1540.2
969.666	1524.38
969.968	1544.27
970.269	1541.33
970.571	1524.38
970.872	1520.31
971.174	1492.52
971.475	1491.16
971.776	1509.47
972.077	1492.97
972.378	1450.71
972.679	1483.25
972.98	1466.53
973.281	1465.4
973.582	1465.17
973.883	1470.37
974.183	1462.24
974.484	1458.39
974.785	1436.93
975.085	1433.31
975.386	1452.07
975.686	1419.98
975.986	1434.21
976.287	1413.88
976.587	1376.36
976.887	1426.98
977.187	1386.53
977.487	1374.33
977.787	1383.82
978.087	1387.66
978.387	1414.55
978.687	1375.23
978.987	1392.18
979.286	1366.64
979.586	1365.97
979.885	1367.32
980.185	1340.88
980.484	1326.19
980.784	1356.7
981.083	1335.91
981.382	1327.78
981.682	1316.48
981.981	1287.1
982.28	1298.17
982.579	1313.31
982.878	1292.75
983.177	1306.31
983.475	1281.68
983.774	1288.23
984.073	1269.25
984.372	1271.51
984.67	1264.27
984.969	1269.92
985.267	1271.73
985.566	1247.78
985.864	1265.86
986.162	1221.79
986.461	1236.03
986.759	1227.89
987.057	1211.17
987.355	1234.9
987.653	1240.09
987.951	1224.95
988.249	1223.82
988.547	1237.83
988.844	1234.9
989.142	1217.95
989.44	1209.13
989.737	1208.46
990.035	1197.61
990.332	1188.12
990.63	1196.25
990.927	1169.81
991.224	1189.47
991.521	1171.17
991.819	1157.61
992.116	1192.41
992.413	1158.29
992.71	1151.74
993.006	1118.52
993.303	1132.53
993.6	1167.55
993.897	1139.98
994.193	1137.05
994.49	1153.09
994.787	1133.66
995.083	1110.38
995.379	1098.18
995.676	1100.44
995.972	1116.93
996.268	1097.05
996.565	1097.73
996.861	1109.7
997.157	1087.33
997.453	1077.61
997.749	1103.15
998.044	1075.81
998.34	1072.42
998.636	1069.93
998.932	1045.98
999.227	1036.71
999.523	1061.79
999.818	1044.39
1000.114	1032.19
1000.409	1066.77
1000.704	1047.56
1001	1015.47
1001.295	1018.18
1001.59	1024.96
1001.885	1037.84
1002.18	1016.6
1002.475	1026.54
1002.77	1004.85
1003.065	988.35
1003.359	984.73
1003.654	1017.5
1003.949	992.19
1004.243	965.53
1004.538	962.36
1004.832	982.7
1005.127	971.85
1005.421	966.66
1005.715	957.16
1006.009	972.53
1006.304	964.17
1006.598	950.84
1006.892	938.63
1007.186	941.8
1007.48	936.37
1007.773	968.24
1008.067	933.66
1008.361	918.52
1008.655	922.59
1008.948	911.74
1009.242	891.18
1009.535	937.96
1009.829	928.46
1010.122	911.97
1010.415	883.72
1010.708	897.28
1011.001	891.18
1011.295	884.85
1011.588	864.06
1011.881	885.08
1012.173	882.82
1012.466	871.97
1012.759	875.13
1013.052	874
1013.344	855.47
1013.637	864.29
1013.93	856.83
1014.222	837.62
1014.514	867.22
1014.807	843.04
1015.099	842.36
1015.391	833.55
1015.683	827.22
1015.976	834.68
1016.268	849.6
1016.56	848.69
1016.851	833.78
1017.143	811.63
1017.435	800.33
1017.727	807.79
1018.018	787
1018.31	797.39
1018.602	801.01
1018.893	799.2
1019.185	775.02
1019.476	789.71
1019.767	779.77
1020.058	780.45
1020.35	802.14
1020.641	771.18
1020.932	772.54
1021.223	759.43
1021.514	750.84
1021.804	749.49
1022.095	751.07
1022.386	728.92
1022.677	739.54
1022.967	749.94
1023.258	732.09
1023.548	722.14
1023.839	726.21
1024.129	734.57
1024.419	726.89
1024.709	713.78
1025	736.15
1025.29	695.02
1025.58	723.27
1025.87	702.26
1026.16	682.37
1026.449	692.31
1026.739	684.4
1027.029	699.54
1027.319	684.85
1027.608	686.21
1027.898	699.54
1028.187	686.44
1028.477	660.9
1028.766	655.03
1029.055	661.58
1029.344	675.82
1029.634	647.57
1029.923	667.23
1030.212	644.63
1030.501	629.26
1030.79	659.09
1031.078	668.58
1031.367	627.91
1031.656	641.47
1031.945	649.83
1032.233	632.2
1032.522	628.59
1032.81	627
1033.099	603.5
1033.387	625.87
1033.675	625.2
1033.963	617.74
1034.251	624.97
1034.54	621.13
1034.828	634.91
1035.116	619.77
1035.403	606.89
1035.691	617.29
1035.979	621.13
1036.267	570.51
1036.554	604.18
1036.842	576.84
1037.129	577.06
1037.417	611.86
1037.704	598.76
1037.992	601.47
1038.279	570.06
1038.566	590.85
1038.853	590.85
1039.14	590.85
