Data from brown_tile_FLMS001491_040.txt Node
Date: Tue Feb 07 10:37:26 GMT 2017
User: dcchb
Spectrometer: FLMS00149
Trigger mode: 0
Integration Time (sec): 2.000000E-2
Scans to average: 10
Electric dark correction enabled: true
Nonlinearity correction enabled: false
Boxcar width: 0
XAxis mode: Wavelengths
Number of Pixels in Spectrum: 2048
>>>>>Begin Spectral Data<<<<<
341.393	-23.97
341.776	-23.97
342.16	-23.97
342.543	-75.72
342.927	-81.37
343.31	-76.62
343.693	-79.11
344.077	-74.59
344.46	-58.32
344.843	-63.29
345.226	-42.72
345.61	-37.08
345.993	-19
346.376	-14.25
346.759	14.22
347.142	40.44
347.525	37.95
347.908	71.85
348.291	96.03
348.674	86.99
349.057	117.5
349.44	128.8
349.823	159.08
350.206	140.32
350.588	155.91
350.971	183.03
351.354	207.21
351.737	205.86
352.119	235.01
352.502	236.14
352.884	243.14
353.267	249.24
353.65	270.71
354.032	284.05
354.414	301.22
354.797	283.59
355.179	310.03
355.562	299.64
355.944	309.13
356.326	311.39
356.709	326.98
357.091	305.97
357.473	315.68
357.855	333.99
358.238	329.02
358.62	324.95
359.002	306.64
359.384	325.18
359.766	333.76
360.148	310.49
360.53	331.5
360.912	326.98
361.294	332.18
361.676	322.24
362.057	313.65
362.439	331.28
362.821	304.84
363.203	316.81
363.584	305.97
363.966	298.74
364.348	300.99
364.729	302.12
365.111	320.43
365.493	307.55
365.874	305.06
366.256	278.85
366.637	307.1
367.019	296.48
367.4	285.63
367.781	306.42
368.163	305.06
368.544	288.34
368.925	293.54
369.306	323.37
369.688	311.62
370.069	291.05
370.45	297.83
370.831	291.73
371.212	271.62
371.593	291.73
371.974	311.16
372.355	286.98
372.736	286.31
373.117	300.54
373.498	301.22
373.879	291.5
374.26	277.04
374.641	292.18
375.021	303.03
375.402	297.61
375.783	307.1
376.163	293.31
376.544	326.08
376.925	286.76
377.305	315.01
377.686	305.97
378.066	297.83
378.447	330.37
378.827	311.39
379.208	300.32
379.588	302.12
379.968	293.31
380.349	327.89
380.729	319.75
381.109	310.71
381.489	316.81
381.87	296.48
382.25	324.5
382.63	310.71
383.01	314.78
383.39	315.46
383.77	311.84
384.15	309.36
384.53	336.7
384.91	312.07
385.29	345.97
385.67	333.31
386.049	335.8
386.429	332.63
386.809	322.01
387.189	306.19
387.568	330.37
387.948	319.98
388.328	346.42
388.707	337.38
389.087	334.67
389.466	358.39
389.846	349.81
390.225	341.67
390.605	335.34
390.984	331.73
391.363	340.32
391.743	333.31
392.122	354.78
392.501	348.68
392.881	334.21
393.26	355.68
393.639	359.52
394.018	350.71
394.397	354.33
394.776	355.23
395.155	343.25
395.534	360.2
395.913	357.26
396.292	355.23
396.671	347.77
397.05	385.51
397.429	348
397.808	373.76
398.186	380.09
398.565	366.53
398.944	368.11
399.323	383.93
399.701	381.22
400.08	363.37
400.458	359.07
400.837	390.94
401.215	373.99
401.594	369.47
401.972	367.66
402.351	371.5
402.729	378.06
403.107	362.91
403.486	388.68
403.864	373.54
404.242	391.84
404.62	376.93
404.999	423.48
405.377	383.7
405.755	365.4
406.133	394.55
406.511	407.43
406.889	406.53
407.267	405.4
407.645	388.22
408.023	415.34
408.401	395.46
408.779	402.46
409.156	401.78
409.534	410.37
409.912	390.71
410.29	406.75
410.667	407.66
411.045	405.17
411.422	408.56
411.8	412.86
412.178	431.84
412.555	410.14
412.933	430.03
413.31	435.23
413.687	433.65
414.065	427.55
414.442	447.21
414.819	428.45
415.197	449.01
415.574	456.25
415.951	432.97
416.328	438.39
416.705	426.42
417.082	444.72
417.46	452.18
417.837	469.35
418.214	459.41
418.591	453.99
418.967	473.42
419.344	453.53
419.721	464.83
420.098	450.14
420.475	483.81
420.852	468.67
421.228	464.83
421.605	461.89
421.982	472.52
422.358	498.5
422.735	473.19
423.111	493.08
423.488	470.93
423.864	497.37
424.241	496.92
424.617	517.94
424.994	495.11
425.37	497.83
425.746	515.23
426.123	505.51
426.499	525.62
426.875	516.81
427.251	500.09
427.627	516.81
428.003	527.66
428.379	529.24
428.756	554.32
429.132	525.62
429.507	548.67
429.883	559.52
430.259	539.18
430.635	557.26
431.011	524.04
431.387	568.11
431.763	570.59
432.138	555.45
432.514	544.6
432.89	559.75
433.265	567.88
433.641	584.6
434.016	592.29
434.392	565.62
434.767	600.2
435.143	583.47
435.518	600.42
435.894	593.42
436.269	618.05
436.644	602.46
437.02	614.88
437.395	630.93
437.77	626.64
438.145	630.03
438.52	632.06
438.895	627.99
439.271	650.36
439.646	654.21
440.021	645.39
440.395	654.88
440.77	670.48
441.145	638.39
441.52	653.08
441.895	667.54
442.27	642.45
442.645	683.13
443.019	682.91
443.394	663.92
443.769	698.95
444.143	674.09
444.518	697.82
444.892	701.44
445.267	695.11
445.641	705.96
446.016	704.6
446.39	695.56
446.764	706.86
447.139	708.89
447.513	730.59
447.887	722
448.262	706.86
448.636	710.7
449.01	737.82
449.384	720.42
449.758	750.47
450.132	720.42
450.506	740.08
450.88	740.31
451.254	759.97
451.628	770.59
452.002	762.23
452.376	762.9
452.75	780.76
453.123	761.1
453.497	772.85
453.871	774.43
454.244	803.35
454.618	821.89
454.992	812.85
455.365	818.95
455.739	820.76
456.112	808.55
456.486	828.89
456.859	828.66
457.232	863.92
457.606	858.95
457.979	831.83
458.352	877.7
458.725	874.54
459.099	898.95
459.472	899.85
459.845	915.67
460.218	902.11
460.591	914.76
460.964	926.06
461.337	956.8
461.71	915.89
462.083	952.96
462.456	942.79
462.829	932.84
463.201	956.57
463.574	971.71
463.947	984.37
464.32	966.74
464.692	992.28
465.065	991.6
465.438	1014.2
465.81	1038.15
466.183	1026.63
466.555	1039.96
466.928	1067.53
467.3	1028.66
467.672	1071.37
468.045	1080.86
468.417	1095.78
468.789	1079.51
469.161	1107.53
469.534	1131.48
469.906	1149.79
470.278	1152.5
470.65	1170.8
471.022	1178.26
471.394	1200.18
471.766	1201.54
472.138	1186.17
472.51	1253.29
472.882	1233.85
473.253	1247.18
473.625	1292.38
473.997	1280.4
474.369	1308.43
474.74	1326.28
475.112	1314.08
475.484	1345.49
475.855	1375.32
476.227	1368.09
476.598	1401.53
476.97	1423.9
477.341	1432.94
477.713	1459.16
478.084	1458.93
478.455	1490.12
478.827	1531.92
479.198	1529.66
479.569	1558.36
479.94	1575.76
480.311	1584.58
480.682	1625.71
481.053	1647.85
481.424	1683.78
481.795	1675.87
482.166	1721.75
482.537	1741.41
482.908	1783.67
483.279	1773.5
483.65	1787.74
484.021	1822.31
484.391	1873.83
484.762	1875.87
485.133	1876.09
485.503	1918.58
485.874	1942.08
486.244	1964.68
486.615	1998.58
486.985	1987.05
487.356	2028.86
487.726	2046.26
488.097	2076.54
488.467	2093.49
488.837	2118.12
489.207	2151.79
489.578	2169.42
489.948	2177.33
490.318	2215.97
490.688	2234.05
491.058	2251.23
491.428	2294.16
491.798	2304.11
492.168	2349.75
492.538	2368.96
492.908	2373.93
493.278	2396.53
493.648	2419.13
494.017	2428.85
494.387	2503.2
494.757	2530.31
495.126	2536.42
495.496	2559.24
495.866	2544.1
496.235	2564.66
496.605	2585.91
496.974	2595.4
497.344	2632.69
497.713	2656.87
498.082	2647.83
498.452	2709.29
498.821	2689.41
499.19	2736.64
499.559	2736.86
499.928	2779.35
500.298	2755.39
500.667	2798.56
501.036	2808.05
501.405	2831.55
501.774	2862.06
502.143	2860.48
502.512	2913.58
502.88	2912.68
503.249	2922.17
503.618	2932.56
503.987	2977.08
504.356	2978.89
504.724	2965.11
505.093	3006.46
505.462	3030.87
505.83	3038.32
506.199	3049.17
506.567	3092.33
506.936	3096.63
507.304	3120.36
507.672	3164.87
508.041	3162.16
508.409	3182.73
508.777	3177.3
509.145	3228.83
509.514	3245.55
509.882	3251.43
510.25	3254.36
510.618	3284.87
510.986	3292.78
511.354	3337.3
511.722	3382.72
512.09	3450.29
512.458	3382.5
512.826	3442.38
513.193	3468.14
513.561	3453.68
513.929	3525.54
514.297	3532.55
514.664	3583.85
515.032	3547.24
515.4	3610.74
515.767	3614.35
516.135	3669.72
516.502	3672.43
516.869	3748.14
517.237	3714.69
517.604	3731.64
517.972	3779.55
518.339	3834.01
518.706	3822.03
519.073	3837.17
519.44	3846.21
519.808	3909.94
520.175	3904.06
520.542	3987.45
520.909	3968.92
521.276	3987.68
521.643	4025.64
522.009	4067
522.376	4096.6
522.743	4141.12
523.11	4175.02
523.477	4219.31
523.843	4217.28
524.21	4257.73
524.577	4287.78
524.943	4297.05
525.31	4360.1
525.676	4377.05
526.043	4411.62
526.409	4467.44
526.776	4474.22
527.142	4541.34
527.508	4570.94
527.874	4647.55
528.241	4695.68
528.607	4668.79
528.973	4704.04
529.339	4739.52
529.705	4781.33
530.071	4805.96
530.437	4865.17
530.803	4830.59
531.169	4931.16
531.535	4873.08
531.901	4892.06
532.267	4931.61
532.632	4980.65
532.998	5000.98
533.364	5055.22
533.73	5051.6
534.095	5127.53
534.461	5127.53
534.826	5218.61
535.192	5175.67
535.557	5230.36
535.923	5217.48
536.288	5302.45
536.653	5306.06
537.019	5277.36
537.384	5353.74
537.749	5368.21
538.114	5400.97
538.479	5395.78
538.845	5439.62
539.21	5446.85
539.575	5488.66
539.94	5507.41
540.305	5562.1
540.67	5606.39
541.034	5641.19
541.399	5679.38
541.764	5720.74
542.129	5706.73
542.494	5756.44
542.858	5805.03
543.223	5844.8
543.587	5869.21
543.952	5885.93
544.316	5925.25
544.681	5903.56
545.045	5936.1
545.41	6023.33
545.774	6034.18
546.138	6066.72
546.503	6092.71
546.867	6127.96
547.231	6155.76
547.595	6198.69
547.959	6234.17
548.324	6320.95
548.688	6311.23
549.052	6335.41
549.416	6393.94
549.779	6357.11
550.143	6503.54
550.507	6527.27
550.871	6600.49
551.235	6572.47
551.599	6639.81
551.962	6722.75
552.326	6708.28
552.689	6724.1
553.053	6810.88
553.417	6782.41
553.78	6948.73
554.143	6932.46
554.507	7032.12
554.87	7074.15
555.234	7173.81
555.597	7117.54
555.96	7235.28
556.323	7292
556.686	7345.56
557.05	7376.29
557.413	7453.35
557.776	7493.57
558.139	7560.69
558.502	7646.11
558.865	7711.42
559.228	7722.72
559.59	7851.76
559.953	7811.76
560.316	7933.34
560.679	8027.8
561.041	8062.82
561.404	8162.26
561.767	8241.35
562.129	8291.97
562.492	8375.81
562.854	8432.76
563.217	8460.1
563.579	8531.96
563.941	8637.5
564.304	8730.6
564.666	8841.34
565.028	8842.47
565.39	8931.5
565.753	9042.91
566.115	9116.81
566.477	9169.01
566.839	9223.92
567.201	9345.73
567.563	9378.04
567.925	9463.01
568.287	9568.77
568.648	9667.53
569.01	9719.5
569.372	9820.29
569.734	9829.33
570.095	9999.5
570.457	10030.46
570.819	10076.11
571.18	10122.88
571.542	10275.42
571.903	10356.55
572.265	10434.97
572.626	10469.77
572.987	10551.12
573.349	10653.72
573.71	10728.07
574.071	10750.21
574.432	10864.78
574.794	11022.97
575.155	11079.47
575.516	11065.46
575.877	11213.93
576.238	11219.13
576.599	11352.91
576.96	11414.38
577.32	11502.06
577.681	11630.64
578.042	11674.26
578.403	11650.53
578.763	11757.19
579.124	11826.79
579.485	11966.45
579.845	11996.05
580.206	12007.81
580.566	12137.75
580.927	12123.51
581.287	12226.78
581.648	12233.79
582.008	12386.1
582.368	12312.66
582.728	12485.08
583.089	12488.7
583.449	12529.15
583.809	12633.78
584.169	12672.87
584.529	12734.34
584.889	12837.16
585.249	12826.99
585.609	12886.43
585.969	12937.27
586.329	12937.5
586.688	13027.21
587.048	13082.58
587.408	13046.65
587.768	13158.51
588.127	13142.24
588.487	13160.54
588.846	13339.97
589.206	13262.91
589.565	13355.57
589.925	13521.66
590.284	13483.7
590.643	13501.33
591.003	13566.41
591.362	13633.3
591.721	13549.23
592.08	13653.41
592.44	13734.09
592.799	13689.34
593.158	13820.41
593.517	13791.26
593.876	13874.42
594.235	13953.52
594.593	13910.13
594.952	14062.44
595.311	13989.67
595.67	14017.7
596.029	14161.2
596.387	14160.74
596.746	14251.36
597.104	14169.33
597.463	14246.39
597.822	14267.86
598.18	14262.21
598.538	14330
598.897	14452.26
599.255	14284.58
599.613	14613.16
599.972	14515.31
600.33	14464.01
600.688	14554.41
601.046	14572.26
601.404	14672.14
601.762	14598.47
602.12	14760.73
602.478	14765.02
602.836	14791.69
603.194	14628.53
603.552	14819.26
603.91	14746.72
604.268	14840.73
604.625	14819.71
604.983	14903.32
605.341	14905.81
605.698	14993.49
606.056	15039.59
606.413	15069.19
606.771	15152.36
607.128	15190.09
607.485	15094.28
607.843	15089.31
608.2	15187.61
608.557	15334.05
608.914	15260.38
609.272	15302.18
609.629	15386.7
609.986	15440.71
610.343	15375.85
610.7	15450.43
611.057	15449.98
611.414	15452.91
611.771	15587.37
612.127	15597.32
612.484	15549.18
612.841	15597.77
613.198	15653.13
613.554	15655.62
613.911	15782.17
614.267	15708.95
614.624	15739.69
614.98	15736.75
615.337	15935.84
615.693	15835.05
616.05	15759.57
616.406	15917.31
616.762	15877.53
617.118	15857.2
617.475	15887.93
617.831	15988.04
618.187	16041.82
618.543	15991.66
618.899	16044.76
619.255	15992.33
619.611	16163.4
619.967	16209.96
620.323	16095.16
620.678	16146.68
621.034	16108.94
621.39	16113.91
621.746	16125.89
622.101	16284.76
622.457	16143.06
622.812	16221.48
623.168	16280.46
623.523	16251.54
623.879	16234.59
624.234	16211.31
624.589	16293.12
624.945	16319.78
625.3	16312.1
625.655	16351.65
626.01	16345.77
626.365	16403.62
626.72	16371.98
627.075	16429.84
627.43	16339.22
627.785	16261.25
628.14	16334.92
628.495	16382.61
628.85	16352.1
629.205	16263.97
629.559	16408.82
629.914	16355.04
630.269	16305.55
630.623	16281.59
630.978	16177.64
631.332	16371.76
631.687	16382.15
632.041	16341.93
632.396	16443.62
632.75	16274.36
633.104	16303.96
633.459	16242.27
633.813	16196.17
634.167	16202.95
634.521	16205.89
634.875	16243.85
635.229	16306
635.583	16204.53
635.937	16240.69
636.291	16144.87
636.645	16224.87
636.999	16152.56
637.352	16167.02
637.706	16177.19
638.06	16207.7
638.413	16169.96
638.767	16126.57
639.121	16066.91
639.474	16058.32
639.828	16069.17
640.181	16095.16
640.534	16113.46
640.888	16090.64
641.241	15929.96
641.594	16010.19
641.947	16135.61
642.301	16027.14
642.654	16019.45
643.007	15978.1
643.36	15965.89
643.713	15890.87
644.066	15954.37
644.419	16005.67
644.771	15796.86
645.124	15673.92
645.477	15638.44
645.83	15635.05
646.182	15553.02
646.535	15475.06
646.888	15569.29
647.24	15474.61
647.593	15580.37
647.945	15520.93
648.298	15437.55
648.65	15407.04
649.002	15393.93
649.355	15395.74
649.707	15418.79
650.059	15524.32
650.411	15589.63
650.763	15733.81
651.115	15887.93
651.467	15794.37
651.819	15826.01
652.171	15764.32
652.523	15755.28
652.875	15723.87
653.227	15665.11
653.578	15752.57
653.93	15773.58
654.282	15748.27
654.633	15695.84
654.985	15700.36
655.337	15734.04
655.688	15687.48
656.039	15799.57
656.391	15666.92
656.742	15611.1
657.094	15677.31
657.445	15703.75
657.796	15689.52
658.147	15693.81
658.498	15658.56
658.849	15796.18
659.2	15649.07
659.551	15701.95
659.902	15670.08
660.253	15713.92
660.604	15701.95
660.955	15675.96
661.306	15682.96
661.656	15747.59
662.007	15723.19
662.358	15663.75
662.708	15704.66
663.059	15723.87
663.409	15527.26
663.76	15732
664.11	15699.01
664.461	15801.83
664.811	15687.71
665.161	15734.71
665.511	15642.51
665.862	15771.32
666.212	15833.02
666.562	15800.93
666.912	15735.39
667.262	15799.12
667.612	15764.77
667.962	15786.69
668.312	15826.69
668.662	15803.64
669.011	15835.5
669.361	15814.94
669.711	15784.88
670.06	15857.65
670.41	15797.76
670.76	15809.74
671.109	15814.49
671.459	15845.44
671.808	15761.61
672.157	15843.19
672.507	15735.84
672.856	15715.96
673.205	15792.11
673.554	15804.09
673.904	15815.62
674.253	15906.01
674.602	15788.5
674.951	15623.76
675.3	15540.14
675.649	15793.92
675.998	15832.11
676.346	15804.09
676.695	15856.97
677.044	15767.03
677.393	15773.13
677.741	15793.69
678.09	15780.14
678.438	15841.6
678.787	15777.65
679.135	15804.77
679.484	15757.31
679.832	15802.06
680.181	15663.75
680.529	15746.69
680.877	15763.87
681.225	15760.7
681.573	15771.77
681.922	15721.83
682.27	15652.91
682.618	15714.37
682.966	15730.19
683.314	15722.28
683.661	15723.19
684.009	15639.12
684.357	15656.52
684.705	15596.64
685.053	15700.36
685.4	15630.99
685.748	15577.66
686.095	15552.57
686.443	15505.11
686.79	15443.2
687.138	15558.45
687.485	15544.21
687.832	15409.52
688.18	15530.88
688.527	15464.44
688.874	15387.15
689.221	15490.2
689.568	15452.01
689.915	15264.22
690.262	15367.94
690.609	15333.82
690.956	15388.51
691.303	15298.57
691.65	15288.62
691.997	15236.2
692.344	15118.91
692.69	15210.43
693.037	15149.87
693.383	15083.66
693.73	15130.21
694.077	15070.32
694.423	15111.9
694.769	15018.12
695.116	15019.7
695.462	15061.74
695.808	14952.59
696.155	15037.33
696.501	14847.51
696.847	14995.07
697.193	14819.03
697.539	14907.39
697.885	14823.55
698.231	14691.13
698.577	14751.46
698.923	14802.76
699.269	14755.08
699.614	14629.88
699.96	14636.89
700.306	14650.22
700.651	14554.86
700.997	14508.3
701.342	14570.9
701.688	14493.84
702.033	14533.84
702.379	14486.16
702.724	14481.19
703.069	14560.73
703.415	14344.69
703.76	14296.79
704.105	14399.83
704.45	14341.53
704.795	14269.67
705.14	14258.59
705.485	14256.33
705.83	14222.66
706.175	14275.99
706.52	14229.44
706.865	14148.77
707.209	14188.77
707.554	14110.58
707.899	14174.75
708.243	14098.37
708.588	14102.67
708.932	14042.55
709.277	14009.79
709.621	14074.64
709.966	13979.28
710.31	13994.87
710.654	13879.39
710.998	14041.42
711.342	13964.14
711.687	13945.61
712.031	13899.51
712.375	13844.37
712.719	13881.65
713.063	13839.17
713.407	13882.33
713.75	13796.69
714.094	13803.01
714.438	13754.2
714.782	13768.44
715.125	13718.27
715.469	13736.57
715.812	13695.67
716.156	13602.34
716.499	13720.76
716.843	13726.4
717.186	13599.4
717.53	13725.05
717.873	13717.82
718.216	13593.53
718.559	13600.08
718.902	13443.02
719.246	13549.91
719.589	13451.61
719.932	13514.43
720.275	13502.91
720.617	13503.36
720.96	13482.8
721.303	13484.15
721.646	13427.2
721.989	13346.98
722.331	13483.47
722.674	13448.22
723.016	13411.84
723.359	13395.11
723.701	13406.19
724.044	13325.96
724.386	13294.78
724.729	13359.63
725.071	13349.24
725.413	13353.99
725.755	13353.99
726.097	13243.48
726.439	13183.14
726.782	13232.18
727.124	13351.95
727.465	13263.59
727.807	13325.51
728.149	13168
728.491	13194.44
728.833	13205.06
729.175	13156.7
729.516	13126.87
729.858	13083.94
730.199	13147.66
730.541	13188.34
730.882	13149.02
731.224	13151.5
731.565	13106.31
731.906	13116.7
732.248	13051.17
732.589	13116.03
732.93	13043.94
733.271	13052.75
733.612	13094.56
733.953	13104.95
734.294	13037.84
734.635	13014.11
734.976	13058.85
735.317	13006.2
735.658	12899.76
735.999	12969.36
736.339	12942.92
736.68	12903.83
737.021	12955.13
737.361	12822.02
737.702	12944.5
738.042	12929.59
738.383	12898.4
738.723	12931.17
739.063	12888.69
739.404	12853.43
739.744	12853.66
740.084	12823.15
740.424	12803.94
740.764	12735.47
741.104	12746.32
741.444	12697.28
741.784	12670.61
742.124	12701.35
742.464	12620.9
742.804	12617.28
743.143	12599.65
743.483	12580.22
743.823	12602.37
744.162	12531.86
744.502	12604.85
744.841	12504.06
745.181	12614.57
745.52	12535.25
745.86	12595.59
746.199	12458.42
746.538	12513.1
746.877	12564.63
747.216	12514.46
747.556	12496.15
747.895	12493.22
748.234	12292.54
748.573	12372.77
748.911	12305.43
749.25	12337.74
749.589	12309.27
749.928	12340.23
750.267	12344.75
750.605	12302.71
750.944	12267.01
751.283	12234.92
751.621	12255.71
751.96	12107.69
752.298	12173.23
752.636	12171.19
752.975	12171.64
753.313	12075.15
753.651	12139.78
753.989	12072.21
754.327	12095.94
754.666	12010.74
755.004	11932.33
755.342	12011.65
755.679	12011.2
756.017	11880.13
756.355	11939.11
756.693	11845.32
757.031	11864.08
757.368	11756.74
757.706	11764.65
758.044	11790.86
758.381	11732.78
758.719	11694.37
759.056	11673.58
759.394	11625.44
759.731	11521.04
760.068	11451.21
760.405	11469.97
760.743	11467.48
761.08	11413.92
761.417	11408.27
761.754	11451.66
762.091	11260.71
762.428	11300.03
762.765	11268.84
763.102	11283.53
763.438	11203.76
763.775	11183.87
764.112	11091.9
764.449	11172.12
764.785	11089.86
765.122	11025.23
765.458	11002.86
765.795	10985.69
766.131	10914.95
766.467	10905.91
766.804	10884.22
767.14	10792.92
767.476	10806.26
767.812	10745.69
768.148	10745.92
768.485	10602.19
768.821	10594.96
769.157	10622.31
769.492	10547.28
769.828	10512.25
770.164	10470.67
770.5	10391.13
770.836	10399.94
771.171	10334.4
771.507	10329.88
771.842	10286.04
772.178	10285.59
772.513	10253.73
772.849	10137.12
773.184	10153.39
773.519	10206.05
773.855	10142.54
774.19	10064.35
774.525	10081.75
774.86	10011.47
775.195	9967.63
775.53	9943.91
775.865	9827.07
776.2	9811.71
776.535	9707.3
776.87	9723.57
777.205	9718.37
777.539	9598.38
777.874	9645.83
778.209	9583.01
778.543	9523.35
778.878	9525.61
779.212	9491.94
779.547	9420.98
779.881	9446.52
780.215	9347.54
780.55	9430.7
780.884	9339.4
781.218	9349.12
781.552	9281.32
781.886	9227.99
782.22	9199.07
782.554	9114.55
782.888	9019.18
783.222	8983.93
783.556	8987.55
783.889	8998.17
784.223	8882.69
784.557	8872.97
784.89	8858.28
785.224	8899.86
785.557	8765.86
785.891	8787.33
786.224	8673.43
786.558	8723.82
786.891	8662.36
787.224	8674.33
787.557	8572.42
787.891	8601.79
788.224	8521.57
788.557	8428.69
788.89	8476.6
789.223	8461.68
789.556	8379.65
789.888	8350.73
790.221	8324.51
790.554	8299.2
790.887	8266.21
791.219	8237.96
791.552	8215.59
791.884	8182.37
792.217	8149.38
792.549	8145.99
792.882	8100.34
793.214	8056.5
793.546	8061.92
793.879	7960.68
794.211	7965.88
794.543	7931.3
794.875	7864.41
795.207	7949.83
795.539	7869.84
795.871	7804.3
796.203	7783.96
796.535	7770.18
796.867	7680.24
797.198	7747.58
797.53	7665.77
797.862	7601.37
798.193	7665.1
798.525	7556.4
798.856	7562.5
799.188	7520.24
799.519	7549.39
799.85	7447.7
800.182	7488.6
800.513	7438.43
800.844	7332.45
801.175	7394.82
801.506	7339.45
801.837	7261.04
802.168	7303.07
802.499	7221.94
802.83	7213.58
803.161	7254.26
803.491	7200.47
803.822	7159.12
804.153	7130.19
804.483	7079.12
804.814	7067.6
805.145	7058.33
805.475	7032.12
805.805	7040.93
806.136	7068.5
806.466	7007.71
806.796	6978.33
807.126	6920.26
807.457	6911.22
807.787	6890.65
808.117	6833.93
808.447	6830.99
808.777	6859.69
809.107	6777.89
809.436	6808.17
809.766	6748.51
810.096	6801.84
810.426	6673.03
810.755	6697.21
811.085	6691.79
811.414	6622.18
811.744	6628.96
812.073	6625.8
812.403	6549.64
812.732	6584.45
813.061	6553.26
813.39	6573.37
813.719	6511.23
814.049	6520.94
814.378	6494.05
814.707	6458.57
815.036	6438.91
815.365	6394.17
815.693	6316.66
816.022	6301.74
816.351	6331.8
816.68	6308.97
817.008	6304.68
817.337	6202.53
817.665	6275.3
817.994	6264.68
818.322	6216.32
818.651	6224
818.979	6200.73
819.307	6226.04
819.636	6146.26
819.964	6154.85
820.292	6149.43
820.62	6171.12
820.948	6106.72
821.276	6128.64
821.604	6103.33
821.932	6158.47
822.259	6105.14
822.587	6077.79
822.915	6147.85
823.243	6082.99
823.57	6037.12
823.898	6099.94
824.225	6040.51
824.553	6038.47
824.88	6026.04
825.207	6102.88
825.535	6063.56
825.862	6080.73
826.189	6037.79
826.516	6041.41
826.843	6076.89
827.17	6045.93
827.497	6022.88
827.824	6052.93
828.151	6011.13
828.478	6047.96
828.805	6018.13
829.131	6029.21
829.458	6043.89
829.785	5942.88
830.111	5961.86
830.438	5994.63
830.764	5973.39
831.09	6022.2
831.417	5960.73
831.743	5987.85
832.069	5920.73
832.395	5916.44
832.722	5953.28
833.048	5942.2
833.374	5913.28
833.7	5894.75
834.026	5930.23
834.351	5913.73
834.677	5823.34
835.003	5845.48
835.329	5839.61
835.654	5833.05
835.98	5803.9
836.306	5852.26
836.631	5800.74
836.956	5837.12
837.282	5795.31
837.607	5758.25
837.932	5793.28
838.258	5743.11
838.583	5743.34
838.908	5737.91
839.233	5733.17
839.558	5661.98
839.883	5759.38
840.208	5681.19
840.533	5678.25
840.858	5676.22
841.182	5603.91
841.507	5667.41
841.832	5646.17
842.156	5661.76
842.481	5643.91
842.805	5602.55
843.13	5579.27
843.454	5551.7
843.778	5562.33
844.103	5538.37
844.427	5518.71
844.751	5562.1
845.075	5524.59
845.399	5476.45
845.723	5423.35
846.047	5490.46
846.371	5415.66
846.695	5405.72
847.019	5382.9
847.343	5374.08
847.666	5333.86
847.99	5290.92
848.313	5326.63
848.637	5273.29
848.96	5222.9
849.284	5213.18
849.607	5203.24
849.931	5207.53
850.254	5144.26
850.577	5135.9
850.9	5104.71
851.223	5071.49
851.546	5049.12
851.869	4968.44
852.192	5011.83
852.515	4986.97
852.838	4971.83
853.161	4977.03
853.483	4919.63
853.806	4914.43
854.129	4940.65
854.451	4879.63
854.774	4879.63
855.096	4887.54
855.419	4840.76
855.741	4824.94
856.063	4804.83
856.385	4799.63
856.708	4773.87
857.03	4797.37
857.352	4765.96
857.674	4733.65
857.996	4717.6
858.318	4716.47
858.64	4662.24
858.961	4675.12
859.283	4637.83
859.605	4700.43
859.926	4655.23
860.248	4615.68
860.57	4614.33
860.891	4612.07
861.212	4634.89
861.534	4576.14
861.855	4602.12
862.176	4586.53
862.498	4559.64
862.819	4575.46
863.14	4542.92
863.461	4539.3
863.782	4501.34
864.103	4508.79
864.424	4494.33
864.745	4481.45
865.065	4517.38
865.386	4535.91
865.707	4477.83
866.027	4501.79
866.348	4438.51
866.668	4437.84
866.989	4432.19
867.309	4401.9
867.63	4390.83
867.95	4379.53
868.27	4342.92
868.59	4410.72
868.91	4362.58
869.23	4321
869.55	4387.22
869.87	4328.69
870.19	4349.7
870.51	4339.08
870.83	4338.18
871.15	4328.46
871.469	4318.52
871.789	4318.29
872.109	4285.3
872.428	4261.34
872.748	4288.01
873.067	4245.75
873.386	4299.99
873.706	4334.79
874.025	4239.65
874.344	4205.3
874.663	4244.62
874.982	4222.25
875.301	4210.5
875.62	4182.25
875.939	4190.16
876.258	4196.94
876.577	4155.58
876.896	4195.81
877.214	4143.61
877.533	4182.47
877.852	4153.32
878.17	4144.28
878.489	4125.98
878.807	4157.84
879.125	4149.03
879.444	4130.5
879.762	4142.02
880.08	4140.89
880.398	4067.68
880.716	4119.65
881.034	4080.33
881.352	4092.08
881.67	4088.01
881.988	4085.75
882.306	4073.1
882.624	4053.44
882.941	4030.84
883.259	4044.4
883.577	4010.95
883.894	4017.06
884.212	3972.54
884.529	3997.62
884.846	3964.85
885.164	3943.84
885.481	3977.96
885.798	3933.67
886.115	3886.44
886.432	3931.41
886.75	3921.92
887.067	3931.86
887.383	3928.24
887.7	3901.8
888.017	3884.86
888.334	3841.92
888.651	3894.35
888.967	3856.38
889.284	3809.83
889.6	3871.52
889.917	3797.4
890.233	3803.73
890.55	3797.17
890.866	3824.07
891.182	3814.8
891.498	3748.14
891.815	3799.66
892.131	3786.1
892.447	3764.41
892.763	3737.51
893.079	3705.88
893.395	3693.22
893.71	3696.84
894.026	3696.16
894.342	3681.47
894.657	3684.86
894.973	3636.73
895.289	3652.55
895.604	3673.56
895.92	3640.34
896.235	3602.83
896.55	3597.63
896.865	3617.97
897.181	3571.87
897.496	3567.35
897.811	3582.04
898.126	3594.02
898.441	3569.16
898.756	3563.51
899.071	3529.84
899.386	3544.98
899.7	3537.52
900.015	3493.68
900.33	3498.65
900.644	3474.47
900.959	3502.72
901.273	3459.1
901.588	3428.6
901.902	3445.32
902.216	3425.21
902.531	3409.84
902.845	3390.41
903.159	3436.96
903.473	3348.37
903.787	3363.51
904.101	3300.24
904.415	3351.99
904.729	3317.41
905.042	3290.52
905.356	3334.81
905.67	3286
905.984	3276.96
906.297	3313.35
906.611	3251.43
906.924	3263.85
907.237	3225.66
907.551	3226.57
907.864	3230.86
908.177	3210.75
908.491	3225.21
908.804	3174.37
909.117	3199.68
909.43	3152.9
909.743	3125.78
910.056	3160.35
910.368	3135.04
910.681	3102.28
910.994	3128.94
911.307	3088.04
911.619	3032.45
911.932	3044.88
912.244	3059.57
912.557	3080.58
912.869	3060.92
913.181	2994.71
913.494	3056.63
913.806	2975.95
914.118	3014.82
914.43	2968.27
914.742	2992.68
915.054	2922.17
915.366	2954.26
915.678	2919.01
915.99	2936.86
916.302	2875.62
916.613	2918.33
916.925	2869.74
917.236	2875.39
917.548	2890.98
917.859	2871.32
918.171	2831.78
918.482	2838.78
918.794	2829.52
919.105	2832.68
919.416	2783.64
919.727	2788.16
920.038	2748.39
920.349	2756.75
920.66	2769.4
920.971	2766.01
921.282	2734.83
921.593	2742.74
921.903	2693.93
922.214	2696.64
922.525	2675.85
922.835	2672.91
923.146	2665.45
923.456	2673.36
923.767	2674.72
924.077	2650.31
924.387	2623.65
924.697	2659.8
925.008	2612.8
925.318	2622.74
925.628	2608.28
925.938	2585.91
926.248	2561.05
926.558	2545.91
926.867	2579.35
927.177	2573.93
927.487	2526.02
927.796	2566.47
928.106	2549.52
928.416	2524.89
928.725	2498.9
929.034	2496.19
929.344	2509.07
929.653	2481.28
929.962	2475.63
930.271	2476.76
930.581	2458.45
930.89	2423.88
931.199	2467.04
931.508	2414.16
931.817	2440.37
932.125	2437.66
932.434	2401.5
932.743	2394.5
933.051	2385.91
933.36	2367.61
933.669	2325.8
933.977	2343.88
934.286	2366.25
934.594	2338
934.902	2312.02
935.21	2324.9
935.519	2293.71
935.827	2318.34
936.135	2278.57
936.443	2275.86
936.751	2229.08
937.059	2252.13
937.367	2264.79
937.674	2228.18
937.982	2259.81
938.29	2216.2
938.597	2210.1
938.905	2227.95
939.213	2218.46
939.52	2185.24
939.827	2186.14
940.135	2183.66
940.442	2161.51
940.749	2153.38
941.056	2161.06
941.363	2158.8
941.67	2168.06
941.977	2147.27
942.284	2090.55
942.591	2137.1
942.898	2115.64
943.205	2095.3
943.511	2104.34
943.818	2095.3
944.125	2090.78
944.431	2069.76
944.738	2057.11
945.044	2066.82
945.35	2066.15
945.657	2024.34
945.963	2038.12
946.269	2016.88
946.575	2027.05
946.881	2015.07
947.187	1999.48
947.493	1984.11
947.799	1992.02
948.105	1982.08
948.41	1971.01
948.716	1977.34
949.022	1960.39
949.327	1963.78
949.633	1950.9
949.938	1921.29
950.244	1918.58
950.549	1884.91
950.854	1908.86
951.16	1889.2
951.465	1907.28
951.77	1884.46
952.075	1885.81
952.38	1868.86
952.685	1909.54
952.99	1874.51
953.294	1837
953.599	1849.65
953.904	1840.84
954.209	1835.64
954.513	1858.24
954.818	1834.97
955.122	1805.36
955.426	1811.01
955.731	1805.36
956.035	1785.48
956.339	1810.56
956.643	1796.1
956.948	1791.35
957.252	1761.07
957.556	1768.53
957.86	1758.36
958.163	1752.71
958.467	1745.7
958.771	1749.54
959.075	1719.94
959.378	1725.59
959.682	1746.61
959.985	1700.73
960.289	1691.24
960.592	1698.02
960.896	1692.37
961.199	1686.04
961.502	1697.34
961.805	1641.75
962.108	1681.75
962.411	1680.39
962.714	1635.42
963.017	1650.79
963.32	1630.68
963.623	1663.44
963.926	1643.78
964.228	1639.49
964.531	1613.73
964.833	1622.99
965.136	1618.02
965.438	1597.68
965.741	1601.3
966.043	1616.21
966.345	1604.92
966.648	1587.29
966.95	1603.79
967.252	1570.57
967.554	1561.07
967.856	1542.09
968.158	1539.83
968.46	1532.83
968.761	1521.3
969.063	1558.36
969.365	1540.96
969.666	1524.92
969.968	1503.9
970.269	1519.27
970.571	1512.26
970.872	1491.92
971.174	1481.75
971.475	1513.39
971.776	1505.93
972.077	1465.71
972.378	1476.78
972.679	1471.36
972.98	1458.25
973.281	1453.73
973.582	1457.57
973.883	1443.79
974.183	1432.04
974.484	1473.85
974.785	1440.63
975.085	1433.17
975.386	1451.47
975.686	1408.54
975.986	1411.25
976.287	1443.79
976.587	1395.2
976.887	1392.72
977.187	1394.53
977.487	1419.16
977.787	1389.55
978.087	1371.25
978.387	1369.67
978.687	1376.67
978.987	1336.67
979.286	1372.61
979.586	1372.61
979.885	1341.19
980.185	1362.66
980.484	1333.51
980.784	1316.34
981.083	1329.44
981.382	1334.87
981.682	1313.85
981.981	1319.27
982.28	1329.44
982.579	1282.66
982.878	1321.76
983.177	1272.72
983.475	1293.29
983.774	1304.58
984.073	1267.98
984.372	1273.4
984.67	1306.17
984.969	1256.45
985.267	1246.51
985.566	1255.55
985.864	1255.09
986.162	1266.62
986.461	1252.16
986.759	1270.23
987.057	1209.9
987.355	1225.04
987.653	1224.81
987.951	1234.08
988.249	1225.72
988.547	1241.54
988.844	1210.12
989.142	1206.96
989.44	1192.72
989.737	1174.64
990.035	1226.17
990.332	1234.08
990.63	1196.34
990.927	1172.61
991.224	1176
991.521	1180.52
991.819	1171.93
992.116	1124.7
992.413	1155.89
992.71	1150.24
993.006	1154.31
993.303	1140.75
993.6	1149.33
993.897	1126.06
994.193	1137.58
994.49	1132.61
994.787	1120.41
995.083	1118.83
995.379	1117.92
995.676	1090.58
995.972	1101.2
996.268	1109.11
996.565	1109.56
996.861	1076.57
997.157	1085.38
997.453	1086.51
997.749	1096
998.044	1070.92
998.34	1065.27
998.636	1054.42
998.932	1086.06
999.227	1068.66
999.523	1059.39
999.818	1056.23
1000.114	1049.22
1000.409	1018.72
1000.704	1044.25
1001	1015.33
1001.295	1017.36
1001.59	988.43
1001.885	1004.71
1002.18	1011.26
1002.475	1012.61
1002.77	1020.52
1003.065	978.72
1003.359	1015.1
1003.654	992.5
1003.949	966.97
1004.243	974.65
1004.538	990.02
1004.832	979.17
1005.127	972.84
1005.421	958.15
1005.715	963.58
1006.009	947.53
1006.304	955.67
1006.598	952.96
1006.892	935.78
1007.186	957.7
1007.48	953.86
1007.773	915.89
1008.067	926.52
1008.361	933.29
1008.655	902.56
1008.948	906.18
1009.242	898.72
1009.535	903.69
1009.829	910.24
1010.122	901.88
1010.415	878.38
1010.708	898.95
1011.001	861.88
1011.295	889.23
1011.588	882.9
1011.881	873.18
1012.173	854.65
1012.466	877.48
1012.759	853.3
1013.052	850.13
1013.344	860.75
1013.637	832.96
1013.93	845.84
1014.222	844.48
1014.514	831.38
1014.807	863.69
1015.099	830.7
1015.391	811.04
1015.683	829.34
1015.976	839.74
1016.268	815.56
1016.56	839.51
1016.851	810.13
1017.143	812.39
1017.435	794.09
1017.727	796.58
1018.018	798.61
1018.31	782.11
1018.602	822.56
1018.893	782.56
1019.185	769.46
1019.476	786.63
1019.767	759.06
1020.058	761.32
1020.35	760.64
1020.641	747.76
1020.932	754.77
1021.223	743.92
1021.514	757.93
1021.804	765.39
1022.095	730.59
1022.386	740.53
1022.677	736.92
1022.967	729.01
1023.258	722.23
1023.548	714.32
1023.839	724.94
1024.129	731.04
1024.419	739.85
1024.709	715.9
1025	708.22
1025.29	678.84
1025.58	712.06
1025.87	709.57
1026.16	697.59
1026.449	689.01
1026.739	694.2
1027.029	692.62
1027.319	676.58
1027.608	663.25
1027.898	676.58
1028.187	678.84
1028.477	659.86
1028.766	656.69
1029.055	678.16
1029.344	673.87
1029.634	653.98
1029.923	652.4
1030.212	655.11
1030.501	663.92
1030.79	630.48
1031.078	634.77
1031.367	625.05
1031.656	639.74
1031.945	610.14
1032.233	623.47
1032.522	631.83
1032.81	632.96
1033.099	618.5
1033.387	627.54
1033.675	605.62
1033.963	599.29
1034.251	622.34
1034.54	621.66
1034.828	595.22
1035.116	588.67
1035.403	611.95
1035.691	614.88
1035.979	598.16
1036.267	592.74
1036.554	600.65
1036.842	593.19
1037.129	586.19
1037.417	590.03
1037.704	579.63
1037.992	567.65
1038.279	587.54
1038.566	587.99
1038.853	587.99
1039.14	587.99
