Data from brown_tile_FLMS001491_031.txt Node
Date: Tue Feb 07 10:37:24 GMT 2017
User: dcchb
Spectrometer: FLMS00149
Trigger mode: 0
Integration Time (sec): 2.000000E-2
Scans to average: 10
Electric dark correction enabled: true
Nonlinearity correction enabled: false
Boxcar width: 0
XAxis mode: Wavelengths
Number of Pixels in Spectrum: 2048
>>>>>Begin Spectral Data<<<<<
341.393	-0.96
341.776	-0.96
342.16	-0.96
342.543	-77.12
342.927	-65.37
343.31	-63.78
343.693	-64.69
344.077	-64.91
344.46	-63.56
344.843	-52.26
345.226	-32.37
345.61	-35.08
345.993	-45.71
346.376	12.82
346.759	11.24
347.142	10.56
347.525	53.73
347.908	56.44
348.291	77.91
348.674	92.37
349.057	107.29
349.44	113.61
349.823	133.73
350.206	147.28
350.588	169.43
350.971	176.21
351.354	197.68
351.737	211.01
352.119	244.91
352.502	246.49
352.884	262.08
353.267	254.4
353.65	271.8
354.032	298.47
354.414	282.42
354.797	293.95
355.179	304.57
355.562	286.49
355.944	309.54
356.326	311.57
356.709	316.55
357.091	308.64
357.473	326.26
357.855	312.03
358.238	319.94
358.62	325.36
359.002	317.68
359.384	317.45
359.766	328.07
360.148	316.55
360.53	341.86
360.912	316.55
361.294	310.22
361.676	312.48
362.057	315.64
362.439	320.39
362.821	314.74
363.203	316.55
363.584	301.4
363.966	293.5
364.348	298.69
364.729	293.72
365.111	317.68
365.493	306.6
365.874	306.38
366.256	298.01
366.637	308.86
367.019	290.33
367.4	281.97
367.781	285.13
368.163	312.48
368.544	293.27
368.925	279.94
369.306	299.14
369.688	290.33
370.069	303.44
370.45	283.55
370.831	294.63
371.212	306.6
371.593	287.17
371.974	289.43
372.355	288.52
372.736	285.13
373.117	292.14
373.498	306.38
373.879	297.34
374.26	308.86
374.641	282.42
375.021	287.62
375.402	297.34
375.783	319.94
376.163	294.17
376.544	316.09
376.925	309.77
377.305	292.82
377.686	305.47
378.066	324.45
378.447	333.72
378.827	328.52
379.208	294.17
379.588	314.74
379.968	298.92
380.349	311.8
380.729	306.6
381.109	329.43
381.489	302.08
381.87	307.73
382.25	327.39
382.63	314.74
383.01	323.32
383.39	329.43
383.77	324.91
384.15	309.77
384.53	328.07
384.91	349.31
385.29	330.33
385.67	329.2
386.049	347.5
386.429	331.23
386.809	353.38
387.189	312.93
387.568	313.83
387.948	341.86
388.328	330.78
388.707	326.04
389.087	324.23
389.466	328.97
389.846	328.97
390.225	356.54
390.605	320.39
390.984	345.47
391.363	324
391.743	353.83
392.122	342.99
392.501	357.67
392.881	365.81
393.26	352.25
393.639	333.49
394.018	358.35
394.397	343.66
394.776	343.21
395.155	355.64
395.534	361.97
395.913	335.3
396.292	354.74
396.671	358.8
397.05	347.28
397.429	361.74
397.808	365.36
398.186	366.94
398.565	364.23
398.944	364.45
399.323	361.52
399.701	361.74
400.08	366.71
400.458	367.84
400.837	366.94
401.215	359.71
401.594	391.8
401.972	396.77
402.351	385.02
402.729	376.66
403.107	364.68
403.486	373.04
403.864	392.25
404.242	380.05
404.62	382.98
404.999	394.74
405.377	400.84
405.755	407.62
406.133	420.27
406.511	405.81
406.889	401.74
407.267	411.01
407.645	391.12
408.023	403.1
408.401	412.36
408.779	396.54
409.156	390.44
409.534	408.97
409.912	422.31
410.29	428.63
410.667	438.12
411.045	408.52
411.422	422.76
411.8	412.59
412.178	404
412.555	414.17
412.933	425.92
413.31	435.19
413.687	439.03
414.065	442.87
414.442	454.17
414.819	438.58
415.197	443.1
415.574	440.16
415.951	436.09
416.328	435.86
416.705	462.53
417.082	448.52
417.46	444.9
417.837	439.71
418.214	440.38
418.591	457.33
418.967	467.28
419.344	461.85
419.721	469.31
420.098	464.56
420.475	475.64
420.852	453.04
421.228	490.33
421.605	475.64
421.982	474.73
422.358	448.29
422.735	489.65
423.111	458.01
423.488	486.26
423.864	492.81
424.241	506.14
424.617	494.62
424.994	492.13
425.37	481.29
425.746	489.65
426.123	482.19
426.499	491.91
426.875	503.43
427.251	505.92
427.627	550.44
428.003	510.21
428.379	548.4
428.756	531.91
429.132	522.19
429.507	521.74
429.883	532.58
430.259	562.87
430.635	531.68
431.011	535.75
431.387	554.73
431.763	575.07
432.138	566.48
432.514	570.78
432.89	573.04
433.265	578.01
433.641	574.17
434.016	588.18
434.392	602.64
434.767	595.18
435.143	614.62
435.518	607.39
435.894	596.99
436.269	624.33
436.644	596.76
437.02	604.45
437.395	617.78
437.77	644.67
438.145	614.16
438.52	623.88
438.895	653.71
439.271	659.59
439.646	655.07
440.021	633.37
440.395	641.06
440.77	649.42
441.145	667.04
441.52	657.1
441.895	649.87
442.27	683.32
442.645	662.52
443.019	697.33
443.394	692.35
443.769	685.12
444.143	696.65
444.518	685.12
444.892	675.18
445.267	697.33
445.641	705.91
446.016	681.28
446.39	693.26
446.764	709.98
447.139	698.91
447.513	704.56
447.887	718.79
448.262	717.89
448.636	717.44
449.01	714.5
449.384	728.51
449.758	737.1
450.132	713.82
450.506	770.77
450.88	730.09
451.254	745.46
451.628	766.25
452.002	745.01
452.376	772.35
452.75	769.41
453.123	777.1
453.497	793.14
453.871	795.63
454.244	796.76
454.618	809.64
454.992	800.15
455.365	809.19
455.739	807.38
456.112	849.19
456.486	810.09
456.859	823.42
457.232	850.09
457.606	854.16
457.979	873.59
458.352	860.94
458.725	888.06
459.099	885.34
459.472	894.61
459.845	893.25
460.218	900.48
460.591	902.97
460.964	914.5
461.337	927.15
461.71	947.94
462.083	934.83
462.456	928.73
462.829	955.85
463.201	986.36
463.574	960.82
463.947	994.49
464.32	979.35
464.692	994.49
465.065	988.39
465.438	1007.15
465.81	1042.63
466.183	1031.1
466.555	1050.99
466.928	1055.96
467.3	1049.18
467.672	1057.09
468.045	1061.61
468.417	1091.44
468.789	1118.56
469.161	1097.54
469.534	1129.63
469.906	1121.27
470.278	1167.14
470.65	1161.49
471.022	1151.55
471.394	1201.04
471.766	1214.15
472.138	1214.37
472.51	1210.76
472.882	1273.13
473.253	1241.04
473.625	1268.61
473.997	1269.51
474.369	1274.03
474.74	1332.56
475.112	1329.17
475.484	1350.64
475.855	1333.24
476.227	1350.87
476.598	1389.29
476.97	1429.74
477.341	1462.05
477.713	1464.76
478.084	1446.91
478.455	1508.38
478.827	1493.69
479.198	1545.44
479.569	1551.77
479.94	1599.9
480.311	1591.99
480.682	1650.97
481.053	1643.74
481.424	1652.56
481.795	1679.67
482.166	1685.1
482.537	1753.8
482.908	1778.43
483.279	1787.69
483.65	1820.01
484.021	1843.96
484.391	1852.78
484.762	1871.98
485.133	1886.45
485.503	1936.84
485.874	1954.92
486.244	1938.2
486.615	1996.28
486.985	2024.52
487.356	2037.63
487.726	2034.92
488.097	2083.73
488.467	2135.71
488.837	2141.81
489.207	2163.73
489.578	2199.89
489.948	2242.6
490.318	2246.21
490.688	2236.04
491.058	2283.27
491.428	2287.57
491.798	2323.5
492.168	2363.05
492.538	2369.82
492.908	2376.6
493.278	2445.75
493.648	2443.04
494.017	2477.17
494.387	2443.72
494.757	2471.29
495.126	2509.03
495.496	2521.69
495.866	2538.63
496.235	2605.75
496.605	2597.16
496.974	2615.92
497.344	2607.56
497.713	2621.57
498.082	2653.21
498.452	2689.14
498.821	2713.32
499.19	2733.2
499.559	2729.36
499.928	2760.55
500.298	2780.44
500.667	2797.84
501.036	2781.79
501.405	2825.86
501.774	2848
502.143	2888.46
502.512	2888.91
502.88	2916.03
503.249	2882.58
503.618	2922.8
503.987	2951.05
504.356	2933.43
504.724	2980.43
505.093	2994.44
505.462	2992.63
505.83	3037.83
506.199	3026.76
506.567	3096.36
506.936	3113.31
507.304	3132.29
507.672	3172.52
508.041	3168.22
508.409	3201.67
508.777	3200.31
509.145	3232.63
509.514	3227.88
509.882	3290.48
510.25	3307.65
510.618	3312.4
510.986	3330.48
511.354	3353.75
511.722	3386.3
512.09	3404.6
512.458	3429.46
512.826	3452.51
513.193	3449.57
513.561	3507.42
513.929	3492.96
514.297	3536.12
514.664	3546.06
515.032	3586.06
515.4	3631.49
515.767	3632.84
516.135	3650.47
516.502	3645.95
516.869	3683.91
517.237	3693.41
517.604	3723.91
517.972	3760.75
518.339	3816.57
518.706	3798.04
519.073	3852.05
519.44	3864.93
519.808	3902.21
520.175	3934.08
520.542	3991.7
520.909	4011.59
521.276	4006.62
521.643	4036.45
522.009	4078.93
522.376	4118.71
522.743	4094.3
523.11	4178.14
523.477	4221.53
523.843	4247.29
524.21	4272.83
524.577	4280.73
524.943	4338.59
525.31	4380.62
525.676	4435.53
526.043	4429.88
526.409	4432.82
526.776	4573.61
527.142	4531.12
527.508	4567.28
527.874	4594.62
528.241	4636.21
528.607	4652.48
528.973	4709.65
529.339	4765.02
529.705	4739.48
530.071	4776.54
530.437	4836.2
530.803	4822.64
531.169	4896.99
531.535	4885.69
531.901	4903.32
532.267	4946.71
532.632	5034.61
532.998	5007.5
533.364	5047.95
533.73	5061.96
534.095	5102.86
534.461	5114.84
534.826	5201.61
535.192	5238.45
535.557	5204.33
535.923	5199.81
536.288	5288.84
536.653	5280.26
537.019	5342.18
537.384	5358.67
537.749	5386.02
538.114	5410.2
538.479	5411.33
538.845	5500.14
539.21	5530.65
539.575	5497.65
539.94	5583.98
540.305	5577.88
540.67	5581.27
541.034	5651.77
541.399	5654.71
541.764	5691.55
542.129	5705.33
542.494	5748.72
542.858	5753.69
543.223	5847.25
543.587	5851.32
543.952	5891.09
544.316	5902.16
544.681	5940.35
545.045	5962.95
545.41	6000.24
545.774	5997.3
546.138	6043.17
546.503	6118.65
546.867	6092.44
547.231	6182.83
547.595	6202.94
547.959	6245.65
548.324	6279.1
548.688	6302.83
549.052	6419.44
549.416	6386.44
549.779	6395.48
550.143	6403.39
550.507	6547.34
550.871	6569.71
551.235	6612.88
551.599	6630.5
551.962	6686.55
552.326	6734.68
552.689	6781.46
553.053	6801.8
553.417	6869.59
553.78	6928.35
554.143	6963.83
554.507	7038.63
554.87	7066.42
555.234	7129.47
555.597	7200.21
555.96	7232.07
556.323	7240.21
556.686	7371.28
557.05	7384.16
557.413	7411.73
557.776	7524.49
558.139	7577.6
558.502	7577.82
558.865	7699.63
559.228	7792.28
559.59	7816.01
559.953	7833.86
560.316	8013.74
560.679	7970.58
561.041	8079.05
561.404	8179.62
561.767	8243.57
562.129	8279.5
562.492	8388.65
562.854	8359.05
563.217	8518.14
563.579	8606.27
563.941	8590.45
564.304	8725.82
564.666	8800.16
565.028	8810.56
565.39	8900.95
565.753	9041.29
566.115	9081.06
566.477	9140.49
566.839	9245.35
567.201	9421.84
567.563	9415.52
567.925	9512.24
568.287	9542.97
568.648	9568.28
569.01	9723.08
569.372	9806.47
569.734	9904.09
570.095	9963.52
570.457	10081.03
570.819	10170.07
571.18	10140.92
571.542	10257.75
571.903	10396.73
572.265	10350.86
572.626	10507.01
572.987	10536.84
573.349	10669.95
573.71	10718.76
574.071	10795.14
574.432	10911.52
574.794	11081.23
575.155	11158.75
575.516	11136.83
575.877	11167.56
576.238	11263.15
576.599	11347.22
576.96	11409.36
577.32	11452.07
577.681	11563.26
578.042	11659.98
578.403	11732.06
578.763	11775.45
579.124	11873.53
579.485	11938.39
579.845	12019.97
580.206	12080.08
580.566	12088.21
580.927	12179.28
581.287	12235.78
581.648	12283.91
582.008	12342.67
582.368	12360.3
582.728	12521.87
583.089	12508.99
583.449	12574.08
583.809	12665.6
584.169	12639.84
584.529	12769.33
584.889	12897.91
585.249	12765.94
585.609	12794.86
585.969	12977.68
586.329	12986.27
586.688	12967.74
587.048	13039.15
587.408	13182.87
587.768	13079.15
588.127	13225.58
588.487	13169.31
588.846	13250.67
589.206	13281.85
589.565	13339.48
589.925	13481.62
590.284	13400.27
590.643	13480.72
591.003	13577.67
591.362	13633.26
591.721	13611.11
592.08	13674.16
592.44	13649.53
592.799	13782.41
593.158	13876.41
593.517	13784.89
593.876	13778.11
594.235	13841.84
594.593	13873.48
594.952	14008.84
595.311	14005.68
595.67	14071.44
596.029	14148.27
596.387	14236.18
596.746	14242.28
597.104	14140.59
597.463	14155.96
597.822	14283.18
598.18	14262.39
598.538	14356.63
598.897	14455.16
599.255	14249.06
599.613	14557.3
599.972	14527.47
600.33	14553.01
600.688	14511.43
601.046	14598.43
601.404	14728.6
601.762	14628.26
602.12	14721.36
602.478	14661.48
602.836	14796.84
603.194	14731.31
603.552	14767.69
603.91	14786.45
604.268	14899.66
604.625	14803.4
604.983	14990.96
605.341	14889.04
605.698	15061.24
606.056	15049.04
606.413	15049.27
606.771	15177.4
607.128	15113.67
607.485	14999.55
607.843	15137.4
608.2	15261.01
608.557	15293.1
608.914	15216.94
609.272	15298.98
609.629	15420.55
609.986	15417.17
610.343	15309.82
610.7	15465.53
611.057	15499.87
611.414	15545.07
611.771	15472.31
612.127	15576.94
612.484	15579.87
612.841	15611.28
613.198	15614.45
613.554	15670.04
613.911	15839.98
614.267	15668.68
614.624	15748.91
614.98	15807.21
615.337	15813.54
615.693	15818.28
616.05	15848.79
616.406	15908.23
616.762	15913.88
617.118	15884.5
617.475	15926.08
617.831	15953.2
618.187	16035
618.543	15999.97
618.899	16138.05
619.255	16087.2
619.611	16105.06
619.967	16076.36
620.323	16201.33
620.678	16155.9
621.034	16048.11
621.39	16111.61
621.746	16113.64
622.101	16360.87
622.457	16221.89
622.812	16174.43
623.168	16240.87
623.523	16368.78
623.879	16312.51
624.234	16214.21
624.589	16226.86
624.945	16334.2
625.3	16391.83
625.655	16271.38
626.01	16307.09
626.365	16378.27
626.72	16323.36
627.075	16369.23
627.43	16368.33
627.785	16314.54
628.14	16365.16
628.495	16499.4
628.85	16372.39
629.205	16400.87
629.559	16427.08
629.914	16368.1
630.269	16354.54
630.623	16273.87
630.978	16280.65
631.332	16483.35
631.687	16373.75
632.041	16250.59
632.396	16350.93
632.75	16275
633.104	16305.28
633.459	16223.7
633.813	16317.03
634.167	16271.38
634.521	16240.19
634.875	16376.46
635.229	16336.46
635.583	16136.92
635.937	16251.95
636.291	16248.33
636.645	16159.74
636.999	16224.38
637.352	16192.74
637.706	16162.68
638.06	16173.53
638.413	16181.44
638.767	16136.47
639.121	16157.94
639.474	15983.48
639.828	16087.2
640.181	16142.57
640.534	16110.71
640.888	15974.89
641.241	15914.55
641.594	15941.9
641.947	16051.72
642.301	15933.99
642.654	15985.51
643.007	16025.06
643.36	16005.85
643.713	15911.39
644.066	16053.53
644.419	15846.76
644.771	15862.8
645.124	15699.64
645.477	15634.79
645.83	15502.81
646.182	15526.54
646.535	15503.04
646.888	15550.72
647.24	15423.04
647.593	15513.89
647.945	15377.39
648.298	15376.71
648.65	15375.81
649.002	15391.63
649.355	15389.37
649.707	15401.8
650.059	15458.29
650.411	15733.77
650.763	15673.43
651.115	15825.29
651.467	15820.32
651.819	15876.81
652.171	15687.89
652.523	15703.49
652.875	15701.45
653.227	15772.41
653.578	15833.2
653.93	15701.9
654.282	15768.57
654.633	15675.24
654.985	15743.94
655.337	15680.21
655.688	15722.02
656.039	15731.51
656.391	15624.39
656.742	15643.83
657.094	15717.72
657.445	15731.96
657.796	15711.17
658.147	15761.56
658.498	15644.05
658.849	15671.17
659.2	15708.46
659.551	15684.73
659.902	15716.82
660.253	15767.21
660.604	15838.85
660.955	15657.61
661.306	15658.51
661.656	15738.96
662.007	15820.54
662.358	15754.56
662.708	15778.29
663.059	15715.24
663.409	15680.44
663.76	15710.26
664.11	15735.12
664.461	15684.73
664.811	15762.69
665.161	15722.24
665.511	15688.8
665.862	15712.75
666.212	15774.44
666.562	15849.47
666.912	15786.65
667.262	15795.91
667.612	15754.33
667.962	15843.37
668.312	15778.29
668.662	15834.33
669.011	15849.92
669.361	15738.96
669.711	15746.42
670.06	15792.97
670.41	15790.94
670.76	15863.26
671.109	15823.48
671.459	15830.94
671.808	15842.92
672.157	15854.44
672.507	15789.13
672.856	15807.89
673.205	15740.77
673.554	15857.61
673.904	15833.2
674.253	15896.93
674.602	15834.1
674.951	15570.61
675.3	15503.72
675.649	15797.04
675.998	15774.22
676.346	15737.61
676.695	15832.3
677.044	15748.91
677.393	15775.35
677.741	15833.88
678.09	15777.38
678.438	15737.83
678.787	15794.78
679.135	15781.68
679.484	15663.94
679.832	15760.43
680.181	15651.96
680.529	15743.26
680.877	15800.66
681.225	15667.78
681.573	15820.32
681.922	15655.13
682.27	15676.14
682.618	15780.55
682.966	15626.43
683.314	15747.1
683.661	15723.37
684.009	15666.42
684.357	15635.92
684.705	15633.2
685.053	15536.71
685.4	15562.02
685.748	15542.81
686.095	15569.48
686.443	15557.05
686.79	15513.66
687.138	15546.65
687.485	15522.93
687.832	15533.32
688.18	15541.23
688.527	15472.31
688.874	15474.56
689.221	15460.33
689.568	15429.37
689.915	15346.43
690.262	15406.32
690.609	15334.68
690.956	15243.16
691.303	15321.57
691.65	15208.13
691.997	15230.96
692.344	15143.05
692.69	15104.86
693.037	15180.56
693.383	15089.04
693.73	15169.26
694.077	15077.29
694.423	15079.77
694.769	15110.96
695.116	15003.39
695.462	15086.1
695.808	14893.79
696.155	15094.01
696.501	14889.72
696.847	14935.82
697.193	14804.3
697.539	14837.97
697.885	14787.35
698.231	14805.88
698.577	14846.56
698.923	14763.85
699.269	14714.36
699.614	14661.48
699.96	14622.61
700.306	14665.77
700.651	14674.81
700.997	14549.17
701.342	14525.21
701.688	14562.27
702.033	14512.1
702.379	14462.61
702.724	14494.48
703.069	14534.93
703.415	14382.84
703.76	14393.24
704.105	14385.1
704.45	14393.01
704.795	14273.24
705.14	14338.1
705.485	14210.19
705.83	14225.11
706.175	14294.03
706.52	14200.02
706.865	14165.9
707.209	14161.38
707.554	14161.83
707.899	14191.21
708.243	14116.18
708.588	14127.93
708.932	14053.13
709.277	14075.73
709.621	14047.26
709.966	13921.39
710.31	14005.22
710.654	13878.45
710.998	13944.89
711.342	13865.12
711.687	13867.6
712.031	13861.27
712.375	13830.99
712.719	13898.11
713.063	13839.13
713.407	13879.8
713.75	13847.26
714.094	13826.92
714.438	13767.04
714.782	13834.16
715.125	13813.82
715.469	13763.88
715.812	13776.08
716.156	13673.48
716.499	13711.67
716.843	13644.78
717.186	13668.74
717.53	13692.24
717.873	13671.67
718.216	13619.47
718.559	13512.13
718.902	13487.27
719.246	13562.3
719.589	13493.6
719.932	13457.22
720.275	13438.69
720.617	13442.08
720.96	13389.2
721.303	13495.63
721.646	13520.27
721.989	13406.14
722.331	13485.01
722.674	13392.81
723.016	13387.84
723.359	13403.88
723.701	13467.16
724.044	13248.41
724.386	13302.64
724.729	13342.87
725.071	13292.02
725.413	13373.15
725.755	13321.4
726.097	13274.62
726.439	13240.5
726.782	13248.86
727.124	13365.69
727.465	13245.7
727.807	13263.78
728.149	13245.47
728.491	13185.13
728.833	13232.82
729.175	13198.92
729.516	13192.82
729.858	13163.89
730.199	13199.37
730.541	13211.35
730.882	13103.33
731.224	13233.95
731.565	13054.52
731.906	13127.96
732.248	13145.59
732.589	13093.38
732.93	13054.74
733.271	13073.5
733.612	13122.31
733.953	13112.37
734.294	13028.3
734.635	12979.04
734.976	13073.05
735.317	12897.46
735.658	12931.35
735.999	12924.58
736.339	12922.99
736.68	13033.95
737.021	12870.34
737.361	12921.64
737.702	12920.06
738.042	12882.09
738.383	12765.94
738.723	12917.57
739.063	12818.82
739.404	12893.62
739.744	12786.95
740.084	12767.74
740.424	12857.68
740.764	12728.2
741.104	12763.68
741.444	12674.41
741.784	12634.41
742.124	12649.78
742.464	12691.81
742.804	12642.77
743.143	12614.75
743.483	12658.14
743.823	12531.59
744.162	12651.14
744.502	12600.52
744.841	12534.98
745.181	12557.13
745.52	12447.3
745.86	12535.21
746.199	12534.76
746.538	12444.14
746.877	12554.19
747.216	12470.35
747.556	12430.58
747.895	12457.92
748.234	12430.13
748.573	12340.64
748.911	12399.17
749.25	12477.81
749.589	12279.17
749.928	12249.56
750.267	12337.25
750.605	12291.6
750.944	12234.65
751.283	12233.97
751.621	12248.66
751.96	12182.67
752.298	12248.66
752.636	12150.36
752.975	12147.65
753.313	11994.2
753.651	12150.58
753.989	12064.94
754.327	12035.56
754.666	12020.42
755.004	11931.16
755.342	12053.19
755.679	11925.28
756.017	11900.42
756.355	11981.32
756.693	11760.99
757.031	11859.29
757.368	11837.15
757.706	11755.79
758.044	11681.9
758.381	11769.35
758.719	11817.49
759.056	11690.71
759.394	11608.9
759.731	11521.9
760.068	11543.59
760.405	11452.3
760.743	11454.33
761.08	11480.32
761.417	11429.93
761.754	11371.85
762.091	11372.98
762.428	11278.97
762.765	11267.22
763.102	11270.61
763.438	11264.51
763.775	11146.54
764.112	11179.31
764.449	11156.49
764.785	11137.05
765.122	10979.54
765.458	10881.01
765.795	10905.65
766.131	10917.17
766.467	10944.74
766.804	10810.28
767.14	10781.81
767.476	10770.73
767.812	10688.48
768.148	10749.94
768.485	10693.22
768.821	10603.96
769.157	10598.53
769.492	10559.67
769.828	10512.89
770.164	10458.43
770.5	10398.31
770.836	10374.13
771.171	10323.97
771.507	10322.61
771.842	10257.53
772.178	10259.33
772.513	10181.6
772.849	10179.11
773.184	10103.41
773.519	10133.69
773.855	10124.2
774.19	10033.8
774.525	9991.55
774.86	9993.13
775.195	9991.55
775.53	9926.91
775.865	9893.02
776.2	9787.48
776.535	9753.59
776.87	9747.03
777.205	9705.45
777.539	9689.41
777.874	9690.31
778.209	9582.74
778.543	9526.92
778.878	9520.6
779.212	9555.17
779.547	9468.4
779.881	9367.15
780.215	9376.42
780.55	9366.25
780.884	9349.53
781.218	9254.39
781.552	9281.28
781.886	9211.9
782.22	9209.42
782.554	9143.66
782.888	9075.64
783.222	8991.35
783.556	8966.94
783.889	8978.69
784.223	8895.3
784.557	8887.39
784.89	8846.04
785.224	8821.86
785.557	8763.1
785.891	8771.69
786.224	8734.18
786.558	8758.81
786.891	8608.98
787.224	8577.35
787.557	8556.1
787.891	8604.69
788.224	8568.98
788.557	8523.34
788.89	8385.49
789.223	8434.52
789.556	8379.38
789.888	8364.92
790.221	8388.88
790.554	8324.7
790.887	8318.14
791.219	8229.78
791.552	8275.88
791.884	8180.29
792.217	8119.05
792.549	8097.36
792.882	8062.78
793.214	8022.78
793.546	7988.21
793.879	8026.4
794.211	7948.44
794.543	7984.59
794.875	7929.23
795.207	7899.85
795.539	7832.51
795.871	7871.83
796.203	7792.51
796.535	7738.5
796.867	7732.17
797.198	7726.29
797.53	7665.05
797.862	7631.16
798.193	7638.16
798.525	7558.39
798.856	7545.73
799.188	7493.31
799.519	7496.92
799.85	7421.44
800.182	7431.39
800.513	7453.08
800.844	7429.8
801.175	7426.19
801.506	7344.84
801.837	7380.31
802.168	7270.49
802.499	7282.01
802.83	7212.86
803.161	7170.15
803.491	7214.67
803.822	7193.2
804.153	7164.73
804.483	7118.85
804.814	7077.72
805.145	7065.52
805.475	7048.57
805.805	7015.13
806.136	6997.95
806.466	7021.68
806.796	6997.95
807.126	6908.46
807.457	6891.74
807.787	6856.49
808.117	6898.29
808.447	6825.98
808.777	6861.68
809.107	6760.9
809.436	6812.87
809.766	6783.72
810.096	6768.13
810.426	6687.9
810.755	6726.77
811.085	6634.8
811.414	6657.62
811.744	6638.64
812.073	6630.28
812.403	6632.54
812.732	6571.97
813.061	6573.33
813.39	6516.38
813.719	6515.48
814.049	6501.24
814.378	6462.37
814.707	6451.75
815.036	6406.78
815.365	6376.72
815.693	6307.12
816.022	6376.27
816.351	6350.29
816.68	6255.37
817.008	6297.63
817.337	6216.05
817.665	6224.41
817.994	6196.62
818.322	6224.64
818.651	6180.8
818.979	6163.17
819.307	6170.85
819.636	6216.73
819.964	6154.36
820.292	6179.89
820.62	6129.73
820.948	6133.79
821.276	6148.93
821.604	6191.42
821.932	6151.87
822.259	6094.47
822.587	6058.54
822.915	6109.84
823.243	6134.47
823.57	6049.95
823.898	6040.46
824.225	6049.28
824.553	6037.52
824.88	6063.06
825.207	6063.06
825.535	6018.99
825.862	6048.15
826.189	6027.58
826.516	6075.94
826.843	6090.63
827.17	5985.32
827.497	6021.25
827.824	6023.29
828.151	6009.73
828.478	6005.21
828.805	5963.18
829.131	5984.64
829.458	5962.27
829.785	5966.57
830.111	5978.77
830.438	5999.33
830.764	5974.25
831.09	6012.44
831.417	5936.51
831.743	5944.19
832.069	5942.61
832.395	5940.58
832.722	5906
833.048	5965.66
833.374	5955.04
833.7	5868.04
834.026	5850.41
834.351	5892.22
834.677	5848.15
835.003	5866.68
835.329	5907.81
835.654	5815.84
835.98	5867.13
836.306	5812.22
836.631	5762.73
836.956	5829.85
837.282	5824.65
837.607	5774.93
837.932	5767.7
838.258	5779.68
838.583	5810.19
838.908	5719.57
839.233	5726.35
839.558	5684.54
839.883	5727.7
840.208	5691.32
840.533	5708.95
840.858	5668.72
841.182	5679.57
841.507	5653.81
841.832	5590.08
842.156	5622.17
842.481	5651.32
842.805	5608.38
843.13	5631.66
843.454	5556.41
843.778	5580.36
844.103	5516.63
844.427	5489.52
844.751	5532.68
845.075	5521.15
845.399	5494.94
845.723	5418.78
846.047	5492.23
846.371	5397.09
846.695	5406.13
847.019	5345.11
847.343	5327.26
847.666	5291.78
847.99	5317.32
848.313	5304.89
848.637	5213.59
848.96	5267.83
849.284	5233.93
849.607	5158.68
849.931	5119.36
850.254	5136.31
850.577	5118.68
850.9	5078.45
851.223	5071.9
851.546	5057.66
851.869	5030.32
852.192	5027.83
852.515	4996.65
852.838	4974.5
853.161	4969.53
853.483	4929.53
853.806	4916.65
854.129	4912.81
854.451	4874.84
854.774	4856.54
855.096	4857.22
855.419	4830.1
855.741	4799.14
856.063	4835.07
856.385	4835.3
856.708	4765.47
857.03	4762.76
857.352	4758.46
857.674	4748.75
857.996	4713.94
858.318	4685.47
858.64	4694.74
858.961	4697.22
859.283	4664.68
859.605	4698.35
859.926	4645.7
860.248	4653.61
860.57	4635.3
860.891	4598.92
861.212	4628.97
861.534	4588.52
861.855	4600.27
862.176	4579.94
862.498	4541.97
862.819	4626.94
863.14	4564.57
863.461	4518.24
863.782	4527.73
864.103	4529.77
864.424	4500.39
864.745	4521.63
865.065	4449.32
865.386	4458.13
865.707	4451.35
866.027	4453.39
866.348	4486.83
866.668	4465.14
866.989	4436.66
867.309	4415.65
867.63	4455.87
867.95	4411.58
868.27	4331.13
868.59	4423.78
868.91	4405.03
869.23	4334.74
869.55	4321.41
869.87	4377.46
870.19	4334.07
870.51	4346.95
870.83	4357.8
871.15	4299.27
871.469	4337.91
871.789	4302.2
872.109	4310.56
872.428	4279.6
872.748	4294.52
873.067	4284.8
873.386	4271.92
873.706	4274.63
874.025	4262.2
874.344	4264.24
874.663	4241.64
874.982	4245.26
875.301	4215.2
875.62	4184.47
875.939	4191.92
876.258	4203.9
876.577	4199.61
876.896	4168.2
877.214	4170.68
877.533	4206.39
877.852	4165.71
878.17	4176.78
878.489	4170
878.807	4132.04
879.125	4143.34
879.444	4135.65
879.762	4150.57
880.08	4113.06
880.398	4080.51
880.716	4105.82
881.034	4052.04
881.352	4024.47
881.67	4058.82
881.988	4052.72
882.306	4049.55
882.624	4099.27
882.941	4052.04
883.259	4048.88
883.577	4018.82
883.894	4033.74
884.212	4025.15
884.529	3989.22
884.846	4001.19
885.164	3991.7
885.481	3989.44
885.798	3962.33
886.115	3948.09
886.432	3934.53
886.75	3953.51
887.067	3912.38
887.383	3945.83
887.7	3898.82
888.017	3854.08
888.334	3915.55
888.651	3841.88
888.967	3870.12
889.284	3833.52
889.6	3819.96
889.917	3792.84
890.233	3781.54
890.55	3792.16
890.866	3802.78
891.182	3814.53
891.498	3754.87
891.815	3757.36
892.131	3764.14
892.447	3766.62
892.763	3693.18
893.079	3707.87
893.395	3731.37
893.71	3697.02
894.026	3711.26
894.342	3683.69
894.657	3679.17
894.973	3653.86
895.289	3634.88
895.604	3606.4
895.92	3635.55
896.235	3631.03
896.55	3637.36
896.865	3617.7
897.181	3582.45
897.496	3592.62
897.811	3590.13
898.126	3552.62
898.441	3547.87
898.756	3542.45
899.071	3505.84
899.386	3519.62
899.7	3490.7
900.015	3471.94
900.33	3480.3
900.644	3479.63
900.959	3456.12
901.273	3464.26
901.588	3452.06
901.902	3459.06
902.216	3404.83
902.531	3422.9
902.845	3432.62
903.159	3383.36
903.473	3367.54
903.787	3341.78
904.101	3367.54
904.415	3313.53
904.729	3343.81
905.042	3289.57
905.356	3278.73
905.67	3306.98
905.984	3294.32
906.297	3250.48
906.611	3286.18
906.924	3228.11
907.237	3254.32
907.551	3231.95
907.864	3229.01
908.177	3192.63
908.491	3204.15
908.804	3206.64
909.117	3137.04
909.43	3145.17
909.743	3170.48
910.056	3134.32
910.368	3132.97
910.681	3093.87
910.994	3102.91
911.307	3119.86
911.619	3077.38
911.932	3086.87
912.244	3027.43
912.557	3063.37
912.869	3032.18
913.181	3033.54
913.494	3037.38
913.806	3028.11
914.118	2956.25
914.43	2944.72
914.742	2984.05
915.054	2939.98
915.366	2943.59
915.678	2920.54
915.99	2921.67
916.302	2925.06
916.613	2886.87
916.925	2872.86
917.236	2883.71
917.548	2880.32
917.859	2857.27
918.171	2846.2
918.482	2834.22
918.794	2821.56
919.105	2815.24
919.416	2802.36
919.727	2789.25
920.038	2785.41
920.349	2765.07
920.66	2735.46
920.971	2760.32
921.282	2714.22
921.593	2696.37
921.903	2694.34
922.214	2696.82
922.525	2739.76
922.835	2682.36
923.146	2675.81
923.456	2710.38
923.767	2654.56
924.077	2657.05
924.387	2658.4
924.697	2646.65
925.008	2623.83
925.318	2626.54
925.628	2586.32
925.938	2595.58
926.248	2575.24
926.558	2563.49
926.867	2559.65
927.177	2559.42
927.487	2536.15
927.796	2523.27
928.106	2507
928.416	2507
928.725	2512.65
929.034	2492.08
929.344	2470.16
929.653	2477.62
929.962	2450.05
930.271	2468.35
930.581	2445.98
930.89	2399.88
931.199	2435.36
931.508	2442.82
931.817	2437.85
932.125	2419.31
932.434	2382.71
932.743	2386.77
933.051	2390.84
933.36	2348.81
933.669	2366.43
933.977	2342.71
934.286	2326.66
934.594	2323.05
934.902	2319.2
935.21	2269.26
935.519	2334.8
935.827	2294.8
936.135	2277.4
936.443	2238.08
936.751	2250.51
937.059	2267.23
937.367	2262.71
937.674	2219.32
937.982	2236.49
938.29	2252.31
938.597	2225.65
938.905	2215.48
939.213	2180.9
939.52	2190.85
939.827	2178.64
940.135	2177.29
940.442	2165.08
940.749	2158.53
941.056	2180
941.363	2140.23
941.67	2143.84
941.977	2122.6
942.284	2106.33
942.591	2130.28
942.898	2103.17
943.205	2127.12
943.511	2109.49
943.818	2065.88
944.125	2059.55
944.431	2083.28
944.738	2048.48
945.044	2070.17
945.35	2045.77
945.657	2022.94
945.963	2029.04
946.269	2033.56
946.575	2021.59
946.881	2007.35
947.187	1996.95
947.493	1993.56
947.799	1984.75
948.105	1977.07
948.41	1983.62
948.716	1956.73
949.022	1966.67
949.327	1948.59
949.633	1946.33
949.938	1935.03
950.244	1911.98
950.549	1927.58
950.854	1914.92
951.16	1919.67
951.465	1952.89
951.77	1884.19
952.075	1883.96
952.38	1874.24
952.685	1868.59
952.99	1882.61
953.294	1869.5
953.599	1843.28
953.904	1809.39
954.209	1819.33
954.513	1808.48
954.818	1831.08
955.122	1786.79
955.426	1831.53
955.731	1790.4
956.035	1761.25
956.339	1802.16
956.643	1784.53
956.948	1783.17
957.252	1754.02
957.556	1754.47
957.86	1793.12
958.163	1752.44
958.467	1720.8
958.771	1759.67
959.075	1710.41
959.378	1748.6
959.682	1725.77
959.985	1716.96
960.289	1701.37
960.592	1703.18
960.896	1681.48
961.199	1670.18
961.502	1689.62
961.805	1684.19
962.108	1657.53
962.411	1674.7
962.714	1652.78
963.017	1624.53
963.32	1652.56
963.623	1633.8
963.926	1606.68
964.228	1625.66
964.531	1609.62
964.833	1623.4
965.136	1601.71
965.438	1600.13
965.741	1610.97
966.043	1605.78
966.345	1578.89
966.648	1571.88
966.95	1591.31
967.252	1579.79
967.554	1575.04
967.856	1540.92
968.158	1530.98
968.46	1545.89
968.761	1549.06
969.063	1551.32
969.365	1523.97
969.666	1535.5
969.968	1512.9
970.269	1500.24
970.571	1494.14
970.872	1506.34
971.174	1504.08
971.475	1480.81
971.776	1460.02
972.077	1473.58
972.378	1499.57
972.679	1489.85
972.98	1481.26
973.281	1486.91
973.582	1465.89
973.883	1446.91
974.183	1448.72
974.484	1443.52
974.785	1442.39
975.085	1433.13
975.386	1446.01
975.686	1410.75
975.986	1405.56
976.287	1431.54
976.587	1401.26
976.887	1392.45
977.187	1392.9
977.487	1415.5
977.787	1380.7
978.087	1410.08
978.387	1372.56
978.687	1374.37
978.987	1361.26
979.286	1362.39
979.586	1351.55
979.885	1341.15
980.185	1351.09
980.484	1345.67
980.784	1305.22
981.083	1332.34
981.382	1321.26
981.682	1309.29
981.981	1297.54
982.28	1320.36
982.579	1314.49
982.878	1313.58
983.177	1318.55
983.475	1324.43
983.774	1288.95
984.073	1261.38
984.372	1273.81
984.67	1285.11
984.969	1267.03
985.267	1269.74
985.566	1263.41
985.864	1298.44
986.162	1256.86
986.461	1234.26
986.759	1230.87
987.057	1253.02
987.355	1215.73
987.653	1242.85
987.951	1193.36
988.249	1214.15
988.547	1237.65
988.844	1212.79
989.142	1199.01
989.44	1208.05
989.737	1197.43
990.035	1167.14
990.332	1189.97
990.63	1195.39
990.927	1186.13
991.224	1200.36
991.521	1165.11
991.819	1136.41
992.116	1189.29
992.413	1150.2
992.71	1143.42
993.006	1146.13
993.303	1142.51
993.6	1140.7
993.897	1161.72
994.193	1135.28
994.49	1137.77
994.787	1123.98
995.083	1102.29
995.379	1113.81
995.676	1092.34
995.972	1094.15
996.268	1086.24
996.565	1091.44
996.861	1081.27
997.157	1090.08
997.453	1071.78
997.749	1085.34
998.044	1083.53
998.34	1080.37
998.636	1081.05
998.932	1050.54
999.227	1056.19
999.523	1052.57
999.818	1074.04
1000.114	1050.54
1000.409	1039.01
1000.704	1020.26
1001	1036.75
1001.295	996.08
1001.59	1019.8
1001.885	999.47
1002.18	1014.83
1002.475	1000.37
1002.77	1015.28
1003.065	1002.63
1003.359	987.04
1003.654	996.08
1003.949	991.1
1004.243	980.48
1004.538	962.18
1004.832	994.04
1005.127	993.36
1005.421	949.3
1005.715	978.9
1006.009	974.61
1006.304	929.41
1006.598	963.08
1006.892	943.87
1007.186	935.29
1007.48	926.92
1007.773	940.26
1008.067	940.26
1008.361	951.78
1008.655	934.61
1008.948	928.05
1009.242	900.48
1009.535	886.02
1009.829	892.12
1010.122	889.41
1010.415	902.07
1010.708	890.77
1011.001	892.8
1011.295	864.55
1011.588	866.36
1011.881	884.44
1012.173	867.72
1012.466	842.86
1012.759	891.9
1013.052	852.58
1013.344	854.38
1013.637	844.89
1013.93	829.53
1014.222	837.21
1014.514	836.76
1014.807	861.62
1015.099	835.18
1015.391	811.9
1015.683	816.65
1015.976	818.91
1016.268	791.79
1016.56	825.68
1016.851	793.59
1017.143	810.09
1017.435	815.29
1017.727	831.33
1018.018	763.54
1018.31	796.31
1018.602	782.07
1018.893	771.67
1019.185	787.72
1019.476	791.34
1019.767	761.51
1020.058	773.93
1020.35	782.52
1020.641	759.02
1020.932	751.34
1021.223	738.68
1021.514	740.71
1021.804	740.04
1022.095	749.75
1022.386	760.83
1022.677	747.49
1022.967	743.2
1023.258	726.03
1023.548	727.16
1023.839	712.02
1024.129	719.02
1024.419	730.09
1024.709	723.31
1025	722.86
1025.29	688.06
1025.58	679.93
1025.87	699.59
1026.16	683.77
1026.449	711.79
1026.739	698.68
1027.029	676.99
1027.319	679.02
1027.608	667.72
1027.898	685.12
1028.187	680.83
1028.477	668.4
1028.766	686.93
1029.055	663.88
1029.344	675.18
1029.634	643.32
1029.923	672.24
1030.212	645.12
1030.501	659.81
1030.79	656.65
1031.078	656.42
1031.367	629.98
1031.656	632.47
1031.945	637.44
1032.233	620.94
1032.522	626.37
1032.81	634.05
1033.099	625.24
1033.387	614.39
1033.675	593.37
1033.963	596.99
1034.251	599.02
1034.54	599.02
1034.828	612.36
1035.116	608.97
1035.403	616.42
1035.691	609.42
1035.979	600.15
1036.267	620.49
1036.554	596.09
1036.842	606.03
1037.129	607.84
1037.417	571
1037.704	569.65
1037.992	586.14
1038.279	569.65
1038.566	586.37
1038.853	586.37
1039.14	586.37
