Data from brown_tile_FLMS001491_011.txt Node
Date: Tue Feb 07 10:37:07 GMT 2017
User: dcchb
Spectrometer: FLMS00149
Trigger mode: 0
Integration Time (sec): 2.000000E-2
Scans to average: 10
Electric dark correction enabled: true
Nonlinearity correction enabled: false
Boxcar width: 0
XAxis mode: Wavelengths
Number of Pixels in Spectrum: 2048
>>>>>Begin Spectral Data<<<<<
341.393	-8.01
341.776	-8.01
342.16	-8.01
342.543	-83.03
342.927	-47.56
343.31	-62.24
343.693	-59.53
344.077	-65.63
344.46	-49.59
344.843	-40.78
345.226	-43.04
345.61	-20.21
345.993	-18.4
346.376	-25.18
346.759	6.68
347.142	25.89
347.525	34.7
347.908	48.71
348.291	70.18
348.674	89.62
349.057	108.82
349.44	122.16
349.823	121.25
350.206	139.56
350.588	179.78
350.971	196.28
351.354	197.86
351.737	226.79
352.119	236.96
352.502	245.09
352.884	271.31
353.267	258.88
353.65	262.27
354.032	281.7
354.414	275.6
354.797	283.74
355.179	307.69
355.562	308.82
355.944	318.54
356.326	331.42
356.709	311.08
357.091	308.14
357.473	329.61
357.855	324.64
358.238	341.81
358.62	339.55
359.002	314.92
359.384	330.51
359.766	320.12
360.148	339.55
360.53	325.99
360.912	318.99
361.294	318.99
361.676	318.99
362.057	325.99
362.439	311.53
362.821	313.79
363.203	300.46
363.584	326.67
363.966	307.69
364.348	298.88
364.729	319.44
365.111	310.18
365.493	294.81
365.874	293.45
366.256	302.04
366.637	306.33
367.019	316.95
367.4	299.1
367.781	281.25
368.163	285.77
368.544	302.27
368.925	289.39
369.306	293.23
369.688	298.2
370.069	286.9
370.45	287.35
370.831	305.88
371.212	301.36
371.593	308.59
371.974	295.03
372.355	324.86
372.736	304.07
373.117	323.73
373.498	293.68
373.879	301.59
374.26	296.39
374.641	289.84
375.021	306.33
375.402	302.04
375.783	295.94
376.163	287.35
376.544	315.15
376.925	305.66
377.305	320.57
377.686	313.11
378.066	335.03
378.447	310.4
378.827	302.49
379.208	308.37
379.588	315.15
379.968	304.3
380.349	313.34
380.729	316.95
381.109	326.45
381.489	310.85
381.87	342.27
382.25	305.43
382.63	328.93
383.01	314.02
383.39	299.55
383.77	340.68
384.15	324.41
384.53	331.87
384.91	334.13
385.29	337.07
385.67	338.42
386.049	346.56
386.429	322.38
386.809	338.42
387.189	337.07
387.568	335.49
387.948	332.1
388.328	350.85
388.707	348.59
389.087	345.88
389.466	337.75
389.846	333.9
390.225	334.58
390.605	361.93
390.984	340.91
391.363	355.15
391.743	359.89
392.122	349.95
392.501	363.06
392.881	337.97
393.26	350.63
393.639	368.03
394.018	384.07
394.397	361.02
394.776	368.7
395.155	396.05
395.534	378.42
395.913	361.7
396.292	382.94
396.671	384.52
397.05	369.38
397.429	370.51
397.808	357.63
398.186	382.72
398.565	373.9
398.944	403.05
399.323	370.06
399.701	398.99
400.08	398.99
400.458	388.37
400.837	402.15
401.215	403.05
401.594	391.3
401.972	387.46
402.351	411.87
402.729	373.45
403.107	404.41
403.486	377.29
403.864	408.93
404.242	420.68
404.62	417.74
404.999	393.11
405.377	401.02
405.755	413.9
406.133	407.57
406.511	423.84
406.889	428.36
407.267	435.14
407.645	430.4
408.023	431.08
408.401	416.84
408.779	442.38
409.156	440.79
409.534	442.6
409.912	420.23
410.29	437.86
410.667	435.14
411.045	459.55
411.422	438.31
411.8	456.84
412.178	466.33
412.555	443.96
412.933	491.64
413.31	473.34
413.687	462.71
414.065	484.41
414.442	481.47
414.819	488.02
415.197	481.47
415.574	484.18
415.951	482.6
416.328	486.89
416.705	492.54
417.082	494.35
417.46	511.98
417.837	499.1
418.214	500
418.591	506.55
418.967	507.01
419.344	509.49
419.721	503.62
420.098	498.19
420.475	507.23
420.852	515.14
421.228	499.1
421.605	500.23
421.982	554.91
422.358	525.76
422.735	500
423.111	550.62
423.488	536.38
423.864	552.88
424.241	552.88
424.617	547.01
424.994	551.75
425.37	553.33
425.746	550.4
426.123	563.05
426.499	592.88
426.875	580
427.251	553.11
427.627	586.78
428.003	571.64
428.379	596.5
428.756	593.56
429.132	576.16
429.507	585.42
429.883	621.35
430.259	631.52
430.635	607.12
431.011	618.64
431.387	625.42
431.763	637.17
432.138	624.29
432.514	643.27
432.89	677.85
433.265	657.96
433.641	665.87
434.016	685.98
434.392	654.57
434.767	694.12
435.143	682.82
435.518	698.41
435.894	683.27
436.269	693.67
436.644	681.69
437.02	706.1
437.395	713.78
437.77	706.32
438.145	718.53
438.52	733.89
438.895	730.05
439.271	712.42
439.646	764.17
440.021	753.33
440.395	758.3
440.77	734.35
441.145	747.68
441.52	755.14
441.895	782.93
442.27	771.63
442.645	738.41
443.019	764.17
443.394	779.32
443.769	779.32
444.143	786.55
444.518	799.2
444.892	802.82
445.267	798.52
445.641	790.39
446.016	783.16
446.39	785.42
446.764	808.02
447.139	809.37
447.513	787.23
447.887	806.89
448.262	842.36
448.636	823.38
449.01	862.93
449.384	841.46
449.758	827.22
450.132	862.25
450.506	848.47
450.88	859.31
451.254	874.91
451.628	881.91
452.002	910.16
452.376	872.19
452.75	867.45
453.123	904.51
453.497	902.48
453.871	909.71
454.244	914.23
454.618	946.99
454.992	924.85
455.365	942.48
455.739	962.81
456.112	967.56
456.486	970.95
456.859	973.66
457.232	978.18
457.606	956.94
457.979	994.23
458.352	1029.03
458.725	1015.02
459.099	1021.57
459.472	1055.47
459.845	1065.86
460.218	1062.47
460.591	1063.15
460.964	1076.71
461.337	1114
461.71	1096.14
462.083	1131.17
462.456	1125.3
462.829	1151.51
463.201	1166.42
463.574	1159.64
463.947	1137.72
464.32	1179.98
464.692	1182.02
465.065	1209.13
465.438	1225.18
465.81	1223.6
466.183	1236.03
466.555	1248.23
466.928	1266.31
467.3	1274.9
467.672	1302.01
468.045	1274.9
468.417	1314.67
468.789	1342.92
469.161	1354.67
469.534	1324.84
469.906	1370.03
470.278	1379.75
470.65	1387.21
471.022	1422.69
471.394	1435.57
471.766	1450.03
472.138	1429.47
472.51	1495.68
472.882	1499.07
473.253	1522.8
473.625	1547.66
473.997	1562.12
474.369	1561.89
474.74	1579.75
475.112	1597.15
475.484	1632.17
475.855	1652.51
476.227	1695.45
476.598	1701.78
476.97	1716.92
477.341	1736.35
477.713	1782
478.084	1790.36
478.455	1863.81
478.827	1866.74
479.198	1874.65
479.569	1896.35
479.94	1930.47
480.311	1924.14
480.682	2004.14
481.053	2021.09
481.424	2060.41
481.795	2040.3
482.166	2111.48
482.537	2124.14
482.908	2173.18
483.279	2185.15
483.65	2232.61
484.021	2255.44
484.391	2241.2
484.762	2334.08
485.133	2286.39
485.503	2345.6
485.874	2399.84
486.244	2395.32
486.615	2442.1
486.985	2451.36
487.356	2510.57
487.726	2543.34
488.097	2573.62
488.467	2596.44
488.837	2628.53
489.207	2671.02
489.578	2689.55
489.948	2737.23
490.318	2748.08
490.688	2767.96
491.058	2800.96
491.428	2839.37
491.798	2913.04
492.168	2937.45
492.538	2952.37
492.908	2931.35
493.278	3018.58
493.648	2998.47
494.017	3022.65
494.387	3068.97
494.757	3091.8
495.126	3128.63
495.496	3124.56
495.866	3169.31
496.235	3199.37
496.605	3217.67
496.974	3224.22
497.344	3291.57
497.713	3256.99
498.082	3295.63
498.452	3341.28
498.821	3346.71
499.19	3372.24
499.559	3402.52
499.928	3400.26
500.298	3494.27
500.667	3453.14
501.036	3455.18
501.405	3528.4
501.774	3546.7
502.143	3551.22
502.512	3602.97
502.88	3616.98
503.249	3684.78
503.618	3641.61
503.987	3679.8
504.356	3681.61
504.724	3710.76
505.093	3744.44
505.462	3721.16
505.83	3797.99
506.199	3854.04
506.567	3874.83
506.936	3878.22
507.304	3933.36
507.672	3942.85
508.041	3946.46
508.409	3980.59
508.777	3991.89
509.145	4003.86
509.514	4006.58
509.882	4090.87
510.25	4103.75
510.618	4092.22
510.986	4076.18
511.354	4171.99
511.722	4208.6
512.09	4244.08
512.458	4218.77
512.826	4273.01
513.193	4321.82
513.561	4350.52
513.929	4367.47
514.297	4404.31
514.664	4462.83
515.032	4468.03
515.4	4541.25
515.767	4534.92
516.135	4557.75
516.502	4572.89
516.869	4621.7
517.237	4665.32
517.604	4664.19
517.972	4708.25
518.339	4739.44
518.706	4734.69
519.073	4813.79
519.44	4831.64
519.808	4790.74
520.175	4868.02
520.542	4953.9
520.909	4935.82
521.276	4979.88
521.643	5030.73
522.009	5100.11
522.376	5121.57
522.743	5179.88
523.11	5225.98
523.477	5237.96
523.843	5293.32
524.21	5391.85
524.577	5418.29
524.943	5444.96
525.31	5472.53
525.676	5484.73
526.043	5503.49
526.409	5577.38
526.776	5607.66
527.142	5716.36
527.508	5708
527.874	5754.1
528.241	5731.05
528.607	5806.75
528.973	5871.16
529.339	5849.69
529.705	5985.51
530.071	5996.58
530.437	6046.3
530.803	6032.51
531.169	6142.11
531.535	6130.81
531.901	6136.01
532.267	6196.57
532.632	6292.39
532.998	6292.62
533.364	6321.54
533.73	6330.36
534.095	6421.43
534.461	6436.12
534.826	6450.58
535.192	6477.24
535.557	6583.91
535.923	6559.95
536.288	6593.63
536.653	6632.5
537.019	6630.46
537.384	6703.91
537.749	6745.94
538.114	6788.88
538.479	6794.07
538.845	6781.87
539.21	6838.37
539.575	6874.52
539.94	6901.64
540.305	7013.05
540.67	6931.24
541.034	7054.63
541.399	7081.75
541.764	7105.48
542.129	7117.23
542.494	7204.23
542.858	7220.73
543.223	7253.5
543.587	7323.32
543.952	7317
544.316	7342.98
544.681	7308.18
545.045	7395.19
545.41	7501.4
545.774	7535.75
546.138	7510.21
546.503	7648.97
546.867	7614.62
547.231	7729.87
547.595	7821.39
547.959	7786.14
548.324	7870.88
548.688	7886.7
549.052	7892.12
549.416	7961.05
549.779	8058.45
550.143	8076.07
550.507	8089.86
550.871	8126.47
551.235	8290.76
551.599	8246.46
551.962	8330.3
552.326	8365.56
552.689	8465.67
553.053	8450.07
553.417	8455.27
553.78	8653.68
554.143	8622.95
554.507	8717.86
554.87	8763.51
555.234	8838.76
555.597	8879.22
555.96	8956.5
556.323	8934.58
556.686	9047.35
557.05	9189.72
557.413	9160.79
557.776	9229.26
558.139	9391.52
558.502	9422.25
558.865	9453.66
559.228	9539.31
559.59	9629.03
559.953	9757.16
560.316	9869.02
560.679	9831.28
561.041	9998.06
561.404	10033.99
561.767	10129.13
562.129	10144.27
562.492	10300.42
562.854	10315.34
563.217	10468.33
563.579	10536.8
563.941	10619.06
564.304	10709.9
564.666	10737.92
565.028	10913.74
565.39	10876
565.753	11083.45
566.115	11113.73
566.477	11268.76
566.839	11281.86
567.201	11445.25
567.563	11493.84
567.925	11619.03
568.287	11673.72
568.648	11690.89
569.01	11863.32
569.372	12079.36
569.734	12022.41
570.095	12164.55
570.457	12240.48
570.819	12283.19
571.18	12413.81
571.542	12537.65
571.903	12596.41
572.265	12677.53
572.626	12809.73
572.987	12869.85
573.349	12893.12
573.71	13070.29
574.071	13063.06
574.432	13162.27
574.794	13292.43
575.155	13308.93
575.516	13406.33
575.877	13549.15
576.238	13644.29
576.599	13638.19
576.96	13767.67
577.32	13797.5
577.681	14016.26
578.042	14061
578.403	14190.26
578.763	14176.93
579.124	14283.37
579.485	14395.91
579.845	14398.84
580.206	14475
580.566	14522.68
580.927	14585.51
581.287	14685.84
581.648	14729.01
582.008	14877.7
582.368	14879.06
582.728	14985.27
583.089	14930.36
583.449	15082.22
583.809	15089.45
584.169	15194.3
584.529	15196.11
584.889	15395.2
585.249	15375.09
585.609	15345.03
585.969	15457.35
586.329	15540.06
586.688	15582.32
587.048	15597.91
587.408	15569.44
587.768	15611.47
588.127	15635.87
588.487	15715.19
588.846	15919.26
589.206	15769.88
589.565	15864.79
589.925	15952.48
590.284	16002.64
590.643	16034.96
591.003	16101.17
591.362	16156.31
591.721	16109.76
592.08	16274.5
592.44	16272.69
592.799	16332.58
593.158	16403.31
593.517	16306.37
593.876	16370.09
594.235	16491.44
594.593	16575.96
594.952	16598.56
595.311	16568.28
595.67	16632.68
596.029	16700.25
596.387	16827.03
596.746	16830.42
597.104	16695.06
597.463	16847.59
597.822	16857.31
598.18	16944.31
598.538	16904.77
598.897	17052.79
599.255	16895.05
599.613	17162.84
599.972	17039.91
600.33	17171.43
600.688	17107.47
601.046	17213.69
601.404	17344.98
601.762	17235.83
602.12	17409.84
602.478	17429.95
602.836	17456.17
603.194	17407.13
603.552	17410.97
603.91	17392.66
604.268	17532.55
604.625	17472.44
604.983	17650.51
605.341	17547.91
605.698	17686.67
606.056	17772.09
606.413	17700.23
606.771	17854.8
607.128	17919.2
607.485	17821.58
607.843	17916.27
608.2	17960.56
608.557	18099.31
608.914	17967.79
609.272	18076.94
609.629	18165.98
609.986	18088.69
610.343	18114.45
610.7	18210.95
611.057	18198.97
611.414	18189.93
611.771	18323.94
612.127	18444.16
612.484	18393.32
612.841	18483.48
613.198	18435.35
613.554	18405.97
613.911	18476.03
614.267	18450.72
614.624	18469.7
614.98	18516.93
615.337	18676.02
615.693	18587.66
616.05	18690.03
616.406	18757.83
616.762	18632.86
617.118	18713.99
617.475	18776.36
617.831	18750.14
618.187	18847.99
618.543	18872.17
618.899	19007.99
619.255	19012.96
619.611	18894.09
619.967	19050.7
620.323	19109.68
620.678	18985.39
621.034	18961.21
621.39	19001.66
621.746	18950.36
622.101	19177.93
622.457	18980.87
622.812	19041.21
623.168	19109.91
623.523	19158.04
623.879	19186.06
624.234	19154.88
624.589	19184.71
624.945	19191.49
625.3	19241.66
625.655	19127.99
626.01	19170.47
626.365	19294.99
626.72	19237.81
627.075	19172.96
627.43	19184.48
627.785	19240.98
628.14	19225.38
628.495	19220.41
628.85	19181.09
629.205	19187.87
629.559	19366.17
629.914	19125.27
630.269	19208.21
630.623	19161.66
630.978	19158.72
631.332	19260.64
631.687	19228.77
632.041	19212.96
632.396	19218.15
632.75	19081.66
633.104	19325.27
633.459	19176.8
633.813	19134.31
634.167	19203.24
634.521	19112.39
634.875	19140.64
635.229	19065.61
635.583	18965.05
635.937	18988.1
636.291	18972.06
636.645	18949.91
636.999	19022
637.352	19022.68
637.706	18813.42
638.06	18928.89
638.413	18896.58
638.767	18885.51
639.121	19006.63
639.474	18813.42
639.828	18787.43
640.181	18947.88
640.534	18849.57
640.888	18877.6
641.241	18759.63
641.594	18763.7
641.947	18862.91
642.301	18785.85
642.654	18853.87
643.007	18726.19
643.36	18846.64
643.713	18725.74
644.066	18826.3
644.419	18627.21
644.771	18537.49
645.124	18445.29
645.477	18379.3
645.83	18229.25
646.182	18091.4
646.535	18111.52
646.888	18234.22
647.24	18127.56
647.593	18198.52
647.945	18148.35
648.298	18085.53
648.65	18102.93
649.002	17979.99
649.355	18128.46
649.707	18115.58
650.059	18182.7
650.411	18352.86
650.763	18491.62
651.115	18624.5
651.467	18545.4
651.819	18570.71
652.171	18535.46
652.523	18480.77
652.875	18484.61
653.227	18416.59
653.578	18518.96
653.93	18409.59
654.282	18418.85
654.633	18341.34
654.985	18408.23
655.337	18368.68
655.688	18448.91
656.039	18379.76
656.391	18259.31
656.742	18366.42
657.094	18314.67
657.445	18438.06
657.796	18274.22
658.147	18272.42
658.498	18312.87
658.849	18354.22
659.2	18348.57
659.551	18335.92
659.902	18486.87
660.253	18338.18
660.604	18435.57
660.955	18331.85
661.306	18405.29
661.656	18325.52
662.007	18327.78
662.358	18336.37
662.708	18267.22
663.059	18355.35
663.409	18302.02
663.76	18372.07
664.11	18336.37
664.461	18450.49
664.811	18443.94
665.161	18379.53
665.511	18332.75
665.862	18399.42
666.212	18362.13
666.562	18503.6
666.912	18341.11
667.262	18361.23
667.612	18538.62
667.962	18492.75
668.312	18303.6
668.662	18431.28
669.011	18516.93
669.361	18425.18
669.711	18466.08
670.06	18379.08
670.41	18321.91
670.76	18414.56
671.109	18535.68
671.459	18424.95
671.808	18345.41
672.157	18412.07
672.507	18405.07
672.856	18338.4
673.205	18498.85
673.554	18374.11
673.904	18463.14
674.253	18495.91
674.602	18481
674.951	18170.5
675.3	18169.82
675.649	18456.36
675.998	18346.99
676.346	18457.27
676.695	18441.9
677.044	18363.03
677.393	18407.33
677.741	18441.68
678.09	18434.67
678.438	18342.24
678.787	18479.42
679.135	18559.64
679.484	18298.86
679.832	18340.21
680.181	18348.57
680.529	18381.79
680.877	18369.36
681.225	18319.87
681.573	18569.58
681.922	18350.15
682.27	18328.01
682.618	18285.07
682.966	18342.92
683.314	18215.92
683.661	18243.94
684.009	18256.37
684.357	18156.03
684.705	18152.19
685.053	18224.96
685.4	18158.97
685.748	18117.84
686.095	18133.89
686.443	18027.9
686.79	18051.4
687.138	18135.7
687.485	18085.08
687.832	18005.53
688.18	17993.55
688.527	17944.29
688.874	17986.77
689.221	17994.91
689.568	17903.16
689.915	17828.81
690.262	17837.62
690.609	17866.78
690.956	17769.6
691.303	17795.37
691.65	17685.31
691.997	17813.67
692.344	17611.87
692.69	17703.39
693.037	17631.98
693.383	17552.66
693.73	17567.35
694.077	17525.54
694.423	17563.96
694.769	17409.39
695.116	17525.77
695.462	17393.34
695.808	17403.74
696.155	17500.01
696.501	17328.71
696.847	17389.95
697.193	17274.7
697.539	17291.65
697.885	17154.03
698.231	17220.24
698.577	17144.99
698.923	17033.13
699.269	17048.49
699.614	16993.35
699.96	16935.28
700.306	17147.7
700.651	16943.86
700.997	16947.93
701.342	16864.77
701.688	16862.28
702.033	16831.77
702.379	16843.3
702.724	16826.58
703.069	16853.24
703.415	16710.42
703.76	16679.01
704.105	16695.73
704.45	16624.1
704.795	16619.58
705.14	16622.51
705.485	16567.83
705.83	16469.52
706.175	16520.14
706.52	16485.34
706.865	16429.98
707.209	16362.86
707.554	16337.1
707.899	16493.03
708.243	16327.16
708.588	16293.94
708.932	16227.95
709.277	16264.78
709.621	16237.89
709.966	16126.03
710.31	16159.25
710.654	16074.05
710.998	16099.14
711.342	16190.66
711.687	16092.59
712.031	16122.19
712.375	16010.78
712.719	16011.01
713.063	16049.2
713.407	15974.4
713.75	16014.85
714.094	16010.33
714.438	15938.92
714.782	15992.02
715.125	15907.05
715.469	15931.23
715.812	15834.29
716.156	15677.68
716.499	15732.37
716.843	15833.84
717.186	15653.5
717.53	15694.4
717.873	15767.17
718.216	15805.59
718.559	15741.41
718.902	15562.43
719.246	15714.97
719.589	15679.71
719.932	15620.51
720.275	15605.37
720.617	15629.32
720.96	15661.41
721.303	15575.08
721.646	15583.45
721.989	15559.27
722.331	15570.11
722.674	15613.95
723.016	15523.33
723.359	15509.78
723.701	15488.31
724.044	15473.62
724.386	15314.98
724.729	15434.52
725.071	15415.32
725.413	15400.63
725.755	15353.62
726.097	15286.96
726.439	15283.79
726.782	15237.92
727.124	15317.92
727.465	15303
727.807	15306.17
728.149	15225.26
728.491	15244.7
728.833	15220.52
729.175	15265.49
729.516	15246.28
729.858	15243.12
730.199	15182.33
730.541	15090.13
730.882	15096
731.224	15179.39
731.565	15084.93
731.906	15055.55
732.248	15093.97
732.589	15045.16
732.93	15020.52
733.271	15029.79
733.612	15121.54
733.953	15013.29
734.294	15003.12
734.635	14950.02
734.976	14967.64
735.317	14899.62
735.658	14921.32
735.999	14911.83
736.339	14874.99
736.68	14949.79
737.021	14899.85
737.361	14905.5
737.702	14898.72
738.042	14900.75
738.383	14847.42
738.723	14815.78
739.063	14860.53
739.404	14837.03
739.744	14782.56
740.084	14699.85
740.424	14665.73
740.764	14643.36
741.104	14789.34
741.444	14651.49
741.784	14611.27
742.124	14701.44
742.464	14584.15
742.804	14519.97
743.143	14564.94
743.483	14566.3
743.823	14460.54
744.162	14488.79
744.502	14514.32
744.841	14438.39
745.181	14558.39
745.52	14369.01
745.86	14490.37
746.199	14358.39
746.538	14388
746.877	14420.09
747.216	14356.13
747.556	14356.13
747.895	14461.22
748.234	14324.27
748.573	14236.59
748.911	14253.09
749.25	14203.14
749.589	14211.5
749.928	14163.37
750.267	14206.76
750.605	14187.32
750.944	14033.43
751.283	14082.24
751.621	14048.35
751.96	14024.17
752.298	14046.31
752.636	13991.17
752.975	13924.05
753.313	13884.96
753.651	14005.86
753.989	13851.97
754.327	13905.98
754.666	13713.21
755.004	13862.59
755.342	13714.12
755.679	13745.98
756.017	13700.78
756.355	13678.19
756.693	13630.5
757.031	13691.74
757.368	13538.08
757.706	13543.27
758.044	13543.5
758.381	13601.35
758.719	13446.78
759.056	13416.05
759.394	13416.5
759.731	13329.27
760.068	13302.15
760.405	13331.08
760.743	13168.59
761.08	13146.67
761.417	13084.3
761.754	13105.09
762.091	13135.37
762.428	13068.48
762.765	12942.84
763.102	13025.55
763.438	12879.79
763.775	12917.53
764.112	12851.54
764.449	12857.19
764.785	12808.38
765.122	12652.9
765.458	12607.71
765.795	12586.01
766.131	12540.14
766.467	12531.32
766.804	12456.75
767.14	12402.51
767.476	12526.8
767.812	12341.95
768.148	12420.37
768.485	12298.56
768.821	12202.74
769.157	12268.96
769.492	12176.08
769.828	12152.58
770.164	12142.18
770.5	12025.12
770.836	12055.18
771.171	11973.15
771.507	11973.6
771.842	11804.56
772.178	11870.78
772.513	11821.51
772.849	11772.47
773.184	11629.2
773.519	11653.38
773.855	11606.15
774.19	11581.29
774.525	11478.47
774.86	11501.75
775.195	11492.71
775.53	11374.07
775.865	11338.13
776.2	11311.02
776.535	11186.73
776.87	11168.2
777.205	11113.96
777.539	11058.59
777.874	11062.44
778.209	11063.11
778.543	10983.34
778.878	10998.26
779.212	10979.5
779.547	10837.58
779.881	10876.9
780.215	10781.31
780.55	10763.46
780.884	10632.16
781.218	10678.72
781.552	10719.85
781.886	10571.6
782.22	10598.27
782.554	10547.65
782.888	10417.03
783.222	10395.33
783.556	10354.21
783.889	10315.11
784.223	10264.26
784.557	10237.6
784.89	10234.21
785.224	10209.12
785.557	10081.9
785.891	10076.47
786.224	10034.21
786.558	9997.15
786.891	9971.62
787.224	9888
787.557	9888
787.891	9909.47
788.224	9843.26
788.557	9836.25
788.89	9855.46
789.223	9805.07
789.556	9647.33
789.888	9625.18
790.221	9654.56
790.554	9551.97
790.887	9530.72
791.219	9466.77
791.552	9440.33
791.884	9415.92
792.217	9349.49
792.549	9382.48
792.882	9264.74
793.214	9251.86
793.546	9266.78
793.879	9174.35
794.211	9161.02
794.543	9168.02
794.875	9118.31
795.207	9136.38
795.539	9025.88
795.871	8987.24
796.203	8991.3
796.535	8849.84
796.867	8900.23
797.198	8856.62
797.53	8945.43
797.862	8748.37
798.193	8799.44
798.525	8713.8
798.856	8806.68
799.188	8642.61
799.519	8615.72
799.85	8568.04
800.182	8566.91
800.513	8581.6
800.844	8530.98
801.175	8596.51
801.506	8474.03
801.837	8500.92
802.168	8428.38
802.499	8364.43
802.83	8389.29
803.161	8306.8
803.491	8300.47
803.822	8293.02
804.153	8249.18
804.483	8177.54
804.814	8147.48
805.145	8177.09
805.475	8172.79
805.805	8103.19
806.136	8067.26
806.466	8078.11
806.796	8060.93
807.126	7992.69
807.457	7950.88
807.787	8016.87
808.117	7873.37
808.447	7881.73
808.777	7881.5
809.107	7884.44
809.436	7827.72
809.766	7799.02
810.096	7714.27
810.426	7760.38
810.755	7766.02
811.085	7807.38
811.414	7714.5
811.744	7575.97
812.073	7565.58
812.403	7602.41
812.732	7585.24
813.061	7570.55
813.39	7523.09
813.719	7522.87
814.049	7547.73
814.378	7507.73
814.707	7458.69
815.036	7378.69
815.365	7414.62
815.693	7305.7
816.022	7347.05
816.351	7305.02
816.68	7213.72
817.008	7267.51
817.337	7179.37
817.665	7157.91
817.994	7210.78
818.322	7197.68
818.651	7088.08
818.979	7089.88
819.307	7151.58
819.636	7134.4
819.964	7037.46
820.292	7035.87
820.62	7082.65
820.948	7023.22
821.276	7048.3
821.604	7070.22
821.932	7048.08
822.259	7037.23
822.587	6981.19
822.915	6937.57
823.243	6969.89
823.57	7023.45
823.898	7046.04
824.225	6935.99
824.553	6988.42
824.88	6946.61
825.207	6949.32
825.535	6959.27
825.862	7011.69
826.189	6911.36
826.516	6962.2
826.843	6976.44
827.17	6953.16
827.497	6969.44
827.824	6890.12
828.151	6916.78
828.478	6933.05
828.805	6980.96
829.131	6924.69
829.458	6917.69
829.785	6827.52
830.111	6871.58
830.438	6935.54
830.764	6848.99
831.09	6897.57
831.417	6815.77
831.743	6896.89
832.069	6855.54
832.395	6806.95
832.722	6841.3
833.048	6797.24
833.374	6795.88
833.7	6801.53
834.026	6766.95
834.351	6844.01
834.677	6769.67
835.003	6793.17
835.329	6745.03
835.654	6768.99
835.98	6757.92
836.306	6751.36
836.631	6698.26
836.956	6692.15
837.282	6722.44
837.607	6674.08
837.932	6699.39
838.258	6662.32
838.583	6657.58
838.908	6615.55
839.233	6605.15
839.558	6666.39
839.883	6541.88
840.208	6517.92
840.533	6548.88
840.858	6614.64
841.182	6566.73
841.507	6535.32
841.832	6514.53
842.156	6530.58
842.481	6456.91
842.805	6502.78
843.13	6425.72
843.454	6471.37
843.778	6461.65
844.103	6353.63
844.427	6365.61
844.751	6381.65
845.075	6367.87
845.399	6365.16
845.723	6289.45
846.047	6273.63
846.371	6213.98
846.695	6200.87
847.019	6101.66
847.343	6173.07
847.666	6103.02
847.99	6119.29
848.313	6090.36
848.637	6004.49
848.96	6075.67
849.284	6036.13
849.607	5978.05
849.931	5992.29
850.254	5884.27
850.577	5898.28
850.9	5820.99
851.223	5841.1
851.546	5832.29
851.869	5726.08
852.192	5787.32
852.515	5769.01
852.838	5765.85
853.161	5737.15
853.483	5733.54
853.806	5643.37
854.129	5660.32
854.451	5632.3
854.774	5614.67
855.096	5596.36
855.419	5546.65
855.741	5562.92
856.063	5528.8
856.385	5537.61
856.708	5501.68
857.03	5473.66
857.352	5505.07
857.674	5465.97
857.996	5439.08
858.318	5368.35
858.64	5432.75
858.961	5430.04
859.283	5357.27
859.605	5327.9
859.926	5383.49
860.248	5322.47
860.57	5318.18
860.891	5264.62
861.212	5263.72
861.534	5282.7
861.855	5286.99
862.176	5274.79
862.498	5283.83
862.819	5278.41
863.14	5209.26
863.461	5247.9
863.782	5207.45
864.103	5236.15
864.424	5147.56
864.745	5147.56
865.065	5143.72
865.386	5120.22
865.707	5126.55
866.027	5152.08
866.348	5098.98
866.668	5129.03
866.989	5080.22
867.309	4994.8
867.63	5061.01
867.95	5066.66
868.27	5057.17
868.59	5058.3
868.91	5038.41
869.23	5036.15
869.55	5030.73
869.87	5026.89
870.19	5026.89
870.51	5007.23
870.83	5017.4
871.15	4996.38
871.469	4942.82
871.789	4956.61
872.109	4970.62
872.428	4887.91
872.748	4937.17
873.067	4915.03
873.386	4963.61
873.706	4927.68
874.025	4903.95
874.344	4902.37
874.663	4883.39
874.982	4868.25
875.301	4861.92
875.62	4852.88
875.939	4850.85
876.258	4877.51
876.577	4827.57
876.896	4868.93
877.214	4842.26
877.533	4774.24
877.852	4781.02
878.17	4804.29
878.489	4801.58
878.807	4763.62
879.125	4797.74
879.444	4780.34
879.762	4753.45
880.08	4757.52
880.398	4748.25
880.716	4763.39
881.034	4684.52
881.352	4673.22
881.67	4692.43
881.988	4696.95
882.306	4656.95
882.624	4618.08
882.941	4603.17
883.259	4691.76
883.577	4580.8
883.894	4578.99
884.212	4577.63
884.529	4594.81
884.846	4577.41
885.164	4597.52
885.481	4565.2
885.798	4570.63
886.115	4592.32
886.432	4524.3
886.75	4487.01
887.067	4527.47
887.383	4555.04
887.7	4476.85
888.017	4507.81
888.334	4429.84
888.651	4495.83
888.967	4462.61
889.284	4455.6
889.6	4405.21
889.917	4416.96
890.233	4404.98
890.55	4398.43
890.866	4405.66
891.182	4333.8
891.498	4341.26
891.815	4338.77
892.131	4319.56
892.447	4323.4
892.763	4269.85
893.079	4315.72
893.395	4296.29
893.71	4243.18
894.026	4270.98
894.342	4228.72
894.657	4230.3
894.973	4219
895.289	4222.84
895.604	4168.61
895.92	4147.36
896.235	4144.65
896.55	4154.82
896.865	4102.62
897.181	4127.93
897.496	4103.97
897.811	4118.89
898.126	4128.15
898.441	4058.55
898.756	4081.83
899.071	4052.68
899.386	4075.73
899.7	3981.72
900.015	4021.49
900.33	3997.76
900.644	3958.44
900.959	3964.77
901.273	3942.85
901.588	3925.22
901.902	3928.16
902.216	3948.5
902.531	3906.24
902.845	3862.4
903.159	3901.04
903.473	3859.23
903.787	3879.35
904.101	3795.73
904.415	3826.24
904.729	3817.43
905.042	3783.76
905.356	3779.24
905.67	3758.67
905.984	3761.38
906.297	3709.41
906.611	3706.02
906.924	3725.68
907.237	3724.1
907.551	3682.52
907.864	3698.79
908.177	3698.79
908.491	3683.42
908.804	3642.07
909.117	3620.6
909.43	3617.21
909.743	3614.27
910.056	3605
910.368	3556.64
910.681	3565.91
910.994	3551.22
911.307	3527.72
911.619	3480.71
911.932	3519.81
912.244	3517.77
912.557	3512.35
912.869	3483.65
913.181	3490.43
913.494	3458.79
913.806	3384.9
914.118	3432.13
914.43	3417.89
914.742	3397.33
915.054	3424.67
915.366	3405.69
915.678	3325.46
915.99	3353.26
916.302	3337.67
916.613	3312.36
916.925	3345.35
917.236	3307.61
917.548	3282.75
917.859	3297.22
918.171	3262.41
918.482	3256.31
918.794	3228.74
919.105	3280.94
919.416	3180.16
919.727	3212.7
920.038	3204.34
920.349	3169.08
920.66	3155.07
920.971	3160.72
921.282	3144.23
921.593	3107.16
921.903	3096.32
922.214	3124.56
922.525	3056.32
922.835	3087.05
923.146	3055.19
923.456	3097.45
923.767	3076.88
924.077	3024
924.387	3050.22
924.697	3035.75
925.008	3014.74
925.318	3011.8
925.628	2961.63
925.938	2980.39
926.248	2945.81
926.558	2940.39
926.867	2935.87
927.177	2907.85
927.487	2915.08
927.796	2898.81
928.106	2912.59
928.416	2884.12
928.725	2904.68
929.034	2817
929.344	2872.14
929.653	2829.66
929.962	2823.33
930.271	2812.26
930.581	2808.87
930.89	2765.25
931.199	2763.67
931.508	2752.6
931.817	2745.14
932.125	2772.94
932.434	2745.82
932.743	2688.42
933.051	2733.61
933.36	2705.14
933.669	2676.44
933.977	2699.72
934.286	2675.31
934.594	2707.85
934.902	2612.26
935.21	2610.45
935.519	2609.78
935.827	2629.89
936.135	2610.45
936.443	2601.19
936.751	2580.4
937.059	2567.52
937.367	2549.21
937.674	2544.92
937.982	2549.89
938.29	2553.96
938.597	2511.93
938.905	2473.51
939.213	2500.85
939.52	2517.8
939.827	2489.55
940.135	2482.32
940.442	2464.47
940.749	2454.3
941.056	2467.86
941.363	2420.63
941.67	2433.74
941.977	2445.03
942.284	2406.84
942.591	2393.28
942.898	2362.55
943.205	2399.16
943.511	2380.4
943.818	2358.94
944.125	2315.09
944.431	2384.02
944.738	2348.09
945.044	2334.3
945.35	2324.59
945.657	2318.71
945.963	2283.23
946.269	2281.2
946.575	2290.01
946.881	2278.49
947.187	2258.15
947.493	2235.1
947.799	2220.63
948.105	2220.63
948.41	2206.4
948.716	2229
949.022	2205.94
949.327	2226.74
949.633	2215.44
949.938	2213.4
950.244	2153.06
950.549	2190.8
950.854	2166.85
951.16	2165.95
951.465	2150.13
951.77	2124.59
952.075	2125.49
952.38	2128.88
952.685	2123.01
952.99	2119.39
953.294	2097.02
953.599	2092.05
953.904	2094.54
954.209	2055.44
954.513	2077.81
954.818	2059.73
955.122	2036.91
955.426	2032.39
955.731	2039.62
956.035	2017.7
956.339	2015.89
956.643	2009.34
956.948	1991.04
957.252	1991.26
957.556	1995.55
957.86	1986.29
958.163	1978.38
958.467	1975.89
958.771	1951.04
959.075	1943.58
959.378	1964.14
959.682	1968.66
959.985	1937.03
960.289	1907.2
960.592	1904.26
960.896	1928.21
961.199	1923.01
961.502	1887.08
961.805	1868.55
962.108	1901.77
962.411	1884.15
962.714	1882.34
963.017	1880.53
963.32	1830.59
963.623	1865.84
963.926	1834.43
964.228	1830.81
964.531	1824.94
964.833	1827.2
965.136	1811.83
965.438	1786.75
965.741	1772.28
966.043	1789.91
966.345	1794.43
966.648	1805.96
966.95	1765.05
967.252	1778.39
967.554	1740.42
967.856	1742.45
968.158	1765.96
968.46	1732.96
968.761	1734.77
969.063	1698.84
969.365	1718.73
969.666	1727.99
969.968	1719.63
970.269	1723.25
970.571	1690.93
970.872	1680.76
971.174	1661.78
971.475	1674.66
971.776	1683.25
972.077	1641.44
972.378	1672.63
972.679	1664.04
972.98	1678.28
973.281	1669.01
973.582	1637.15
973.883	1613.42
974.183	1612.74
974.484	1606.86
974.785	1591.72
975.085	1593.98
975.386	1557.15
975.686	1590.82
975.986	1594.44
976.287	1601.44
976.587	1573.42
976.887	1565.74
977.187	1553.53
977.487	1543.59
977.787	1514.66
978.087	1517.38
978.387	1520.77
978.687	1536.81
978.987	1533.42
979.286	1534.78
979.586	1536.58
979.885	1494.78
980.185	1490.03
980.484	1464.72
980.784	1522.57
981.083	1496.58
981.382	1462.24
981.682	1481.44
981.981	1464.5
982.28	1445.06
982.579	1461.33
982.878	1451.39
983.177	1468.34
983.475	1469.69
983.774	1465.85
984.073	1403.03
984.372	1450.03
984.67	1412.52
984.969	1405.97
985.267	1391.73
985.566	1403.25
985.864	1405.74
986.162	1403.25
986.461	1378.4
986.759	1388.11
987.057	1382.69
987.355	1353.99
987.653	1329.13
987.951	1376.14
988.249	1364.16
988.547	1353.76
988.844	1349.7
989.142	1337.72
989.44	1307.66
989.737	1320.09
990.035	1325.06
990.332	1320.32
990.63	1311.05
990.927	1321.9
991.224	1310.38
991.521	1304.27
991.819	1303.14
992.116	1295.23
992.413	1284.84
992.71	1264.95
993.006	1262.01
993.303	1281.45
993.6	1283.94
993.897	1270.6
994.193	1223.37
994.49	1271.28
994.787	1237.38
995.083	1273.54
995.379	1246.87
995.676	1250.49
995.972	1238.06
996.268	1238.29
996.565	1214.11
996.861	1202.36
997.157	1205.52
997.453	1218.63
997.749	1218.17
998.044	1191.96
998.34	1198.97
998.636	1205.29
998.932	1176.59
999.227	1187.67
999.523	1151.96
999.818	1171.4
1000.114	1168.01
1000.409	1152.19
1000.704	1124.39
1001	1147.67
1001.295	1137.5
1001.59	1119.19
1001.885	1144.96
1002.18	1114.67
1002.475	1135.69
1002.77	1086.2
1003.065	1103.6
1003.359	1107.44
1003.654	1078.29
1003.949	1088.01
1004.243	1099.31
1004.538	1064.05
1004.832	1081.91
1005.127	1073.77
1005.421	1070.83
1005.715	1050.04
1006.009	1051.4
1006.304	1048.46
1006.598	1072.42
1006.892	1046.2
1007.186	1023.83
1007.48	1027.44
1007.773	1017.28
1008.067	1047.11
1008.361	1016.15
1008.655	1016.82
1008.948	1019.54
1009.242	1002.59
1009.535	1007.78
1009.829	985.64
1010.122	983.38
1010.415	1005.52
1010.708	966.88
1011.001	982.02
1011.295	947.67
1011.588	968.92
1011.881	960.1
1012.173	956.26
1012.466	975.24
1012.759	938.63
1013.052	941.8
1013.344	945.41
1013.637	931.85
1013.93	933.21
1014.222	915.36
1014.514	920.55
1014.807	929.37
1015.099	926.2
1015.391	913.1
1015.683	921.23
1015.976	927.11
1016.268	901.8
1016.56	884.85
1016.851	876.49
1017.143	880.78
1017.435	857.51
1017.727	847.56
1018.018	861.35
1018.31	865.42
1018.602	865.19
1018.893	867
1019.185	870.84
1019.476	845.75
1019.767	832.2
1020.058	827.68
1020.35	827.22
1020.641	814.34
1020.932	842.59
1021.223	817.96
1021.514	805.08
1021.804	818.86
1022.095	820.44
1022.386	815.02
1022.677	814.12
1022.967	755.59
1023.258	793.33
1023.548	776.83
1023.839	787.68
1024.129	767.56
1024.419	777.51
1024.709	757.4
1025	798.75
1025.29	760.56
1025.58	761.24
1025.87	767.56
1026.16	762.59
1026.449	758.75
1026.739	754.46
1027.029	745.64
1027.319	744.51
1027.608	711.75
1027.898	731.18
1028.187	715.36
1028.477	731.63
1028.766	730.05
1029.055	730.28
1029.344	744.29
1029.634	715.59
1029.923	710.84
1030.212	699.32
1030.501	693.89
1030.79	697.74
1031.078	683.95
1031.367	685.76
1031.656	672.88
1031.945	665.65
1032.233	659.09
1032.522	669.71
1032.81	682.37
1033.099	669.04
1033.387	681.92
1033.675	655.25
1033.963	676.95
1034.251	681.24
1034.54	622.71
1034.828	647.34
1035.116	643.95
1035.403	665.42
1035.691	642.37
1035.979	639.21
1036.267	657.74
1036.554	645.76
1036.842	637.85
1037.129	618.42
1037.417	609.83
1037.704	602.6
1037.992	589.04
1038.279	610.96
1038.566	594.46
1038.853	594.46
1039.14	594.46
