Data from brown_tile_FLMS001491_016.txt Node
Date: Tue Feb 07 10:37:08 GMT 2017
User: dcchb
Spectrometer: FLMS00149
Trigger mode: 0
Integration Time (sec): 2.000000E-2
Scans to average: 10
Electric dark correction enabled: true
Nonlinearity correction enabled: false
Boxcar width: 0
XAxis mode: Wavelengths
Number of Pixels in Spectrum: 2048
>>>>>Begin Spectral Data<<<<<
341.393	-24.21
341.776	-24.21
342.16	-24.21
342.543	-73.25
342.927	-77.54
343.31	-74.6
343.693	-68.28
344.077	-71.66
344.46	-54.72
344.843	-51.78
345.226	-25.56
345.61	-22.63
345.993	-12.46
346.376	-0.25
346.759	4.04
347.142	21.21
347.525	63.02
347.908	56.47
348.291	80.87
348.674	65.96
349.057	90.36
349.44	127.43
349.823	143.92
350.206	166.52
350.588	176.92
350.971	190.93
351.354	215.79
351.737	234.32
352.119	228.67
352.502	249.46
352.884	269.34
353.267	248.33
353.65	290.59
354.032	265.28
354.414	301.43
354.797	305.95
355.179	313.64
355.562	303.01
355.944	300.53
356.326	312.73
356.709	314.99
357.091	329.68
357.473	333.07
357.855	324.03
358.238	337.82
358.62	328.78
359.002	357.7
359.384	338.49
359.766	322.68
360.148	312.28
360.53	341.43
360.912	333.3
361.294	320.19
361.676	320.19
362.057	323.58
362.439	321.32
362.821	331.04
363.203	302.34
363.584	301.88
363.966	323.81
364.348	302.79
364.729	310.47
365.111	301.66
365.493	298.04
365.874	299.62
366.256	283.81
366.637	297.82
367.019	303.01
367.4	324.71
367.781	306.18
368.163	294.43
368.544	303.47
368.925	293.52
369.306	312.51
369.688	288.55
370.069	310.92
370.45	296.69
370.831	306.63
371.212	318.61
371.593	311.38
371.974	310.47
372.355	298.27
372.736	305.5
373.117	287.87
373.498	300.98
373.879	303.92
374.26	285.61
374.641	314.77
375.021	301.66
375.402	290.36
375.783	313.86
376.163	290.36
376.544	308.66
376.925	321.32
377.305	320.42
377.686	314.54
378.066	327.19
378.447	322
378.827	316.8
379.208	324.93
379.588	296.01
379.968	295.33
380.349	323.35
380.729	304.6
381.109	310.02
381.489	345.27
381.87	325.84
382.25	322.45
382.63	329
383.01	318.83
383.39	329.91
383.77	350.47
384.15	333.97
384.53	317.7
384.91	319.29
385.29	334.65
385.67	340.98
386.049	335.78
386.429	366.06
386.809	347.76
387.189	336.23
387.568	333.07
387.948	349.12
388.328	326.97
388.707	350.47
389.087	348.89
389.466	361.32
389.846	336.91
390.225	366.52
390.605	346.86
390.984	364.26
391.363	331.94
391.743	345.05
392.122	337.82
392.501	349.12
392.881	363.35
393.26	357.93
393.639	367.65
394.018	378.49
394.397	359.51
394.776	386.63
395.155	373.3
395.534	354.31
395.913	384.14
396.292	347.08
396.671	388.89
397.05	375.33
397.429	367.19
397.808	362.9
398.186	379.62
398.565	387.31
398.944	389.57
399.323	377.14
399.701	383.46
400.08	394.99
400.458	393.41
400.837	394.09
401.215	398.38
401.594	369
401.972	402.22
402.351	402
402.729	397.02
403.107	390.47
403.486	411.49
403.864	405.61
404.242	408.77
404.62	419.85
404.999	421.43
405.377	403.8
405.755	402.9
406.133	409.23
406.511	429.11
406.889	412.84
407.267	415.33
407.645	417.36
408.023	411.94
408.401	437.02
408.779	441.54
409.156	434.99
409.534	431.37
409.912	446.97
410.29	428.44
410.667	444.25
411.045	452.84
411.422	439.28
411.8	458.26
412.178	447.42
412.555	445.38
412.933	441.77
413.31	478.15
413.687	457.81
414.065	452.62
414.442	478.6
414.819	489.9
415.197	463.24
415.574	473.41
415.951	476.34
416.328	484.03
416.705	488.55
417.082	470.69
417.46	503.01
417.837	499.17
418.214	490.81
418.591	498.26
418.967	513.18
419.344	516.12
419.721	502.56
420.098	518.38
420.475	512.95
420.852	518.15
421.228	530.81
421.605	521.09
421.982	529
422.358	532.84
422.735	549.11
423.111	531.94
423.488	535.32
423.864	535.78
424.241	553.18
424.617	570.8
424.994	571.03
425.37	539.39
425.746	555.89
426.123	578.71
426.499	561.54
426.875	566.96
427.251	565.83
427.627	597.02
428.003	574.19
428.379	595.89
428.756	578.94
429.132	594.98
429.507	596.34
429.883	598.37
430.259	614.64
430.635	614.42
431.011	631.82
431.387	625.72
431.763	633.85
432.138	627.98
432.514	639.95
432.89	663.23
433.265	647.64
433.641	676.79
434.016	657.58
434.392	677.92
434.767	685.15
435.143	659.62
435.518	660.52
435.894	670.91
436.269	699.16
436.644	693.51
437.02	704.59
437.395	700.52
437.77	691.48
438.145	728.54
438.52	710.24
438.895	727.64
439.271	709.11
439.646	761.31
440.021	735.77
440.395	748.2
440.77	762.66
441.145	735.32
441.52	775.32
441.895	772.61
442.27	775.32
442.645	770.57
443.019	778.93
443.394	763.57
443.769	764.02
444.143	782.55
444.518	792.95
444.892	776.9
445.267	831.81
445.641	782.32
446.016	816.45
446.39	794.08
446.764	811.48
447.139	813.96
447.513	809.44
447.887	812.61
448.262	848.76
448.636	824.13
449.01	814.87
449.384	838.37
449.758	878.59
450.132	856.9
450.506	851.25
450.88	860.74
451.254	848.76
451.628	888.99
452.002	886.95
452.376	903
452.75	891.25
453.123	909.1
453.497	909.33
453.871	914.98
454.244	903.68
454.618	946.61
454.992	936.22
455.365	937.57
455.739	966.73
456.112	975.99
456.486	969.44
456.859	985.93
457.232	996.1
457.606	1002.88
457.979	987.74
458.352	1022.32
458.725	1027.97
459.099	1045.14
459.472	1056.67
459.845	1057.8
460.218	1096.44
460.591	1100.06
460.964	1066.61
461.337	1090.11
461.71	1124.46
462.083	1118.81
462.456	1152.03
462.829	1126.04
463.201	1168.3
463.574	1147.51
463.947	1144.57
464.32	1177.79
464.692	1192.93
465.065	1205.59
465.438	1207.85
465.81	1210.34
466.183	1230.67
466.555	1213.05
466.928	1252.14
467.3	1263.22
467.672	1284.46
468.045	1306.6
468.417	1319.03
468.789	1343.21
469.161	1338.47
469.534	1351.8
469.906	1381.63
470.278	1404.91
470.65	1417.79
471.022	1406.71
471.394	1444.23
471.766	1438.13
472.138	1450.33
472.51	1477.9
472.882	1520.61
473.253	1519.03
473.625	1526.03
473.997	1541.4
474.369	1567.16
474.74	1597.9
475.112	1629.99
475.484	1646.48
475.855	1658.69
476.227	1663.43
476.598	1695.52
476.97	1728.74
477.341	1773.71
477.713	1771.9
478.084	1782.52
478.455	1837.66
478.827	1834.05
479.198	1921.96
479.569	1880.6
479.94	1918.57
480.311	1913.37
480.682	2003.31
481.053	2015.06
481.424	2039.69
481.795	2053.48
482.166	2060.93
482.537	2123.98
482.908	2152.68
483.279	2176.19
483.65	2212.57
484.021	2266.35
484.391	2273.36
484.762	2290.31
485.133	2326.69
485.503	2368.72
485.874	2388.61
486.244	2409.85
486.615	2441.26
486.985	2481.49
487.356	2473.35
487.726	2534.59
488.097	2599.68
488.467	2570.75
488.837	2637.42
489.207	2671.77
489.578	2730.52
489.948	2711.76
490.318	2761.71
490.688	2775.72
491.058	2812.33
491.428	2881.7
491.798	2884.87
492.168	2928.03
492.538	2929.61
492.908	2998.76
493.278	3006.67
493.648	2995.15
494.017	3070.4
494.387	3107.23
494.757	3113.79
495.126	3122.83
495.496	3107.46
495.866	3158.08
496.235	3204.18
496.605	3234.01
496.974	3240.79
497.344	3284.18
497.713	3280.11
498.082	3314.91
498.452	3339.09
498.821	3351.75
499.19	3365.53
499.559	3405.76
499.928	3430.62
500.298	3452.54
500.667	3493.67
501.036	3494.12
501.405	3503.61
501.774	3514.46
502.143	3544.06
502.512	3587
502.88	3612.31
503.249	3610.27
503.618	3661.57
503.987	3693.89
504.356	3695.69
504.724	3724.17
505.093	3748.12
505.462	3783.38
505.83	3759.87
506.199	3803.71
506.567	3873.54
506.936	3858.18
507.304	3900.43
507.672	3908.34
508.041	3956.25
508.409	3972.07
508.777	3972.07
509.145	4043.93
509.514	4017.49
509.882	4125.06
510.25	4142.01
510.618	4115.34
510.986	4177.72
511.354	4160.99
511.722	4243.93
512.09	4257.26
512.458	4262.46
512.826	4318.73
513.193	4321.67
513.561	4342
513.929	4362.79
514.297	4452.74
514.664	4443.47
515.032	4488.67
515.4	4517.37
515.767	4520.08
516.135	4548.55
516.502	4544.26
516.869	4618.16
517.237	4587.87
517.604	4633.3
517.972	4701.54
518.339	4732.95
518.706	4737.25
519.073	4755.33
519.44	4778.15
519.808	4868.77
520.175	4892.95
520.542	4928.43
520.909	4987.64
521.276	4946.51
521.643	5015.89
522.009	5110.12
522.376	5107.18
522.743	5144.02
523.11	5180.63
523.477	5252.26
523.843	5275.99
524.21	5336.1
524.577	5425.59
524.943	5444.8
525.31	5452.03
525.676	5508.08
526.043	5536.32
526.409	5594.4
526.776	5647.73
527.142	5635.98
527.508	5675.75
527.874	5762.98
528.241	5782.64
528.607	5806.6
528.973	5929.31
529.339	5868.07
529.705	5972.92
530.071	5980.83
530.437	5988.29
530.803	6080.49
531.169	6092.01
531.535	6075.29
531.901	6187.38
532.267	6182.41
532.632	6291.11
532.998	6294.27
533.364	6309.18
533.73	6325.91
534.095	6389.18
534.461	6437.77
534.826	6485.22
535.192	6510.31
535.557	6568.84
535.923	6530.87
536.288	6617.88
536.653	6582.62
537.019	6624.43
537.384	6685.9
537.749	6765.9
538.114	6788.49
538.479	6792.11
538.845	6830.98
539.21	6835.05
539.575	6885.44
539.94	6941.94
540.305	6961.6
540.67	6991.2
541.034	7007.47
541.399	7026.45
541.764	7115.72
542.129	7151.87
542.494	7184.19
542.858	7238.88
543.223	7277.97
543.587	7306.9
543.952	7298.31
544.316	7419.89
544.681	7386.67
545.045	7477.74
545.41	7539.89
545.774	7524.52
546.138	7563.16
546.503	7590.73
546.867	7635.48
547.231	7749.82
547.595	7811.97
547.959	7802.03
548.324	7851.52
548.688	7894.45
549.052	7876.37
549.416	7935.81
549.779	7987.78
550.143	8079.99
550.507	8134.45
550.871	8170.83
551.235	8157.05
551.599	8318.62
551.962	8330.37
552.326	8364.95
552.689	8394.55
553.053	8436.81
553.417	8442.91
553.78	8650.14
554.143	8616.24
554.507	8677.03
554.87	8749.35
555.234	8939.4
555.597	8878.61
555.96	8941.88
556.323	9004.48
556.686	9018.27
557.05	9138.94
557.413	9191.82
557.776	9246.96
558.139	9345.49
558.502	9420.06
558.865	9503.9
559.228	9555.2
559.59	9687.63
559.953	9654.86
560.316	9725.37
560.679	9882.65
561.041	9984.57
561.404	10084.45
561.767	10134.17
562.129	10120.38
562.492	10296.2
562.854	10336.65
563.217	10402.86
563.579	10522.18
563.941	10602.63
564.304	10744.1
564.666	10762.17
565.028	10853.47
565.39	10888.05
565.753	11061.38
566.115	11172.56
566.477	11267.02
566.839	11246.91
567.201	11464.08
567.563	11518.76
567.925	11653.9
568.287	11713.34
568.648	11737.29
569.01	11891.41
569.372	12007.57
569.734	12068.58
570.095	12153.1
570.457	12244.4
570.819	12286.65
571.18	12466.54
571.542	12522.13
571.903	12633.54
572.265	12709.69
572.626	12784.72
572.987	12867.88
573.349	12909.69
573.71	12990.82
574.071	13080.76
574.432	13210.7
574.794	13370.24
575.155	13414.76
575.516	13446.4
575.877	13566.39
576.238	13618.82
576.599	13706.96
576.96	13695.2
577.32	13784.92
577.681	13955.76
578.042	14027.17
578.403	14150.11
578.763	14111.47
579.124	14299.48
579.485	14364.11
579.845	14511
580.206	14513.04
580.566	14520.27
580.927	14632.58
581.287	14722.52
581.648	14714.61
582.008	14899.02
582.368	14849.75
582.728	14929.07
583.089	14952.8
583.449	15042.06
583.809	15167.48
584.169	15117.99
584.529	15198.89
584.889	15317.54
585.249	15342.17
585.609	15314.15
585.969	15433.01
586.329	15459.9
586.688	15551.88
587.048	15513.91
587.408	15609.73
587.768	15707.13
588.127	15685.66
588.487	15697.86
588.846	15948.93
589.206	15728.6
589.565	15846.79
589.925	15886.33
590.284	15936.95
590.643	16142.15
591.003	16141.47
591.362	16246.55
591.721	16186.44
592.08	16155.71
592.44	16251.3
592.799	16317.28
593.158	16206.55
593.517	16334.46
593.876	16476.6
594.235	16498.75
594.593	16503.49
594.952	16575.81
595.311	16560.21
595.67	16604.96
596.029	16833.88
596.387	16776.03
596.746	16823.03
597.104	16850.6
597.463	16864.39
597.822	16854.9
598.18	16861.45
598.538	16847.21
598.897	17102.57
599.255	16969.92
599.613	17189.58
599.972	17069.13
600.33	17243.13
600.688	17127.43
601.046	17261.66
601.404	17396.12
601.762	17284.26
602.12	17389.12
602.478	17448.1
602.836	17492.17
603.194	17457.59
603.552	17472.73
603.91	17470.25
604.268	17546.86
604.625	17549.57
604.983	17651.03
605.341	17563.13
605.698	17738.94
606.056	17627.53
606.413	17738.71
606.771	17788.43
607.128	17866.62
607.485	17882.21
607.843	17905.49
608.2	18011.02
608.557	18053.51
608.914	17998.59
609.272	18074.3
609.629	18112.49
609.986	18168.99
610.343	18093.06
610.7	18213.28
611.057	18152.49
611.414	18364.46
611.771	18299.83
612.127	18410.11
612.484	18441.07
612.841	18465.93
613.198	18395.87
613.554	18412.14
613.911	18575.3
614.267	18561.52
614.624	18490.56
614.98	18476.77
615.337	18664.57
615.693	18748.86
616.05	18610.33
616.406	18798.12
616.762	18729.87
617.118	18713.15
617.475	18710.67
617.831	18845.13
618.187	18815.07
618.543	18823.88
618.899	18969.19
619.255	18987.27
619.611	18934.84
619.967	18958.12
620.323	19049.19
620.678	18992.69
621.034	19073.59
621.39	19053.93
621.746	18982.52
622.101	19227.26
622.457	18954.28
622.812	19105.46
623.168	19139.36
623.523	19176.64
623.879	19215.51
624.234	19089.87
624.589	19209.86
624.945	19211.9
625.3	19186.13
625.655	19243.76
626.01	19260.71
626.365	19275.62
626.72	19196.98
627.075	19207.15
627.43	19189.3
627.785	19207.38
628.14	19266.36
628.495	19232.91
628.85	19262.97
629.205	19192.46
629.559	19287.83
629.914	19161.95
630.269	19176.19
630.623	19210.77
630.978	19173.48
631.332	19185.91
631.687	19174.38
632.041	19121.95
632.396	19286.92
632.75	19220.71
633.104	19258.67
633.459	19133.03
633.813	19072.01
634.167	19035.86
634.521	19041.96
634.875	19145.01
635.229	19046.25
635.583	18925.58
635.937	19001.05
636.291	19036.08
636.645	19004.22
636.999	18967.83
637.352	18945.69
637.706	18915.41
638.06	18952.24
638.413	18893.26
638.767	18840.83
639.121	18872.02
639.474	18913.15
639.828	18839.7
640.181	18941.62
640.534	18866.59
640.888	18765.81
641.241	18762.19
641.594	18777.33
641.947	18823.43
642.301	18766.26
642.654	18820.04
643.007	18790.44
643.36	18705.69
643.713	18793.83
644.066	18841.74
644.419	18691.01
644.771	18564.23
645.124	18412.59
645.477	18406.04
645.83	18226.16
646.182	18244.92
646.535	18199.72
646.888	18215.31
647.24	18250.34
647.593	18249.66
647.945	18139.61
648.298	18090.8
648.65	18082.89
649.002	18086.73
649.355	18106.39
649.707	18127.63
650.059	18239.94
650.411	18411.01
650.763	18411.69
651.115	18624.11
651.467	18531.46
651.819	18496.43
652.171	18470.22
652.523	18467.73
652.875	18335.53
653.227	18389.77
653.578	18555.87
653.93	18466.83
654.282	18503.21
654.633	18430.67
654.985	18562.2
655.337	18482.42
655.688	18450.79
656.039	18409.88
656.391	18281.98
656.742	18333.5
657.094	18364.46
657.445	18393.16
657.796	18383.22
658.147	18359.71
658.498	18289.43
658.849	18462.76
659.2	18327.4
659.551	18270.45
659.902	18437.68
660.253	18396.32
660.604	18340.73
660.955	18329.43
661.306	18428.87
661.656	18394.29
662.007	18366.49
662.358	18352.94
662.708	18423.44
663.059	18410.34
663.409	18200.85
663.76	18404.46
664.11	18422.76
664.461	18359.94
664.811	18414.18
665.161	18425.25
665.511	18311.35
665.862	18390.67
666.212	18511.8
666.562	18501.18
666.912	18446.72
667.262	18440.16
667.612	18309.32
667.962	18337.34
668.312	18394.29
668.662	18528.52
669.011	18390
669.361	18383.9
669.711	18432.93
670.06	18384.57
670.41	18368.08
670.76	18398.58
671.109	18420.5
671.459	18429.77
671.808	18505.93
672.157	18430.22
672.507	18372.14
672.856	18359.94
673.205	18401.07
673.554	18459.15
673.904	18421.86
674.253	18563.55
674.602	18478.13
674.951	18192.71
675.3	18134.41
675.649	18397.68
675.998	18377.12
676.346	18457.34
676.695	18535.76
677.044	18389.09
677.393	18407.4
677.741	18460.5
678.09	18466.38
678.438	18318.59
678.787	18396.1
679.135	18555.64
679.484	18344.57
679.832	18398.36
680.181	18278.59
680.529	18392.71
680.877	18295.31
681.225	18268.64
681.573	18407.17
681.922	18297.57
682.27	18235.42
682.618	18382.77
682.966	18264.12
683.314	18284.24
683.661	18355.2
684.009	18204.46
684.357	18145.26
684.705	18217.12
685.053	18206.72
685.4	18200.4
685.748	18058.71
686.095	18121.76
686.443	18114.52
686.79	17993.4
687.138	18134.41
687.485	18074.52
687.832	18086.73
688.18	18068.42
688.527	17984.58
688.874	17994.07
689.221	17941.19
689.568	18003.11
689.915	18016
690.262	17879.28
690.609	17852.61
690.956	17896.45
691.303	17784.81
691.65	17696.23
691.997	17569.45
692.344	17726.29
692.69	17660.98
693.037	17676.34
693.383	17540.98
693.73	17617.59
694.077	17492.85
694.423	17523.8
694.769	17561.09
695.116	17426.63
695.462	17458.27
695.808	17372.17
696.155	17444.48
696.501	17401.55
696.847	17330.36
697.193	17242.91
697.539	17298.27
697.885	17221.67
698.231	17187.77
698.577	17184.38
698.923	17007.43
699.269	17065.74
699.614	16972.86
699.96	17004.04
700.306	17089.69
700.651	16947.1
700.997	16894.89
701.342	16875.91
701.688	16889.02
702.033	16807.67
702.379	16849.25
702.724	16811.51
703.069	16802.24
703.415	16696.48
703.76	16752.3
704.105	16696.26
704.45	16642.47
704.795	16629.59
705.14	16562.47
705.485	16546.66
705.83	16538.29
706.175	16480.44
706.52	16495.36
706.865	16438.41
707.209	16425.3
707.554	16328.81
707.899	16348.02
708.243	16323.16
708.588	16380.78
708.932	16245.42
709.277	16207.68
709.621	16240.9
709.966	16136.5
710.31	16217.17
710.654	16080.45
710.998	16120.68
711.342	16139.66
711.687	16034.58
712.031	16037.74
712.375	16000.68
712.719	16048.36
713.063	15992.32
713.407	15994.13
713.75	15940.12
714.094	15940.57
714.438	15899.21
714.782	15927.24
715.125	15795.04
715.469	15887.01
715.812	15794.81
716.156	15767.69
716.499	15842.72
716.843	15807.69
717.186	15755.26
717.53	15880.23
717.873	15837.3
718.216	15735.6
718.559	15773.12
718.902	15639.56
719.246	15648.15
719.589	15666.68
719.932	15594.82
720.275	15647.7
720.617	15630.52
720.96	15545.1
721.303	15508.94
721.646	15567.25
721.989	15556.17
722.331	15566.34
722.674	15516.85
723.016	15432.33
723.359	15465.78
723.701	15514.37
724.044	15345.1
724.386	15310.98
724.729	15432.11
725.071	15431.88
725.413	15422.17
725.755	15361.15
726.097	15319.79
726.439	15335.84
726.782	15281.15
727.124	15428.49
727.465	15269.17
727.807	15285.9
728.149	15256.97
728.491	15199.12
728.833	15302.17
729.175	15218.55
729.516	15212.45
729.858	15136.3
730.199	15202.51
730.541	15136.3
730.882	15141.04
731.224	15182.17
731.565	15126.81
731.906	15103.08
732.248	15125
732.589	14971.78
732.93	15023.31
733.271	15047.71
733.612	15092.91
733.953	15083.87
734.294	14946.02
734.635	14970.65
734.976	14997.32
735.317	14928.17
735.658	14879.81
735.999	14913.93
736.339	14889.07
736.68	14898.11
737.021	14872.12
737.361	14858.34
737.702	14899.24
738.042	14796.19
738.383	14802.97
738.723	14813.59
739.063	14751.67
739.404	14791.45
739.744	14749.19
740.084	14715.97
740.424	14696.31
740.764	14662.64
741.104	14773.37
741.444	14625.12
741.784	14602.53
742.124	14626.71
742.464	14632.58
742.804	14605.01
743.143	14563.66
743.483	14587.84
743.823	14510.1
744.162	14524.56
744.502	14469.87
744.841	14446.6
745.181	14455.86
745.52	14376.09
745.86	14407.05
746.199	14464.45
746.538	14393.94
746.877	14384
747.216	14405.24
747.556	14320.95
747.895	14358.24
748.234	14266.04
748.573	14272.59
748.911	14275.53
749.25	14226.49
749.589	14133.16
749.928	14240.73
750.267	14219.48
750.605	14228.52
750.944	14148.3
751.283	14111.24
751.621	14163.89
751.96	13964.8
752.298	14030.11
752.636	13999.15
752.975	13899.04
753.313	13922.54
753.651	13904.24
753.989	13837.12
754.327	13916.44
754.666	13785.37
755.004	13790.12
755.342	13798.03
755.679	13751.47
756.017	13684.13
756.355	13682.32
756.693	13656.79
757.031	13687.07
757.368	13553.97
757.706	13539.28
758.044	13537.24
758.381	13605.26
758.719	13460.63
759.056	13525.04
759.394	13411.14
759.731	13301.09
760.068	13275.78
760.405	13225.61
760.743	13184.26
761.08	13165.28
761.417	13145.84
761.754	13149.68
762.091	13115.56
762.428	13072.62
762.765	13011.16
763.102	12980.87
763.438	12861.33
763.775	12903.59
764.112	12852.29
764.449	12868.11
764.785	12768.9
765.122	12715.12
765.458	12666.53
765.795	12634.44
766.131	12572.3
766.467	12586.76
766.804	12486.2
767.14	12329.59
767.476	12446.88
767.812	12395.35
768.148	12358.29
768.485	12400.78
768.821	12141.8
769.157	12149.03
769.492	12181.8
769.828	12133.44
770.164	12070.39
770.5	12074.68
770.836	12027.45
771.171	11938.64
771.507	11874.69
771.842	11827.91
772.178	11883.95
772.513	11682.6
772.849	11713.56
773.184	11727.8
773.519	11708.14
773.855	11633.34
774.19	11584.75
774.525	11442.83
774.86	11471.53
775.195	11535.49
775.53	11396.96
775.865	11385.89
776.2	11345.21
776.535	11220.92
776.87	11180.92
777.205	11149.74
777.539	11173.46
777.874	11022.51
778.209	11001.94
778.543	10996.52
778.878	10947.25
779.212	10980.25
779.547	10833.59
779.881	10877.43
780.215	10799.24
780.55	10803.08
780.884	10649.86
781.218	10668.39
781.552	10698.67
781.886	10615.74
782.22	10489.64
782.554	10484.22
782.888	10444.67
783.222	10381.85
783.556	10353.15
783.889	10272.92
784.223	10211.91
784.557	10239.93
784.89	10252.36
785.224	10182.53
785.557	10086.03
785.891	10068.18
786.224	10020.73
786.558	10053.49
786.891	9965.13
787.224	9938.92
787.557	9860.73
787.891	9812.82
788.224	9872.48
788.557	9873.38
788.89	9771.92
789.223	9775.76
789.556	9731.02
789.888	9619.38
790.221	9559.27
790.554	9549.78
790.887	9571.25
791.219	9478.59
791.552	9492.15
791.884	9425.03
792.217	9397.92
792.549	9377.35
792.882	9299.84
793.214	9202.22
793.546	9258.94
793.879	9187.98
794.211	9156.79
794.543	9200.63
794.875	9182.78
795.207	9083.57
795.539	9099.85
795.871	9032.5
796.203	8932.84
796.535	8910.92
796.867	8830.02
797.198	8834.77
797.53	8890.59
797.862	8800.19
798.193	8781.89
798.525	8661.66
798.856	8689.69
799.188	8667.09
799.519	8597.49
799.85	8580.99
800.182	8602.23
800.513	8564.27
800.844	8520.43
801.175	8553.19
801.506	8443.37
801.837	8461.67
802.168	8419.86
802.499	8411.5
802.83	8332.41
803.161	8296.48
803.491	8339.87
803.822	8275.01
804.153	8315.69
804.483	8204.95
804.814	8150.27
805.145	8210.38
805.475	8158.85
805.805	8050.61
806.136	8120.66
806.466	8056.71
806.796	8061.23
807.126	8055.58
807.457	8011.74
807.787	7992.76
808.117	7954.11
808.447	7910.05
808.777	7904.17
809.107	7890.39
809.436	7834.79
809.766	7802.03
810.096	7803.16
810.426	7757.51
810.755	7739.66
811.085	7720.9
811.414	7760.45
811.744	7684.97
812.073	7597.96
812.403	7622.37
812.732	7641.35
813.061	7583.28
813.39	7529.94
813.719	7469.61
814.049	7534.01
814.378	7437.97
814.707	7450.85
815.036	7451.75
815.365	7417.4
815.693	7305.09
816.022	7336.28
816.351	7279.78
816.68	7283.17
817.008	7331.76
817.337	7150.07
817.665	7126.56
817.994	7157.75
818.322	7208.82
818.651	7171.53
818.979	7098.09
819.307	7138.32
819.636	7078.88
819.964	7057.19
820.292	7063.51
820.62	7121.37
820.948	7042.95
821.276	7085.89
821.604	7044.08
821.932	7088.82
822.259	7039.79
822.587	6989.84
822.915	7028.71
823.243	6998.43
823.57	7013.8
823.898	6936.96
824.225	6936.29
824.553	6913.69
824.88	7014.7
825.207	6996.4
825.535	6939.45
825.862	6934.25
826.189	6913.24
826.516	6957.98
826.843	6984.19
827.17	6982.16
827.497	6932.9
827.824	6913.24
828.151	6908.49
828.478	6948.72
828.805	6907.81
829.131	6924.31
829.458	6906.46
829.785	6875.72
830.111	6901.49
830.438	6888.6
830.764	6888.83
831.09	6921.37
831.417	6782.39
831.743	6861.94
832.069	6876.63
832.395	6844.09
832.722	6839.57
833.048	6792.56
833.374	6824.2
833.7	6794.37
834.026	6794.14
834.351	6808.15
834.677	6765.22
835.003	6790.3
835.329	6758.66
835.654	6778.55
835.98	6755.95
836.306	6721.6
836.631	6702.39
836.956	6776.74
837.282	6741.26
837.607	6648.16
837.932	6632.57
838.258	6652
838.583	6637.54
838.908	6609.29
839.233	6605
839.558	6587.6
839.883	6623.3
840.208	6571.1
840.533	6545.34
840.858	6574.71
841.182	6527.03
841.507	6559.12
841.832	6466.02
842.156	6493.59
842.481	6499.46
842.805	6494.49
843.13	6427.83
843.454	6443.19
843.778	6376.08
844.103	6402.52
844.427	6360.71
844.751	6351.44
845.075	6377.21
845.399	6339.47
845.723	6321.84
846.047	6320.48
846.371	6201.84
846.695	6204.78
847.019	6219.02
847.343	6182.86
847.666	6142.41
847.99	6122.07
848.313	6114.84
848.637	6020.38
848.96	6063.77
849.284	6011.57
849.607	5930.21
849.931	5942.41
850.254	5915.52
850.577	5911.45
850.9	5799.14
851.223	5852.02
851.546	5800.72
851.869	5772.7
852.192	5807.73
852.515	5764.34
852.838	5719.82
853.161	5725.7
853.483	5707.62
853.806	5665.36
854.129	5647.96
854.451	5626.04
854.774	5612.93
855.096	5599.15
855.419	5550.79
855.741	5631.01
856.063	5561.86
856.385	5495.65
856.708	5524.12
857.03	5481.18
857.352	5512.82
857.674	5480.28
857.996	5458.81
858.318	5409.77
858.64	5398.7
858.961	5392.6
859.283	5363.9
859.605	5337.46
859.926	5335.42
860.248	5324.35
860.57	5364.12
860.891	5335.2
861.212	5258.59
861.534	5278.7
861.855	5233.28
862.176	5285.71
862.498	5282.77
862.819	5232.38
863.14	5245.71
863.461	5264.47
863.782	5178.82
864.103	5132.27
864.424	5133.4
864.745	5147.41
865.065	5161.19
865.386	5134.75
865.707	5171.14
866.027	5117.35
866.348	5117.35
866.668	5076.67
866.989	5059.95
867.309	5070.35
867.63	5096.79
867.95	5106.96
868.27	5003
868.59	5035.77
868.91	5065.83
869.23	5078.26
869.55	5032.61
869.87	5011.82
870.19	5008.88
870.51	5034.19
870.83	5013.4
871.15	4953.06
871.469	4958.03
871.789	4966.39
872.109	4949.9
872.428	4954.42
872.748	4906.74
873.067	4910.58
873.386	4890.01
873.706	4954.87
874.025	4905.61
874.344	4873.97
874.663	4914.87
874.982	4873.97
875.301	4887.07
875.62	4867.64
875.939	4806.63
876.258	4892.72
876.577	4800.3
876.896	4796
877.214	4804.14
877.533	4812.27
877.852	4804.59
878.17	4804.59
878.489	4775.67
878.807	4807.98
879.125	4744.25
879.444	4779.06
879.762	4742.9
880.08	4787.19
880.398	4669.91
880.716	4760.75
881.034	4716.68
881.352	4670.81
881.67	4646.86
881.988	4711.26
882.306	4718.94
882.624	4648.21
882.941	4643.92
883.259	4617.48
883.577	4614.09
883.894	4654.09
884.212	4577.93
884.529	4600.75
884.846	4567.99
885.164	4567.99
885.481	4595.11
885.798	4564.6
886.115	4540.64
886.432	4559.63
886.75	4519.17
887.067	4549.46
887.383	4525.73
887.7	4485.05
888.017	4504.71
888.334	4463.13
888.651	4460.87
888.967	4442.34
889.284	4444.83
889.6	4440.98
889.917	4396.24
890.233	4394.66
890.55	4349.91
890.866	4448.89
891.182	4388.33
891.498	4353.53
891.815	4355.79
892.131	4295.45
892.447	4302.46
892.763	4281.22
893.079	4272.63
893.395	4308.79
893.71	4286.19
894.026	4296.13
894.342	4231.27
894.657	4241.44
894.973	4262.91
895.289	4238.28
895.604	4208.45
895.92	4209.13
896.235	4147.89
896.55	4149.47
896.865	4175.68
897.181	4130.48
897.496	4092.75
897.811	4159.64
898.126	4088
898.441	4067.21
898.756	4074.89
899.071	4013.65
899.386	4047.32
899.7	4028.79
900.015	4007.32
900.33	3949.7
900.644	3989.02
900.959	4022.46
901.273	3980.66
901.588	3932.98
901.902	3935.91
902.216	3897.5
902.531	3890.49
902.845	3928.46
903.159	3902.24
903.473	3898.85
903.787	3825.41
904.101	3845.52
904.415	3812.98
904.729	3794.9
905.042	3793.77
905.356	3755.13
905.67	3799.42
905.984	3803.04
906.297	3722.36
906.611	3771.17
906.924	3727.78
907.237	3732.3
907.551	3681.23
907.864	3668.35
908.177	3672.87
908.491	3637.39
908.804	3621.8
909.117	3665.41
909.43	3611.63
909.743	3564.4
910.056	3572.08
910.368	3590.16
910.681	3559.2
910.994	3578.41
911.307	3549.71
911.619	3543.61
911.932	3522.37
912.244	3493.21
912.557	3502.25
912.869	3498.86
913.181	3462.71
913.494	3441.01
913.806	3418.86
914.118	3400.11
914.43	3387
914.742	3414.8
915.054	3374.57
915.366	3390.17
915.678	3350.84
915.99	3344.29
916.302	3332.31
916.613	3297.06
916.925	3306.33
917.236	3333.44
917.548	3299.09
917.859	3310.62
918.171	3267.91
918.482	3222.71
918.794	3226.55
919.105	3277.63
919.416	3201.02
919.727	3204.86
920.038	3175.26
920.349	3150.85
920.66	3166.44
920.971	3154.01
921.282	3139.55
921.593	3151.08
921.903	3116.5
922.214	3092.32
922.525	3086.22
922.835	3100
923.146	3102.72
923.456	3051.64
923.767	3089.61
924.077	3032.89
924.387	3008.48
924.697	3020.68
925.008	3014.13
925.318	2982.94
925.628	2983.85
925.938	2953.79
926.248	2970.74
926.558	2941.36
926.867	2942.49
927.177	2910.63
927.487	2905.21
927.796	2875.83
928.106	2853.23
928.416	2882.16
928.725	2847.81
929.034	2857.07
929.344	2858.88
929.653	2810.52
929.962	2834.25
930.271	2835.38
930.581	2816.62
930.89	2803.29
931.199	2778.88
931.508	2802.84
931.817	2758.09
932.125	2729.17
932.434	2741.37
932.743	2734.59
933.051	2691.88
933.36	2680.58
933.669	2682.39
933.977	2692.78
934.286	2656.63
934.594	2652.33
934.902	2633.57
935.21	2638.09
935.519	2633.12
935.827	2585.89
936.135	2614.82
936.443	2587.25
936.751	2587.7
937.059	2595.61
937.367	2564.2
937.674	2580.02
937.982	2561.71
938.29	2560.58
938.597	2528.27
938.905	2546.35
939.213	2519.23
939.52	2480.81
939.827	2490.53
940.135	2489.62
940.442	2492.79
940.749	2467.7
941.056	2474.03
941.363	2403.3
941.67	2422.96
941.977	2413.47
942.284	2410.53
942.591	2413.69
942.898	2396.07
943.205	2385.67
943.511	2353.36
943.818	2350.42
944.125	2367.37
944.431	2361.49
944.738	2335.28
945.044	2346.12
945.35	2324.2
945.657	2327.14
945.963	2309.29
946.269	2307.71
946.575	2285.79
946.881	2271.32
947.187	2259.57
947.493	2247.82
947.799	2257.31
948.105	2229.52
948.41	2243.53
948.716	2192.46
949.022	2185.68
949.327	2202.63
949.633	2191.78
949.938	2172.57
950.244	2204.89
950.549	2179.8
950.854	2170.99
951.16	2181.61
951.465	2154.72
951.77	2168.5
952.075	2133.93
952.38	2113.36
952.685	2117.2
952.99	2077.88
953.294	2101.84
953.599	2080.82
953.904	2081.95
954.209	2090.31
954.513	2048.73
954.818	2026.36
955.122	2053.03
955.426	2028.62
955.731	2027.04
956.035	2022.29
956.339	2002.86
956.643	2034.27
956.948	2007.15
957.252	2007.38
957.556	1981.16
957.86	1970.32
958.163	1967.15
958.467	1973.93
958.771	1962.63
959.075	1962.63
959.378	1926.93
959.682	1947.04
959.985	1926.93
960.289	1911.11
960.592	1947.04
960.896	1933.71
961.199	1908.17
961.502	1894.61
961.805	1893.93
962.108	1891.67
962.411	1893.48
962.714	1861.62
963.017	1866.59
963.32	1877.44
963.623	1852.8
963.926	1840.83
964.228	1823.88
964.531	1800.83
964.833	1806.48
965.136	1835.4
965.438	1817.33
965.741	1806.03
966.043	1803.31
966.345	1794.5
966.648	1765.8
966.95	1763.54
967.252	1737.78
967.554	1734.62
967.856	1724.45
968.158	1730.55
968.46	1769.87
968.761	1730.77
969.063	1742.07
969.365	1697.78
969.666	1717.67
969.968	1709.53
970.269	1712.24
970.571	1714.73
970.872	1680.15
971.174	1673.6
971.475	1675.41
971.776	1702.3
972.077	1686.93
972.378	1680.83
972.679	1634.73
972.98	1662.98
973.281	1641.06
973.582	1635.18
973.883	1634.96
974.183	1597.22
974.484	1614.62
974.785	1602.19
975.085	1607.61
975.386	1594.05
975.686	1607.84
975.986	1594.28
976.287	1565.58
976.587	1569.2
976.887	1590.89
977.187	1564.45
977.487	1560.16
977.787	1565.81
978.087	1541.17
978.387	1541.17
978.687	1553.15
978.987	1534.39
979.286	1521.51
979.586	1524.9
979.885	1492.81
980.185	1501.85
980.484	1518.58
980.784	1510.89
981.083	1481.74
981.382	1469.09
981.682	1484.68
981.981	1457.33
982.28	1451.01
982.579	1484
982.878	1444
983.177	1441.97
983.475	1443.78
983.774	1437
984.073	1421.86
984.372	1437
984.67	1416.21
984.969	1432.25
985.267	1395.64
985.566	1399.26
985.864	1417.11
986.162	1395.42
986.461	1401.52
986.759	1401.29
987.057	1364.46
987.355	1349.99
987.653	1372.82
987.951	1384.57
988.249	1395.19
988.547	1351.35
988.844	1345.93
989.142	1338.02
989.44	1337.11
989.737	1314.74
990.035	1325.13
990.332	1330.33
990.63	1304.12
990.927	1302.99
991.224	1327.85
991.521	1308.86
991.819	1279.71
992.116	1284.68
992.413	1283.33
992.71	1269.32
993.006	1284.01
993.303	1267.28
993.6	1277.45
993.897	1265.02
994.193	1268.64
994.49	1244.01
994.787	1245.59
995.083	1209.66
995.379	1243.1
995.676	1206.49
995.972	1230.9
996.268	1215.76
996.565	1217.34
996.861	1186.83
997.157	1184.35
997.453	1218.92
997.749	1191.58
998.044	1183.9
998.34	1206.49
998.636	1215.53
998.932	1156.33
999.227	1162.88
999.523	1183.9
999.818	1159.49
1000.114	1154.29
1000.409	1148.87
1000.704	1175.53
1001	1141.18
1001.295	1127.63
1001.59	1135.99
1001.885	1145.7
1002.18	1135.08
1002.475	1097.8
1002.77	1105.71
1003.065	1101.41
1003.359	1107.51
1003.654	1088.08
1003.949	1109.32
1004.243	1090.34
1004.538	1082.43
1004.832	1079.49
1005.127	1077.46
1005.421	1077.46
1005.715	1051.02
1006.009	1028.65
1006.304	1028.19
1006.598	1050.34
1006.892	1044.69
1007.186	1036.1
1007.48	1027.29
1007.773	1035.42
1008.067	1025.71
1008.361	1010.11
1008.655	1013.05
1008.948	1006.72
1009.242	1002.66
1009.535	1004.47
1009.829	968.31
1010.122	988.87
1010.415	985.48
1010.708	989.78
1011.001	986.84
1011.295	946.39
1011.588	979.61
1011.881	961.75
1012.173	971.25
1012.466	950.46
1012.759	963.11
1013.052	941.19
1013.344	938.48
1013.637	956.1
1013.93	938.25
1014.222	924.47
1014.514	926.95
1014.807	927.4
1015.099	914.52
1015.391	912.04
1015.683	920.85
1015.976	911.13
1016.268	902.09
1016.56	889.67
1016.851	859.61
1017.143	886.05
1017.435	906.39
1017.727	878.37
1018.018	872.04
1018.31	863.9
1018.602	841.53
1018.893	877.01
1019.185	854.19
1019.476	851.25
1019.767	855.32
1020.058	831.81
1020.35	825.03
1020.641	837.46
1020.932	831.81
1021.223	805.83
1021.514	845.6
1021.804	815.77
1022.095	808.76
1022.386	828.65
1022.677	784.13
1022.967	792.27
1023.258	785.49
1023.548	794.75
1023.839	779.16
1024.129	784.81
1024.419	777.35
1024.709	751.59
1025	747.75
1025.29	776.45
1025.58	744.58
1025.87	734.19
1026.16	747.52
1026.449	763.57
1026.739	763.34
1027.029	738.71
1027.319	739.39
1027.608	742.33
1027.898	718.14
1028.187	730.57
1028.477	731.03
1028.766	724.7
1029.055	723.57
1029.344	714.76
1029.634	688.99
1029.923	689.9
1030.212	716.79
1030.501	684.02
1030.79	674.98
1031.078	704.59
1031.367	693.74
1031.656	685.15
1031.945	670.46
1032.233	688.77
1032.522	681.54
1032.81	674.3
1033.099	663.68
1033.387	658.71
1033.675	658.71
1033.963	643.34
1034.251	649.67
1034.54	660.07
1034.828	644.47
1035.116	648.32
1035.403	627.07
1035.691	632.72
1035.979	630.46
1036.267	634.31
1036.554	627.53
1036.842	619.16
1037.129	630.46
1037.417	603.8
1037.704	619.39
1037.992	629.33
1038.279	601.31
1038.566	600.18
1038.853	600.18
1039.14	600.18
