Data from brown_tile_FLMS001491_052.txt Node
Date: Tue Feb 07 10:37:41 GMT 2017
User: dcchb
Spectrometer: FLMS00149
Trigger mode: 0
Integration Time (sec): 2.000000E-2
Scans to average: 10
Electric dark correction enabled: true
Nonlinearity correction enabled: false
Boxcar width: 0
XAxis mode: Wavelengths
Number of Pixels in Spectrum: 2048
>>>>>Begin Spectral Data<<<<<
341.393	-10.72
341.776	-10.72
342.16	-10.72
342.543	-66.31
342.927	-61.11
343.31	-71.74
343.693	-69.25
344.077	-56.59
344.46	-68.35
344.843	-56.82
345.226	-37.16
345.61	-10.49
345.993	-15.69
346.376	-5.52
346.759	6
347.142	12.56
347.525	29.96
347.908	67.02
348.291	77.87
348.674	96.4
349.057	101.82
349.44	113.57
349.823	128.49
350.206	166.68
350.588	179.33
350.971	182.04
351.354	196.51
351.737	241.93
352.119	232.89
352.502	258.43
352.884	268.14
353.267	285.32
353.65	277.41
354.032	258.43
354.414	315.37
354.797	291.87
355.179	320.57
355.562	279.89
355.944	281.7
356.326	313.57
356.709	322.38
357.091	323.96
357.473	340.23
357.855	307.24
358.238	325.77
358.62	342.27
359.002	312.44
359.384	328.25
359.766	325.32
360.148	330.06
360.53	325.99
360.912	327.58
361.294	303.17
361.676	298.65
362.057	297.29
362.439	317.86
362.821	304.75
363.203	298.65
363.584	306.56
363.966	295.71
364.348	288.03
364.729	296.16
365.111	317.18
365.493	287.58
365.874	311.31
366.256	283.06
366.637	296.39
367.019	276.73
367.4	311.53
367.781	289.84
368.163	297.97
368.544	285.54
368.925	290.51
369.306	293.68
369.688	286.22
370.069	304.3
370.45	305.43
370.831	287.13
371.212	316.05
371.593	315.37
371.974	293.68
372.355	293.23
372.736	284.41
373.117	291.87
373.498	299.78
373.879	285.54
374.26	313.79
374.641	283.96
375.021	292.1
375.402	307.01
375.783	296.84
376.163	325.09
376.544	301.81
376.925	293.45
377.305	302.04
377.686	311.53
378.066	296.62
378.447	312.44
378.827	309.5
379.208	286.45
379.588	337.97
379.968	326.67
380.349	331.42
380.729	306.11
381.109	324.64
381.489	304.53
381.87	325.09
382.25	306.11
382.63	316.5
383.01	317.18
383.39	321.47
383.77	332.1
384.15	338.65
384.53	338.42
384.91	324.64
385.29	338.65
385.67	322.6
386.049	367.12
386.429	347.91
386.809	346.11
387.189	305.2
387.568	329.61
387.948	328.25
388.328	332.55
388.707	328.71
389.087	346.33
389.466	334.58
389.846	330.97
390.225	351.98
390.605	331.19
390.984	358.54
391.363	352.66
391.743	347.91
392.122	357.63
392.501	346.78
392.881	347.69
393.26	363.96
393.639	355.15
394.018	350.63
394.397	344.75
394.776	350.4
395.155	349.27
395.534	356.05
395.913	371.19
396.292	346.78
396.671	347.69
397.05	354.69
397.429	356.05
397.808	368.03
398.186	365.09
398.565	373.9
398.944	369.83
399.323	368.7
399.701	365.77
400.08	370.96
400.458	384.98
400.837	389.5
401.215	381.13
401.594	386.33
401.972	372.09
402.351	368.93
402.729	355.82
403.107	388.37
403.486	405.31
403.864	404.86
404.242	389.04
404.62	382.49
404.999	384.3
405.377	396.95
405.755	381.13
406.133	390.85
406.511	413.9
406.889	404.18
407.267	405.77
407.645	413.9
408.023	411.19
408.401	420.91
408.779	398.99
409.156	405.54
409.534	435.37
409.912	441.92
410.29	432.66
410.667	424.75
411.045	435.37
411.422	413.45
411.8	418.65
412.178	424.97
412.555	389.72
412.933	443.05
413.31	435.82
413.687	429.04
414.065	444.64
414.442	453
414.819	429.95
415.197	435.14
415.574	448.7
415.951	429.72
416.328	467.91
416.705	439.44
417.082	444.64
417.46	467.01
417.837	473.11
418.214	454.13
418.591	468.59
418.967	460.68
419.344	472.43
419.721	472.43
420.098	470.17
420.475	468.59
420.852	476.05
421.228	469.49
421.605	507.01
421.982	479.44
422.358	485.99
422.735	474.92
423.111	509.72
423.488	487.57
423.864	505.42
424.241	502.71
424.617	517.18
424.994	509.49
425.37	504.75
425.746	521.47
426.123	503.16
426.499	514.69
426.875	514.01
427.251	522.15
427.627	527.57
428.003	519.44
428.379	545.42
428.756	527.12
429.132	533.67
429.507	536.16
429.883	541.36
430.259	545.65
430.635	537.97
431.011	554.91
431.387	554.91
431.763	560.11
432.138	570.06
432.514	569.15
432.89	597.17
433.265	554.01
433.641	594.46
434.016	584.97
434.392	588.36
434.767	595.59
435.143	617.96
435.518	592.88
435.894	618.87
436.269	608.7
436.644	638.75
437.02	629.94
437.395	616.61
437.77	629.72
438.145	637.4
438.52	648.7
438.895	663.39
439.271	641.24
439.646	691.63
440.021	672.88
440.395	655.93
440.77	668.13
441.145	669.71
441.52	673.56
441.895	678.3
442.27	680.56
442.645	666.55
443.019	677.17
443.394	687.34
443.769	688.7
444.143	699.32
444.518	692.99
444.892	727.79
445.267	705.19
445.641	708.81
446.016	714.01
446.39	706.1
446.764	723.95
447.139	735.93
447.513	743.16
447.887	700
448.262	729.37
448.636	733.67
449.01	742.93
449.384	751.52
449.758	738.41
450.132	739.54
450.506	750.62
450.88	768.47
451.254	748.13
451.628	745.64
452.002	767.34
452.376	791.29
452.75	804.17
453.123	783.38
453.497	802.59
453.871	803.5
454.244	823.16
454.618	797.62
454.992	819.09
455.365	808.24
455.739	832.87
456.112	845.53
456.486	826.32
456.859	836.94
457.232	878.52
457.606	860.9
457.979	867
458.352	874.23
458.725	898.86
459.099	898.18
459.472	894.79
459.845	920.1
460.218	944.74
460.591	954.68
460.964	912.65
461.337	939.31
461.71	955.36
462.083	945.19
462.456	968.46
462.829	950.38
463.201	970.95
463.574	982.02
463.947	999.65
464.32	1017.5
464.692	989.71
465.065	1033.09
465.438	1032.19
465.81	1032.42
466.183	1061.34
466.555	1070.83
466.928	1051.17
467.3	1076.03
467.672	1106.09
468.045	1120.78
468.417	1133.43
468.789	1127.78
469.161	1121.45
469.534	1133.88
469.906	1171.62
470.278	1170.94
470.65	1180.21
471.022	1206.2
471.394	1212.98
471.766	1229.25
472.138	1228.34
472.51	1267.21
472.882	1259.98
473.253	1258.17
473.625	1294.56
473.997	1341.56
474.369	1315.35
474.74	1362.35
475.112	1368.68
475.484	1376.36
475.855	1388.79
476.227	1404.61
476.598	1466.08
476.97	1427.66
477.341	1494.78
477.713	1500.43
478.084	1478.28
478.455	1526.87
478.827	1525.96
479.198	1597.83
479.569	1557.37
479.94	1616.36
480.311	1620.2
480.682	1655.9
481.053	1675.79
481.424	1721.44
481.795	1712.62
482.166	1741.55
482.537	1743.81
482.908	1817.25
483.279	1802.79
483.65	1823.13
484.021	1865.39
484.391	1885.73
484.762	1898.83
485.133	1911.26
485.503	1960.75
485.874	1962.34
486.244	1951.49
486.615	2006.63
486.985	2029.9
487.356	2084.59
487.726	2087.3
488.097	2125.95
488.467	2113.52
488.837	2168.43
489.207	2205.72
489.578	2222.67
489.948	2250.01
490.318	2292.04
490.688	2273.97
491.058	2322.78
491.428	2352.16
491.798	2370.23
492.168	2385.15
492.538	2398.26
492.908	2452.94
493.278	2448.42
493.648	2467.18
494.017	2513.51
494.387	2553.05
494.757	2568.2
495.126	2546.05
495.496	2582.21
495.866	2626.05
496.235	2639.61
496.605	2661.07
496.974	2664.92
497.344	2682.54
497.713	2694.75
498.082	2709.21
498.452	2725.71
498.821	2776.1
499.19	2766.83
499.559	2830.56
499.928	2870.79
500.298	2813.39
500.667	2864.01
501.036	2854.52
501.405	2888.41
501.774	2889.99
502.143	2975.19
502.512	2934.74
502.88	2945.59
503.249	2977
503.618	2988.52
503.987	3014.06
504.356	2996.43
504.724	3028.75
505.093	3070.1
505.462	3047.5
505.83	3109.2
506.199	3111.68
506.567	3157.56
506.936	3158.69
507.304	3195.07
507.672	3213.38
508.041	3202.3
508.409	3239.59
508.777	3251.34
509.145	3299.25
509.514	3337.21
509.882	3312.58
510.25	3311.45
510.618	3398
510.986	3390.09
511.354	3395.97
511.722	3442.97
512.09	3468.96
512.458	3521.16
512.826	3496.31
513.193	3543.76
513.561	3541.5
513.929	3563.2
514.297	3620.6
514.664	3609.98
515.032	3650.2
515.4	3726.58
515.767	3718
516.135	3765
516.502	3712.57
516.869	3811.78
517.237	3830.08
517.604	3798.67
517.972	3819.24
518.339	3865.11
518.706	3867.14
519.073	3940.36
519.44	3954.15
519.808	3983.3
520.175	3986.91
520.542	4008.84
520.909	4064.43
521.276	4115.27
521.643	4123.18
522.009	4177.87
522.376	4169.28
522.743	4220.58
523.11	4240.02
523.477	4299.68
523.843	4339.22
524.21	4366.79
524.577	4370.41
524.943	4406.34
525.31	4449.5
525.676	4514.36
526.043	4508.48
526.409	4531.53
526.776	4598.88
527.142	4619.44
527.508	4622.6
527.874	4675.03
528.241	4688.14
528.607	4754.58
528.973	4778.31
529.339	4788.02
529.705	4855.82
530.071	4876.16
530.437	4962.26
530.803	4936.95
531.169	4997.51
531.535	5007.45
531.901	4990.73
532.267	5063.04
532.632	5096.49
532.998	5129.94
533.364	5150.95
533.73	5210.84
534.095	5204.28
534.461	5267.33
534.826	5263.49
535.192	5290.84
535.557	5330.16
535.923	5346.88
536.288	5412.19
536.653	5438.4
537.019	5434.56
537.384	5479.08
537.749	5502.58
538.114	5513.65
538.479	5546.2
538.845	5564.73
539.21	5589.13
539.575	5626.87
539.94	5611.96
540.305	5710.03
540.67	5726.76
541.034	5721.33
541.399	5783.93
541.764	5822.12
542.129	5834.55
542.494	5880.65
542.858	5872.06
543.223	5915.9
543.587	5973.53
543.952	6003.59
544.316	6004.04
544.681	6069.57
545.045	6078.39
545.41	6119.06
545.774	6172.85
546.138	6229.34
546.503	6220.53
546.867	6234.09
547.231	6287.19
547.595	6343.46
547.959	6370.13
548.324	6394.99
548.688	6406.06
549.052	6482.44
549.416	6475.44
549.779	6531.71
550.143	6588.88
550.507	6651.03
550.871	6661.19
551.235	6686.28
551.599	6740.74
551.962	6856.22
552.326	6827.29
552.689	6884.92
553.053	6827.52
553.417	6926.05
553.78	7136.21
554.143	7088.08
554.507	7099.6
554.87	7172.82
555.234	7229.54
555.597	7213.72
555.96	7282.42
556.323	7371.23
556.686	7336.88
557.05	7501.85
557.413	7564.9
557.776	7633.6
558.139	7670.89
558.502	7710.66
558.865	7775.74
559.228	7850.32
559.59	7914.95
559.953	7939.81
560.316	8082.4
560.679	8152.91
561.041	8227.71
561.404	8242.17
561.767	8366.69
562.129	8372.34
562.492	8491.43
562.854	8554.7
563.217	8530.75
563.579	8687.36
563.941	8778.2
564.304	8816.62
564.666	8937.29
565.028	8940.46
565.39	9013.68
565.753	9150.62
566.115	9189.26
566.477	9295.7
566.839	9319.2
567.201	9395.81
567.563	9522.81
567.925	9615.92
568.287	9692.53
568.648	9733.2
569.01	9816.59
569.372	9975.01
569.734	9956.7
570.095	10149.24
570.457	10126.41
570.819	10255
571.18	10314.43
571.542	10332.06
571.903	10443.24
572.265	10530.47
572.626	10531.6
572.987	10642.33
573.349	10636.01
573.71	10821.31
574.071	10978.82
574.432	11008.88
574.794	11125.48
575.155	11129.55
575.516	11198.02
575.877	11231.47
576.238	11359.38
576.599	11401.41
576.96	11461.75
577.32	11590.1
577.681	11625.13
578.042	11754.62
578.403	11777.22
578.763	11859.48
579.124	11903.54
579.485	12012.24
579.845	12021.51
580.206	12118
580.566	12191.44
580.927	12217.21
581.287	12291.78
581.648	12313.25
582.008	12400.25
582.368	12378.33
582.728	12495.84
583.089	12614.48
583.449	12593.24
583.809	12642.05
584.169	12679.12
584.529	12738.55
584.889	12852.22
585.249	12834.59
585.609	12856.51
585.969	12905.78
586.329	13009.73
586.688	13059.67
587.048	13089.5
587.408	13044.53
587.768	13216.95
588.127	13197.07
588.487	13215.6
588.846	13365.43
589.206	13274.35
589.565	13287.01
589.925	13423.73
590.284	13447.91
590.643	13450.85
591.003	13534.01
591.362	13677.51
591.721	13607
592.08	13640.67
592.44	13757.05
592.799	13741.91
593.158	13727.9
593.517	13866.66
593.876	13856.03
594.235	13834.79
594.593	13842.02
594.952	13959.08
595.311	13888.35
595.67	13956.6
596.029	14090.38
596.387	14155.69
596.746	14207.66
597.104	14143.71
597.463	14269.36
597.822	14263.03
598.18	14257.61
598.538	14309.36
598.897	14347.55
599.255	14328.11
599.613	14469.8
599.972	14441.56
600.33	14531.95
600.688	14479.75
601.046	14593.42
601.404	14574.21
601.762	14611.72
602.12	14763.13
602.478	14703.47
602.836	14799.06
603.194	14698.05
603.552	14810.59
603.91	14695.33
604.268	14852.17
604.625	14845.84
604.983	14936.91
605.341	14860.3
605.698	14980.07
606.056	14983.01
606.413	15027.08
606.771	15089.67
607.128	15136.68
607.485	15057.58
607.843	15092.39
608.2	15217.13
608.557	15180.07
608.914	15260.06
609.272	15304.58
609.629	15300.29
609.986	15450.12
610.343	15301.65
610.7	15422.55
611.057	15504.58
611.414	15428.65
611.771	15487.18
612.127	15545.71
612.484	15623.9
612.841	15698.7
613.198	15504.13
613.554	15593.16
613.911	15699.38
614.267	15710.22
614.624	15662.99
614.98	15772.14
615.337	15829.77
615.693	15872.93
616.05	15806.94
616.406	15922.19
616.762	15879.71
617.118	15937.79
617.475	15886.94
617.831	15995.64
618.187	15963.1
618.543	15931.91
618.899	15997.45
619.255	16062.3
619.611	16072.25
619.967	16131.45
620.323	16168.06
620.678	16152.24
621.034	16098.46
621.39	16129.65
621.746	16128.52
622.101	16309.08
622.457	16174.62
622.812	16174.84
623.168	16213.49
623.523	16256.87
623.879	16331.22
624.234	16171.45
624.589	16265.69
624.945	16294.39
625.3	16272.92
625.655	16308.4
626.01	16454.61
626.365	16274.95
626.72	16340.71
627.075	16263.65
627.43	16391.11
627.785	16294.39
628.14	16342.52
628.495	16247.16
628.85	16326.7
629.205	16229.53
629.559	16348.17
629.914	16275.63
630.269	16267.27
630.623	16333.26
630.978	16201.28
631.332	16371
631.687	16342.52
632.041	16297.33
632.396	16313.37
632.75	16262.3
633.104	16249.19
633.459	16132.58
633.813	16189.53
634.167	16191.79
634.521	16208.97
634.875	16168.29
635.229	16150.44
635.583	16162.41
635.937	16130.32
636.291	16043.1
636.645	16048.07
636.999	16129.19
637.352	16080.61
637.706	16040.16
638.06	16156.54
638.413	16044.23
638.767	15978.46
639.121	16062.53
639.474	15971.68
639.828	15905.25
640.181	16089.65
640.534	16090.1
640.888	15952.7
641.241	15858.02
641.594	16016.2
641.947	16016.2
642.301	15851.24
642.654	15994.51
643.007	15944.57
643.36	15899.14
643.713	15855.76
644.066	15923.78
644.419	15890.1
644.771	15764.68
645.124	15640.17
645.477	15664.35
645.83	15458.7
646.182	15420.74
646.535	15358.37
646.888	15358.59
647.24	15368.76
647.593	15426.84
647.945	15366.28
648.298	15329.67
648.65	15270.01
649.002	15235.88
649.355	15364.24
649.707	15322.66
650.059	15378.93
650.411	15543.45
650.763	15532.83
651.115	15748.64
651.467	15632.03
651.819	15650.56
652.171	15713.39
652.523	15660.28
652.875	15652.14
653.227	15629.09
653.578	15669.09
653.93	15673.39
654.282	15575.99
654.633	15567.63
654.985	15664.12
655.337	15573.5
655.688	15628.87
656.039	15718.58
656.391	15563.79
656.742	15595.65
657.094	15597.01
657.445	15666.61
657.796	15613.73
658.147	15577.57
658.498	15524.92
658.849	15604.91
659.2	15547.51
659.551	15633.61
659.902	15607.17
660.253	15579.38
660.604	15642.65
660.955	15474.07
661.306	15669.32
661.656	15539.38
662.007	15583.45
662.358	15569.89
662.708	15686.04
663.059	15573.5
663.409	15464.13
663.76	15641.3
664.11	15652.6
664.461	15618.25
664.811	15608.53
665.161	15600.62
665.511	15513.17
665.862	15574.18
666.212	15690.11
666.562	15734.85
666.912	15626.83
667.262	15642.65
667.612	15748.64
667.962	15612.82
668.312	15669.55
668.662	15682.88
669.011	15660.96
669.361	15671.13
669.711	15644.69
670.06	15629.77
670.41	15646.72
670.76	15602.65
671.109	15682.65
671.459	15624.35
671.808	15590
672.157	15765.36
672.507	15601.98
672.856	15636.55
673.205	15713.16
673.554	15669.55
673.904	15674.97
674.253	15727.62
674.602	15794.06
674.951	15440.4
675.3	15445.14
675.649	15654.63
675.998	15715.42
676.346	15730.33
676.695	15690.11
677.044	15595.2
677.393	15682.43
677.741	15634.29
678.09	15582.32
678.438	15694.4
678.787	15686.27
679.135	15726.72
679.484	15641.98
679.832	15625.7
680.181	15498.93
680.529	15626.61
680.877	15551.36
681.225	15607.4
681.573	15680.39
681.922	15646.95
682.27	15599.72
682.618	15653.27
682.966	15578.7
683.314	15653.95
683.661	15493.51
684.009	15428.65
684.357	15508.87
684.705	15505.48
685.053	15514.97
685.4	15580.28
685.748	15427.52
686.095	15476.33
686.443	15449.44
686.79	15347.07
687.138	15435.43
687.485	15372.15
687.832	15310.68
688.18	15424.58
688.527	15324.02
688.874	15346.84
689.221	15259.61
689.568	15246.28
689.915	15280.4
690.262	15233.4
690.609	15242.44
690.956	15180.97
691.303	15164.47
691.65	15110.01
691.997	15065.27
692.344	15067.75
692.69	14987.08
693.037	15131.25
693.383	14998.15
693.73	15041.54
694.077	14959.28
694.423	14904.37
694.769	14929.9
695.116	14866.85
695.462	14916.8
695.808	14883.13
696.155	14888.32
696.501	14821.66
696.847	14772.39
697.193	14687.42
697.539	14789.12
697.885	14649.91
698.231	14646.52
698.577	14678.39
698.923	14555.22
699.269	14577.14
699.614	14571.72
699.96	14473.64
700.306	14544.15
700.651	14532.4
700.997	14343.03
701.342	14430.93
701.688	14385.74
702.033	14435.91
702.379	14445.62
702.724	14361.33
703.069	14419.63
703.415	14240.66
703.76	14223.48
704.105	14342.35
704.45	14253.09
704.795	14155.24
705.14	14084.05
705.485	14111.17
705.83	14155.69
706.175	14128.8
706.52	14072.07
706.865	14082.02
707.209	14018.97
707.554	14110.04
707.899	14075.01
708.243	13978.74
708.588	14082.69
708.932	13820.33
709.277	13877.28
709.621	13939.2
709.966	13804.06
710.31	13862.14
710.654	13795.24
710.998	13787.34
711.342	13855.81
711.687	13748.69
712.031	13800.89
712.375	13680.45
712.719	13699.2
713.063	13772.19
713.407	13774.91
713.75	13723.38
714.094	13715.02
714.438	13682.71
714.782	13665.98
715.125	13543.5
715.469	13580.79
715.812	13534.01
716.156	13492.2
716.499	13579.43
716.843	13545.08
717.186	13484.07
717.53	13504.63
717.873	13414.46
718.216	13571.3
718.559	13434.58
718.902	13379.89
719.246	13363.62
719.589	13311.64
719.932	13310.74
720.275	13365.2
720.617	13334.01
720.96	13369.49
721.303	13312.32
721.646	13360.68
721.989	13264.64
722.331	13369.49
722.674	13347.12
723.016	13320.45
723.359	13299.89
723.701	13268.03
724.044	13196.39
724.386	13151.87
724.729	13237.52
725.071	13175.37
725.413	13202.27
725.755	13211.31
726.097	13145.77
726.439	13105.77
726.782	13173.11
727.124	13272.77
727.465	13085.21
727.807	13080.46
728.149	13061.48
728.491	12931.09
728.833	13082.49
729.175	13034.59
729.516	12989.39
729.858	13139.67
730.199	13104.64
730.541	12938.54
730.882	13017.86
731.224	12995.27
731.565	12942.16
731.906	12984.64
732.248	12941.71
732.589	12966.57
732.93	12832.33
733.271	12852.44
733.612	12892.9
733.953	12885.21
734.294	12830.52
734.635	12760.7
734.976	12817.42
735.317	12731.32
735.658	12811.99
735.999	12764.31
736.339	12746.01
736.68	12723.41
737.021	12717.31
737.361	12695.39
737.702	12812.22
738.042	12683.18
738.383	12728.83
738.723	12671.21
739.063	12638.21
739.404	12637.99
739.744	12716.18
740.084	12596.63
740.424	12596.63
740.764	12668.72
741.104	12649.51
741.444	12561.83
741.784	12520.93
742.124	12490.19
742.464	12485.45
742.804	12504.66
743.143	12421.5
743.483	12487.93
743.823	12496.97
744.162	12399.58
744.502	12441.16
744.841	12370.2
745.181	12404.32
745.52	12402.06
745.86	12400.93
746.199	12339.92
746.538	12333.36
746.877	12347.6
747.216	12279.58
747.556	12292.01
747.895	12260.6
748.234	12282.97
748.573	12216.53
748.911	12244.1
749.25	12151.45
749.589	12126.81
749.928	12112.13
750.267	12137.89
750.605	12085.46
750.944	12087.04
751.283	12029.42
751.621	12102.86
751.96	12033.26
752.298	11999.36
752.636	11934.28
752.975	11895.41
753.313	11868.97
753.651	11925.24
753.989	11870.32
754.327	11791.23
754.666	11766.6
755.004	11771.12
755.342	11810.89
755.679	11783.32
756.017	11738.35
756.355	11736.77
756.693	11695.41
757.031	11719.14
757.368	11538.13
757.706	11565.7
758.044	11548.3
758.381	11528.41
758.719	11506.94
759.056	11489.09
759.394	11401.64
759.731	11370.22
760.068	11211.36
760.405	11317.12
760.743	11334.07
761.08	11299.94
761.417	11199.38
761.754	11166.61
762.091	11215.43
762.428	11111.7
762.765	10994.19
763.102	11073.06
763.438	11023.11
763.775	10875.55
764.112	10982.44
764.449	11040.29
764.785	10823.35
765.122	10879.16
765.458	10776.11
765.795	10764.59
766.131	10744.93
766.467	10848.43
766.804	10640.75
767.14	10628.1
767.476	10585.61
767.812	10559.17
768.148	10575.44
768.485	10487.31
768.821	10432.85
769.157	10400.31
769.492	10381.1
769.828	10373.87
770.164	10257.03
770.5	10302.91
770.836	10335
771.171	10214.1
771.507	10244.83
771.842	10096.36
772.178	10128.67
772.513	10106.53
772.849	10031.5
773.184	10032.63
773.519	9976.14
773.855	9968
774.19	9893.43
774.525	9844.84
774.86	9786.54
775.195	9873.31
775.53	9794.67
775.865	9702.92
776.2	9639.65
776.535	9550.16
776.87	9574.34
777.205	9478.3
777.539	9432.87
777.874	9445.08
778.209	9450.95
778.543	9384.97
778.878	9354.91
779.212	9333.44
779.547	9300
779.881	9284.18
780.215	9175.48
780.55	9234.23
780.884	9157.4
781.218	9064.3
781.552	9147.68
781.886	9058.42
782.22	9063.39
782.554	9051.19
782.888	8920.8
783.222	8802.38
783.556	8831.31
783.889	8759.9
784.223	8814.81
784.557	8726.45
784.89	8746.56
785.224	8697.53
785.557	8670.18
785.891	8618.88
786.224	8583.86
786.558	8560.13
786.891	8508.15
787.224	8442.39
787.557	8460.02
787.891	8419.34
788.224	8411.21
788.557	8371.21
788.89	8328.95
789.223	8335.5
789.556	8266.35
789.888	8268.84
790.221	8213.7
790.554	8186.58
790.887	8177.09
791.219	8079.69
791.552	8083.53
791.884	7999.69
792.217	8079.91
792.549	8042.4
792.882	7957.88
793.214	7919.92
793.546	7894.16
793.879	7890.99
794.211	7815.74
794.543	7851.45
794.875	7803.31
795.207	7797.89
795.539	7822.97
795.871	7792.46
796.203	7735.74
796.535	7628.85
796.867	7650.77
797.198	7592.47
797.53	7568.29
797.862	7462.98
798.193	7513.38
798.525	7523.55
798.856	7484
799.188	7366.26
799.519	7339.14
799.85	7291.01
800.182	7308.41
800.513	7353.83
800.844	7302.31
801.175	7297.34
801.506	7263.21
801.837	7189.09
802.168	7169.43
802.499	7185.02
802.83	7095.76
803.161	7171.24
803.491	7110.9
803.822	7105.93
804.153	7097.79
804.483	7023.45
804.814	7001.75
805.145	6962.2
805.475	6937.57
805.805	6907.74
806.136	6945.03
806.466	6902.09
806.796	6886.05
807.126	6783.9
807.457	6746.84
807.787	6796.78
808.117	6776.22
808.447	6733.96
808.777	6729.89
809.107	6751.59
809.436	6706.17
809.766	6627.07
810.096	6686.96
810.426	6600.86
810.755	6667.3
811.085	6653.06
811.414	6560.41
811.744	6518.83
812.073	6486.28
812.403	6506.4
812.732	6463.46
813.061	6417.81
813.39	6402.44
813.719	6404.48
814.049	6479.28
814.378	6413.97
814.707	6407.19
815.036	6381.88
815.365	6350.02
815.693	6289.68
816.022	6245.61
816.351	6266.63
816.68	6215.56
817.008	6207.87
817.337	6178.72
817.665	6170.13
817.994	6202.22
818.322	6154.32
818.651	6119.29
818.979	6094.43
819.307	6117.71
819.636	6089.91
819.964	6037.03
820.292	6075.9
820.62	6077.93
820.948	6032.06
821.276	6019.18
821.604	6012.62
821.932	6002.91
822.259	6003.13
822.587	5957.03
822.915	5905.73
823.243	6025.73
823.57	5992.29
823.898	5984.38
824.225	5927.65
824.553	5980.53
824.88	5981.44
825.207	5950.71
825.535	5957.26
825.862	5965.62
826.189	5927.65
826.516	5993.87
826.843	6002
827.17	6011.04
827.497	5962
827.824	6012.17
828.151	5959.97
828.478	6004.49
828.805	5922.23
829.131	5943.93
829.458	5897.37
829.785	5891.27
830.111	5928.33
830.438	5937.82
830.764	5912.97
831.09	5897.15
831.417	5905.28
831.743	5887.2
832.069	5925.4
832.395	5816.25
832.722	5876.13
833.048	5793.2
833.374	5885.85
833.7	5840.65
834.026	5805.17
834.351	5840.43
834.677	5810.14
835.003	5832.29
835.329	5803.14
835.654	5792.74
835.98	5710.94
836.306	5779.41
836.631	5783.7
836.956	5708.45
837.282	5747.77
837.607	5715.68
837.932	5765.17
838.258	5739.41
838.583	5663.03
838.908	5673.88
839.233	5698.51
839.558	5664.84
839.883	5653.76
840.208	5618.51
840.533	5635.91
840.858	5643.82
841.182	5625.74
841.507	5630.71
841.832	5592.3
842.156	5570.83
842.481	5540.77
842.805	5512.3
843.13	5532.64
843.454	5497.38
843.778	5479.53
844.103	5471.17
844.427	5459.19
844.751	5428.23
845.075	5406.09
845.399	5446.76
845.723	5405.63
846.047	5353.88
846.371	5377.61
846.695	5315.02
847.019	5265.53
847.343	5268.46
847.666	5245.86
847.99	5207.9
848.313	5175.36
848.637	5140.33
848.96	5207
849.284	5142.14
849.607	5099.88
849.931	5078.64
850.254	5110.05
850.577	5051.52
850.9	5013.78
851.223	5030.73
851.546	4995.25
851.869	4958.64
852.192	4966.1
852.515	4926.1
852.838	4952.54
853.161	4884.07
853.483	4911.41
853.806	4910.73
854.129	4861.92
854.451	4862.82
854.774	4812.43
855.096	4829.83
855.419	4803.39
855.741	4776.05
856.063	4740.12
856.385	4763.84
856.708	4787.35
857.03	4721.58
857.352	4702.6
857.674	4684.07
857.996	4682.94
858.318	4641.81
858.64	4677.07
858.961	4669.16
859.283	4630.74
859.605	4604.53
859.926	4602.49
860.248	4572.21
860.57	4572.21
860.891	4571.76
861.212	4575.15
861.534	4559.56
861.855	4548.71
862.176	4479.78
862.498	4512.1
862.819	4523.85
863.14	4461.48
863.461	4485.88
863.782	4434.59
864.103	4486.56
864.424	4445.21
864.745	4454.25
865.065	4416.73
865.386	4392.33
865.707	4368.83
866.027	4389.62
866.348	4396.85
866.668	4406.34
866.989	4390.97
867.309	4310.07
867.63	4366.11
867.95	4362.27
868.27	4329.5
868.59	4335.61
868.91	4318.43
869.23	4319.34
869.55	4279.56
869.87	4337.87
870.19	4299.22
870.51	4288.15
870.83	4292.9
871.15	4270.3
871.469	4289.51
871.789	4272.56
872.109	4259
872.428	4244.76
872.748	4223.07
873.067	4187.81
873.386	4186.91
873.706	4200.92
874.025	4199.56
874.344	4225.78
874.663	4191.88
874.982	4179.9
875.301	4197.76
875.62	4149.17
875.939	4165.67
876.258	4138.78
876.577	4132.67
876.896	4129.96
877.214	4146.01
877.533	4129.51
877.852	4085.44
878.17	4103.3
878.489	4137.65
878.807	4124.99
879.125	4078.44
879.444	4088.83
879.762	4086.35
880.08	4068.27
880.398	4088.83
880.716	4037.31
881.034	4068.95
881.352	4019.68
881.67	4050.42
881.988	4039.34
882.306	4073.92
882.624	3987.37
882.941	4014.94
883.259	3938.1
883.577	3963.41
883.894	3995.28
884.212	4021.04
884.529	3922.06
884.846	3943.53
885.164	3913.7
885.481	3881.83
885.798	3924.09
886.115	3908.05
886.432	3917.54
886.75	3886.13
887.067	3894.26
887.383	3863.3
887.7	3849.52
888.017	3852.23
888.334	3890.42
888.651	3801.84
888.967	3873.02
889.284	3806.35
889.6	3817.88
889.917	3764.32
890.233	3798.9
890.55	3738.56
890.866	3770.88
891.182	3733.36
891.498	3768.62
891.815	3715.28
892.131	3704.44
892.447	3686.13
892.763	3716.41
893.079	3670.09
893.395	3668.96
893.71	3693.82
894.026	3689.07
894.342	3650.43
894.657	3635.51
894.973	3630.99
895.289	3623.76
895.604	3635.29
895.92	3622.4
896.235	3613.37
896.55	3588.28
896.865	3549.86
897.181	3548.96
897.496	3525.46
897.811	3562.07
898.126	3536.08
898.441	3492.46
898.756	3496.31
899.071	3476.87
899.386	3466.7
899.7	3450.88
900.015	3461.51
900.33	3434.84
900.644	3433.94
900.959	3453.82
901.273	3428.51
901.588	3375.63
901.902	3369.08
902.216	3368.85
902.531	3360.94
902.845	3357.1
903.159	3320.94
903.473	3327.27
903.787	3316.65
904.101	3340.6
904.415	3328.63
904.729	3297.89
905.042	3282.75
905.356	3284.79
905.67	3267.84
905.984	3286.59
906.297	3236.43
906.611	3225.81
906.924	3207.5
907.237	3200.95
907.551	3219.03
907.864	3184.45
908.177	3167.73
908.491	3196.65
908.804	3182.42
909.117	3109.88
909.43	3126.37
909.743	3086.15
910.056	3079.14
910.368	3058.58
910.681	3070.78
910.994	3069.88
911.307	3038.92
911.619	2998.01
911.932	3048.86
912.244	3027.17
912.557	3020.16
912.869	3004.34
913.181	3004.12
913.494	2990.1
913.806	2972.48
914.118	2927.96
914.43	2950.33
914.742	2968.41
915.054	2929.77
915.366	2912.59
915.678	2887.28
915.99	2898.81
916.302	2855.65
916.613	2888.86
916.925	2856.78
917.236	2847.74
917.548	2839.15
917.859	2819.49
918.171	2798.25
918.482	2818.36
918.794	2767.06
919.105	2796.66
919.416	2802.54
919.727	2784.23
920.038	2759.6
920.349	2749.43
920.66	2746.72
920.971	2711.02
921.282	2698.14
921.593	2664.69
921.903	2671.92
922.214	2650
922.525	2665.37
922.835	2673.5
923.146	2619.04
923.456	2609.78
923.767	2601.87
924.077	2618.82
924.387	2596.44
924.697	2594.41
925.008	2569.55
925.318	2593.73
925.628	2587.86
925.938	2590.34
926.248	2512.83
926.558	2529.55
926.867	2568.42
927.177	2512.15
927.487	2520.51
927.796	2506.73
928.106	2462.89
928.416	2442.1
928.725	2470.57
929.034	2466.5
929.344	2445.26
929.653	2439.84
929.962	2436.22
930.271	2433.74
930.581	2380.63
930.89	2381.99
931.199	2404.13
931.508	2400.06
931.817	2378.6
932.125	2378.6
932.434	2362.1
932.743	2341.99
933.051	2335.21
933.36	2345.15
933.669	2316.45
933.977	2315.55
934.286	2308.54
934.594	2293.4
934.902	2282.78
935.21	2298.37
935.519	2261.99
935.827	2266.51
936.135	2265.6
936.443	2211.37
936.751	2219.05
937.059	2238.26
937.367	2228.54
937.674	2228.09
937.982	2213.4
938.29	2205.04
938.597	2201.65
938.905	2175.89
939.213	2153.06
939.52	2170.24
939.827	2160.3
940.135	2147.42
940.442	2126.17
940.749	2162.33
941.056	2134.53
941.363	2120.52
941.67	2117.13
941.977	2085.04
942.284	2081.43
942.591	2087.98
942.898	2083.69
943.205	2115.55
943.511	2078.94
943.818	2036.68
944.125	2055.89
944.431	2027.87
944.738	2041.88
945.044	2028.32
945.35	2006.85
945.657	2003.92
945.963	1993.97
946.269	2007.31
946.575	2015.89
946.881	1967.98
947.187	1955.78
947.493	1939.06
947.799	1941.32
948.105	1937.7
948.41	1964.14
948.716	1949.45
949.022	1938.16
949.327	1958.04
949.633	1861.1
949.938	1930.47
950.244	1921.66
950.549	1915.78
950.854	1889.57
951.16	1891.83
951.465	1862.68
951.77	1849.8
952.075	1890.25
952.38	1853.41
952.685	1866.97
952.99	1856.58
953.294	1885.28
953.599	1853.19
953.904	1829.01
954.209	1829.46
954.513	1817.71
954.818	1814.54
955.122	1817.93
955.426	1779.74
955.731	1778.39
956.035	1768.22
956.339	1765.5
956.643	1778.84
956.948	1768.22
957.252	1749.01
957.556	1736.13
957.86	1744.94
958.163	1741.1
958.467	1739.52
958.771	1733.41
959.075	1739.29
959.378	1695.22
959.682	1725.28
959.985	1676.92
960.289	1658.39
960.592	1653.19
960.896	1701.33
961.199	1673.3
961.502	1679.4
961.805	1684.15
962.108	1653.19
962.411	1639.63
962.714	1647.32
963.017	1656.58
963.32	1642.8
963.623	1632.85
963.926	1623.59
964.228	1638.05
964.531	1630.82
964.833	1610.48
965.136	1569.8
965.438	1610.03
965.741	1604.83
966.043	1581.78
966.345	1597.15
966.648	1592.18
966.95	1579.29
967.252	1525.96
967.554	1564.61
967.856	1542.01
968.158	1534.32
968.46	1535.68
968.761	1520.09
969.063	1527.09
969.365	1499.3
969.666	1498.84
969.968	1512.18
970.269	1478.73
970.571	1502.23
970.872	1504.27
971.174	1467.21
971.475	1481.9
971.776	1491.84
972.077	1473.76
972.378	1480.31
972.679	1451.84
972.98	1455.91
973.281	1454.78
973.582	1455
973.883	1453.2
974.183	1442.12
974.484	1467.66
974.785	1426.08
975.085	1410.03
975.386	1407.1
975.686	1415.46
975.986	1441.9
976.287	1412.75
976.587	1429.47
976.887	1388.57
977.187	1362.8
977.487	1398.96
977.787	1355.12
978.087	1392.86
978.387	1356.02
978.687	1360.54
978.987	1350.6
979.286	1354.67
979.586	1361.9
979.885	1306.31
980.185	1339.53
980.484	1294.78
980.784	1317.38
981.083	1327.32
981.382	1306.53
981.682	1299.3
981.981	1307.44
982.28	1271.51
982.579	1284.16
982.878	1270.6
983.177	1281.68
983.475	1257.72
983.774	1222.69
984.073	1243.48
984.372	1259.53
984.67	1278.29
984.969	1246.87
985.267	1294.78
985.566	1239.42
985.864	1251.39
986.162	1256.82
986.461	1233.77
986.759	1241.22
987.057	1210.94
987.355	1223.6
987.653	1216.14
987.951	1203.49
988.249	1219.3
988.547	1199.42
988.844	1172.53
989.142	1174.79
989.44	1205.97
989.737	1196.03
990.035	1182.47
990.332	1173.2
990.63	1164.39
990.927	1204.84
991.224	1168.23
991.521	1150.83
991.819	1152.87
992.116	1165.07
992.413	1136.59
992.71	1123.94
993.006	1116.03
993.303	1162.58
993.6	1128.23
993.897	1129.14
994.193	1112.41
994.49	1081.23
994.787	1141.34
995.083	1101.79
995.379	1099.31
995.676	1099.76
995.972	1094.34
996.268	1081.91
996.565	1073.77
996.861	1074.9
997.157	1070.16
997.453	1081.23
997.749	1065.18
998.044	1048.46
998.34	1045.3
998.636	1044.85
998.932	1055.47
999.227	1035.35
999.523	1041.91
999.818	1043.26
1000.114	1015.69
1000.409	1018.18
1000.704	1033.55
1001	1030.38
1001.295	1002.36
1001.59	1005.3
1001.885	992.87
1002.18	1000.1
1002.475	984.06
1002.77	976.82
1003.065	989.03
1003.359	998.29
1003.654	970.72
1003.949	999.87
1004.243	991.29
1004.538	968.01
1004.832	979.54
1005.127	974.79
1005.421	929.37
1005.715	950.38
1006.009	948.8
1006.304	952.19
1006.598	949.25
1006.892	949.71
1007.186	942.48
1007.48	924.4
1007.773	936.83
1008.067	916.71
1008.361	912.42
1008.655	888.01
1008.948	888.01
1009.242	909.48
1009.535	897.28
1009.829	900.44
1010.122	894.57
1010.415	889.37
1010.708	903.15
1011.001	853.66
1011.295	871.29
1011.588	889.14
1011.881	851.18
1012.173	880.56
1012.466	869.26
1012.759	832.65
1013.052	829.94
1013.344	854.12
1013.637	837.62
1013.93	844.17
1014.222	839.88
1014.514	842.82
1014.807	827.68
1015.099	827.45
1015.391	831.29
1015.683	814.57
1015.976	800.11
1016.268	830.39
1016.56	786.77
1016.851	829.03
1017.143	800.33
1017.435	824.96
1017.727	788.13
1018.018	797.62
1018.31	782.03
1018.602	772.54
1018.893	785.87
1019.185	786.77
1019.476	779.09
1019.767	771.63
1020.058	745.19
1020.35	744.97
1020.641	736.83
1020.932	741.8
1021.223	739.99
1021.514	752.65
1021.804	726.89
1022.095	724.4
1022.386	712.42
1022.677	734.35
1022.967	719.66
1023.258	714.01
1023.548	722.82
1023.839	739.09
1024.129	711.97
1024.419	693.22
1024.709	711.75
1025	681.24
1025.29	707.23
1025.58	721.01
1025.87	688.92
1026.16	683.5
1026.449	667
1026.739	680.79
1027.029	687.79
1027.319	688.92
1027.608	674.69
1027.898	677.85
1028.187	652.99
1028.477	671.3
1028.766	674.23
1029.055	628.81
1029.344	676.72
1029.634	669.49
1029.923	661.35
1030.212	656.16
1030.501	636.95
1030.79	640.11
1031.078	625.65
1031.367	628.13
1031.656	630.39
1031.945	622.48
1032.233	626.78
1032.522	630.17
1032.81	620.68
1033.099	611.86
1033.387	617.51
1033.675	607.12
1033.963	613.9
1034.251	590.62
1034.54	608.02
1034.828	614.8
1035.116	604.18
1035.403	587.23
1035.691	609.6
1035.979	590.39
1036.267	594.69
1036.554	583.16
1036.842	610.05
1037.129	572.54
1037.417	551.07
1037.704	581.35
1037.992	547.01
1038.279	585.65
1038.566	569.83
1038.853	569.83
1039.14	569.83
