Data from brown_tile_FLMS001491_088.txt Node
Date: Tue Feb 07 10:38:08 GMT 2017
User: dcchb
Spectrometer: FLMS00149
Trigger mode: 0
Integration Time (sec): 2.000000E-2
Scans to average: 10
Electric dark correction enabled: true
Nonlinearity correction enabled: false
Boxcar width: 0
XAxis mode: Wavelengths
Number of Pixels in Spectrum: 2048
>>>>>Begin Spectral Data<<<<<
341.393	-18.04
341.776	-18.04
342.16	-18.04
342.543	-62.1
342.927	-64.14
343.31	-74.98
343.693	-66.85
344.077	-49.9
344.46	-87.86
344.843	-52.16
345.226	-38.6
345.61	-28.88
345.993	-10.13
346.376	-20.75
346.759	7.73
347.142	35.52
347.525	60.61
347.908	35.52
348.291	90.21
348.674	98.8
349.057	101.73
349.44	125.91
349.823	137.67
350.206	152.35
350.588	174.28
350.971	181.28
351.354	212.47
351.737	214.05
352.119	229.19
352.502	231.9
352.884	258.57
353.267	268.06
353.65	252.92
354.032	275.74
354.414	272.8
354.797	293.37
355.179	302.63
355.562	325.68
355.944	316.64
356.326	310.99
356.709	323.42
357.091	316.87
357.473	337.66
357.855	307.6
358.238	311.67
358.62	301.28
359.002	313.48
359.384	314.61
359.766	312.58
360.148	329.75
360.53	311.22
360.912	304.44
361.294	314.16
361.676	310.77
362.057	322.75
362.439	294.05
362.821	315.51
363.203	328.62
363.584	316.87
363.966	305.8
364.348	315.51
364.729	287.94
365.111	298.57
365.493	297.89
365.874	278.23
366.256	294.5
366.637	300.15
367.019	295.18
367.4	312.12
367.781	276.65
368.163	300.83
368.544	312.58
368.925	287.49
369.306	287.27
369.688	274.39
370.069	305.8
370.45	279.81
370.831	310.09
371.212	289.3
371.593	303.09
371.974	278.45
372.355	301.5
372.736	275.97
373.117	305.8
373.498	283.2
373.879	303.54
374.26	295.18
374.641	298.57
375.021	297.66
375.402	292.01
375.783	305.35
376.163	285.01
376.544	288.85
376.925	331.11
377.305	322.97
377.686	309.86
378.066	313.71
378.447	315.51
378.827	303.76
379.208	308.51
379.588	314.61
379.968	315.97
380.349	320.71
380.729	313.48
381.109	305.8
381.489	318.68
381.87	302.41
382.25	318
382.63	320.03
383.01	301.28
383.39	308.96
383.77	324.78
384.15	328.4
384.53	323.42
384.91	327.49
385.29	313.48
385.67	333.37
386.049	319.13
386.429	320.49
386.809	333.59
387.189	351.67
387.568	320.49
387.948	339.69
388.328	339.24
388.707	349.19
389.087	348.96
389.466	339.47
389.846	325.01
390.225	332.24
390.605	335.63
390.984	340.6
391.363	353.48
391.743	336.98
392.122	332.24
392.501	330.66
392.881	334.72
393.26	347.83
393.639	336.98
394.018	336.53
394.397	338.56
394.776	350.32
395.155	341.73
395.534	360.03
395.913	345.12
396.292	356.19
396.671	342.63
397.05	350.77
397.429	357.1
397.808	360.26
398.186	357.55
398.565	347.83
398.944	360.26
399.323	341.28
399.701	365.91
400.08	350.54
400.458	355.74
400.837	341.73
401.215	360.94
401.594	360.71
401.972	366.81
402.351	367.26
402.729	377.89
403.107	381.05
403.486	360.71
403.864	371.56
404.242	383.76
404.62	375.85
404.999	373.82
405.377	382.41
405.755	390.31
406.133	380.82
406.511	384.89
406.889	385.57
407.267	402.97
407.645	400.71
408.023	414.72
408.401	399.58
408.779	404.33
409.156	392.35
409.534	400.71
409.912	390.31
410.29	400.48
410.667	390.77
411.045	414.72
411.422	422.63
411.8	431.67
412.178	421.05
412.555	429.18
412.933	427.6
413.31	422.4
413.687	430.54
414.065	414.27
414.442	449.75
414.819	431.22
415.197	413.59
415.574	464.89
415.951	455.85
416.328	441.16
416.705	438.45
417.082	437.77
417.46	456.08
417.837	443.42
418.214	444.1
418.591	466.24
418.967	457.66
419.344	431.44
419.721	469.86
420.098	470.09
420.475	464.44
420.852	467.37
421.228	472.12
421.605	462.63
421.982	480.71
422.358	483.65
422.735	464.21
423.111	489.97
423.488	475.51
423.864	470.54
424.241	494.49
424.617	478
424.994	510.31
425.37	488.84
425.746	501.05
426.123	493.81
426.499	514.15
426.875	488.62
427.251	503.98
427.627	499.24
428.003	508.73
428.379	513.02
428.756	506.47
429.132	522.97
429.507	544.21
429.883	542.63
430.259	524.32
430.635	537.88
431.011	542.4
431.387	538.79
431.763	575.62
432.138	559.35
432.514	548.95
432.89	565.45
433.265	577.43
433.641	579.01
434.016	576.07
434.392	581.72
434.767	566.58
435.143	600.25
435.518	596.64
435.894	586.47
436.269	588.95
436.644	604.55
437.02	590.54
437.395	611.1
437.77	600.93
438.145	593.7
438.52	602.29
438.895	600.03
439.271	612.46
439.646	639.8
440.021	641.83
440.395	664.88
440.77	630.99
441.145	645.9
441.52	652.91
441.895	635.51
442.27	635.96
442.645	647.26
443.019	650.87
443.394	658.1
443.769	647.48
444.143	656.52
444.518	679.12
444.892	666.24
445.267	694.04
445.641	674.6
446.016	670.08
446.39	687.26
446.764	692.45
447.139	675.5
447.513	678.89
447.887	688.61
448.262	692.45
448.636	679.57
449.01	701.94
449.384	711.66
449.758	710.98
450.132	720.7
450.506	707.14
450.88	706.92
451.254	717.54
451.628	736.52
452.002	735.84
452.376	734.94
452.75	739.46
453.123	762.06
453.497	751.44
453.871	753.69
454.244	768.38
454.618	770.42
454.992	767.93
455.365	795.28
455.739	817.65
456.112	788.27
456.486	793.69
456.859	826.24
457.232	830.75
457.606	827.14
457.979	824.43
458.352	846.12
458.725	846.8
459.099	884.31
459.472	826.46
459.845	862.62
460.218	852.22
460.591	887.25
460.964	875.05
461.337	888.83
461.71	904.43
462.083	918.44
462.456	953.46
462.829	928.15
463.201	931.09
463.574	958.21
463.947	920.24
464.32	966.57
464.692	948.72
465.065	962.95
465.438	991.88
465.81	973.35
466.183	990.98
466.555	989.17
466.928	1026.46
467.3	1020.58
467.672	1051.31
468.045	1066.91
468.417	1071.88
468.789	1078.43
469.161	1067.13
469.534	1075.95
469.906	1062.84
470.278	1104.42
470.65	1144.65
471.022	1150.75
471.394	1161.82
471.766	1127.24
472.138	1135.83
472.51	1192.33
472.882	1211.08
473.253	1229.84
473.625	1224.19
473.997	1265.09
474.369	1261.7
474.74	1264.42
475.112	1289.95
475.484	1305.77
475.855	1298.54
476.227	1306.22
476.598	1332.89
476.97	1357.07
477.341	1381.7
477.713	1401.36
478.084	1415.6
478.455	1423.28
478.827	1444.3
479.198	1454.92
479.569	1476.39
479.94	1496.95
480.311	1502.15
480.682	1556.61
481.053	1596.38
481.424	1593.9
481.795	1625.76
482.166	1628.93
482.537	1628.02
482.908	1691.52
483.279	1744.4
483.65	1728.81
484.021	1783.5
484.391	1753.89
484.762	1797.74
485.133	1785.76
485.503	1786.89
485.874	1868.92
486.244	1843.61
486.615	1878.19
486.985	1914.34
487.356	1951.4
487.726	1921.35
488.097	1964.74
488.467	1999.09
488.837	2042.47
489.207	2046.77
489.578	2058.97
489.948	2105.52
490.318	2114.11
490.688	2142.81
491.058	2140.1
491.428	2216.93
491.798	2223.49
492.168	2235.46
492.538	2271.85
492.908	2262.58
493.278	2289.93
493.648	2322.02
494.017	2313.65
494.387	2361.79
494.757	2349.59
495.126	2403.14
495.496	2419.87
495.866	2394.56
496.235	2423.48
496.605	2448.79
496.974	2468.9
497.344	2474.1
497.713	2509.35
498.082	2547.32
498.452	2555.23
498.821	2543.7
499.19	2560.43
499.559	2662.12
499.928	2588
500.298	2644.27
500.667	2667.54
501.036	2644.49
501.405	2700.08
501.774	2717.03
502.143	2740.54
502.512	2751.38
502.88	2748.67
503.249	2769.01
503.618	2784.6
503.987	2799.06
504.356	2839.06
504.724	2851.72
505.093	2852.85
505.462	2882.9
505.83	2924.03
506.199	2963.58
506.567	2936.91
506.936	2940.76
507.304	2994.54
507.672	2993.41
508.041	3032.96
508.409	3025.05
508.777	3082.22
509.145	3096.68
509.514	3091.49
509.882	3111.82
510.25	3103.69
510.618	3147.98
510.986	3152.28
511.354	3186.17
511.722	3196.34
512.09	3223.46
512.458	3246.74
512.826	3259.17
513.193	3318.6
513.561	3323.12
513.929	3339.39
514.297	3352.95
514.664	3395.66
515.032	3391.37
515.4	3443.12
515.767	3445.6
516.135	3434.75
516.502	3505.94
516.869	3525.37
517.237	3499.39
517.604	3568.99
517.972	3585.48
518.339	3565.15
518.706	3599.27
519.073	3601.3
519.44	3640.17
519.808	3707.74
520.175	3706.16
520.542	3780.96
520.909	3792.26
521.276	3811.47
521.643	3804.46
522.009	3891.92
522.376	3888.98
522.743	3876.1
523.11	3947.74
523.477	4007.62
523.843	4029.77
524.21	4096.88
524.577	4092.36
524.943	4077.68
525.31	4124.45
525.676	4196.99
526.043	4199.48
526.409	4252.59
526.776	4282.19
527.142	4281.74
527.508	4312.02
527.874	4396.08
528.241	4414.62
528.607	4450.55
528.973	4421.85
529.339	4439.47
529.705	4509.53
530.071	4546.36
530.437	4573.93
530.803	4612.8
531.169	4621.39
531.535	4640.37
531.901	4636.08
532.267	4666.81
532.632	4719.01
532.998	4771.67
533.364	4857.09
533.73	4799.01
534.095	4851.89
534.461	4845.11
534.826	4911.1
535.192	4952.45
535.557	4972.57
535.923	4963.75
536.288	5015.28
536.653	5066.58
537.019	5041.49
537.384	5091.66
537.749	5095.95
538.114	5166.01
538.479	5141.15
538.845	5212.11
539.21	5224.09
539.575	5230.87
539.94	5233.8
540.305	5316.51
540.67	5304.99
541.034	5380.01
541.399	5359.68
541.764	5363.29
542.129	5454.36
542.494	5431.76
542.858	5504.3
543.223	5560.12
543.587	5574.36
543.952	5600.35
544.316	5648.48
544.681	5655.71
545.045	5653.91
545.41	5766.44
545.774	5734.35
546.138	5758.54
546.503	5771.64
546.867	5812.54
547.231	5891.41
547.595	5923.05
547.959	5958.08
548.324	6022.48
548.688	6020.45
549.052	6018.87
549.416	6089.37
549.779	6115.36
550.143	6139.99
550.507	6259.76
550.871	6255.02
551.235	6259.99
551.599	6283.72
551.962	6414.34
552.326	6401.23
552.689	6454.79
553.053	6458.63
553.417	6502.7
553.78	6702.01
554.143	6640.32
554.507	6638.96
554.87	6688.45
555.234	6855.68
555.597	6786.08
555.96	6853.87
556.323	6871.5
556.686	6993.76
557.05	7082.34
557.413	7053.64
557.776	7117.82
558.139	7220.42
558.502	7252.06
558.865	7307.19
559.228	7380.64
559.59	7431.49
559.953	7549.67
560.316	7598.49
560.679	7678.03
561.041	7705.83
561.404	7798.71
561.767	7831.47
562.129	7903.34
562.492	8062.66
562.854	8083.67
563.217	8082.99
563.579	8087.97
563.941	8251.35
564.304	8310.56
564.666	8402.53
565.028	8408.86
565.39	8516.65
565.753	8612.25
566.115	8683.2
566.477	8760.26
566.839	8794.16
567.201	8903.31
567.563	8991.67
567.925	9103.53
568.287	9027.38
568.648	9135.17
569.01	9289.29
569.372	9370.42
569.734	9355.28
570.095	9487.48
570.457	9564.31
570.819	9587.36
571.18	9696.96
571.542	9798.43
571.903	9855.83
572.265	9961.36
572.626	10025.77
572.987	10129.49
573.349	10169.04
573.71	10244.97
574.071	10291.07
574.432	10419.43
574.794	10515.02
575.155	10586.66
575.516	10624.62
575.877	10654.68
576.238	10769.93
576.599	10801.57
576.96	10863.26
577.32	10943.26
577.681	11035.01
578.042	11176.7
578.403	11175.12
578.763	11259.86
579.124	11359.29
579.485	11400.65
579.845	11507.31
580.206	11451.27
580.566	11558.38
580.927	11629.57
581.287	11729
581.648	11753.18
582.008	11828.43
582.368	11852.61
582.728	11833.86
583.089	11926.73
583.449	12002.21
583.809	12034.75
584.169	12085.6
584.529	12166.5
584.889	12249.21
585.249	12180.51
585.609	12247.4
585.969	12348.19
586.329	12373.28
586.688	12416.44
587.048	12481.75
587.408	12447.4
587.768	12528.98
588.127	12592.25
588.487	12574.85
588.846	12745.02
589.206	12656.43
589.565	12805.81
589.925	12864.56
590.284	12795.64
590.643	12894.17
591.003	13037.44
591.362	13008.29
591.721	13030.66
592.08	13051.45
592.44	13122.86
592.799	13118.79
593.158	13129.87
593.517	13161.96
593.876	13232.01
594.235	13270.65
594.593	13250.99
594.952	13272.91
595.311	13315.17
595.67	13426.81
596.029	13421.61
596.387	13564.21
596.746	13514.04
597.104	13514.94
597.463	13581.83
597.822	13560.82
598.18	13607.14
598.538	13604.66
598.897	13758.78
599.255	13640.81
599.613	13934.37
599.972	13834.03
600.33	13878.55
600.688	13875.16
601.046	13935.5
601.404	14024.98
601.762	14000.13
602.12	14085.55
602.478	14069.05
602.836	14086
603.194	14056.62
603.552	14121.93
603.91	14059.11
604.268	14220.91
604.625	14116.06
604.983	14295.26
605.341	14261.59
605.698	14265.88
606.056	14342.49
606.413	14306.56
606.771	14492.09
607.128	14521.69
607.485	14422.26
607.843	14488.25
608.2	14623.16
608.557	14648.02
608.914	14535.71
609.272	14639.88
609.629	14692.09
609.986	14732.08
610.343	14711.97
610.7	14803.95
611.057	14780.44
611.414	14876.26
611.771	14844.4
612.127	14942.02
612.484	15001
612.841	14987.22
613.198	14912.87
613.554	15003.49
613.911	15022.92
614.267	15113.77
614.624	15074.45
614.98	15165.75
615.337	15200.77
615.693	15261.11
616.05	15200.55
616.406	15238.96
616.762	15231.51
617.118	15254.1
617.475	15261.56
617.831	15353.76
618.187	15393.54
618.543	15445.06
618.899	15408.68
619.255	15459.07
619.611	15435.57
619.967	15544.49
620.323	15490.03
620.678	15508.11
621.034	15522.35
621.39	15562.12
621.746	15418.17
622.101	15663.81
622.457	15560.99
622.812	15607.54
623.168	15523.7
623.523	15614.32
623.879	15607.09
624.234	15524.61
624.589	15653.87
624.945	15636.69
625.3	15657.26
625.655	15615.45
626.01	15643.02
626.365	15693.42
626.72	15667.43
627.075	15598.05
627.43	15653.19
627.785	15597.37
628.14	15596.47
628.495	15643.47
628.85	15659.52
629.205	15518.28
629.559	15740.87
629.914	15574.55
630.269	15591.95
630.623	15573.64
630.978	15566.86
631.332	15659.97
631.687	15639.63
632.041	15616.58
632.396	15667.88
632.75	15544.94
633.104	15533.19
633.459	15493.65
633.813	15604.83
634.167	15524.83
634.521	15530.71
634.875	15557.6
635.229	15581.33
635.583	15495.45
635.937	15558.96
636.291	15467.21
636.645	15375.91
636.999	15444.83
637.352	15516.47
637.706	15311.96
638.06	15473.76
638.413	15498.62
638.767	15350.83
639.121	15418.39
639.474	15264.5
639.828	15358.96
640.181	15437.38
640.534	15378.17
640.888	15365.06
641.241	15301.33
641.594	15367.32
641.947	15307.66
642.301	15287.55
642.654	15289.13
643.007	15286.65
643.36	15304.27
643.713	15269.92
644.066	15344.27
644.419	15242.13
644.771	15092.53
645.124	15086.43
645.477	15063.6
645.83	14919.65
646.182	14823.61
646.535	14778.64
646.888	14858.41
647.24	14759.2
647.593	14802.59
647.945	14826.55
648.298	14795.59
648.65	14658.64
649.002	14730.28
649.355	14719.88
649.707	14732.54
650.059	14907.67
650.411	14977.05
650.763	14969.14
651.115	15161.9
651.467	15115.13
651.819	15087.56
652.171	15094.33
652.523	15079.87
652.875	15041
653.227	15041.23
653.578	15120.55
653.93	15111.06
654.282	15041.45
654.633	14991.29
654.985	14954.23
655.337	14947.22
655.688	15043.26
656.039	15034.68
656.391	14977.73
656.742	15019.08
657.094	15014.79
657.445	15019.31
657.796	15063.6
658.147	15016.82
658.498	15083.94
658.849	15108.35
659.2	15095.24
659.551	15040.32
659.902	15143.6
660.253	15056.6
660.604	15023.15
660.955	14981.34
661.306	15003.72
661.656	15012.75
662.007	15061.79
662.358	15097.27
662.708	15036.26
663.059	15064.96
663.409	14976.6
663.76	15088.69
664.11	15022.02
664.461	15117.84
664.811	15064.73
665.161	15140.66
665.511	15064.51
665.862	15142.7
666.212	15089.59
666.562	15170.94
666.912	15069.02
667.262	15106.54
667.612	15138.85
667.962	15242.13
668.312	15090.95
668.662	15182.69
669.011	15055.69
669.361	15164.16
669.711	15162.36
670.06	15062.02
670.41	15113.09
670.76	15106.31
671.109	15191.28
671.459	15100.89
671.808	15091.4
672.157	15113.77
672.507	15043.04
672.856	15117.84
673.205	15114.9
673.554	15182.92
673.904	15095.92
674.253	15124.16
674.602	15148.34
674.951	14904.06
675.3	14949.93
675.649	15073.32
675.998	15163.03
676.346	15193.54
676.695	15211.39
677.044	15079.19
677.393	15200.32
677.741	15125.29
678.09	15114
678.438	15153.32
678.787	15129.36
679.135	15090.95
679.484	15034.9
679.832	15072.64
680.181	15032.19
680.529	15183.82
680.877	15052.3
681.225	15051.4
681.573	15184.28
681.922	14998.07
682.27	15044.62
682.618	15021.57
682.966	15031.06
683.314	15106.31
683.661	15138.85
684.009	15077.39
684.357	14911.74
684.705	14920.33
685.053	14994.68
685.4	15042.81
685.748	15010.95
686.095	14920.1
686.443	14789.94
686.79	14907.9
687.138	14902.48
687.485	14896.37
687.832	14796.26
688.18	14839.43
688.527	14830.16
688.874	14759.43
689.221	14804.85
689.568	14754.68
689.915	14745.64
690.262	14749.26
690.609	14661.13
690.956	14692.54
691.303	14672.65
691.65	14594.01
691.997	14490.51
692.344	14524.86
692.69	14482.15
693.037	14509.27
693.383	14448.02
693.73	14550.85
694.077	14421.36
694.423	14471.3
694.769	14444.18
695.116	14362.6
695.462	14338.42
695.808	14387.01
696.155	14386.56
696.501	14238.76
696.847	14279.44
697.193	14172.55
697.539	14249.16
697.885	14148.6
698.231	14144.98
698.577	14176.39
698.923	14205.77
699.269	14048.03
699.614	14069.5
699.96	14059.11
700.306	14003.74
700.651	13965.32
700.997	14046
701.342	13941.6
701.688	14018.2
702.033	13907.02
702.379	13942.05
702.724	13896.85
703.069	13942.95
703.415	13782.28
703.76	13739.57
704.105	13760.13
704.45	13811.43
704.795	13761.94
705.14	13710.19
705.485	13621.38
705.83	13622.96
706.175	13750.87
706.52	13584.77
706.865	13648.5
707.209	13615.96
707.554	13558.1
707.899	13614.83
708.243	13427.94
708.588	13523.53
708.932	13467.26
709.277	13466.13
709.621	13482.63
709.966	13492.34
710.31	13424.77
710.654	13323.53
710.998	13306.81
711.342	13369.41
711.687	13390.42
712.031	13295.51
712.375	13247.6
712.719	13223.65
713.063	13306.36
713.407	13322.18
713.75	13241.5
714.094	13274.5
714.438	13167.15
714.782	13268.85
715.125	13180.03
715.469	13244.44
715.812	13080.15
716.156	13068.17
716.499	13119.25
716.843	13173.48
717.186	13083.54
717.53	13126.02
717.873	13184.33
718.216	13142.52
718.559	13051
718.902	12954.73
719.246	13083.31
719.589	13033.15
719.932	12968.29
720.275	12917.89
720.617	12903.88
720.96	12919.7
721.303	12981.4
721.646	12966.03
721.989	12859.59
722.331	12945.69
722.674	12827.05
723.016	12886.26
723.359	12876.54
723.701	12947.05
724.044	12765.58
724.386	12794.28
724.729	12790.44
725.071	12753.83
725.413	12750.22
725.755	12748.18
726.097	12730.33
726.439	12655.75
726.782	12637.22
727.124	12758.58
727.465	12641.74
727.807	12671.57
728.149	12598.36
728.491	12669.09
728.833	12747.28
729.175	12688.97
729.516	12621.41
729.858	12587.96
730.199	12612.59
730.541	12624.57
730.882	12620.95
731.224	12618.92
731.565	12521.52
731.906	12551.8
732.248	12629.31
732.589	12549.99
732.93	12473.84
733.271	12457.12
733.612	12502.99
733.953	12515.19
734.294	12462.54
734.635	12422.77
734.976	12543.67
735.317	12432.94
735.658	12403.78
735.999	12394.29
736.339	12382.09
736.68	12453.5
737.021	12378.02
737.361	12332.83
737.702	12368.3
738.042	12352.94
738.383	12248.99
738.723	12302.32
739.063	12346.16
739.404	12287.4
739.744	12288.76
740.084	12285.6
740.424	12281.75
740.764	12230.46
741.104	12274.3
741.444	12155.65
741.784	12199.27
742.124	12164.69
742.464	12125.6
742.804	12166.95
743.143	12142.77
743.483	12127.18
743.823	12077.46
744.162	12137.8
744.502	12013.06
744.841	12019.84
745.181	12086.5
745.52	12025.04
745.86	12017.35
746.199	12013.51
746.538	11990.46
746.877	11998.6
747.216	11914.53
747.556	11942.1
747.895	11909.79
748.234	11834.08
748.573	11857.13
748.911	11832.27
749.25	11849.45
749.589	11794.08
749.928	11846.06
750.267	11777.36
750.605	11828.88
750.944	11664.37
751.283	11701.66
751.621	11732.84
751.96	11608.78
752.298	11711.82
752.636	11643.13
752.975	11583.01
753.313	11544.15
753.651	11554.54
753.989	11473.64
754.327	11518.84
754.666	11501.89
755.004	11458.95
755.342	11419.4
755.679	11478.38
756.017	11358.16
756.355	11413.08
756.693	11299.86
757.031	11298.28
757.368	11303.7
757.706	11284.72
758.044	11191.39
758.381	11211.27
758.719	11170.37
759.056	11236.36
759.394	11131.73
759.731	11060.54
760.068	11065.06
760.405	10972.18
760.743	11000.66
761.08	10999.3
761.417	10874.11
761.754	10922.47
762.091	10868.46
762.428	10809.25
762.765	10776.03
763.102	10823.03
763.438	10703.26
763.775	10682.93
764.112	10691.51
764.449	10628.92
764.785	10639.54
765.122	10492.87
765.458	10522.7
765.795	10471.18
766.131	10471.86
766.467	10428.69
766.804	10266.21
767.14	10383.72
767.476	10360.22
767.812	10257.63
768.148	10259.21
768.485	10231.64
768.821	10145.54
769.157	10171.3
769.492	10087.01
769.828	10123.62
770.164	10006.33
770.5	9983.96
770.836	10007.91
771.171	9942.15
771.507	9901.93
771.842	9837.07
772.178	9787.58
772.513	9793.68
772.849	9758.2
773.184	9721.37
773.519	9649.51
773.855	9710.3
774.19	9670.75
774.525	9611.32
774.86	9555.05
775.195	9560.69
775.53	9462.84
775.865	9366.12
776.2	9361.83
776.535	9335.84
776.87	9380.81
777.205	9274.83
777.539	9272.34
777.874	9286.8
778.209	9096.07
778.543	9130.42
778.878	9102.18
779.212	9050.43
779.547	9065.34
779.881	9072.8
780.215	8965.23
780.55	8985.12
780.884	8878.68
781.218	8856.98
781.552	8893.59
781.886	8826.93
782.22	8804.33
782.554	8760.49
782.888	8670.1
783.222	8584
783.556	8596.65
783.889	8552.36
784.223	8526.37
784.557	8485.69
784.89	8511.46
785.224	8452.02
785.557	8386.71
785.891	8334.06
786.224	8344.23
786.558	8367.05
786.891	8245.02
787.224	8270.33
787.557	8254.74
787.891	8159.83
788.224	8148.08
788.557	8181.07
788.89	8074.41
789.223	8124.12
789.556	8028.31
789.888	8020.62
790.221	7975.65
790.554	7900.85
790.887	7967.74
791.219	7877.8
791.552	7834.41
791.884	7883.22
792.217	7842.55
792.549	7768.43
792.882	7652.04
793.214	7670.35
793.546	7763.91
793.879	7570.92
794.211	7591.93
794.543	7675.77
794.875	7554.19
795.207	7544.25
795.539	7516.68
795.871	7479.39
796.203	7469
796.535	7422.45
796.867	7361.88
797.198	7358.27
797.53	7374.31
797.862	7346.52
798.193	7270.13
798.525	7266.74
798.856	7303.13
799.188	7125.5
799.519	7157.59
799.85	7055.45
800.182	7077.37
800.513	7078.95
800.844	7042.34
801.175	7098.16
801.506	7049.8
801.837	7004.38
802.168	6957.83
802.499	6930.48
802.83	6930.71
803.161	6902.91
803.491	6924.15
803.822	6878.05
804.153	6824.5
804.483	6832.63
804.814	6764.61
805.145	6778.4
805.475	6753.54
805.805	6746.31
806.136	6713.76
806.466	6714.67
806.796	6678.74
807.126	6617.5
807.457	6610.49
807.787	6558.74
808.117	6562.81
808.447	6573.65
808.777	6579.3
809.107	6521.68
809.436	6509.7
809.766	6485.52
810.096	6444.39
810.426	6438.74
810.755	6396.48
811.085	6358.75
811.414	6400.33
811.744	6330.27
812.073	6305.19
812.403	6356.26
812.732	6240.56
813.061	6246.21
813.39	6268.58
813.719	6256.38
814.049	6235.36
814.378	6190.84
814.707	6198.75
815.036	6185.19
815.365	6185.87
815.693	6116.04
816.022	6064.06
816.351	6068.81
816.68	6071.75
817.008	6026.55
817.337	6009.6
817.665	5969.83
817.994	5969.83
818.322	6008.47
818.651	5962.15
818.979	5983.16
819.307	5973.67
819.636	5916.27
819.964	5899.55
820.292	5932.54
820.62	5911.53
820.948	5878.08
821.276	5878.98
821.604	5864.07
821.932	5830.4
822.259	5853.67
822.587	5827.91
822.915	5831.08
823.243	5831.53
823.57	5855.03
823.898	5843.73
824.225	5784.07
824.553	5803.51
824.88	5826.78
825.207	5868.81
825.535	5751.76
825.862	5772.77
826.189	5752.66
826.516	5789.49
826.843	5849.83
827.17	5782.26
827.497	5733.45
827.824	5802.38
828.151	5805.54
828.478	5729.61
828.805	5746.56
829.131	5684.86
829.458	5714.92
829.785	5701.36
830.111	5689.38
830.438	5777.74
830.764	5784.07
831.09	5726.67
831.417	5700.01
831.743	5722.6
832.069	5730.51
832.395	5692.1
832.722	5645.09
833.048	5655.94
833.374	5672.89
833.7	5669.95
834.026	5674.92
834.351	5596.28
834.677	5653.91
835.003	5628.59
835.329	5639.22
835.654	5610.74
835.98	5612.55
836.306	5606
836.631	5600.8
836.956	5549.95
837.282	5540.46
837.607	5530.52
837.932	5489.84
838.258	5552.44
838.583	5595.6
838.908	5497.98
839.233	5500.91
839.558	5518.09
839.883	5467.47
840.208	5466.79
840.533	5472.44
840.858	5450.52
841.182	5436.96
841.507	5424.98
841.832	5434.02
842.156	5365.33
842.481	5386.79
842.805	5373.46
843.13	5320.13
843.454	5382.95
843.778	5341.14
844.103	5303.86
844.427	5283.75
844.751	5279
845.075	5250.75
845.399	5252.79
845.723	5195.16
846.047	5195.61
846.371	5185.67
846.695	5214.82
847.019	5169.62
847.343	5126.24
847.666	5138.66
847.99	5042.62
848.313	5072.68
848.637	5064.09
848.96	5006.92
849.284	4992
849.607	4988.84
849.931	4956.07
850.254	4971.89
850.577	4867.71
850.9	4957.2
851.223	4875.17
851.546	4869.52
851.869	4822.51
852.192	4807.15
852.515	4794.04
852.838	4758.34
853.161	4779.35
853.483	4734.83
853.806	4722.18
854.129	4705
854.451	4678.79
854.774	4661.16
855.096	4722.4
855.419	4642.63
855.741	4619.81
856.063	4647.38
856.385	4588.85
856.708	4594.27
857.03	4587.49
857.352	4535.52
857.674	4540.26
857.996	4525.12
858.318	4461.17
858.64	4450.77
858.961	4467.5
859.283	4494.39
859.605	4488.74
859.926	4461.62
860.248	4407.16
860.57	4428.63
860.891	4471.11
861.212	4448.74
861.534	4352.7
861.855	4393.83
862.176	4383.66
862.498	4390.66
862.819	4339.82
863.14	4321.51
863.461	4303.43
863.782	4311.34
864.103	4305.47
864.424	4327.39
864.745	4279.7
865.065	4306.14
865.386	4248.07
865.707	4212.59
866.027	4269.31
866.348	4244.9
866.668	4249.65
866.989	4237.9
867.309	4189.54
867.63	4242.42
867.95	4241.51
868.27	4184.57
868.59	4196.77
868.91	4187.28
869.23	4186.37
869.55	4184.57
869.87	4178.46
870.19	4179.82
870.51	4161.97
870.83	4171.01
871.15	4162.19
871.469	4080.61
871.789	4161.51
872.109	4131.91
872.428	4137.79
872.748	4100.27
873.067	4108.41
873.386	4059.82
873.706	4104.57
874.025	4064.57
874.344	4092.14
874.663	4032.25
874.982	4109.99
875.301	4041.74
875.62	4079.71
875.939	4015.98
876.258	4048.52
876.577	4015.53
876.896	4019.82
877.214	3999.49
877.533	4006.49
877.852	4015.76
878.17	3979.82
878.489	3982.08
878.807	3972.14
879.125	3965.81
879.444	3976.43
879.762	3966.94
880.08	3958.58
880.398	3918.13
880.716	3947.96
881.034	3957.23
881.352	3944.8
881.67	3918.81
881.988	3890.11
882.306	3876.55
882.624	3898.47
882.941	3891.69
883.259	3876.78
883.577	3884.01
883.894	3881.52
884.212	3851.24
884.529	3814.86
884.846	3849.21
885.164	3842.2
885.481	3823.44
885.798	3839.49
886.115	3796.33
886.432	3794.74
886.75	3769.89
887.067	3773.28
887.383	3720.4
887.7	3785.48
888.017	3747.51
888.334	3765.14
888.651	3694.86
888.967	3721.98
889.284	3694.63
889.6	3667.52
889.917	3684.92
890.233	3690.79
890.55	3683.34
890.866	3654.18
891.182	3633.39
891.498	3624.13
891.815	3614.41
892.131	3607.86
892.447	3610.57
892.763	3576.9
893.079	3601.3
893.395	3576.45
893.71	3573.96
894.026	3578.93
894.342	3546.62
894.657	3567.41
894.973	3490.8
895.289	3469.1
895.604	3540.74
895.92	3532.15
896.235	3493.96
896.55	3472.95
896.865	3469.1
897.181	3472.95
897.496	3451.93
897.811	3452.83
898.126	3475.43
898.441	3392.72
898.756	3378.71
899.071	3425.49
899.386	3396.34
899.7	3385.04
900.015	3396.11
900.33	3333.74
900.644	3340.07
900.959	3344.14
901.273	3348.43
901.588	3307.98
901.902	3311.82
902.216	3303.46
902.531	3301.88
902.845	3282.67
903.159	3235.89
903.473	3231.37
903.787	3208.09
904.101	3207.19
904.415	3226.17
904.729	3211.94
905.042	3165.16
905.356	3165.38
905.67	3155.44
905.984	3138.04
906.297	3155.44
906.611	3150.02
906.924	3118.38
907.237	3109.57
907.551	3091.03
907.864	3097.59
908.177	3094.65
908.491	3099.85
908.804	3031.38
909.117	3043.58
909.43	3032.73
909.743	3036.8
910.056	3014.2
910.368	2978.72
910.681	2973.3
910.994	2963.13
911.307	2995.67
911.619	2952.73
911.932	2933.98
912.244	2898.5
912.557	2922.68
912.869	2900.98
913.181	2921.32
913.494	2915.45
913.806	2866.41
914.118	2855.56
914.43	2844.26
914.742	2863.47
915.054	2875.22
915.366	2821.66
915.678	2802.68
915.99	2801.1
916.302	2788.22
916.613	2779.86
916.925	2764.49
917.236	2746.18
917.548	2746.18
917.859	2748.22
918.171	2686.98
918.482	2709.58
918.794	2679.75
919.105	2707.54
919.416	2681.1
919.727	2682.23
920.038	2709.12
920.349	2670.48
920.66	2658.5
920.971	2630.48
921.282	2629.13
921.593	2629.58
921.903	2611.05
922.214	2613.98
922.525	2571.27
922.835	2569.69
923.146	2572.4
923.456	2570.82
923.767	2552.97
924.077	2537.6
924.387	2521.11
924.697	2533.54
925.008	2531.73
925.318	2523.14
925.628	2512.52
925.938	2503.93
926.248	2457.6
926.558	2458.73
926.867	2465.97
927.177	2431.16
927.487	2460.09
927.796	2414.22
928.106	2387.78
928.416	2414.67
928.725	2367.21
929.034	2426.65
929.344	2409.24
929.653	2381.45
929.962	2380.77
930.271	2354.1
930.581	2348.68
930.89	2345.07
931.199	2336.48
931.508	2310.26
931.817	2312.52
932.125	2329.47
932.434	2275.69
932.743	2304.61
933.051	2286.31
933.36	2299.87
933.669	2272.3
933.977	2235.92
934.286	2270.04
934.594	2244.05
934.902	2231.62
935.21	2223.71
935.519	2199.53
935.827	2204.96
936.135	2202.7
936.443	2200.66
936.751	2189.36
937.059	2161.57
937.367	2156.82
937.674	2167.44
937.982	2149.36
938.29	2124.96
938.597	2146.2
938.905	2120.66
939.213	2084.06
939.52	2122.47
939.827	2117.95
940.135	2099.42
940.442	2047.45
940.749	2095.81
941.056	2052.64
941.363	2068.69
941.67	2051.06
941.977	2072.3
942.284	2062.36
942.591	2048.58
942.898	2008.13
943.205	2022.59
943.511	1968.35
943.818	2010.16
944.125	1993.44
944.431	2011.29
944.738	1980.78
945.044	1977.84
945.35	1979.43
945.657	1966.54
945.963	1953.89
946.269	1948.92
946.575	1966.77
946.881	1944.17
947.187	1953.66
947.493	1914.79
947.799	1886.55
948.105	1900.33
948.41	1892.2
948.716	1891.97
949.022	1897.62
949.327	1868.02
949.633	1851.52
949.938	1856.94
950.244	1871.18
950.549	1843.16
950.854	1840.45
951.16	1837.06
951.465	1846.1
951.77	1825.08
952.075	1845.87
952.38	1822.82
952.685	1823.5
952.99	1825.53
953.294	1791.63
953.599	1762.71
953.904	1831.41
954.209	1796.83
954.513	1793.44
954.818	1782.37
955.122	1730.84
955.426	1741.24
955.731	1751.18
956.035	1715.7
956.339	1697.62
956.643	1719.09
956.948	1723.61
957.252	1724.74
957.556	1697.17
957.86	1682.26
958.163	1666.44
958.467	1682.94
958.771	1675.93
959.075	1680.45
959.378	1649.72
959.682	1680.68
959.985	1640
960.289	1655.59
960.592	1646.78
960.896	1630.28
961.199	1629.6
961.502	1638.42
961.805	1624.63
962.108	1610.85
962.411	1611.53
962.714	1592.77
963.017	1587.8
963.32	1606.55
963.623	1579.66
963.926	1567.68
964.228	1569.72
964.531	1571.07
964.833	1555.48
965.136	1560.68
965.438	1527.46
965.741	1530.17
966.043	1509.61
966.345	1529.04
966.648	1522.26
966.95	1521.58
967.252	1499.89
967.554	1501.92
967.856	1514.58
968.158	1482.94
968.46	1491.08
968.761	1479.33
969.063	1482.04
969.365	1458.54
969.666	1447.46
969.968	1455.15
970.269	1479.55
970.571	1463.05
970.872	1476.16
971.174	1450.17
971.475	1426.67
971.776	1438.42
972.077	1412.43
972.378	1421.25
972.679	1403.62
972.98	1416.05
973.281	1381.7
973.582	1423.28
973.883	1410.17
974.183	1405.88
974.484	1389.38
974.785	1397.52
975.085	1376.05
975.386	1384.64
975.686	1369.72
975.986	1407.24
976.287	1369.95
976.587	1359.1
976.887	1360.46
977.187	1342.38
977.487	1313
977.787	1343.96
978.087	1336.05
978.387	1340.57
978.687	1322.49
978.987	1307.8
979.286	1315.04
979.586	1329.95
979.885	1281.82
980.185	1314.81
980.484	1298.31
980.784	1277.3
981.083	1289.73
981.382	1301.03
981.682	1284.3
981.981	1320.69
982.28	1264.64
982.579	1248.6
982.878	1265.09
983.177	1279.1
983.475	1260.12
983.774	1259.44
984.073	1237.3
984.372	1225.32
984.67	1228.71
984.969	1258.09
985.267	1238.43
985.566	1255.15
985.864	1210.41
986.162	1190.97
986.461	1218.99
986.759	1172.89
987.057	1180.35
987.355	1187.13
987.653	1186
987.951	1184.87
988.249	1194.59
988.547	1177.86
988.844	1201.82
989.142	1183.06
989.44	1171.76
989.737	1154.14
990.035	1167.02
990.332	1154.81
990.63	1138.54
990.927	1168.6
991.224	1120.69
991.521	1128.83
991.819	1129.73
992.116	1135.38
992.413	1111.43
992.71	1122.5
993.006	1089.96
993.303	1109.84
993.6	1110.07
993.897	1107.81
994.193	1076.4
994.49	1089.05
994.787	1077.08
995.083	1064.65
995.379	1078.88
995.676	1055.38
995.972	1092.89
996.268	1057.64
996.565	1040.47
996.861	1068.49
997.157	1055.38
997.453	1063.07
997.749	1039.11
998.044	1031.88
998.34	1037.08
998.636	1020.13
998.932	1031.88
999.227	1024.87
999.523	1024.2
999.818	1040.47
1000.114	1020.13
1000.409	1020.58
1000.704	995.5
1001	985.33
1001.295	1008.15
1001.59	993.69
1001.885	984.88
1002.18	997.76
1002.475	967.7
1002.77	990.52
1003.065	953.92
1003.359	973.8
1003.654	960.24
1003.949	952.56
1004.243	946.23
1004.538	961.6
1004.832	941.49
1005.127	956.63
1005.421	935.39
1005.715	930.41
1006.009	940.36
1006.304	921.83
1006.598	906.23
1006.892	920.02
1007.186	912.11
1007.48	916.85
1007.773	909.85
1008.067	887.48
1008.361	896.06
1008.655	918.21
1008.948	906.69
1009.242	879.57
1009.535	874.82
1009.829	885.44
1010.122	870.75
1010.415	880.25
1010.708	851.32
1011.001	870.75
1011.295	859.68
1011.588	875.27
1011.881	844.99
1012.173	836.18
1012.466	859.45
1012.759	856.29
1013.052	858.78
1013.344	810.64
1013.637	846.57
1013.93	823.52
1014.222	812.68
1014.514	829.85
1014.807	835.5
1015.099	798.67
1015.391	825.33
1015.683	833.01
1015.976	804.77
1016.268	764.54
1016.56	804.54
1016.851	798.89
1017.143	772
1017.435	788.95
1017.727	779.68
1018.018	759.12
1018.31	773.58
1018.602	756.86
1018.893	763.64
1019.185	779.46
1019.476	741.94
1019.767	751.44
1020.058	754.37
1020.35	750.98
1020.641	762.06
1020.932	739.23
1021.223	745.33
1021.514	717.54
1021.804	728.38
1022.095	732.23
1022.386	720.93
1022.677	721.83
1022.967	735.62
1023.258	690.42
1023.548	710.53
1023.839	714.6
1024.129	696.97
1024.419	715.96
1024.709	698.56
1025	720.02
1025.29	692.23
1025.58	666.92
1025.87	679.57
1026.16	669.63
1026.449	693.81
1026.739	679.57
1027.029	687.48
1027.319	668.05
1027.608	662.17
1027.898	650.42
1028.187	654.26
1028.477	661.95
1028.766	678.44
1029.055	657.65
1029.344	673.92
1029.634	662.17
1029.923	617.65
1030.212	623.3
1030.501	660.36
1030.79	620.37
1031.078	637.77
1031.367	641.61
1031.656	641.83
1031.945	603.64
1032.233	604.77
1032.522	627.6
1032.81	584.43
1033.099	599.57
1033.387	604.32
1033.675	595.96
1033.963	593.02
1034.251	598.67
1034.54	590.76
1034.828	595.28
1035.116	595.96
1035.403	591.67
1035.691	582.17
1035.979	594.15
1036.267	577.65
1036.554	575.17
1036.842	584.66
1037.129	566.13
1037.417	575.62
1037.704	556.86
1037.992	551.44
1038.279	572.23
1038.566	553.7
1038.853	553.7
1039.14	553.7
