Data from brown_tile_FLMS001491_009.txt Node
Date: Tue Feb 07 10:37:00 GMT 2017
User: dcchb
Spectrometer: FLMS00149
Trigger mode: 0
Integration Time (sec): 2.000000E-2
Scans to average: 10
Electric dark correction enabled: true
Nonlinearity correction enabled: false
Boxcar width: 0
XAxis mode: Wavelengths
Number of Pixels in Spectrum: 2048
>>>>>Begin Spectral Data<<<<<
341.393	-5.72
341.776	-5.72
342.16	-5.72
342.543	-56.57
342.927	-61.54
343.31	-68.77
343.693	-74.19
344.077	-57.24
344.46	-64.93
344.843	-77.81
345.226	-34.42
345.61	-31.03
345.993	-0.07
346.376	2.42
346.759	5.13
347.142	20.27
347.525	45.13
347.908	50.55
348.291	100.27
348.674	102.3
349.057	82.41
349.44	115.86
349.823	121.73
350.206	160.38
350.588	189.53
350.971	203.54
351.354	215.97
351.737	219.58
352.119	255.74
352.502	254.16
352.884	269.53
353.267	239.02
353.65	264.1
354.032	274.72
354.414	287.38
354.797	294.38
355.179	299.13
355.562	303.65
355.944	314.72
356.326	316.98
356.709	300.94
357.091	315.63
357.473	324.21
357.855	304.33
358.238	343.42
358.62	349.07
359.002	351.11
359.384	334.84
359.766	352.01
360.148	335.06
360.53	315.18
360.912	325.12
361.294	330.09
361.676	322.18
362.057	332.58
362.439	298.45
362.821	313.14
363.203	322.63
363.584	310.88
363.966	314.5
364.348	309.07
364.729	309.75
365.111	311.79
365.493	296.42
365.874	302.75
366.256	305.68
366.637	319.24
367.019	289.19
367.4	300.71
367.781	307.27
368.163	302.07
368.544	298.9
368.925	296.19
369.306	291.22
369.688	302.29
370.069	301.16
370.45	314.72
370.831	308.62
371.212	312.24
371.593	301.39
371.974	282.18
372.355	303.2
372.736	300.94
373.117	321.95
373.498	281.05
373.879	296.42
374.26	302.52
374.641	301.16
375.021	288.96
375.402	309.07
375.783	314.95
376.163	329.19
376.544	329.19
376.925	324.89
377.305	314.72
377.686	327.15
378.066	326.47
378.447	313.14
378.827	330.77
379.208	334.38
379.588	301.62
379.968	324.21
380.349	298.9
380.729	325.8
381.109	334.84
381.489	333.48
381.87	336.64
382.25	328.06
382.63	334.38
383.01	327.38
383.39	340.03
383.77	338.68
384.15	358.11
384.53	334.38
384.91	335.06
385.29	342.07
385.67	309.98
386.049	357.66
386.429	342.29
386.809	349.52
387.189	368.73
387.568	352.69
387.948	362.63
388.328	354.5
388.707	367.6
389.087	352.24
389.466	351.33
389.846	341.84
390.225	343.42
390.605	359.69
390.984	360.15
391.363	354.04
391.743	342.29
392.122	339.58
392.501	351.11
392.881	362.63
393.26	373.25
393.639	351.33
394.018	363.31
394.397	364.21
394.776	366.25
395.155	362.18
395.534	350.43
395.913	349.3
396.292	365.12
396.671	363.99
397.05	375.96
397.429	377.32
397.808	384.55
398.186	401.73
398.565	395.17
398.944	375.74
399.323	396.08
399.701	383.87
400.08	382.52
400.458	381.61
400.837	406.92
401.215	375.06
401.594	382.07
401.972	396.53
402.351	381.61
402.729	393.59
403.107	417.09
403.486	386.59
403.864	399.69
404.242	395.63
404.62	415.96
404.999	403.08
405.377	408.51
405.755	419.81
406.133	401.95
406.511	420.26
406.889	424.55
407.267	428.17
407.645	431.33
408.023	424.78
408.401	411.22
408.779	432.46
409.156	436.08
409.534	441.73
409.912	450.54
410.29	448.28
410.667	464.78
411.045	438.56
411.422	441.73
411.8	442.86
412.178	432.69
412.555	450.31
412.933	461.39
413.31	441.73
413.687	481.05
414.065	467.04
414.442	467.94
414.819	480.37
415.197	476.08
415.574	472.69
415.951	458
416.328	473.82
416.705	490.09
417.082	465.68
417.46	476.75
417.837	499.58
418.214	501.16
418.591	503.42
418.967	495.74
419.344	490.99
419.721	495.06
420.098	509.52
420.475	513.81
420.852	512.91
421.228	510.2
421.605	521.5
421.982	511.1
422.358	525.34
422.735	526.02
423.111	505
423.488	538.22
423.864	525.34
424.241	526.7
424.617	537.32
424.994	525.79
425.37	542.29
425.746	545.68
426.123	535.96
426.499	559.24
426.875	555.85
427.251	575.06
427.627	551.1
428.003	555.17
428.379	558.33
428.756	574.6
429.132	611.21
429.507	574.15
429.883	593.81
430.259	610.99
430.635	621.16
431.011	607.82
431.387	608.5
431.763	616.18
432.138	605.34
432.514	618.67
432.89	648.05
433.265	664.32
433.641	651.89
434.016	666.8
434.392	649.18
434.767	656.86
435.143	646.01
435.518	680.82
435.894	658.44
436.269	678.1
436.644	689.18
437.02	701.38
437.395	693.7
437.77	705.9
438.145	715.16
438.52	707.03
438.895	722.62
439.271	737.99
439.646	729.63
440.021	700.48
440.395	723.75
440.77	716.52
441.145	730.53
441.52	726.01
441.895	727.37
442.27	747.25
442.645	738.67
443.019	760.14
443.394	760.59
443.769	744.77
444.143	750.42
444.518	793.13
444.892	772.11
445.267	777.31
445.641	793.81
446.016	789.06
446.39	769.85
446.764	786.12
447.139	787.25
447.513	816.41
447.887	798.1
448.262	813.02
448.636	804.65
449.01	801.72
449.384	823.18
449.758	829.29
450.132	825.67
450.506	831.55
450.88	835.16
451.254	853.47
451.628	835.84
452.002	846.23
452.376	862.05
452.75	860.47
453.123	875.16
453.497	878.32
453.871	859.79
454.244	900.47
454.618	890.98
454.992	907.93
455.365	920.58
455.739	941.83
456.112	940.24
456.486	946.35
456.859	942.28
457.232	951.32
457.606	960.58
457.979	976.85
458.352	997.87
458.725	997.64
459.099	977.53
459.472	1024.31
459.845	1017.08
460.218	1036.96
460.591	1027.25
460.964	1061.37
461.337	1076.06
461.71	1062.05
462.083	1082.16
462.456	1106.34
462.829	1086.91
463.201	1122.39
463.574	1102.05
463.947	1116.96
464.32	1136.4
464.692	1143.85
465.065	1166.45
465.438	1153.12
465.81	1171.2
466.183	1198.77
466.555	1223.85
466.928	1212.55
467.3	1217.75
467.672	1226.79
468.045	1246.45
468.417	1269.27
468.789	1259.78
469.161	1294.81
469.534	1278.31
469.906	1296.62
470.278	1315.15
470.65	1357.63
471.022	1335.94
471.394	1389.72
471.766	1396.28
472.138	1402.15
472.51	1433.11
472.882	1420.23
473.253	1447.35
473.625	1481.92
473.997	1526.89
474.369	1501.58
474.74	1540.45
475.112	1569.83
475.484	1566.89
475.855	1597.85
476.227	1597.18
476.598	1627.91
476.97	1649.6
477.341	1666.33
477.713	1729.15
478.084	1726.66
478.455	1743.61
478.827	1759.66
479.198	1795.59
479.569	1812.76
479.94	1848.24
480.311	1861.8
480.682	1895.02
481.053	1927.11
481.424	1992.19
481.795	1964.62
482.166	1979.09
482.537	2007.56
482.908	2083.72
483.279	2089.82
483.65	2100.89
484.021	2151.29
484.391	2178.63
484.762	2186.54
485.133	2198.97
485.503	2240.77
485.874	2295.01
486.244	2283.94
486.615	2351.51
486.985	2356.7
487.356	2374.78
487.726	2414.78
488.097	2466.31
488.467	2462.92
488.837	2515.57
489.207	2560.99
489.578	2565.06
489.948	2551.27
490.318	2603.7
490.688	2648.9
491.058	2680.76
491.428	2741.55
491.798	2708.78
492.168	2802.34
492.538	2798.73
492.908	2811.38
493.278	2839.85
493.648	2834.43
494.017	2919.17
494.387	2932.73
494.757	2923.69
495.126	2971.83
495.496	2987.87
495.866	3005.5
496.235	3045.05
496.605	3053.41
496.974	3087.31
497.344	3122.79
497.713	3065.16
498.082	3107.64
498.452	3150.81
498.821	3163.01
499.19	3204.14
499.559	3256.34
499.928	3277.36
500.298	3320.07
500.667	3317.58
501.036	3294.31
501.405	3355.77
501.774	3353.06
502.143	3376.79
502.512	3404.36
502.88	3437.35
503.249	3473.06
503.618	3440.74
503.987	3464.25
504.356	3508.99
504.724	3542.89
505.093	3572.26
505.462	3612.04
505.83	3592.6
506.199	3640.06
506.567	3657.23
506.936	3656.1
507.304	3732.03
507.672	3719.83
508.041	3760.28
508.409	3789.89
508.777	3835.53
509.145	3798.93
509.514	3852.48
509.882	3911.92
510.25	3843.67
510.618	3889.32
510.986	3898.81
511.354	3980.84
511.722	4015.87
512.09	4036.66
512.458	4019.03
512.826	4097.9
513.193	4096.09
513.561	4129.54
513.929	4134.51
514.297	4200.95
514.664	4244.34
515.032	4246.37
515.4	4273.04
515.767	4311
516.135	4331.34
516.502	4314.84
516.869	4433.71
517.237	4395.97
517.604	4442.52
517.972	4471.68
518.339	4518.68
518.706	4436.2
519.073	4562.07
519.44	4578.11
519.808	4638
520.175	4652.91
520.542	4664.89
520.909	4741.73
521.276	4717.32
521.643	4784.66
522.009	4822.85
522.376	4883.87
522.743	4862.17
523.11	4927.94
523.477	4944.66
523.843	4989.85
524.21	5026.24
524.577	5110.08
524.943	5119.57
525.31	5164.54
525.676	5246.12
526.043	5242.73
526.409	5293.12
526.776	5376.51
527.142	5407.7
527.508	5402.05
527.874	5442.72
528.241	5503.97
528.607	5503.06
528.973	5593.23
529.339	5514.59
529.705	5610.63
530.071	5679.55
530.437	5743.28
530.803	5744.19
531.169	5796.16
531.535	5770.4
531.901	5781.7
532.267	5848.59
532.632	5877.29
532.998	5933.78
533.364	5971.75
533.73	5948.7
534.095	6039.77
534.461	6041.58
534.826	6107.57
535.192	6150.28
535.557	6214.46
535.923	6216.94
536.288	6218.52
536.653	6300.1
537.019	6261.91
537.384	6309.14
537.749	6357.73
538.114	6353.66
538.479	6479.31
538.845	6454.67
539.21	6438.63
539.575	6482.92
539.94	6549.81
540.305	6604.05
540.67	6561.79
541.034	6592.52
541.399	6670.71
541.764	6687.66
542.129	6736.7
542.494	6729.47
542.858	6837.04
543.223	6821.22
543.587	6878.17
543.952	6925.85
544.316	6989.58
544.681	6979.41
545.045	7024.15
545.41	7073.87
545.774	7112.74
546.138	7148.67
546.503	7183.24
546.867	7182.79
547.231	7292.84
547.595	7339.85
547.959	7333.75
548.324	7407.64
548.688	7420.53
549.052	7520.41
549.416	7562.44
549.779	7534.87
550.143	7612.84
550.507	7689.67
550.871	7732.83
551.235	7734.87
551.599	7817.58
551.962	7835.43
552.326	7903.68
552.689	7979.83
553.053	7975.99
553.417	8055.99
553.78	8148.87
554.143	8214.63
554.507	8227.06
554.87	8297.11
555.234	8327.39
555.597	8413.49
555.96	8501.85
556.323	8487.39
556.686	8563.55
557.05	8651
557.413	8717.21
557.776	8752.69
558.139	8847.83
558.502	8935.06
558.865	8986.81
559.228	9034.27
559.59	9151.33
559.953	9228.61
560.316	9377.99
560.679	9333.47
561.041	9461.38
561.404	9544.09
561.767	9699.11
562.129	9627.7
562.492	9767.58
562.854	9820.24
563.217	9863.85
563.579	10042.38
563.941	10050.29
564.304	10141.58
564.666	10333.67
565.028	10354.46
565.39	10370.5
565.753	10444.17
566.115	10601.46
566.477	10661.8
566.839	10725.98
567.201	10871.28
567.563	10956.25
567.925	10983.14
568.287	11116.25
568.648	11156.25
569.01	11312.63
569.372	11372.96
569.734	11451.38
570.095	11578.38
570.457	11630.13
570.819	11676.91
571.18	11741.32
571.542	11858.15
571.903	12011.82
572.265	12049.1
572.626	12202.32
572.987	12235.09
573.349	12302.2
573.71	12503.33
574.071	12464.91
574.432	12572.48
574.794	12772.25
575.155	12789.65
575.516	12838.24
575.877	12948.29
576.238	12992.13
576.599	13074.16
576.96	13209.98
577.32	13270.99
577.681	13306.25
578.042	13395.28
578.403	13575.17
578.763	13646.12
579.124	13588.95
579.485	13746.69
579.845	13808.83
580.206	13880.69
580.566	13944.65
580.927	13950.3
581.287	14047.02
581.648	14062.84
582.008	14120.01
582.368	14236.84
582.728	14248.14
583.089	14307.58
583.449	14376.5
583.809	14483.84
584.169	14605.2
584.529	14523.39
584.889	14722.71
585.249	14643.16
585.609	14678.64
585.969	14718.19
586.329	14797.28
586.688	14834.34
587.048	14879.76
587.408	14934
587.768	15050.38
588.127	15032.53
588.487	15047.22
588.846	15131.73
589.206	15136.71
589.565	15129.25
589.925	15258.06
590.284	15334.22
590.643	15337.38
591.003	15468.9
591.362	15482.91
591.721	15474.1
592.08	15422.57
592.44	15555.68
592.799	15613.76
593.158	15604.04
593.517	15752.96
593.876	15721.55
594.235	15748.22
594.593	15835.67
594.952	15920.19
595.311	15855.11
595.67	15914.99
596.029	16023.91
596.387	16051.26
596.746	16165.83
597.104	16124.03
597.463	16185.04
597.822	16274.53
598.18	16260.74
598.538	16209.9
598.897	16429.1
599.255	16228.66
599.613	16548.87
599.972	16411.02
600.33	16534.64
600.688	16535.54
601.046	16533.96
601.404	16669.1
601.762	16645.14
602.12	16719.49
602.478	16793.16
602.836	16687.63
603.194	16697.12
603.552	16847.17
603.91	16751.81
604.268	16816.21
604.625	16904.8
604.983	16914.06
605.341	16950.9
605.698	17018.92
606.056	17028.41
606.413	17001.06
606.771	17130.78
607.128	17123.09
607.485	17120.84
607.843	17167.84
608.2	17218.91
608.557	17313.15
608.914	17271.79
609.272	17374.61
609.629	17376.87
609.986	17463.65
610.343	17410.32
610.7	17560.15
611.057	17469.07
611.414	17481.73
611.771	17584.1
612.127	17703.64
612.484	17624.55
612.841	17743.64
613.198	17730.54
613.554	17763.3
613.911	17804.66
614.267	17873.36
614.624	17801.27
614.98	17902.96
615.337	18012.56
615.693	17857.54
616.05	17868.39
616.406	18020.47
616.762	17908.16
617.118	17992.9
617.475	18041.94
617.831	18180.47
618.187	18135.05
618.543	18200.35
618.899	18270.64
619.255	18265.21
619.611	18250.75
619.967	18281.93
620.323	18464.08
620.678	18328.49
621.034	18248.72
621.39	18188.38
621.746	18345.21
622.101	18426.11
622.457	18293.69
622.812	18327.36
623.168	18381.82
623.523	18377.98
623.879	18390.63
624.234	18258.66
624.589	18376.85
624.945	18400.12
625.3	18513.57
625.655	18401.48
626.01	18551.53
626.365	18499.56
626.72	18510.86
627.075	18501.59
627.43	18512.21
627.785	18429.28
628.14	18452.78
628.495	18522.38
628.85	18482.83
629.205	18479.9
629.559	18491.65
629.914	18379.33
630.269	18431.54
630.623	18397.86
630.978	18319
631.332	18384.3
631.687	18521.48
632.041	18510.4
632.396	18437.18
632.75	18364.19
633.104	18430.18
633.459	18275.83
633.813	18264.31
634.167	18240.81
634.521	18323.52
634.875	18421.37
635.229	18324.87
635.583	18291.2
635.937	18224.99
636.291	18224.76
636.645	18238.32
636.999	18210.07
637.352	18250.75
637.706	18121.94
638.06	18212.33
638.413	18142.96
638.767	18120.36
639.121	18111.32
639.474	18030.87
639.828	18057.08
640.181	18153.58
640.534	18016.18
640.888	18047.59
641.241	17954.71
641.594	18030.19
641.947	18103.86
642.301	17988.38
642.654	17999.23
643.007	17994.48
643.36	17999.23
643.713	17990.64
644.066	18134.82
644.419	17956.97
644.771	17825
645.124	17703.64
645.477	17595.17
645.83	17481.05
646.182	17438.34
646.535	17430.66
646.888	17432.47
647.24	17387.95
647.593	17548.39
647.945	17389.53
648.298	17385.91
648.65	17247.39
649.002	17326.03
649.355	17300.27
649.707	17338
650.059	17506.59
650.411	17601.95
650.763	17669.52
651.115	17853.47
651.467	17727.82
651.819	17772.8
652.171	17667.94
652.523	17745.68
652.875	17742.74
653.227	17586.59
653.578	17775.28
653.93	17751.78
654.282	17697.09
654.633	17648.05
654.985	17615.06
655.337	17713.14
655.688	17750.88
656.039	17717.2
656.391	17600.37
656.742	17653.02
657.094	17578
657.445	17723.08
657.796	17653.48
658.147	17658.9
658.498	17588.85
658.849	17631.78
659.2	17586.59
659.551	17665.23
659.902	17660.26
660.253	17634.95
660.604	17622.74
660.955	17593.14
661.306	17698.67
661.656	17648.28
662.007	17637.21
662.358	17683.31
662.708	17683.31
663.059	17591.11
663.409	17531.45
663.76	17635.17
664.11	17674.27
664.461	17581.16
664.811	17673.14
665.161	17647.6
665.511	17635.17
665.862	17661.39
666.212	17765.34
666.562	17704.32
666.912	17705.68
667.262	17778.44
667.612	17738.67
667.962	17722.85
668.312	17645.57
668.662	17798.56
669.011	17742.74
669.361	17614.16
669.711	17642.18
670.06	17719.24
670.41	17708.62
670.76	17704.32
671.109	17759.91
671.459	17726.69
671.808	17708.39
672.157	17725.57
672.507	17602.63
672.856	17611.67
673.205	17771.89
673.554	17902.28
673.904	17711.78
674.253	17748.16
674.602	17735.06
674.951	17507.27
675.3	17382.07
675.649	17721.05
675.998	17763.53
676.346	17705.9
676.695	17788.39
677.044	17698.67
677.393	17660.03
677.741	17698.45
678.09	17693.48
678.438	17611.44
678.787	17644.21
679.135	17737.32
679.484	17704.32
679.832	17602.63
680.181	17596.53
680.529	17642.86
680.877	17656.64
681.225	17604.44
681.573	17690.09
681.922	17636.3
682.27	17611.67
682.618	17625.91
682.966	17574.61
683.314	17618.45
683.661	17567.83
684.009	17548.62
684.357	17514.95
684.705	17440.15
685.053	17477.21
685.4	17409.19
685.748	17497.1
686.095	17399.47
686.443	17377.55
686.79	17349.98
687.138	17504.33
687.485	17378.46
687.832	17297.78
688.18	17352.69
688.527	17265.69
688.874	17329.42
689.221	17302.75
689.568	17175.97
689.915	17148.41
690.262	17243.32
690.609	17201.06
690.956	17121.74
691.303	17151.79
691.65	17035.64
691.997	17037.22
692.344	16947.51
692.69	16977.56
693.037	16987.05
693.383	16805.36
693.73	16968.07
694.077	16822.54
694.423	16826.38
694.769	16743.44
695.116	16843.33
695.462	16750.45
695.808	16688.53
696.155	16743.22
696.501	16659.83
696.847	16582.32
697.193	16430.01
697.539	16599.49
697.885	16465.71
698.231	16446.28
698.577	16514.3
698.923	16451.25
699.269	16308.65
699.614	16278.37
699.96	16388.65
700.306	16312.95
700.651	16323.57
700.997	16233.85
701.342	16273.85
701.688	16205.15
702.033	16254.19
702.379	16158.15
702.724	16141.88
703.069	16244.93
703.415	16029.56
703.76	16056.23
704.105	16038.15
704.45	16130.13
704.795	15947.08
705.14	15868.66
705.485	15899.62
705.83	15832.28
706.175	15910.25
706.52	15785.73
706.865	15829.8
707.209	15759.52
707.554	15756.13
707.899	15826.18
708.243	15692.62
708.588	15681.55
708.932	15578.5
709.277	15596.36
709.621	15664.6
709.966	15576.02
710.31	15626.19
710.654	15529.69
710.998	15497.6
711.342	15544.61
711.687	15549.58
712.031	15517.49
712.375	15365.18
712.719	15427.32
713.063	15427.32
713.407	15394.78
713.75	15380.32
714.094	15345.06
714.438	15263.48
714.782	15252.18
715.125	15331.73
715.469	15328.79
715.812	15246.08
716.156	15193.2
716.499	15210.38
716.843	15141.68
717.186	15029.36
717.53	15152.3
717.873	15246.53
718.216	15123.83
718.559	15055.13
718.902	15018.07
719.246	15096.03
719.589	15029.14
719.932	14945.07
720.275	15003.6
720.617	14992.76
720.96	14960.67
721.303	14887.22
721.646	14936.94
721.989	14906.88
722.331	14983.26
722.674	14885.19
723.016	14885.64
723.359	14887
723.701	14894.68
724.044	14751.63
724.386	14719.09
724.729	14882.48
725.071	14756.83
725.413	14874.11
725.755	14827.11
726.097	14668.47
726.439	14698.98
726.782	14620.34
727.124	14784.4
727.465	14718.41
727.807	14679.09
728.149	14699.43
728.491	14653.78
728.833	14610.84
729.175	14607.23
729.516	14618.3
729.858	14576.04
730.199	14599.55
730.541	14658.98
730.882	14527.91
731.224	14644.06
731.565	14407.91
731.906	14514.12
732.248	14592.99
732.589	14529.94
732.93	14475.03
733.271	14461.24
733.612	14486.1
733.953	14458.98
734.294	14404.75
734.635	14443.17
734.976	14480
735.317	14349.38
735.658	14381.92
735.999	14323.17
736.339	14356.61
736.68	14497.63
737.021	14265.54
737.361	14338.54
737.702	14376.5
738.042	14354.81
738.383	14224.41
738.723	14332.89
739.063	14178.31
739.404	14346.9
739.744	14221.48
740.084	14218.76
740.424	14169.27
740.764	14129.95
741.104	14293.79
741.444	14040.46
741.784	14069.16
742.124	14095.38
742.464	14091.08
742.804	14111.87
743.143	14049.5
743.483	13990.97
743.823	13923.18
744.162	13962.05
744.502	13950.52
744.841	13972.9
745.181	13977.87
745.52	13918.43
745.86	13896.29
746.199	13821.26
746.538	13839.79
746.877	13943.97
747.216	13842.05
747.556	13755.73
747.895	13859.45
748.234	13771.09
748.573	13722.05
748.911	13675.95
749.25	13665.33
749.589	13594.15
749.928	13637.99
750.267	13666.69
750.605	13583.98
750.944	13638.21
751.283	13594.83
751.621	13598.89
751.96	13430.76
752.298	13415.62
752.636	13408.39
752.975	13404.32
753.313	13403.19
753.651	13494.04
753.989	13312.57
754.327	13367.94
754.666	13259.24
755.004	13251.56
755.342	13284.55
755.679	13159.81
756.017	13194.38
756.355	13145.35
756.693	13027.84
757.031	13044.11
757.368	13048.17
757.706	13063.54
758.044	13052.47
758.381	13021.28
758.719	12963.2
759.056	12849.31
759.394	12908.97
759.731	12831.46
760.068	12723.89
760.405	12768.63
760.743	12634.85
761.08	12713.49
761.417	12604.8
761.754	12622.42
762.091	12601.86
762.428	12510.33
762.765	12465.82
763.102	12480.96
763.438	12454.52
763.775	12368.42
764.112	12375.2
764.449	12337.01
764.785	12235.09
765.122	12172.72
765.458	12141.76
765.795	12090.68
766.131	12131.14
766.467	12019.73
766.804	11993.96
767.14	12003
767.476	11980.41
767.812	11904.93
768.148	11961.65
768.485	11809.79
768.821	11726.4
769.157	11675.78
769.492	11678.72
769.828	11679.17
770.164	11612.05
770.5	11508.55
770.836	11479.18
771.171	11431.27
771.507	11441.44
771.842	11345.62
772.178	11344.72
772.513	11313.98
772.849	11260.65
773.184	11158.28
773.519	11174.32
773.855	11135
774.19	11126.87
774.525	11035.8
774.86	10974.56
775.195	11031.05
775.53	11026.76
775.865	10861.79
776.2	10840.77
776.535	10734.79
776.87	10768.46
777.205	10734.79
777.539	10652.3
777.874	10623.6
778.209	10573.89
778.543	10532.99
778.878	10492.08
779.212	10499.31
779.547	10394.91
779.881	10427.68
780.215	10296.16
780.55	10379.54
780.884	10298.42
781.218	10247.8
781.552	10288.25
781.886	10181.58
782.22	10088.7
782.554	10109.95
782.888	10045.77
783.222	10004.86
783.556	9926.45
783.889	9875.38
784.223	9835.38
784.557	9821.82
784.89	9916.73
785.224	9723.74
785.557	9724.87
785.891	9673.35
786.224	9639
786.558	9630.41
786.891	9579.11
787.224	9502.73
787.557	9470.64
787.891	9463.18
788.224	9417.08
788.557	9366.91
788.89	9307.26
789.223	9303.41
789.556	9298.67
789.888	9245.56
790.221	9208.05
790.554	9136.64
790.887	9166.69
791.219	9137.32
791.552	9055.96
791.884	9072.01
792.217	9008.28
792.549	8979.58
792.882	8883.99
793.214	8890.77
793.546	8863.65
793.879	8829.08
794.211	8732.13
794.543	8811.22
794.875	8662.07
795.207	8756.99
795.539	8665.69
795.871	8652.13
796.203	8573.72
796.535	8601.06
796.867	8555.18
797.198	8544.11
797.53	8526.71
797.862	8536.43
798.193	8473.15
798.525	8458.24
798.856	8341.18
799.188	8297.34
799.519	8266.6
799.85	8171.92
800.182	8209.88
800.513	8239.71
800.844	8134.63
801.175	8170.34
801.506	8138.02
801.837	8076.1
802.168	8060.06
802.499	7973.96
802.83	8011.92
803.161	7990.23
803.491	7974.18
803.822	7964.47
804.153	7907.74
804.483	7892.83
804.814	7850.8
805.145	7831.81
805.475	7840.63
805.805	7832.72
806.136	7776
806.466	7776.45
806.796	7755.21
807.126	7683.12
807.457	7651.48
807.787	7599.5
808.117	7611.71
808.447	7562.89
808.777	7537.36
809.107	7534.42
809.436	7488.09
809.766	7483.12
810.096	7442.45
810.426	7430.47
810.755	7425.04
811.085	7366.52
811.414	7372.16
811.744	7333.97
812.073	7223.47
812.403	7221.89
812.732	7283.58
813.061	7213.3
813.39	7179.18
813.719	7215.56
814.049	7169.68
814.378	7179.18
814.707	7118.16
815.036	7132.17
815.365	7078.16
815.693	6984.6
816.022	7004.26
816.351	6979.18
816.68	6890.82
817.008	6897.38
817.337	6873.65
817.665	6865.51
817.994	6855.57
818.322	6915.45
818.651	6854.89
818.979	6797.72
819.307	6867.32
819.636	6775.57
819.964	6774.67
820.292	6776.93
820.62	6771.95
820.948	6722.69
821.276	6718.62
821.604	6724.27
821.932	6814.44
822.259	6745.51
822.587	6696.48
822.915	6652.18
823.243	6752.75
823.57	6701.22
823.898	6703.26
824.225	6669.36
824.553	6632.75
824.88	6650.6
825.207	6656.7
825.535	6645.4
825.862	6683.37
826.189	6659.64
826.516	6717.27
826.843	6677.04
827.17	6682.24
827.497	6635.24
827.824	6668.23
828.151	6667.32
828.478	6661
828.805	6634.56
829.131	6634.78
829.458	6624.16
829.785	6556.37
830.111	6629.36
830.438	6609.02
830.764	6604.28
831.09	6551.17
831.417	6595.24
831.743	6663.48
832.069	6561.34
832.395	6555.69
832.722	6557.5
833.048	6564.95
833.374	6493.09
833.7	6511.4
834.026	6538.06
834.351	6519.53
834.677	6483.6
835.003	6501.23
835.329	6522.7
835.654	6463.04
835.98	6468.23
836.306	6467.56
836.631	6423.49
836.956	6495.13
837.282	6477.5
837.607	6382.36
837.932	6353.21
838.258	6420.1
838.583	6373.77
838.908	6335.58
839.233	6395.47
839.558	6348.01
839.883	6353.89
840.208	6311.63
840.533	6289.71
840.858	6299.42
841.182	6299.65
841.507	6251.74
841.832	6228.24
842.156	6272.98
842.481	6182.37
842.805	6173.1
843.13	6173.33
843.454	6200.9
843.778	6117.51
844.103	6134.23
844.427	6077.51
844.751	6111.86
845.075	6128.13
845.399	6089.26
845.723	6057.17
846.047	6084.74
846.371	5994.57
846.695	5972.2
847.019	5939.43
847.343	5867.57
847.666	5870.51
847.99	5865.31
848.313	5847.23
848.637	5836.16
848.96	5820.12
849.284	5760.68
849.607	5729.27
849.931	5683.4
850.254	5681.81
850.577	5694.24
850.9	5652.66
851.223	5637.97
851.546	5569.5
851.869	5526.79
852.192	5545.32
852.515	5558.2
852.838	5534.25
853.161	5519.78
853.483	5476.62
853.806	5461.48
854.129	5385.32
854.451	5428.04
854.774	5387.81
855.096	5392.33
855.419	5359.34
855.741	5364.31
856.063	5285.67
856.385	5299.45
856.708	5278.21
857.03	5281.82
857.352	5303.52
857.674	5218.1
857.996	5258.55
858.318	5201.15
858.64	5184.43
858.961	5226.23
859.283	5157.76
859.605	5101.72
859.926	5143.52
860.248	5113.69
860.57	5109.17
860.891	5131.09
861.212	5086.12
861.534	5035.96
861.855	5075.05
862.176	5062.62
862.498	5067.37
862.819	5037.54
863.14	5033.47
863.461	5015.62
863.782	4986.24
864.103	5007.93
864.424	5032.11
864.745	5023.53
865.065	4928.84
865.386	4943.75
865.707	4960.02
866.027	4902.17
866.348	4897.43
866.668	4882.96
866.989	4883.87
867.309	4857.88
867.63	4879.12
867.95	4870.54
868.27	4806.58
868.59	4845
868.91	4833.7
869.23	4803.87
869.55	4819.46
869.87	4805.23
870.19	4813.59
870.51	4792.8
870.83	4807.71
871.15	4734.04
871.469	4783.31
871.789	4788.28
872.109	4809.75
872.428	4719.13
872.748	4723.2
873.067	4800.71
873.386	4718.68
873.706	4706.02
874.025	4708.73
874.344	4717.77
874.663	4701.05
874.982	4669.86
875.301	4680.71
875.62	4652.24
875.939	4651.78
876.258	4680.94
876.577	4629.19
876.896	4633.03
877.214	4628.73
877.533	4587.83
877.852	4579.92
878.17	4571.11
878.489	4598.23
878.807	4570.66
879.125	4589.87
879.444	4577.44
879.762	4519.13
880.08	4563.43
880.398	4535.86
880.716	4546.7
881.034	4505.35
881.352	4495.63
881.67	4517.32
881.988	4525.46
882.306	4496.08
882.624	4427.84
882.941	4453.6
883.259	4459.7
883.577	4453.15
883.894	4376.09
884.212	4437.55
884.529	4433.94
884.846	4409.08
885.164	4423.09
885.481	4355.52
885.798	4378.35
886.115	4345.35
886.432	4374.5
886.75	4332.92
887.067	4339.48
887.383	4276.43
887.7	4342.87
888.017	4312.81
888.334	4284.11
888.651	4277.78
888.967	4219.25
889.284	4275.98
889.6	4282.75
889.917	4224
890.233	4212.93
890.55	4206.37
890.866	4197.56
891.182	4181.06
891.498	4208.41
891.815	4136.77
892.131	4142.65
892.447	4120.72
892.763	4172.48
893.079	4125.02
893.395	4093.83
893.71	4092.25
894.026	4095.64
894.342	4076.21
894.657	3998.02
894.973	4048.18
895.289	4030.56
895.604	4062.2
895.92	3994.85
896.235	4003.44
896.55	3980.39
896.865	3983.33
897.181	3941.29
897.496	3941.52
897.811	3922.76
898.126	3951.24
898.441	3924.57
898.756	3901.97
899.071	3840.73
899.386	3860.17
899.7	3854.29
900.015	3836.21
900.33	3840.05
900.644	3842.31
900.959	3815.87
901.273	3781.98
901.588	3788.53
901.902	3764.35
902.216	3759.83
902.531	3751.7
902.845	3746.27
903.159	3677.12
903.473	3664.01
903.787	3732.03
904.101	3686.39
904.415	3672.6
904.729	3626.5
905.042	3641.42
905.356	3626.27
905.67	3635.99
905.984	3612.72
906.297	3610.91
906.611	3545.82
906.924	3556.45
907.237	3561.19
907.551	3537.69
907.864	3496.33
908.177	3533.17
908.491	3510.35
908.804	3495.43
909.117	3488.65
909.43	3440.52
909.743	3451.59
910.056	3432.16
910.368	3391.03
910.681	3413.85
910.994	3397.58
911.307	3413.62
911.619	3342.44
911.932	3373.63
912.244	3315.77
912.557	3377.02
912.869	3298.6
913.181	3308.32
913.494	3336.56
913.806	3288.66
914.118	3281.65
914.43	3269
914.742	3259.05
915.054	3255.89
915.366	3223.57
915.678	3221.99
915.99	3219.96
916.302	3200.07
916.613	3190.35
916.925	3185.38
917.236	3149.45
917.548	3133.18
917.859	3130.02
918.171	3133.41
918.482	3183.12
918.794	3095.44
919.105	3114.2
919.416	3050.02
919.727	3029.45
920.038	3083.01
920.349	3046.4
920.66	2998.27
920.971	3005.95
921.282	3022.9
921.593	2955.56
921.903	3004.14
922.214	2994.43
922.525	2969.34
922.835	2995.78
923.146	2929.12
923.456	2915.56
923.767	2918.95
924.077	2895.22
924.387	2894.54
924.697	2894.54
925.008	2857.48
925.318	2889.57
925.628	2843.92
925.938	2852.06
926.248	2827.65
926.558	2893.86
926.867	2793.53
927.177	2782.23
927.487	2785.84
927.796	2810.93
928.106	2789.46
928.416	2780.2
928.725	2746.98
929.034	2748.33
929.344	2760.31
929.653	2714.21
929.962	2691.16
930.271	2678.28
930.581	2700.88
930.89	2692.29
931.199	2608
931.508	2662.46
931.817	2634.66
932.125	2639.41
932.434	2631.72
932.743	2615
933.051	2596.92
933.36	2603.93
933.669	2589.01
933.977	2576.36
934.286	2581.56
934.594	2558.73
934.902	2475.8
935.21	2546.98
935.519	2551.95
935.827	2533.2
936.135	2485.29
936.443	2462.01
936.751	2466.53
937.059	2485.51
937.367	2457.94
937.674	2461.11
937.982	2454.33
938.29	2431.05
938.597	2418.62
938.905	2436.7
939.213	2392.63
939.52	2398.74
939.827	2418.4
940.135	2369.81
940.442	2361.22
940.749	2327.78
941.056	2367.1
941.363	2352.86
941.67	2324.61
941.977	2296.59
942.284	2308.57
942.591	2294.11
942.898	2295.24
943.205	2278.74
943.511	2255.01
943.818	2292.52
944.125	2260.66
944.431	2290.04
944.738	2207.78
945.044	2249.59
945.35	2215.01
945.657	2238.06
945.963	2219.98
946.269	2199.19
946.575	2178.63
946.881	2149.7
947.187	2181.57
947.493	2145.18
947.799	2168.46
948.105	2156.48
948.41	2143.15
948.716	2135.92
949.022	2122.81
949.327	2110.38
949.633	2116.03
949.938	2069.93
950.244	2114.45
950.549	2108.8
950.854	2098.41
951.16	2066.54
951.465	2066.09
951.77	2088.24
952.075	2027.9
952.38	2023.83
952.685	2012.76
952.99	2014.34
953.294	2003.72
953.599	2001.46
953.904	2031.97
954.209	2017.96
954.513	1989.71
954.818	1984.74
955.122	1981.57
955.426	1948.35
955.731	1964.4
956.035	1944.51
956.339	1927.11
956.643	1942.93
956.948	1950.61
957.252	1926.66
957.556	1928.92
957.86	1910.39
958.163	1898.86
958.467	1900.67
958.771	1894.79
959.075	1894.34
959.378	1881.91
959.682	1880.56
959.985	1873.1
960.289	1858.86
960.592	1834.46
960.896	1852.76
961.199	1831.29
961.502	1815.25
961.805	1822.03
962.108	1767.34
962.411	1812.76
962.714	1753.1
963.017	1801.46
963.32	1770.5
963.623	1780
963.926	1789.71
964.228	1771.18
964.531	1754.46
964.833	1754.69
965.136	1725.31
965.438	1774.57
965.741	1719.21
966.043	1700.9
966.345	1706.33
966.648	1717.4
966.95	1675.82
967.252	1710.17
967.554	1710.17
967.856	1683.05
968.158	1692.31
968.46	1655.03
968.761	1671.52
969.063	1677.85
969.365	1632.2
969.666	1645.31
969.968	1624.97
970.269	1638.08
970.571	1629.27
970.872	1652.54
971.174	1595.59
971.475	1636.27
971.776	1615.93
972.077	1594.24
972.378	1601.02
972.679	1593.56
972.98	1578.19
973.281	1583.16
973.582	1587.46
973.883	1578.87
974.183	1551.98
974.484	1558.76
974.785	1544.07
975.085	1551.98
975.386	1547.23
975.686	1547.91
975.986	1543.17
976.287	1508.14
976.587	1505.43
976.887	1524.41
977.187	1530.06
977.487	1499.55
977.787	1493.68
978.087	1515.6
978.387	1502.26
978.687	1494.58
978.987	1457.97
979.286	1465.43
979.586	1468.14
979.885	1468.14
980.185	1464.98
980.484	1469.5
980.784	1442.15
981.083	1440.12
981.382	1453
981.682	1441.7
981.981	1433.79
982.28	1427.91
982.579	1413
982.878	1390.4
983.177	1407.8
983.475	1377.29
983.774	1376.39
984.073	1376.62
984.372	1398.31
984.67	1365.77
984.969	1369.84
985.267	1356.28
985.566	1378.65
985.864	1342.94
986.162	1366.45
986.461	1328.93
986.759	1331.87
987.057	1336.84
987.355	1290.97
987.653	1301.59
987.951	1295.49
988.249	1320.12
988.547	1292.1
988.844	1299.1
989.142	1296.84
989.44	1307.92
989.737	1286.45
990.035	1286.22
990.332	1292.55
990.63	1268.6
990.927	1280.12
991.224	1266.11
991.521	1267.69
991.819	1254.13
992.116	1267.47
992.413	1258.88
992.71	1268.37
993.006	1229.28
993.303	1214.13
993.6	1225.89
993.897	1226.11
994.193	1222.5
994.49	1206.9
994.787	1187.02
995.083	1199.9
995.379	1207.13
995.676	1180.69
995.972	1190.41
996.268	1190.86
996.565	1181.59
996.861	1169.16
997.157	1159.9
997.453	1135.94
997.749	1154.48
998.044	1144.76
998.34	1156.28
998.636	1141.14
998.932	1159.45
999.227	1145.44
999.523	1136.4
999.818	1098.21
1000.114	1099.11
1000.409	1089.17
1000.704	1089.84
1001	1101.82
1001.295	1071.31
1001.59	1107.7
1001.885	1087.13
1002.18	1074.25
1002.475	1069.73
1002.77	1079.22
1003.065	1073.35
1003.359	1056.62
1003.654	1076.74
1003.949	1046.68
1004.243	1034.7
1004.538	1044.2
1004.832	1033.57
1005.127	1042.39
1005.421	1053.69
1005.715	1016.4
1006.009	1007.13
1006.304	1014.37
1006.598	1023.86
1006.892	1006.68
1007.186	1000.36
1007.48	1014.14
1007.773	980.02
1008.067	978.21
1008.361	985.89
1008.655	982.73
1008.948	958.55
1009.242	975.95
1009.535	964.88
1009.829	955.38
1010.122	964.65
1010.415	956.74
1010.708	948.38
1011.001	942.73
1011.295	947.7
1011.588	949.51
1011.881	951.77
1012.173	949.06
1012.466	925.55
1012.759	924.65
1013.052	926.23
1013.344	928.27
1013.637	897.53
1013.93	915.39
1014.222	897.53
1014.514	910.19
1014.807	885.1
1015.099	895.73
1015.391	894.6
1015.683	877.65
1015.976	892.79
1016.268	863.64
1016.56	852.34
1016.851	872.22
1017.143	863.41
1017.435	848.49
1017.727	869.96
1018.018	844.88
1018.31	849.17
1018.602	840.13
1018.893	841.49
1019.185	817.99
1019.476	827.7
1019.767	850.53
1020.058	834.26
1020.35	810.3
1020.641	813.02
1020.932	778.21
1021.223	830.64
1021.514	789.51
1021.804	773.02
1022.095	787.48
1022.386	816.41
1022.677	795.16
1022.967	765.56
1023.258	789.74
1023.548	754.03
1023.839	788.84
1024.129	761.94
1024.419	752.9
1024.709	766.24
1025	745.22
1025.29	754.03
1025.58	737.54
1025.87	739.12
1026.16	734.37
1026.449	751.55
1026.739	736.86
1027.029	725.79
1027.319	720.81
1027.608	724.43
1027.898	733.92
1028.187	704.32
1028.477	700.7
1028.766	707.93
1029.055	695.5
1029.344	715.16
1029.634	699.12
1029.923	703.19
1030.212	697.99
1030.501	692.11
1030.79	699.35
1031.078	683.75
1031.367	693.7
1031.656	645.56
1031.945	674.49
1032.233	653.7
1032.522	647.37
1032.81	665.67
1033.099	654.38
1033.387	662.06
1033.675	638.56
1033.963	639.23
1034.251	626.81
1034.54	633.81
1034.828	637.88
1035.116	633.36
1035.403	622.51
1035.691	621.83
1035.979	626.58
1036.267	634.94
1036.554	622.74
1036.842	616.64
1037.129	607.6
1037.417	626.13
1037.704	616.64
1037.992	611.44
1038.279	621.61
1038.566	597.65
1038.853	597.65
1039.14	597.65
