Data from brown_tile_FLMS001491_072.txt Node
Date: Tue Feb 07 10:37:58 GMT 2017
User: dcchb
Spectrometer: FLMS00149
Trigger mode: 0
Integration Time (sec): 2.000000E-2
Scans to average: 10
Electric dark correction enabled: true
Nonlinearity correction enabled: false
Boxcar width: 0
XAxis mode: Wavelengths
Number of Pixels in Spectrum: 2048
>>>>>Begin Spectral Data<<<<<
341.393	-26.6
341.776	-26.6
342.16	-26.6
342.543	-47.84
342.927	-69.31
343.31	-71.57
343.693	-53.49
344.077	-65.24
344.46	-65.01
344.843	-63.2
345.226	-53.71
345.61	-50.32
345.993	-13.71
346.376	21.54
346.759	6.17
347.142	35.78
347.525	27.64
347.908	63.35
348.291	68.54
348.674	96.57
349.057	116.68
349.44	112.38
349.823	134.98
350.206	158.26
350.588	184.92
350.971	180.4
351.354	216.34
351.737	224.7
352.119	232.15
352.502	253.17
352.884	261.08
353.267	271.02
353.65	293.62
354.032	294.07
354.414	292.72
354.797	283.68
355.179	314.19
355.562	291.81
355.944	307.18
356.326	305.83
356.709	324.81
357.091	304.92
357.473	329.55
357.855	313.73
358.238	325.94
358.62	315.54
359.002	307.18
359.384	316.22
359.766	327.97
360.148	333.17
360.53	304.92
360.912	324.81
361.294	335.66
361.676	319.16
362.057	313.96
362.439	317.8
362.821	311.47
363.203	310.12
363.584	317.12
363.966	336.78
364.348	313.73
364.729	289.1
365.111	301.53
365.493	303.79
365.874	289.55
366.256	319.38
366.637	325.71
367.019	306.5
367.4	273.74
367.781	295.43
368.163	304.47
368.544	298.59
368.925	291.14
369.306	299.72
369.688	310.8
370.069	318.93
370.45	301.98
370.831	308.09
371.212	304.24
371.593	300.85
371.974	292.27
372.355	315.54
372.736	299.27
373.117	299.27
373.498	311.93
373.879	296.11
374.26	311.47
374.641	305.37
375.021	278.71
375.402	294.07
375.783	313.28
376.163	300.18
376.544	311.7
376.925	305.15
377.305	316.67
377.686	318.93
378.066	287.07
378.447	318.48
378.827	328.65
379.208	312.83
379.588	328.42
379.968	317.12
380.349	314.19
380.729	325.94
381.109	312.15
381.489	318.03
381.87	342.66
382.25	316.45
382.63	304.24
383.01	334.75
383.39	331.14
383.77	316.67
384.15	344.69
384.53	323
384.91	331.36
385.29	335.88
385.67	329.33
386.049	327.29
386.429	329.1
386.809	345.37
387.189	334.3
387.568	345.37
387.948	347.18
388.328	346.05
388.707	342.66
389.087	346.05
389.466	353.96
389.846	349.21
390.225	349.44
390.605	345.6
390.984	343.79
391.363	329.78
391.743	322.55
392.122	350.12
392.501	339.04
392.881	349.89
393.26	376.33
393.639	374.98
394.018	376.11
394.397	339.95
394.776	372.49
395.155	385.37
395.534	350.57
395.913	363.45
396.292	371.13
396.671	356.22
397.05	381.53
397.429	375.43
397.808	372.26
398.186	376.78
398.565	375.88
398.944	402.09
399.323	373.85
399.701	393.05
400.08	375.65
400.458	397.35
400.837	376.33
401.215	400.74
401.594	379.27
401.972	369.55
402.351	377.91
402.729	388.08
403.107	376.78
403.486	397.12
403.864	388.08
404.242	392.38
404.62	406.61
404.999	387.63
405.377	397.8
405.755	399.38
406.133	403
406.511	391.25
406.889	410.46
407.267	410.91
407.645	403.45
408.023	413.17
408.401	431.92
408.779	405.48
409.156	419.95
409.534	406.61
409.912	419.49
410.29	424.47
410.667	450
411.045	401.64
411.422	419.49
411.8	429.66
412.178	427.18
412.555	434.64
412.933	445.71
413.31	446.16
413.687	469.21
414.065	439.38
414.442	452.04
414.819	445.48
415.197	465.37
415.574	470.34
415.951	471.02
416.328	469.21
416.705	456.33
417.082	504.24
417.46	456.1
417.837	472.37
418.214	466.95
418.591	456.56
418.967	474.18
419.344	488.42
419.721	486.84
420.098	477.35
420.475	479.83
420.852	487.52
421.228	491.58
421.605	486.39
421.982	502.43
422.358	517.12
422.735	504.92
423.111	501.53
423.488	500.62
423.864	518.25
424.241	526.38
424.617	492.94
424.994	527.97
425.37	518.7
425.746	523.45
426.123	536.33
426.499	547.17
426.875	528.87
427.251	548.3
427.627	547.63
428.003	549.66
428.379	560.51
428.756	566.38
429.132	554.41
429.507	579.72
429.883	575.2
430.259	574.07
430.635	571.13
431.011	587.17
431.387	570
431.763	596.44
432.138	605.48
432.514	630.56
432.89	581.75
433.265	610
433.641	607.06
434.016	624.46
434.392	598.7
434.767	626.04
435.143	626.04
435.518	647.06
435.894	660.39
436.269	631.01
436.644	645.48
437.02	641.64
437.395	651.13
437.77	655.19
438.145	666.04
438.52	671.92
438.895	691.58
439.271	662.88
439.646	671.24
440.021	692.48
440.395	684.12
440.77	685.7
441.145	697.68
441.52	712.82
441.895	727.28
442.27	711.69
442.645	685.25
443.019	701.52
443.394	715.76
443.769	724.57
444.143	731.35
444.518	718.7
444.892	735.64
445.267	694.52
445.641	729.77
446.016	764.12
446.39	736.32
446.764	718.24
447.139	722.09
447.513	749.88
447.887	742.88
448.262	769.32
448.636	725.02
449.01	766.6
449.384	779.94
449.758	749.2
450.132	797.79
450.506	774.74
450.88	775.19
451.254	788.75
451.628	811.35
452.002	788.3
452.376	789.65
452.75	820.16
453.123	812.03
453.497	823.33
453.871	810.67
454.244	827.62
454.618	826.49
454.992	841.86
455.365	853.38
455.739	891.35
456.112	864.91
456.486	873.04
456.859	894.96
457.232	913.27
457.606	904.23
457.979	889.31
458.352	929.76
458.725	918.24
459.099	927.28
459.472	957.79
459.845	944.68
460.218	932.48
460.591	969.08
460.964	979.25
461.337	992.36
461.71	1019.03
462.083	1005.24
462.456	1019.48
462.829	1033.26
463.201	1024.22
463.574	1043.21
463.947	1028.97
464.32	1096.99
464.692	1063.77
465.065	1059.93
465.438	1084.79
465.81	1090.66
466.183	1098.57
466.555	1122.53
466.928	1130.44
467.3	1114.17
467.672	1144.45
468.045	1173.15
468.417	1163.2
468.789	1177.44
469.161	1187.16
469.534	1233.26
469.906	1235.52
470.278	1229.64
470.65	1238.91
471.022	1275.74
471.394	1274.61
471.766	1279.81
472.138	1289.3
472.51	1305.8
472.882	1326.36
473.253	1327.72
473.625	1360.03
473.997	1372.01
474.369	1385.12
474.74	1424.44
475.112	1418.79
475.484	1457.43
475.855	1481.84
476.227	1499.92
476.598	1507.15
476.97	1515.51
477.341	1524.55
477.713	1560.26
478.084	1539.69
478.455	1597.32
478.827	1632.8
479.198	1652.46
479.569	1643.64
479.94	1701.95
480.311	1726.13
480.682	1755.96
481.053	1776.75
481.424	1795.73
481.795	1854.03
482.166	1858.55
482.537	1858.1
482.908	1888.61
483.279	1902.17
483.65	1918.21
484.021	1995.5
484.391	2023.29
484.762	2019
485.133	2035.95
485.503	2055.38
485.874	2101.48
486.244	2111.43
486.615	2148.26
486.985	2174.7
487.356	2218.54
487.726	2221.71
488.097	2234.59
488.467	2270.29
488.837	2297.64
489.207	2304.87
489.578	2351.2
489.948	2368.82
490.318	2396.39
490.688	2447.01
491.058	2462.6
491.428	2508.25
491.798	2513.45
492.168	2544.86
492.538	2547.35
492.908	2553.68
493.278	2617.18
493.648	2651.75
494.017	2639.78
494.387	2677.06
494.757	2700.34
495.126	2709.6
495.496	2759.77
495.866	2746.44
496.235	2773.56
496.605	2823.27
496.974	2825.31
497.344	2865.76
497.713	2877.74
498.082	2880.22
498.452	2932.2
498.821	2899.43
499.19	2939.43
499.559	2932.2
499.928	2994.79
500.298	3026.88
500.667	3046.54
501.036	3019.2
501.405	3045.41
501.774	3080.67
502.143	3118.86
502.512	3110.27
502.88	3126.09
503.249	3129.71
503.618	3190.95
503.987	3209.03
504.356	3222.81
504.724	3258.52
505.093	3224.62
505.462	3268.69
505.83	3293.77
506.199	3293.32
506.567	3350.04
506.936	3336.48
507.304	3410.6
507.672	3421.45
508.041	3424.61
508.409	3430.26
508.777	3466.19
509.145	3477.95
509.514	3488.79
509.882	3505.74
510.25	3512.52
510.618	3562.24
510.986	3569.92
511.354	3620.31
511.722	3643.59
512.09	3674.78
512.458	3667.77
512.826	3714.1
513.193	3764.27
513.561	3752.97
513.929	3743.7
514.297	3858.5
514.664	3837.26
515.032	3915.67
515.4	3904.37
515.767	3945.28
516.135	3921.78
516.502	3977.14
516.869	4004.49
517.237	4010.81
517.604	4049.91
517.972	4039.51
518.339	4101.43
518.706	4117.25
519.073	4127.42
519.44	4153.86
519.808	4215.55
520.175	4235.89
520.542	4227.76
520.909	4317.25
521.276	4286.96
521.643	4357.7
522.009	4409.67
522.376	4393.85
522.743	4467.98
523.11	4517.69
523.477	4549.33
523.843	4577.13
524.21	4623.9
524.577	4682.89
524.943	4688.31
525.31	4704.58
525.676	4757.01
526.043	4742.77
526.409	4775.31
526.776	4833.84
527.142	4944.8
527.508	4870
527.874	4966.04
528.241	4967.17
528.607	4952.93
528.973	5086.49
529.339	5030.45
529.705	5115.19
530.071	5175.3
530.437	5177.56
530.803	5228.86
531.169	5258.69
531.535	5267.28
531.901	5286.03
532.267	5362.64
532.632	5356.99
532.998	5401.51
533.364	5401.28
533.73	5483.32
534.095	5532.81
534.461	5516.08
534.826	5517.67
535.192	5604.89
535.557	5638.57
535.923	5643.09
536.288	5680.6
536.653	5676.08
537.019	5694.61
537.384	5786.59
537.749	5792.91
538.114	5841.5
538.479	5816.19
538.845	5869.07
539.21	5924.66
539.575	5954.49
539.94	5962.63
540.305	6020.7
540.67	6038.1
541.034	6065.67
541.399	6114.94
541.764	6125.79
542.129	6180.02
542.494	6153.58
542.858	6237.65
543.223	6216.63
543.587	6286.01
543.952	6303.41
544.316	6318.32
544.681	6361.03
545.045	6389.96
545.41	6473.35
545.774	6488.71
546.138	6531.88
546.503	6542.95
546.867	6614.81
547.231	6681.02
547.595	6625.89
547.959	6741.59
548.324	6710.63
548.688	6779.1
549.052	6775.03
549.416	6854.35
549.779	6869.04
550.143	6905.2
550.507	7021.58
550.871	7067.68
551.235	7102.71
551.599	7157.85
551.962	7220.45
552.326	7224.74
552.689	7271.74
553.053	7237.62
553.417	7347.67
553.78	7386.32
554.143	7423.15
554.507	7530.27
554.87	7470.61
555.234	7655.46
555.597	7651.62
555.96	7713.54
556.323	7803.48
556.686	7825.85
557.05	7911.28
557.413	7973.65
557.776	7992.63
558.139	8091.16
558.502	8158.05
558.865	8231.04
559.228	8247.54
559.59	8362.56
559.953	8460.41
560.316	8508.77
560.679	8499.28
561.041	8610.47
561.404	8758.71
561.767	8754.42
562.129	8804.58
562.492	9000.96
562.854	8941.53
563.217	9052.49
563.579	9077.12
563.941	9253.84
564.304	9335.19
564.666	9431.91
565.028	9426.94
565.39	9481.63
565.753	9663.09
566.115	9684.34
566.477	9790.55
566.839	9906.48
567.201	9987.15
567.563	10005.46
567.925	10106.7
568.287	10087.94
568.648	10215.62
569.01	10322.51
569.372	10411.1
569.734	10512.56
570.095	10585.33
570.457	10721.14
570.819	10766.79
571.18	10811.31
571.542	10967.24
571.903	10962.04
572.265	11057.63
572.626	11089.5
572.987	11226.89
573.349	11201.13
573.71	11421.92
574.071	11496.94
574.432	11513.21
574.794	11634.34
575.155	11665.75
575.516	11730.61
575.877	11884.05
576.238	11882.7
576.599	11992.52
576.96	12040.66
577.32	12106.42
577.681	12098.28
578.042	12264.83
578.403	12356.36
578.763	12448.33
579.124	12473.41
579.485	12589.34
579.845	12670.02
580.206	12633.86
580.566	12745.72
580.927	12746.4
581.287	12865.95
581.648	12900.75
582.008	12993.85
582.368	12998.82
582.728	13037.02
583.089	13157.46
583.449	13147.3
583.809	13197.24
584.169	13273.85
584.529	13351.36
584.889	13482.43
585.249	13413.05
585.609	13480.39
585.969	13557.23
586.329	13637.23
586.688	13699.37
587.048	13723.33
587.408	13724.68
587.768	13748.18
588.127	13789.09
588.487	13832.93
588.846	13982.98
589.206	13889.65
589.565	14007.84
589.925	14081.73
590.284	14065.69
590.643	14081.73
591.003	14181.39
591.362	14297.77
591.721	14216.42
592.08	14300.03
592.44	14384.1
592.799	14386.13
593.158	14369.41
593.517	14381.39
593.876	14528.73
594.235	14530.31
594.593	14591.55
594.952	14602.4
595.311	14556.3
595.67	14660.02
596.029	14740.25
596.387	14758.78
596.746	14892.56
597.104	14887.14
597.463	14754.48
597.822	14965.33
598.18	14839.23
598.538	14964.87
598.897	15022.27
599.255	14845.1
599.613	15101.14
599.972	15134.36
600.33	15267.01
600.688	15119.45
601.046	15247.35
601.404	15344.3
601.762	15293.45
602.12	15415.71
602.478	15405.32
602.836	15362.38
603.194	15374.81
603.552	15386.11
603.91	15357.86
604.268	15511.98
604.625	15564.63
604.983	15551.3
605.341	15458.87
605.698	15667.46
606.056	15729.37
606.413	15733.67
606.771	15721.24
607.128	15840.56
607.485	15731.41
607.843	15779.09
608.2	15903.61
608.557	15911.29
608.914	15864.06
609.272	15977.96
609.629	16113.09
609.986	16039.65
610.343	16025.86
610.7	16188.35
611.057	16171.17
611.414	16123.71
611.771	16311.96
612.127	16327.1
612.484	16230.15
612.841	16349.92
613.198	16277.83
613.554	16292.75
613.911	16472.41
614.267	16412.29
614.624	16377.04
614.98	16454.78
615.337	16582.23
615.693	16502.24
616.05	16516.47
616.406	16608.45
616.762	16600.76
617.118	16596.02
617.475	16589.69
617.831	16696.81
618.187	16680.76
618.543	16803.92
618.899	16748.1
619.255	16814.77
619.611	16775.45
619.967	16907.2
620.323	16892.51
620.678	16824.04
621.034	16813.19
621.39	16823.81
621.746	16857.93
622.101	17022.22
622.457	16791.27
622.812	16985.39
623.168	16965.05
623.523	16998.04
623.879	16949.46
624.234	16968.21
624.589	16937.93
624.945	17009.34
625.3	17135.21
625.655	17008.66
626.01	17061.09
626.365	17001.66
626.72	17063.8
627.075	17014.54
627.43	16970.02
627.785	17039.62
628.14	16994.43
628.495	17065.61
628.85	16978.61
629.205	16998.49
629.559	17119.62
629.914	16968.89
630.269	16987.65
630.623	16913.98
630.978	16983.35
631.332	17051.6
631.687	17087.76
632.041	16965.95
632.396	17070.81
632.75	16873.07
633.104	16983.8
633.459	16850.93
633.813	16958.95
634.167	16886.18
634.521	16918.5
634.875	16839.4
635.229	16852.06
635.583	16757.82
635.937	16832.85
636.291	16756.47
636.645	16863.36
636.999	16806.86
637.352	16794.43
637.706	16732.51
638.06	16757.6
638.413	16820.42
638.767	16750.82
639.121	16779.52
639.474	16795.79
639.828	16639.41
640.181	16774.09
640.534	16753.08
640.888	16650.71
641.241	16563.93
641.594	16615.23
641.947	16680.31
642.301	16602.35
642.654	16652.51
643.007	16658.84
643.36	16600.54
643.713	16574.78
644.066	16696.35
644.419	16502.46
644.771	16465.85
645.124	16224.28
645.477	16223.6
645.83	16131.17
646.182	16116.03
646.535	16046.43
646.888	16066.31
647.24	15988.58
647.593	16072.19
647.945	16011.4
648.298	15967.33
648.65	15886.66
649.002	15925.98
649.355	16023.6
649.707	15937.96
650.059	15998.75
650.411	16265.18
650.763	16356.48
651.115	16419.98
651.467	16327.78
651.819	16417.72
652.171	16456.14
652.523	16283.03
652.875	16298.17
653.227	16250.94
653.578	16391.73
653.93	16354.22
654.282	16294.33
654.633	16273.77
654.985	16220.21
655.337	16325.07
655.688	16293.65
656.039	16318.29
656.391	16151.28
656.742	16187.67
657.094	16285.97
657.445	16247.1
657.796	16201.68
658.147	16253.88
658.498	16176.37
658.849	16264.5
659.2	16224.5
659.551	16074.9
659.902	16348.12
660.253	16250.94
660.604	16270.6
660.955	16190.83
661.306	16246.2
661.656	16247.78
662.007	16257.72
662.358	16262.69
662.708	16248.46
663.059	16295.69
663.409	16144.73
663.76	16308.34
664.11	16304.05
664.461	16359.19
664.811	16287.33
665.161	16297.5
665.511	16316.48
665.862	16388.79
666.212	16354.67
666.562	16478.73
666.912	16346.31
667.262	16375.01
667.612	16272.19
667.962	16371.84
668.312	16454.33
668.662	16386.53
669.011	16379.53
669.361	16370.49
669.711	16296.59
670.06	16391.28
670.41	16342.92
670.76	16361.22
671.109	16406.87
671.459	16333.43
671.808	16417.49
672.157	16469.47
672.507	16282.81
672.856	16289.59
673.205	16421.11
673.554	16436.02
673.904	16283.26
674.253	16386.98
674.602	16426.76
674.951	16118.52
675.3	16097.27
675.649	16352.86
675.998	16448.23
676.346	16336.36
676.695	16423.59
677.044	16332.52
677.393	16444.84
677.741	16361.22
678.09	16404.16
678.438	16355.35
678.787	16350.6
679.135	16383.37
679.484	16252.52
679.832	16344.73
680.181	16264.5
680.529	16370.71
680.877	16357.15
681.225	16294.33
681.573	16407.32
681.922	16298.17
682.27	16253.88
682.618	16283.26
682.966	16239.64
683.314	16355.57
683.661	16225.86
684.009	16252.75
684.357	16174.33
684.705	16132.53
685.053	16137.05
685.4	16145.63
685.748	16124.17
686.095	16136.6
686.443	16101.12
686.79	16016.37
687.138	16119.65
687.485	16074.68
687.832	16030.84
688.18	16052.76
688.527	15965.07
688.874	15993.32
689.221	15980.67
689.568	15871.07
689.915	15876.94
690.262	15890.95
690.609	15947.9
690.956	15846.43
691.303	15756.04
691.65	15705.42
691.997	15659.32
692.344	15698.87
692.69	15711.3
693.037	15710.17
693.383	15631.98
693.73	15708.13
694.077	15569.15
694.423	15597.17
694.769	15537.06
695.116	15551.07
695.462	15489.83
695.808	15432.89
696.155	15460.23
696.501	15383.17
696.847	15422.26
697.193	15329.39
697.539	15396.05
697.885	15212.55
698.231	15197.41
698.577	15215.26
698.923	15163.74
699.269	15183.63
699.614	15091.65
699.96	15095.04
700.306	15098.88
700.651	15046.23
700.997	15017.08
701.342	15037.87
701.688	14994.48
702.033	14921.26
702.379	14997.42
702.724	14969.17
703.069	14891.66
703.415	14867.7
703.76	14791.09
704.105	14820.02
704.45	14770.53
704.795	14755.16
705.14	14687.82
705.485	14654.15
705.83	14594.94
706.175	14591.33
706.52	14598.1
706.865	14573.02
707.209	14514.27
707.554	14553.81
707.899	14575.28
708.243	14552.68
708.588	14514.72
708.932	14410.09
709.277	14386.36
709.621	14441.72
709.966	14302.75
710.31	14407.38
710.654	14271.11
710.998	14384.33
711.342	14337.32
711.687	14274.27
712.031	14263.2
712.375	14215.52
712.719	14317.66
713.063	14262.52
713.407	14280.15
713.75	14230.88
714.094	14215.29
714.438	14080.38
714.782	14110.66
715.125	14199.92
715.469	14119.93
715.812	14073.37
716.156	14056.88
716.499	14080.38
716.843	14072.02
717.186	13954.28
717.53	14001.28
717.873	13994.5
718.216	13992.7
718.559	13947.05
718.902	14001.06
719.246	13992.02
719.589	13855.98
719.932	13817.79
720.275	13876.77
720.617	13829.99
720.96	13848.75
721.303	13920.16
721.646	13853.04
721.989	13757
722.331	13918.8
722.674	13841.51
723.016	13866.15
723.359	13831.35
723.701	13856.66
724.044	13774.85
724.386	13692.37
724.729	13699.6
725.071	13742.99
725.413	13755.42
725.755	13771.46
726.097	13697.34
726.439	13603.55
726.782	13713.83
727.124	13651.46
727.465	13633.38
727.807	13635.42
728.149	13623.44
728.491	13533.5
728.833	13539.6
729.175	13553.16
729.516	13584.8
729.858	13530.56
730.199	13529.88
730.541	13500.51
730.882	13528.53
731.224	13533.95
731.565	13450.11
731.906	13586.83
732.248	13459.38
732.589	13479.72
732.93	13366.72
733.271	13352.04
733.612	13377.35
733.953	13426.16
734.294	13398.81
734.635	13361.3
734.976	13367.4
735.317	13321.98
735.658	13271.59
735.999	13380.96
736.339	13331.7
736.68	13358.59
737.021	13322.88
737.361	13263
737.702	13331.47
738.042	13271.81
738.383	13149.33
738.723	13271.59
739.063	13152.95
739.404	13190.68
739.744	13114.3
740.084	13114.98
740.424	13144.13
740.764	13124.92
741.104	13180.52
741.444	13134.87
741.784	13059.84
742.124	13098.26
742.464	13043.34
742.804	12994.98
743.143	12988.43
743.483	12997.69
743.823	12989.79
744.162	13003.8
744.502	12990.24
744.841	12911.37
745.181	13033.4
745.52	12867.53
745.86	12912.95
746.199	12934.65
746.538	12843.57
746.877	12945.04
747.216	12803.8
747.556	12752.28
747.895	12828.21
748.234	12799.06
748.573	12723.35
748.911	12632.28
749.25	12739.62
749.589	12628.44
749.928	12597.93
750.267	12668.44
750.605	12615.33
750.944	12661.43
751.283	12499.4
751.621	12585.5
751.96	12481.78
752.298	12497.6
752.636	12519.74
752.975	12402.23
753.313	12367.88
753.651	12379.63
753.989	12401.55
754.327	12315.23
754.666	12290.14
755.004	12311.16
755.342	12260.31
755.679	12287.43
756.017	12140.77
756.355	12244.95
756.693	12169.92
757.031	12201.33
757.368	12095.12
757.706	12041.56
758.044	11984.84
758.381	12105.29
758.719	12053.09
759.056	11992.52
759.394	11951.62
759.731	11888.57
760.068	11915.01
760.405	11702.36
760.743	11789.59
761.08	11755.24
761.417	11704.85
761.754	11623.49
762.091	11614.23
762.428	11547.79
762.765	11471.18
763.102	11573.55
763.438	11474.12
763.775	11385.53
764.112	11441.13
764.449	11433.89
764.785	11391.18
765.122	11357.96
765.458	11285.65
765.795	11264.63
766.131	11182.83
766.467	11155.48
766.804	11080.46
767.14	11095.82
767.476	11034.13
767.812	10992.55
768.148	10967.01
768.485	10895.38
768.821	10853.8
769.157	10962.27
769.492	10869.84
769.828	10759.34
770.164	10720.69
770.5	10637.98
770.836	10686.8
771.171	10583.97
771.507	10626.23
771.842	10538.1
772.178	10474.6
772.513	10443.64
772.849	10422.4
773.184	10372.68
773.519	10360.25
773.855	10327.93
774.19	10289.29
774.525	10269.41
774.86	10241.84
775.195	10206.13
775.53	10142.63
775.865	10037.32
776.2	9993.48
776.535	9933.59
776.87	9910.54
777.205	9850.21
777.539	9871.68
777.874	9908.96
778.209	9792.58
778.543	9780.83
778.878	9682.53
779.212	9693.83
779.547	9615.19
779.881	9667.61
780.215	9612.02
780.55	9579.25
780.884	9523.21
781.218	9551.01
781.552	9536.32
781.886	9384.68
782.22	9346.49
782.554	9297.45
782.888	9238.02
783.222	9239.38
783.556	9178.81
783.889	9205.93
784.223	9094.29
784.557	9109.89
784.89	9092.26
785.224	9054.97
785.557	8958.25
785.891	8912.83
786.224	8946.28
786.558	8895.88
786.891	8802.33
787.224	8816.11
787.557	8808.88
787.891	8764.36
788.224	8789.22
788.557	8689.11
788.89	8723.46
789.223	8647.3
789.556	8616.57
789.888	8595.32
790.221	8520.75
790.554	8517.81
790.887	8442.56
791.219	8433.75
791.552	8403.92
791.884	8344.94
792.217	8353.52
792.549	8327.08
792.882	8247.31
793.214	8202.79
793.546	8254.09
793.879	8204.6
794.211	8119.41
794.543	8117.82
794.875	8117.15
795.207	8144.94
795.539	8042.12
795.871	8050.93
796.203	8035.34
796.535	7936.59
796.867	7910.6
797.198	7872.18
797.53	7878.28
797.862	7905.17
798.193	7848.45
798.525	7750.15
798.856	7810.03
799.188	7751.73
799.519	7654.78
799.85	7650.49
800.182	7613.43
800.513	7589.25
800.844	7489.37
801.175	7497.05
801.506	7599.64
801.837	7505.18
802.168	7426.54
802.499	7380.44
802.83	7425.64
803.161	7441
803.491	7376.83
803.822	7394.45
804.153	7359.2
804.483	7292.08
804.814	7281.69
805.145	7242.37
805.475	7275.59
805.805	7185.64
806.136	7133.67
806.466	7161.01
806.796	7176.38
807.126	7116.72
807.457	7072.88
807.787	7092.77
808.117	7008.02
808.447	7004.86
808.777	7014.12
809.107	6944.97
809.436	6936.84
809.766	6913.79
810.096	6897.52
810.426	6869.95
810.755	6925.54
811.085	6873.11
811.414	6762.83
811.744	6729.61
812.073	6782.04
812.403	6729.16
812.732	6694.36
813.061	6679.89
813.39	6700.23
813.719	6634.25
814.049	6679.89
814.378	6648.71
814.707	6537.3
815.036	6583.4
815.365	6544.31
815.693	6481.93
816.022	6542.27
816.351	6478.77
816.68	6443.97
817.008	6457.3
817.337	6423.86
817.665	6410.3
817.994	6403.52
818.322	6387.7
818.651	6382.73
818.979	6351.77
819.307	6373.01
819.636	6354.93
819.964	6321.26
820.292	6262.5
820.62	6308.15
820.948	6272.9
821.276	6248.49
821.604	6238.1
821.932	6288.49
822.259	6252.79
822.587	6228.61
822.915	6226.57
823.243	6269.74
823.57	6254.82
823.898	6265.67
824.225	6229.51
824.553	6188.61
824.88	6238.78
825.207	6205.11
825.535	6176.63
825.862	6201.49
826.189	6223.86
826.516	6182.73
826.843	6233.35
827.17	6170.53
827.497	6190.87
827.824	6137.08
828.151	6129.63
828.478	6160.36
828.805	6192
829.131	6120.36
829.458	6173.69
829.785	6144.54
830.111	6139.12
830.438	6126.69
830.764	6125.56
831.09	6084.2
831.417	6085.79
831.743	6124.43
832.069	6109.97
832.395	6089.4
832.722	6122.17
833.048	6060.25
833.374	6084.2
833.7	6023.64
834.026	6077.42
834.351	6046.47
834.677	6027.03
835.003	6091.21
835.329	6005.56
835.654	5996.52
835.98	6003.3
836.306	5984.32
836.631	6023.64
836.956	5950.2
837.282	5991.1
837.607	5903.19
837.932	5937.54
838.258	5920.59
838.583	5895.73
838.908	5827.49
839.233	5838.11
839.558	5830.88
839.883	5829.07
840.208	5834.49
840.533	5861.39
840.858	5804.66
841.182	5781.61
841.507	5835.17
841.832	5761.5
842.156	5782.74
842.481	5774.16
842.805	5737.09
843.13	5699.13
843.454	5726.93
843.778	5671.79
844.103	5687.83
844.427	5718.79
844.751	5681.5
845.075	5643.76
845.399	5628.4
845.723	5575.74
846.047	5614.61
846.371	5536.87
846.695	5516.99
847.019	5493.49
847.343	5514.05
847.666	5492.58
847.99	5423.2
848.313	5401.06
848.637	5380.72
848.96	5324.9
849.284	5333.94
849.607	5368.07
849.931	5318.35
850.254	5274.06
850.577	5259.82
850.9	5215.07
851.223	5167.39
851.546	5148.86
851.869	5121.97
852.192	5192.48
852.515	5108.64
852.838	5094.63
853.161	5021.18
853.483	5060.05
853.806	4992.03
854.129	5011.46
854.451	5000.39
854.774	4990.67
855.096	4980.5
855.419	4987.06
855.741	4931.24
856.063	4939.38
856.385	4906.38
856.708	4866.38
857.03	4867.06
857.352	4876.55
857.674	4884.24
857.996	4820.51
858.318	4784.13
858.64	4834.97
858.961	4830.68
859.283	4788.42
859.605	4771.92
859.926	4760.4
860.248	4749.32
860.57	4715.65
860.891	4713.62
861.212	4680.85
861.534	4698.7
861.855	4653.51
862.176	4675.43
862.498	4641.53
862.819	4660.51
863.14	4628.2
863.461	4655.99
863.782	4603.57
864.103	4602.44
864.424	4620.51
864.745	4595.88
865.065	4593.85
865.386	4582.32
865.707	4556.33
866.027	4603.57
866.348	4536.22
866.668	4552.49
866.989	4551.14
867.309	4460.29
867.63	4532.61
867.95	4525.38
868.27	4436.34
868.59	4451.25
868.91	4476.34
869.23	4472.27
869.55	4436.34
869.87	4452.61
870.19	4452.16
870.51	4400.86
870.83	4408.09
871.15	4391.82
871.469	4372.16
871.789	4434.76
872.109	4404.93
872.428	4392.5
872.748	4388.88
873.067	4380.75
873.386	4367.87
873.706	4364.02
874.025	4355.21
874.344	4342.1
874.663	4390.46
874.982	4325.83
875.301	4315.44
875.62	4323.12
875.939	4315.21
876.258	4268.66
876.577	4276.12
876.896	4315.66
877.214	4305.72
877.533	4301.2
877.852	4215.33
878.17	4265.5
878.489	4269.56
878.807	4274.76
879.125	4216
879.444	4224.59
879.762	4226.17
880.08	4238.83
880.398	4249.68
880.716	4184.37
881.034	4147.53
881.352	4191.6
881.67	4157.48
881.988	4143.24
882.306	4177.59
882.624	4153.18
882.941	4134.43
883.259	4123.58
883.577	4105.73
883.894	4106.18
884.212	4102.11
884.529	4103.24
884.846	4078.61
885.164	4075.9
885.481	4074.99
885.798	4056.69
886.115	4029.12
886.432	4073.86
886.75	4049
887.067	4022.79
887.383	4028.21
887.7	3975.33
888.017	3982.79
888.334	3963.13
888.651	3972.62
888.967	4013.75
889.284	3935.33
889.6	3925.62
889.917	3904.37
890.233	3940.53
890.55	3825.96
890.866	3928.78
891.182	3871.38
891.498	3877.26
891.815	3867.54
892.131	3897.82
892.447	3847.88
892.763	3821.67
893.079	3813.08
893.395	3777.82
893.71	3790.71
894.026	3828.22
894.342	3770.82
894.657	3746.86
894.973	3750.25
895.289	3713.87
895.604	3751.84
895.92	3731.72
896.235	3689.69
896.55	3675
896.865	3720.65
897.181	3699.18
897.496	3689.69
897.811	3660.09
898.126	3685.85
898.441	3630.03
898.756	3630.48
899.071	3599.75
899.386	3590.48
899.7	3579.41
900.015	3568.56
900.33	3502.8
900.644	3540.99
900.959	3557.72
901.273	3578.51
901.588	3464.39
901.902	3513.88
902.216	3493.76
902.531	3479.3
902.845	3460.77
903.159	3439.3
903.473	3468.45
903.787	3442.92
904.101	3397.04
904.415	3424.39
904.729	3383.94
905.042	3353.88
905.356	3369.47
905.67	3340.77
905.984	3399.08
906.297	3310.49
906.611	3331.51
906.924	3338.74
907.237	3350.04
907.551	3320.66
907.864	3299.87
908.177	3295.13
908.491	3285.18
908.804	3265.52
909.117	3252.19
909.43	3213.55
909.743	3213.32
910.056	3206.99
910.368	3188.24
910.681	3199.31
910.994	3180.78
911.307	3129.25
911.619	3112.08
911.932	3143.72
912.244	3114.79
912.557	3157.73
912.869	3099.65
913.181	3065.07
913.494	3056.49
913.806	3062.81
914.118	2990.05
914.43	3049.03
914.742	3024.17
915.054	3014.91
915.366	3015.81
915.678	3024.62
915.99	2971.74
916.302	2924.06
916.613	2951.63
916.925	2986.66
917.236	2928.36
917.548	2897.17
917.859	2928.36
918.171	2925.42
918.482	2883.61
918.794	2888.13
919.105	2869.15
919.416	2821.69
919.727	2861.24
920.038	2845.19
920.349	2833.44
920.66	2813.78
920.971	2770.17
921.282	2783.05
921.593	2796.61
921.903	2771.07
922.214	2738.3
922.525	2782.82
922.835	2744.18
923.146	2736.27
923.456	2719.32
923.767	2720.45
924.077	2709.83
924.387	2642.49
924.697	2689.27
925.008	2683.16
925.318	2678.42
925.628	2657.63
925.938	2656.5
926.248	2645.88
926.558	2617.18
926.867	2601.13
927.177	2588.93
927.487	2568.14
927.796	2580.34
928.106	2545.77
928.416	2527.91
928.725	2518.42
929.034	2526.11
929.344	2558.87
929.653	2525.88
929.962	2520.91
930.271	2487.91
930.581	2497.86
930.89	2496.5
931.199	2472.77
931.508	2468.25
931.817	2476.39
932.125	2443.62
932.434	2423.51
932.743	2412.66
933.051	2451.08
933.36	2394.36
933.669	2399.33
933.977	2385.54
934.286	2388.48
934.594	2385.09
934.902	2397.07
935.21	2381.48
935.519	2353.46
935.827	2348.71
936.135	2319.78
936.443	2304.42
936.751	2333.79
937.059	2286.11
937.367	2329.05
937.674	2315.49
937.982	2269.62
938.29	2267.81
938.597	2250.63
938.905	2232.1
939.213	2243.63
939.52	2240.92
939.827	2215.38
940.135	2210.86
940.442	2200.46
940.749	2215.61
941.056	2208.83
941.363	2190.52
941.67	2154.82
941.977	2153.46
942.284	2150.07
942.591	2171.76
942.898	2134.93
943.205	2148.04
943.511	2152.78
943.818	2129.05
944.125	2119.11
944.431	2107.81
944.738	2107.36
945.044	2088.83
945.35	2105.1
945.657	2091.32
945.963	2088.38
946.269	2058.55
946.575	2072.33
946.881	2041.82
947.187	2029.62
947.493	2033.69
947.799	1991.66
948.105	2050.19
948.41	2008.38
948.716	2003.86
949.022	2002.05
949.327	1969.51
949.633	1978.78
949.938	1979
950.244	1976.06
950.549	1946.23
950.854	1975.61
951.16	1960.02
951.465	1933.58
951.77	1910.98
952.075	1919.57
952.38	1912.11
952.685	1892.9
952.99	1888.83
953.294	1874.37
953.599	1882.06
953.904	1890.19
954.209	1868.27
954.513	1861.72
954.818	1865.56
955.122	1832.34
955.426	1833.24
955.731	1831.66
956.035	1822.4
956.339	1798.22
956.643	1809.29
956.948	1819.01
957.252	1827.37
957.556	1804.09
957.86	1764.77
958.163	1771.78
958.467	1776.75
958.771	1742.62
959.075	1750.31
959.378	1764.54
959.682	1756.41
959.985	1741.27
960.289	1742.85
960.592	1738.33
960.896	1757.99
961.199	1723.42
961.502	1729.06
961.805	1702.85
962.108	1657.43
962.411	1681.38
962.714	1677.31
963.017	1686.58
963.32	1682.06
963.623	1687.48
963.926	1647.26
964.228	1674.83
964.531	1644.77
964.833	1623.53
965.136	1630.54
965.438	1633.47
965.741	1638.67
966.043	1649.74
966.345	1600.25
966.648	1609.52
966.95	1606.81
967.252	1594.6
967.554	1615.4
967.856	1619.92
968.158	1569.07
968.46	1605.45
968.761	1589.18
969.063	1587.6
969.365	1605.68
969.666	1585.34
969.968	1563.19
970.269	1578.11
970.571	1548.5
970.872	1529.52
971.174	1533.82
971.475	1533.36
971.776	1516.41
972.077	1530.43
972.378	1498.11
972.679	1494.95
972.98	1479.58
973.281	1486.81
973.582	1469.41
973.883	1475.06
974.183	1474.83
974.484	1495.17
974.785	1463.31
975.085	1458.56
975.386	1463.53
975.686	1433.71
975.986	1428.96
976.287	1446.59
976.587	1409.3
976.887	1421.05
977.187	1407.27
977.487	1422.63
977.787	1426.02
978.087	1426.7
978.387	1407.49
978.687	1394.16
978.987	1381.73
979.286	1375.63
979.586	1374.27
979.885	1381.28
980.185	1396.42
980.484	1367.72
980.784	1362.52
981.083	1323.43
981.382	1355.52
981.682	1339.7
981.981	1387.6
982.28	1336.76
982.579	1333.14
982.878	1327.72
983.177	1309.87
983.475	1314.16
983.774	1290.88
984.073	1294.27
984.372	1293.14
984.67	1294.5
984.969	1296.99
985.267	1301.05
985.566	1261.28
985.864	1275.74
986.162	1285.01
986.461	1289.08
986.759	1272.35
987.057	1268.96
987.355	1251.79
987.653	1260.83
987.951	1266.03
988.249	1209.3
988.547	1260.15
988.844	1226.03
989.142	1240.04
989.44	1205.24
989.737	1216.08
990.035	1207.27
990.332	1200.72
990.63	1194.84
990.927	1216.99
991.224	1197.78
991.521	1195.52
991.819	1198.46
992.116	1172.7
992.413	1169.31
992.71	1173.15
993.006	1160.49
993.303	1169.53
993.6	1164.56
993.897	1149.19
994.193	1137.89
994.49	1140.61
994.787	1163.88
995.083	1152.81
995.379	1123.43
995.676	1149.87
995.972	1132.47
996.268	1132.7
996.565	1098.57
996.861	1105.58
997.157	1096.09
997.453	1111.23
997.749	1081.85
998.044	1062.42
998.34	1090.66
998.636	1080.49
998.932	1073.49
999.227	1056.77
999.523	1083.43
999.818	1087.27
1000.114	1053.15
1000.409	1048.63
1000.704	1063.55
1001	1058.57
1001.295	1043.88
1001.59	1057.22
1001.885	1057.22
1002.18	1030.1
1002.475	1030.55
1002.77	1020.38
1003.065	1045.24
1003.359	1016.32
1003.654	998.01
1003.949	980.84
1004.243	1013.6
1004.538	1014.51
1004.832	995.52
1005.127	990.33
1005.421	971.12
1005.715	989.42
1006.009	967.95
1006.304	952.59
1006.598	974.96
1006.892	986.71
1007.186	943.55
1007.48	973.15
1007.773	953.94
1008.067	956.43
1008.361	962.31
1008.655	944.45
1008.948	932.02
1009.242	931.35
1009.535	931.8
1009.829	927.28
1010.122	913.27
1010.415	905.13
1010.708	915.3
1011.001	920.95
1011.295	877.56
1011.588	902.42
1011.881	895.87
1012.173	893.38
1012.466	877.56
1012.759	890.89
1013.052	885.92
1013.344	876.21
1013.637	872.36
1013.93	863.78
1014.222	844.12
1014.514	836.88
1014.807	868.75
1015.099	852.03
1015.391	844.34
1015.683	834.17
1015.976	820.39
1016.268	832.37
1016.56	824
1016.851	833.5
1017.143	794.4
1017.435	821.29
1017.727	791.91
1018.018	784.91
1018.31	791.69
1018.602	809.09
1018.893	778.36
1019.185	791.91
1019.476	812.93
1019.767	770.67
1020.058	776.55
1020.35	781.07
1020.641	780.16
1020.932	768.64
1021.223	760.73
1021.514	761.41
1021.804	763.21
1022.095	758.24
1022.386	777
1022.677	746.49
1022.967	784.46
1023.258	746.72
1023.548	734.97
1023.839	727.74
1024.129	746.72
1024.419	723.67
1024.709	713.95
1025	715.98
1025.29	733.38
1025.58	715.76
1025.87	709.88
1026.16	724.12
1026.449	699.26
1026.739	690
1027.029	703.33
1027.319	680.96
1027.608	697.45
1027.898	692.71
1028.187	667.17
1028.477	678.7
1028.766	678.7
1029.055	667.17
1029.344	665.82
1029.634	663.56
1029.923	680.5
1030.212	673.27
1030.501	693.39
1030.79	653.16
1031.078	650.22
1031.367	668.08
1031.656	630.34
1031.945	635.53
1032.233	609.09
1032.522	647.96
1032.81	645.7
1033.099	662.65
1033.387	638.25
1033.675	620.39
1033.963	605.48
1034.251	618.59
1034.54	613.16
1034.828	623.11
1035.116	602.54
1035.403	630.56
1035.691	621.3
1035.979	605.93
1036.267	607.29
1036.554	588.76
1036.842	577.68
1037.129	588.3
1037.417	577.68
1037.704	592.6
1037.992	597.8
1038.279	600.05
1038.566	556.67
1038.853	556.67
1039.14	556.67
