Data from brown_tile_FLMS001491_037.txt Node
Date: Tue Feb 07 10:37:26 GMT 2017
User: dcchb
Spectrometer: FLMS00149
Trigger mode: 0
Integration Time (sec): 2.000000E-2
Scans to average: 10
Electric dark correction enabled: true
Nonlinearity correction enabled: false
Boxcar width: 0
XAxis mode: Wavelengths
Number of Pixels in Spectrum: 2048
>>>>>Begin Spectral Data<<<<<
341.393	-1.72
341.776	-1.72
342.16	-1.72
342.543	-71.55
342.927	-68.84
343.31	-69.74
343.693	-55.96
344.077	-74.94
344.46	-50.76
344.843	-45.56
345.226	-59.12
345.61	-29.29
345.993	-19.58
346.376	-10.76
346.759	-1.5
347.142	36.47
347.525	58.16
347.908	66.3
348.291	70.37
348.674	84.15
349.057	101.78
349.44	122.12
349.823	126.18
350.206	136.35
350.588	172.06
350.971	185.16
351.354	203.47
351.737	211.6
352.119	236.24
352.502	232.17
352.884	252.73
353.267	261.77
353.65	258.61
354.032	271.04
354.414	285.05
354.797	315.1
355.179	301.77
355.562	297.03
355.944	321.21
356.326	297.48
356.709	327.76
357.091	335.67
357.473	317.59
357.855	332.96
358.238	316.01
358.62	317.59
359.002	322.56
359.384	308.55
359.766	332.96
360.148	320.3
360.53	315.1
360.912	326.18
361.294	316.01
361.676	334.31
362.057	311.26
362.439	329.34
362.821	311.26
363.203	307.42
363.584	315.1
363.966	303.58
364.348	304.03
364.729	294.99
365.111	310.13
365.493	310.13
365.874	298.16
366.256	283.69
366.637	297.25
367.019	307.42
367.4	316.01
367.781	305.84
368.163	303.81
368.544	303.35
368.925	311.71
369.306	292.51
369.688	301.32
370.069	294.99
370.45	282.11
370.831	291.38
371.212	288.44
371.593	290.47
371.974	294.54
372.355	300.19
372.736	283.24
373.117	310.36
373.498	321.21
373.879	325.73
374.26	299.74
374.641	297.7
375.021	288.21
375.402	295.9
375.783	299.96
376.163	320.98
376.544	310.59
376.925	311.04
377.305	292.96
377.686	314.2
378.066	315.33
378.447	308.33
378.827	321.88
379.208	318.72
379.588	314.43
379.968	346.52
380.349	318.72
380.729	322.79
381.109	316.01
381.489	315.1
381.87	330.25
382.25	328.66
382.63	315.78
383.01	323.69
383.39	335.9
383.77	336.57
384.15	315.56
384.53	321.21
384.91	328.44
385.29	330.25
385.67	330.47
386.049	311.04
386.429	329.34
386.809	315.1
387.189	325.05
387.568	339.28
387.948	334.77
388.328	330.25
388.707	344.93
389.087	327.53
389.466	352.84
389.846	344.93
390.225	339.28
390.605	348.55
390.984	353.3
391.363	347.87
391.743	348.55
392.122	348.55
392.501	354.88
392.881	334.31
393.26	356.23
393.639	349.23
394.018	351.49
394.397	376.8
394.776	350.36
395.155	333.64
395.534	345.84
395.913	370.24
396.292	356.46
396.671	344.26
397.05	389.91
397.429	361.21
397.808	355.78
398.186	372.05
398.565	352.17
398.944	379.06
399.323	376.8
399.701	361.66
400.08	363.01
400.458	362.79
400.837	377.25
401.215	391.71
401.594	372.96
401.972	365.95
402.351	375.67
402.729	365.95
403.107	381.77
403.486	376.35
403.864	377.7
404.242	387.87
404.62	381.77
404.999	381.77
405.377	383.58
405.755	411.6
406.133	394.42
406.511	414.76
406.889	386.52
407.267	420.19
407.645	389
408.023	405.05
408.401	419.28
408.779	415.89
409.156	404.82
409.534	422.9
409.912	425.61
410.29	419.96
410.667	409.79
411.045	412.96
411.422	421.77
411.8	430.13
412.178	414.09
412.555	412.5
412.933	419.96
413.31	444.82
413.687	444.59
414.065	432.62
414.442	433.52
414.819	457.47
415.197	440.07
415.574	461.09
415.951	456.12
416.328	457.02
416.705	439.4
417.082	454.54
417.46	457.25
417.837	454.31
418.214	450.92
418.591	445.5
418.967	457.93
419.344	457.47
419.721	464.25
420.098	439.85
420.475	474.87
420.852	466.29
421.228	498.38
421.605	481.43
421.982	463.8
422.358	466.51
422.735	488.21
423.111	473.97
423.488	491.15
423.864	492.73
424.241	508.09
424.617	534.08
424.994	498.6
425.37	505.61
425.746	484.37
426.123	496.34
426.499	513.52
426.875	512.16
427.251	517.59
427.627	535.89
428.003	516
428.379	525.72
428.756	525.49
429.132	543.12
429.507	557.13
429.883	556.68
430.259	541.77
430.635	532.27
431.011	557.81
431.387	550.8
431.763	572.5
432.138	569.56
432.514	562.56
432.89	570.01
433.265	560.97
433.641	596
434.016	581.31
434.392	615.21
434.767	598.71
435.143	622.67
435.518	600.29
435.894	615.89
436.269	615.89
436.644	620.63
437.02	625.15
437.395	616.57
437.77	633.06
438.145	617.92
438.52	628.77
438.895	645.49
439.271	646.62
439.646	636
440.021	678.48
440.395	652.27
440.77	656.34
441.145	657.47
441.52	664.93
441.895	671.25
442.27	672.61
442.645	657.24
443.019	656.34
443.394	677.81
443.769	689.33
444.143	677.58
444.518	707.41
444.892	683.46
445.267	694.98
445.641	686.85
446.016	709.9
446.39	704.25
446.764	694.76
447.139	711.7
447.513	702.21
447.887	712.38
448.262	710.57
448.636	685.49
449.01	713.29
449.384	738.37
449.758	694.3
450.132	747.18
450.506	765.49
450.88	739.5
451.254	736.79
451.628	723.46
452.002	750.8
452.376	753.51
452.75	755.55
453.123	755.77
453.497	805.26
453.871	769.56
454.244	816.11
454.618	785.37
454.992	795.32
455.365	812.27
455.739	830.12
456.112	831.25
456.486	819.72
456.859	861.08
457.232	846.62
457.606	865.37
457.979	860.4
458.352	884.13
458.725	863.34
459.099	880.06
459.472	906.28
459.845	891.36
460.218	910.34
460.591	921.64
460.964	910.34
461.337	915.31
461.71	942.66
462.083	959.16
462.456	943.11
462.829	951.02
463.201	954.64
463.574	976.56
463.947	983.56
464.32	986.05
464.692	988.76
465.065	1009.1
465.438	995.31
465.81	1011.58
466.183	1014.07
466.555	1054.07
466.928	1056.55
467.3	1062.88
467.672	1082.99
468.045	1073.05
468.417	1100.17
468.789	1094.75
469.161	1125.03
469.534	1126.38
469.906	1142.43
470.278	1151.69
470.65	1175.87
471.022	1159.6
471.394	1210
471.766	1216.78
472.138	1219.04
472.51	1245.48
472.882	1236.21
473.253	1225.59
473.625	1256.77
473.997	1281.63
474.369	1290.9
474.74	1299.03
475.112	1350.33
475.484	1355.98
475.855	1379.94
476.227	1386.94
476.598	1393.72
476.97	1414.74
477.341	1442.76
477.713	1480.72
478.084	1469.65
478.455	1473.04
478.827	1497.22
479.198	1544
479.569	1534.96
479.94	1541.51
480.311	1594.39
480.682	1602.98
481.053	1655.63
481.424	1661.28
481.795	1683.2
482.166	1709.64
482.537	1710.1
482.908	1773.82
483.279	1755.97
483.65	1780.83
484.021	1821.05
484.391	1850.43
484.762	1833.48
485.133	1869.87
485.503	1926.14
485.874	1930.66
486.244	1952.8
486.615	1986.47
486.985	2028.73
487.356	2057.66
487.726	2056.08
488.097	2080.93
488.467	2110.54
488.837	2142.18
489.207	2182.85
489.578	2191.21
489.948	2222.17
490.318	2249.74
490.688	2246.81
491.058	2237.54
491.428	2313.92
491.798	2322.51
492.168	2329.29
492.538	2382.39
492.908	2382.17
493.278	2405.45
493.648	2404.77
494.017	2448.38
494.387	2470.3
494.757	2509.62
495.126	2527.93
495.496	2549.17
495.866	2591.66
496.235	2592.78
496.605	2608.38
496.974	2647.47
497.344	2623.07
497.713	2642.05
498.082	2667.13
498.452	2707.36
498.821	2721.82
499.19	2722.27
499.559	2748.94
499.928	2778.09
500.298	2793.68
500.667	2775.83
501.036	2793.68
501.405	2854.47
501.774	2794.36
502.143	2863.51
502.512	2904.19
502.88	2869.16
503.249	2920.23
503.618	2953
503.987	2962.94
504.356	2944.41
504.724	3013.79
505.093	3017.63
505.462	3048.59
505.83	3048.37
506.199	3006.33
506.567	3095.82
506.936	3085.88
507.304	3146.22
507.672	3138.99
508.041	3150.06
508.409	3152.09
508.777	3211.53
509.145	3253.56
509.514	3281.13
509.882	3254.69
510.25	3290.17
510.618	3305.31
510.986	3362.48
511.354	3398.19
511.722	3366.32
512.09	3435.7
512.458	3420.79
512.826	3420.33
513.193	3476.15
513.561	3452.42
513.929	3537.39
514.297	3567
514.664	3569.48
515.032	3560.22
515.4	3604.28
515.767	3641.34
516.135	3664.62
516.502	3646.09
516.869	3665.75
517.237	3746.43
517.604	3754.79
517.972	3776.03
518.339	3824.16
518.706	3842.92
519.073	3841.57
519.44	3844.05
519.808	3898.29
520.175	3952.98
520.542	3961.11
520.909	4011.5
521.276	4019.64
521.643	4022.58
522.009	4049.24
522.376	4097.15
522.743	4127.89
523.11	4190.48
523.477	4194.1
523.843	4234.55
524.21	4306.86
524.577	4324.72
524.943	4332.17
525.31	4384.6
525.676	4440.42
526.043	4432.51
526.409	4509.34
526.776	4513.86
527.142	4573.07
527.508	4567.65
527.874	4599.96
528.241	4634.31
528.607	4650.81
528.973	4734.65
529.339	4686.29
529.705	4775.1
530.071	4754.54
530.437	4843.12
530.803	4813.97
531.169	4891.03
531.535	4883.35
531.901	4901.65
532.267	4949.79
532.632	5016
532.998	5022.78
533.364	5030.91
533.73	5034.53
534.095	5096.45
534.461	5166.05
534.826	5118.82
535.192	5166.5
535.557	5240.17
535.923	5221.87
536.288	5278.82
536.653	5298.48
537.019	5308.42
537.384	5342.32
537.749	5385.25
538.114	5361.3
538.479	5455.31
538.845	5521.3
539.21	5477
539.575	5555.19
539.94	5526.27
540.305	5589.09
540.67	5601.97
541.034	5603.55
541.399	5672.93
541.764	5704.34
542.129	5721.06
542.494	5753.61
542.858	5807.62
543.223	5782.98
543.587	5825.47
543.952	5848.07
544.316	5896.65
544.681	5839.48
545.045	5940.49
545.41	6011
545.774	6025.69
546.138	6032.47
546.503	6084.44
546.867	6116.53
547.231	6216.87
547.595	6216.42
547.959	6225.46
548.324	6268.85
548.688	6294.38
549.052	6357.43
549.416	6389.3
549.779	6438.11
550.143	6431.1
550.507	6523.53
550.871	6565.11
551.235	6580.25
551.599	6630.42
551.962	6699.34
552.326	6750.87
552.689	6788.15
553.053	6791.09
553.417	6851.88
553.78	6951.31
554.143	6948.38
554.507	6981.82
554.87	7049.39
555.234	7157.41
555.597	7126.68
555.96	7249.16
556.323	7279.44
556.686	7282.83
557.05	7410.51
557.413	7480.79
557.776	7458.42
558.139	7584.07
558.502	7618.87
558.865	7683.5
559.228	7752.65
559.59	7748.36
559.953	7856.15
560.316	7960.78
560.679	7957.39
561.041	8069.03
561.404	8200.77
561.767	8249.81
562.129	8238.96
562.492	8417.26
562.854	8422.46
563.217	8474.66
563.579	8497.71
563.941	8643.93
564.304	8738.39
564.666	8812.73
565.028	8836.46
565.39	8939.74
565.753	9098.38
566.115	9114.87
566.477	9193.74
566.839	9223.35
567.201	9287.07
567.563	9374.08
567.925	9487.29
568.287	9570.68
568.648	9625.37
569.01	9716.89
569.372	9819.49
569.734	9903.55
570.095	9984.91
570.457	10038.69
570.819	10137.67
571.18	10155.98
571.542	10280.94
571.903	10365.01
572.265	10473.26
572.626	10533.14
572.987	10633.03
573.349	10619.69
573.71	10723.42
574.071	10794.83
574.432	10913.24
574.794	10994.82
575.155	11066.46
575.516	11056.07
575.877	11237.3
576.238	11214.48
576.599	11322.27
576.96	11434.36
577.32	11398.88
577.681	11593.23
578.042	11702.83
578.403	11651.3
578.763	11762.49
579.124	11799.32
579.485	11926.55
579.845	12002.93
580.206	12049.03
580.566	12108.69
580.927	12227.11
581.287	12208.13
581.648	12215.36
582.008	12343.26
582.368	12385.52
582.728	12469.14
583.089	12459.87
583.449	12552.52
583.809	12647.21
584.169	12735.34
584.529	12693.54
584.889	12849.01
585.249	12833.19
585.609	12836.13
585.969	12936.69
586.329	12946.86
586.688	13011.49
587.048	13111.83
587.408	13078.16
587.768	13055.56
588.127	13119.06
588.487	13284.26
588.846	13317.25
589.206	13323.12
589.565	13283.8
589.925	13432.05
590.284	13458.94
590.643	13450.35
591.003	13521.54
591.362	13575.55
591.721	13633.17
592.08	13645.6
592.44	13734.41
592.799	13780.74
593.158	13735.09
593.517	13839.49
593.876	13876.78
594.235	13900.06
594.593	13871.81
594.952	13985.48
595.311	13899.61
595.67	14113.39
596.029	14136.66
596.387	14173.27
596.746	14227.06
597.104	14164.01
597.463	14262.76
597.822	14345.47
598.18	14303.66
598.538	14248.52
598.897	14455.75
599.255	14298.92
599.613	14595.63
599.972	14490.78
600.33	14539.59
600.688	14645.8
601.046	14545.24
601.404	14669.3
601.762	14614.16
602.12	14721.05
602.478	14717.21
602.836	14755.63
603.194	14713.37
603.552	14812.58
603.91	14813.48
604.268	14963.53
604.625	14850.09
604.983	15015.06
605.341	14858.9
605.698	15008.96
606.056	15067.26
606.413	14976.64
606.771	15076.75
607.128	15133.02
607.485	15137.31
607.843	15122.17
608.2	15246.92
608.557	15286.91
608.914	15258.67
609.272	15331.21
609.629	15357.87
609.986	15410.3
610.343	15376.4
610.7	15569.84
611.057	15474.93
611.414	15493.46
611.771	15471.77
612.127	15585.44
612.484	15547.25
612.841	15598.77
613.198	15618.43
613.554	15664.08
613.911	15726
614.267	15727.81
614.624	15754.25
614.98	15802.83
615.337	15783.4
615.693	15831.31
616.05	15822.95
616.406	15963.51
616.762	15952.66
617.118	15794.25
617.475	15927.35
617.831	16061.36
618.187	15934.13
618.543	15987.01
618.899	16086.89
619.255	16045.76
619.611	16089.15
619.967	16159.89
620.323	16131.64
620.678	16133.45
621.034	16095.03
621.39	16047.8
621.746	16125.54
622.101	16272.65
622.457	16199.21
622.812	16194.01
623.168	16335.47
623.523	16278.3
623.879	16348.36
624.234	16224.06
624.589	16281.01
624.945	16346.55
625.3	16353.1
625.655	16338.86
626.01	16339.32
626.365	16360.78
626.72	16321.69
627.075	16419.99
627.43	16318.3
627.785	16320.79
628.14	16304.74
628.495	16352.65
628.85	16318.53
629.205	16340.67
629.559	16421.12
629.914	16265.87
630.269	16404.63
630.623	16253.89
630.978	16221.58
631.332	16343.61
631.687	16439.65
632.041	16320.33
632.396	16309.71
632.75	16290.73
633.104	16340.67
633.459	16268.13
633.813	16246.44
634.167	16259.09
634.521	16247.79
634.875	16327.11
635.229	16332.31
635.583	16202.6
635.937	16262.71
636.291	16174.12
636.645	16242.82
636.999	16149.04
637.352	16251.63
637.706	16061.36
638.06	16208.7
638.413	16163.28
638.767	15980.68
639.121	16149.26
639.474	16072.43
639.828	16128.25
640.181	16068.36
640.534	16084.86
640.888	16054.35
641.241	16032.21
641.594	15999.66
641.947	16084.41
642.301	15987.91
642.654	15976.84
643.007	16038.99
643.36	15988.82
643.713	16031.08
644.066	15991.53
644.419	15892.1
644.771	15834.92
645.124	15614.82
645.477	15733.68
645.83	15507.93
646.182	15499.11
646.535	15447.14
646.888	15460.24
647.24	15403.97
647.593	15605.32
647.945	15492.56
648.298	15353.58
648.65	15289.85
649.002	15355.16
649.355	15410.08
649.707	15391.09
650.059	15515.61
650.411	15617.98
650.763	15687.58
651.115	15891.19
651.467	15766
651.819	15805.77
652.171	15723.06
652.523	15814.36
652.875	15804.64
653.227	15635.61
653.578	15804.64
653.93	15733.46
654.282	15723.97
654.633	15738.65
654.985	15738.2
655.337	15713.12
655.688	15773.91
656.039	15817.3
656.391	15571.65
656.742	15613.23
657.094	15623.18
657.445	15746.56
657.796	15676.96
658.147	15563.07
658.498	15672.44
658.849	15748.82
659.2	15671.76
659.551	15751.76
659.902	15703.63
660.253	15687.81
660.604	15744.08
660.955	15736.39
661.306	15735.04
661.656	15717.41
662.007	15755.83
662.358	15695.49
662.708	15744.08
663.059	15719.9
663.409	15578.43
663.76	15729.39
664.11	15728.03
664.461	15782.95
664.811	15740.91
665.161	15737.52
665.511	15791.31
665.862	15795.38
666.212	15789.5
666.562	15794.47
666.912	15795.15
667.262	15738.65
667.612	15844.64
667.962	15864.3
668.312	15820.69
668.662	15956.05
669.011	15807.8
669.361	15769.61
669.711	15819.78
670.06	15798.31
670.41	15841.48
670.76	15813.23
671.109	15866.79
671.459	15861.14
671.808	15768.71
672.157	15807.8
672.507	15724.19
672.856	15739.33
673.205	15798.77
673.554	15819.1
673.904	15794.92
674.253	15931.87
674.602	15833.57
674.951	15604.87
675.3	15533.69
675.649	15770.07
675.998	15798.77
676.346	15808.71
676.695	15838.31
677.044	15765.09
677.393	15801.48
677.741	15822.04
678.09	15776.85
678.438	15807.35
678.787	15801.03
679.135	15789.73
679.484	15756.28
679.832	15781.14
680.181	15736.62
680.529	15780.91
680.877	15788.14
681.225	15669.73
681.573	15833.34
681.922	15732.33
682.27	15711.31
682.618	15689.84
682.966	15686.9
683.314	15754.92
683.661	15702.72
684.009	15636.51
684.357	15569.84
684.705	15578.66
685.053	15618.21
685.4	15700.01
685.748	15548.6
686.095	15574.82
686.443	15559.22
686.79	15528.94
687.138	15470.86
687.485	15496.63
687.832	15498.66
688.18	15528.49
688.527	15458.44
688.874	15564.42
689.221	15384.99
689.568	15378.89
689.915	15447.81
690.262	15448.04
690.609	15340.92
690.956	15256.86
691.303	15324.2
691.65	15260.93
691.997	15267.71
692.344	15231.55
692.69	15154.26
693.037	15145.45
693.383	15155.17
693.73	15218.22
694.077	15105.9
694.423	15069.75
694.769	15036.98
695.116	14966.24
695.462	14947.49
695.808	15015.06
696.155	14914.27
696.501	14876.76
696.847	14944.1
697.193	14849.41
697.539	14863.87
697.885	14758.79
698.231	14864.78
698.577	14742.07
698.923	14736.87
699.269	14677.21
699.614	14744.56
699.96	14603.54
700.306	14661.39
700.651	14681.51
700.997	14519.48
701.342	14521.96
701.688	14601.06
702.033	14560.15
702.379	14521.74
702.724	14456.65
703.069	14574.39
703.415	14291.46
703.76	14360.39
704.105	14410.33
704.45	14264.57
704.795	14234.96
705.14	14197
705.485	14274.51
705.83	14240.61
706.175	14240.39
706.52	14217.79
706.865	14142.09
707.209	14129.2
707.554	14175.98
707.899	14191.8
708.243	14156.77
708.588	14117.23
708.932	13957.01
709.277	13994.29
709.621	14048.53
709.966	13962.88
710.31	13944.35
710.654	13855.77
710.998	13886.05
711.342	13917.91
711.687	13961.3
712.031	13806.05
712.375	13863.9
712.719	13798.59
713.063	13902.09
713.407	13944.35
713.75	13832.49
714.094	13816.9
714.438	13815.31
714.782	13837.01
715.125	13702.1
715.469	13807.18
715.812	13708.65
716.156	13673.85
716.499	13676.79
716.843	13717.92
717.186	13607.41
717.53	13683.34
717.873	13692.61
718.216	13599.95
718.559	13630.91
718.902	13494.19
719.246	13529.9
719.589	13512.5
719.932	13459.84
720.275	13479.05
720.617	13552.04
720.96	13466.4
721.303	13421.65
721.646	13527.19
721.989	13397.92
722.331	13491.71
722.674	13437.47
723.016	13545.94
723.359	13376
723.701	13376.68
724.044	13393.86
724.386	13274.09
724.729	13284.71
725.071	13274.54
725.413	13389.11
725.755	13291.26
726.097	13343.01
726.439	13234.09
726.782	13264.82
727.124	13305.95
727.465	13257.59
727.807	13223.92
728.149	13136.24
728.491	13195.9
728.833	13252.62
729.175	13206.97
729.516	13064.83
729.858	13159.51
730.199	13199.96
730.541	13130.36
730.882	13169.46
731.224	13275.44
731.565	13067.09
731.906	13096.46
732.248	13151.6
732.589	13082.68
732.93	13029.12
733.271	13043.58
733.612	13072.06
733.953	13062.79
734.294	12976.24
734.635	12980.99
734.976	13096.24
735.317	12902.12
735.658	12931.95
735.999	12983.47
736.339	12926.98
736.68	13002.45
737.021	12925.39
737.361	12846.3
737.702	12938.28
738.042	12877.94
738.383	12864.38
738.723	12828.67
739.063	12799.3
739.404	12893.98
739.744	12747.32
740.084	12762.46
740.424	12798.39
740.764	12789.8
741.104	12774.66
741.444	12691.5
741.784	12663.25
742.124	12723.59
742.464	12699.86
742.804	12686.3
743.143	12649.02
743.483	12604.73
743.823	12581.9
744.162	12506.42
744.502	12569.47
744.841	12521.11
745.181	12602.69
745.52	12524.05
745.86	12497.38
746.199	12461.45
746.538	12475.69
746.877	12545.52
747.216	12456.71
747.556	12477.27
747.895	12449.25
748.234	12486.08
748.573	12372.19
748.911	12437.95
749.25	12370.38
749.589	12340.55
749.928	12299.65
750.267	12351.85
750.605	12248.35
750.944	12278.41
751.283	12164.28
751.621	12243.15
751.96	12136.71
752.298	12136.04
752.636	12103.72
752.975	12112.08
753.313	12055.14
753.651	12117.05
753.989	12005.64
754.327	12036.15
754.666	11950.73
755.004	11963.39
755.342	12012.42
755.679	11996.15
756.017	11870.73
756.355	11858.76
756.693	11894.46
757.031	11852.43
757.368	11765.65
757.706	11774.69
758.044	11753
758.381	11752.09
758.719	11651.3
759.056	11680
759.394	11651.53
759.731	11494.7
760.068	11461.25
760.405	11506.45
760.743	11391.88
761.08	11415.6
761.417	11379.9
761.754	11371.09
762.091	11382.38
762.428	11277.3
762.765	11323.4
763.102	11257.42
763.438	11178.1
763.775	11181.71
764.112	11226.91
764.449	11190.52
764.785	11124.76
765.122	10975.62
765.458	10945.79
765.795	10920.48
766.131	10976.07
766.467	10877.76
766.804	10829.86
767.14	10857.43
767.476	10771.33
767.812	10735.62
768.148	10724.55
768.485	10661.5
768.821	10595.96
769.157	10539.92
769.492	10636.87
769.828	10568.85
770.164	10418.57
770.5	10424.44
770.836	10466.02
771.171	10385.12
771.507	10337.21
771.842	10271.68
772.178	10238.01
772.513	10208.18
772.849	10193.04
773.184	10149.87
773.519	10137.67
773.855	10057.9
774.19	10019.03
774.525	9923.21
774.86	10024
775.195	9953.95
775.53	9945.59
775.865	9852.03
776.2	9711.92
776.535	9746.5
776.87	9754.18
777.205	9674.86
777.539	9656.55
777.874	9641.41
778.209	9569.78
778.543	9542.43
778.878	9484.58
779.212	9459.72
779.547	9398.03
779.881	9424.7
780.215	9399.61
780.55	9396.9
780.884	9339.95
781.218	9347.18
781.552	9277.35
781.886	9228.09
782.22	9151.03
782.554	9156
782.888	9028.32
783.222	8991.26
783.556	8906.74
783.889	8963.24
784.223	8928.44
784.557	8834.2
784.89	8878.5
785.224	8803.7
785.557	8811.83
785.891	8713.75
786.224	8686.86
786.558	8759.4
786.891	8611.61
787.224	8576.36
787.557	8614.55
787.891	8557.37
788.224	8537.04
788.557	8558.5
788.89	8448.9
789.223	8503.14
789.556	8413.87
789.888	8381.56
790.221	8320.32
790.554	8272.64
790.887	8413.65
791.219	8229.02
791.552	8284.16
791.884	8126.2
792.217	8180.43
792.549	8148.12
792.882	8058.86
793.214	8010.95
793.546	8051.17
793.879	7975.92
794.211	7911.29
794.543	7943.6
794.875	7867.67
795.207	7920.33
795.539	7852.99
795.871	7852.08
796.203	7765.76
796.535	7768.02
796.867	7742.71
797.198	7698.41
797.53	7662.48
797.862	7579.32
798.193	7661.8
798.525	7643.73
798.856	7603.27
799.188	7486.89
799.519	7487.57
799.85	7478.31
800.182	7430.85
800.513	7387.46
800.844	7373.68
801.175	7332.55
801.506	7349.27
801.837	7293
802.168	7282.38
802.499	7213.91
802.83	7214.58
803.161	7170.29
803.491	7222.95
803.822	7146.56
804.153	7149.73
804.483	7024.98
804.814	7104.3
805.145	6992.67
805.475	7010.97
805.805	6995.83
806.136	7024.53
806.466	6993.8
806.796	6974.14
807.126	6886.01
807.457	6893.91
807.787	6928.49
808.117	6800.58
808.447	6860.24
808.777	6830.87
809.107	6848.94
809.436	6829.28
809.766	6789.74
810.096	6763.97
810.426	6724.88
810.755	6707.25
811.085	6705.67
811.414	6696.18
811.744	6614.6
812.073	6638.78
812.403	6590.87
812.732	6594.26
813.061	6545.45
813.39	6485.56
813.719	6541.83
814.049	6526.92
814.378	6477.43
814.707	6450.99
815.036	6405.34
815.365	6394.49
815.693	6337.77
816.022	6381.84
816.351	6336.19
816.68	6264.1
817.008	6324.89
817.337	6225.46
817.665	6268.39
817.994	6269.07
818.322	6271.56
818.651	6215.29
818.979	6206.93
819.307	6239.92
819.636	6145.91
819.964	6093.94
820.292	6163.76
820.62	6138.23
820.948	6107.49
821.276	6150.88
821.604	6168.96
821.932	6135.52
822.259	6126.03
822.587	6153.37
822.915	6061.62
823.243	6112.47
823.57	6074.5
823.898	6108.4
824.225	6060.04
824.553	6051.45
824.88	6052.58
825.207	6070.21
825.535	6065.01
825.862	6077.89
826.189	6011
826.516	6032.92
826.843	6010.1
827.17	6005.35
827.497	6063.43
827.824	6020.27
828.151	6016.65
828.478	5992.92
828.805	6039.7
829.131	5993.6
829.458	6033.37
829.785	6006.03
830.111	5966.71
830.438	6021.62
830.764	5980.72
831.09	5935.52
831.417	5945.69
831.743	5896.43
832.069	5979.81
832.395	5874.05
832.722	5938.46
833.048	5924
833.374	5881.96
833.7	5888.74
834.026	5931.68
834.351	5920.61
834.677	5914.73
835.003	5883.55
835.329	5876.99
835.654	5873.38
835.98	5888.74
836.306	5820.95
836.631	5808.97
836.956	5803.1
837.282	5841.51
837.607	5774.85
837.932	5749.09
838.258	5758.13
838.583	5766.71
838.908	5708.18
839.233	5741.85
839.558	5768.75
839.883	5718.8
840.208	5709.54
840.533	5714.96
840.858	5654.63
841.182	5707.51
841.507	5633.61
841.832	5606.04
842.156	5601.52
842.481	5622.31
842.805	5559.94
843.13	5590.67
843.454	5585.02
843.778	5568.07
844.103	5529.66
844.427	5515.19
844.751	5525.59
845.075	5480.39
845.399	5489.88
845.723	5472.03
846.047	5416.21
846.371	5372.15
846.695	5413.95
847.019	5352.03
847.343	5314.07
847.666	5293.05
847.99	5231.13
848.313	5291.02
848.637	5241.98
848.96	5209.67
849.284	5238.14
849.607	5166.95
849.931	5137.12
850.254	5103.23
850.577	5093.51
850.9	5098.26
851.223	5042.66
851.546	4997.24
851.869	5014.19
852.192	5024.59
852.515	4963.12
852.838	4984.13
853.161	4936.45
853.483	4947.07
853.806	4907.3
854.129	4918.83
854.451	4872.95
854.774	4863.91
855.096	4886.96
855.419	4848.77
855.741	4876.34
856.063	4821.43
856.385	4806.74
856.708	4739.85
857.03	4798.83
857.352	4809.22
857.674	4729.23
857.996	4716.8
858.318	4729
858.64	4720.86
858.961	4698.72
859.283	4686.52
859.605	4633.86
859.926	4669.57
860.248	4648.1
860.57	4609.91
860.891	4596.12
861.212	4559.96
861.534	4585.27
861.855	4560.87
862.176	4579.63
862.498	4571.49
862.819	4560.19
863.14	4552.28
863.461	4521.55
863.782	4541.89
864.103	4543.24
864.424	4522.23
864.745	4479.29
865.065	4449.01
865.386	4467.09
865.707	4479.74
866.027	4467.76
866.348	4443.81
866.668	4449.01
866.989	4336.47
867.309	4394.55
867.63	4439.74
867.95	4366.3
868.27	4395
868.59	4388.9
868.91	4342.57
869.23	4375.79
869.55	4333.3
869.87	4374.88
870.19	4313.87
870.51	4312.51
870.83	4358.16
871.15	4325.39
871.469	4245.17
871.789	4298.05
872.109	4315.68
872.428	4296.47
872.748	4321.33
873.067	4308.45
873.386	4293.98
873.706	4269.35
874.025	4229.8
874.344	4257.15
874.663	4238.84
874.982	4256.7
875.301	4254.44
875.62	4199.52
875.939	4183.25
876.258	4207.21
876.577	4177.15
876.896	4164.72
877.214	4184.83
877.533	4173.99
877.852	4161.33
878.17	4175.12
878.489	4178.05
878.807	4153.65
879.125	4143.48
879.444	4137.15
879.762	4130.37
880.08	4117.49
880.398	4101.45
880.716	4125.63
881.034	4106.64
881.352	4086.08
881.67	4097.83
881.988	4048.11
882.306	4060.54
882.624	4067.32
882.941	4049.02
883.259	4024.16
883.577	4027.78
883.894	3970.15
884.212	3994.78
884.529	3996.82
884.846	3999.3
885.164	4004.27
885.481	3924.5
885.798	4001.34
886.115	3995.01
886.432	3916.59
886.75	3905.29
887.067	3967.66
887.383	3933.99
887.7	3872.3
888.017	3908.68
888.334	3851.28
888.651	3923.82
888.967	3850.6
889.284	3876.82
889.6	3827.1
889.917	3795.69
890.233	3833.88
890.55	3801.34
890.866	3792.3
891.182	3768.57
891.498	3815.8
891.815	3725.41
892.131	3755.92
892.447	3778.52
892.763	3732.64
893.079	3725.86
893.395	3652.19
893.71	3699.2
894.026	3718.63
894.342	3704.17
894.657	3642.02
894.973	3642.7
895.289	3617.16
895.604	3655.13
895.92	3653.55
896.235	3581.69
896.55	3622.59
896.865	3634.57
897.181	3615.36
897.496	3651.97
897.811	3600.67
898.126	3519.77
898.441	3549.82
898.756	3557.51
899.071	3577.39
899.386	3527.9
899.7	3511.86
900.015	3498.98
900.33	3443.38
900.644	3460.78
900.959	3460.33
901.273	3426.44
901.588	3459.65
901.902	3422.37
902.216	3425.31
902.531	3388.47
902.845	3411.07
903.159	3360.67
903.473	3369.94
903.787	3389.83
904.101	3305.99
904.415	3334.23
904.729	3358.19
905.042	3302.37
905.356	3313.44
905.67	3271.19
905.984	3295.59
906.297	3286.55
906.611	3281.35
906.924	3283.39
907.237	3267.34
907.551	3243.84
907.864	3232.77
908.177	3215.14
908.491	3185.31
908.804	3192.32
909.117	3192.09
909.43	3152.32
909.743	3142.6
910.056	3141.7
910.368	3114.13
910.681	3107.35
910.994	3107.8
911.307	3120.45
911.619	3080.68
911.932	3076.61
912.244	3048.59
912.557	3060.12
912.869	3057.18
913.181	3027.12
913.494	3006.79
913.806	3019.67
914.118	2986.45
914.43	3004.75
914.742	2944.64
915.054	2985.54
915.366	2915.49
915.678	2969.72
915.99	2964.98
916.302	2920.69
916.613	2891.76
916.925	2888.37
917.236	2878.88
917.548	2825.32
917.859	2871.87
918.171	2853.8
918.482	2824.42
918.794	2818.54
919.105	2795.94
919.416	2812.89
919.727	2816.28
920.038	2778.09
920.349	2786.45
920.66	2753.01
920.971	2744.87
921.282	2752.33
921.593	2725.89
921.903	2676.62
922.214	2685.44
922.525	2698.09
922.835	2661.03
923.146	2695.83
923.456	2673.69
923.767	2645.66
924.077	2644.31
924.387	2601.15
924.697	2628.94
925.008	2622.16
925.318	2635.5
925.628	2583.97
925.938	2596.63
926.248	2573.35
926.558	2547.81
926.867	2522.28
927.177	2532.67
927.487	2537.42
927.796	2527.25
928.106	2521.37
928.416	2507.59
928.725	2507.59
929.034	2509.85
929.344	2524.09
929.653	2468.95
929.962	2459.68
930.271	2443.86
930.581	2445.22
930.89	2426.24
931.199	2388.04
931.508	2440.7
931.817	2405.45
932.125	2386.46
932.434	2401.6
932.743	2446.8
933.051	2395.73
933.36	2388.72
933.669	2342.4
933.977	2344.43
934.286	2375.16
934.594	2328.16
934.902	2276.64
935.21	2315.5
935.519	2298.56
935.827	2300.36
936.135	2295.84
936.443	2266.92
936.751	2256.3
937.059	2250.2
937.367	2268.27
937.674	2268.5
937.982	2221.27
938.29	2256.3
938.597	2235.96
938.905	2210.42
939.213	2212.23
939.52	2186.92
939.827	2208.16
940.135	2186.02
940.442	2181.27
940.749	2160.25
941.056	2153.25
941.363	2183.3
941.67	2147.82
941.977	2128.84
942.284	2123.64
942.591	2121.38
942.898	2119.58
943.205	2088.62
943.511	2086.58
943.818	2097.66
944.125	2073.7
944.431	2061.95
944.738	2089.52
945.044	2080.71
945.35	2047.94
945.657	2028.96
945.963	2040.48
946.269	2012.46
946.575	2019.01
946.881	2009.52
947.187	1982.63
947.493	1991.9
947.799	1988.96
948.105	1973.14
948.41	1955.97
948.716	1986.93
949.022	1963.87
949.327	1958.23
949.633	1926.14
949.938	1934.27
950.244	1968.39
950.549	1933.82
950.854	1940.37
951.16	1917.1
951.465	1902.41
951.77	1877.78
952.075	1875.74
952.38	1866.7
952.685	1864.44
952.99	1871.9
953.294	1891.11
953.599	1838.45
953.904	1844.1
954.209	1795.29
954.513	1840.71
954.818	1825.57
955.122	1854.27
955.426	1806.36
955.731	1815.86
956.035	1789.42
956.339	1789.64
956.643	1788.29
956.948	1746.25
957.252	1773.6
957.556	1750.77
957.86	1765.24
958.163	1777.44
958.467	1766.59
958.771	1743.54
959.075	1734.28
959.378	1734.5
959.682	1725.92
959.985	1711.23
960.289	1723.2
960.592	1713.71
960.896	1710.77
961.199	1693.6
961.502	1675.97
961.805	1673.49
962.108	1701.73
962.411	1671.23
962.714	1684.33
963.017	1653.83
963.32	1651.11
963.623	1649.53
963.926	1667.61
964.228	1614.96
964.531	1624.9
964.833	1631.91
965.136	1608.18
965.438	1626.26
965.741	1584
966.043	1615.86
966.345	1604.56
966.648	1579.25
966.95	1601.85
967.252	1548.07
967.554	1569.31
967.856	1569.08
968.158	1546.03
968.46	1556.43
968.761	1567.05
969.063	1543.77
969.365	1529.54
969.666	1525.47
969.968	1499.93
970.269	1506.94
970.571	1533.38
970.872	1496.99
971.174	1487.73
971.475	1460.39
971.776	1492.93
972.077	1484.34
972.378	1457.67
972.679	1455.41
972.98	1481.63
973.281	1465.58
973.582	1446.83
973.883	1438.24
974.183	1453.15
974.484	1430.78
974.785	1440.72
975.085	1416.77
975.386	1454.74
975.686	1411.12
975.986	1415.41
976.287	1394.85
976.587	1406.6
976.887	1391.23
977.187	1388.75
977.487	1381.52
977.787	1364.79
978.087	1369.31
978.387	1371.8
978.687	1378.35
978.987	1369.54
979.286	1383.1
979.586	1353.72
979.885	1380.16
980.185	1367.28
980.484	1334.74
980.784	1330.9
981.083	1327.73
981.382	1343.1
981.682	1309.65
981.981	1301.75
982.28	1300.62
982.579	1312.59
982.878	1329.54
983.177	1325.25
983.475	1320.5
983.774	1286.6
984.073	1283.89
984.372	1302.42
984.67	1280.5
984.969	1264.01
985.267	1271.01
985.566	1272.14
985.864	1259.26
986.162	1251.35
986.461	1233.72
986.759	1235.76
987.057	1231.69
987.355	1222.65
987.653	1240.05
987.951	1229.66
988.249	1210.45
988.547	1227.85
988.844	1230.79
989.142	1228.3
989.44	1180.39
989.737	1192.14
990.035	1191.24
990.332	1195.08
990.63	1175.87
990.927	1191.01
991.224	1181.75
991.521	1183.78
991.819	1187.62
992.116	1169.55
992.413	1146.5
992.71	1174.97
993.006	1135.87
993.303	1139.94
993.6	1146.04
993.897	1170.45
994.193	1114.86
994.49	1147.4
994.787	1153.5
995.083	1124.12
995.379	1120.73
995.676	1110.79
995.972	1120.51
996.268	1112.15
996.565	1084.8
996.861	1102.2
997.157	1113.28
997.453	1066.05
997.749	1074.18
998.044	1095.42
998.34	1060.62
998.636	1069.89
998.932	1068.31
999.227	1047.74
999.523	1084.12
999.818	1048.42
1000.114	1045.93
1000.409	1046.61
1000.704	1008.65
1001	1022.43
1001.295	1016.33
1001.59	1036.67
1001.885	1001.64
1002.18	1006.39
1002.475	994.86
1002.77	977.69
1003.065	1019.04
1003.359	1007.29
1003.654	1014.07
1003.949	981.53
1004.243	972.71
1004.538	987.86
1004.832	1001.19
1005.127	975.65
1005.421	944.69
1005.715	967.06
1006.009	960.29
1006.304	928.87
1006.598	951.02
1006.892	949.66
1007.186	948.76
1007.48	939.27
1007.773	945.14
1008.067	937.91
1008.361	935.2
1008.655	906.73
1008.948	919.61
1009.242	912.15
1009.535	932.04
1009.829	916.44
1010.122	918.7
1010.415	908.08
1010.708	910.12
1011.001	883.23
1011.295	899.27
1011.588	880.29
1011.881	854.53
1012.173	878.93
1012.466	887.75
1012.759	873.73
1013.052	882.55
1013.344	859.5
1013.637	857.92
1013.93	859.72
1014.222	855.66
1014.514	852.94
1014.807	861.53
1015.099	837.12
1015.391	850.01
1015.683	834.41
1015.976	844.81
1016.268	822.21
1016.56	811.59
1016.851	818.59
1017.143	803.23
1017.435	781.31
1017.727	811.59
1018.018	806.84
1018.31	753.74
1018.602	769.33
1018.893	793.06
1019.185	808.43
1019.476	803.23
1019.767	783.12
1020.058	767.97
1020.35	760.97
1020.641	774.98
1020.932	744.92
1021.223	774.3
1021.514	767.52
1021.804	751.03
1022.095	747.64
1022.386	720.52
1022.677	741.08
1022.967	753.29
1023.258	710.57
1023.548	721.42
1023.839	725.49
1024.129	737.47
1024.419	737.69
1024.709	671.25
1025	705.83
1025.29	709.44
1025.58	711.03
1025.87	704.25
1026.16	689.78
1026.449	689.56
1026.739	672.84
1027.029	678.03
1027.319	659.95
1027.608	671.03
1027.898	681.87
1028.187	661.99
1028.477	662.21
1028.766	679.84
1029.055	670.8
1029.344	666.51
1029.634	649.56
1029.923	647.98
1030.212	660.18
1030.501	642.55
1030.79	661.76
1031.078	638.26
1031.367	657.69
1031.656	642.55
1031.945	644.59
1032.233	625.83
1032.522	610.01
1032.81	623.12
1033.099	627.64
1033.387	606.17
1033.675	604.14
1033.963	609.79
1034.251	596.45
1034.54	609.56
1034.828	608.2
1035.116	596.91
1035.403	580.18
1035.691	624.93
1035.979	616.57
1036.267	594.19
1036.554	589.9
1036.842	581.09
1037.129	571.6
1037.417	570.24
1037.704	587.41
1037.992	567.98
1038.279	576.79
1038.566	573.85
1038.853	573.85
1039.14	573.85
