Data from brown_tile_FLMS001491_064.txt Node
Date: Tue Feb 07 10:37:50 GMT 2017
User: dcchb
Spectrometer: FLMS00149
Trigger mode: 0
Integration Time (sec): 2.000000E-2
Scans to average: 10
Electric dark correction enabled: true
Nonlinearity correction enabled: false
Boxcar width: 0
XAxis mode: Wavelengths
Number of Pixels in Spectrum: 2048
>>>>>Begin Spectral Data<<<<<
341.393	-8.81
341.776	-8.81
342.16	-8.81
342.543	-83.61
342.927	-66.21
343.31	-68.02
343.693	-76.16
344.077	-69.38
344.46	-70.96
344.843	-55.82
345.226	-49.72
345.61	-18.3
345.993	-13.56
346.376	4.07
346.759	4.97
347.142	26.21
347.525	42.26
347.908	63.05
348.291	70.51
348.674	97.4
349.057	113.44
349.44	123.39
349.823	127.23
350.206	157.28
350.588	178.98
350.971	188.24
351.354	205.42
351.737	217.85
352.119	233.44
352.502	247.68
352.884	251.97
353.267	251.29
353.65	267.34
354.032	272.31
354.414	297.62
354.797	289.71
355.179	299.88
355.562	314.57
355.944	311.63
356.326	291.29
356.709	321.35
357.091	293.78
357.473	355.47
357.855	316.83
358.238	319.09
358.62	327.68
359.002	322.7
359.384	303.72
359.766	327.9
360.148	324.06
360.53	317.73
360.912	321.57
361.294	322.93
361.676	301.24
362.057	318.86
362.439	329.93
362.821	302.59
363.203	312.53
363.584	335.36
363.966	322.03
364.348	308.47
364.729	304.17
365.111	286.55
365.493	308.47
365.874	295.13
366.256	300.56
366.637	310.95
367.019	297.62
367.4	287.9
367.781	305.53
368.163	299.43
368.544	297.85
368.925	322.25
369.306	291.52
369.688	306.21
370.069	299.88
370.45	308.69
370.831	284.06
371.212	276.15
371.593	321.8
371.974	296.49
372.355	281.12
372.736	296.49
373.117	298.75
373.498	309.37
373.879	296.49
374.26	323.61
374.641	319.54
375.021	311.18
375.402	283.16
375.783	305.98
376.163	293.78
376.544	300.11
376.925	317.73
377.305	303.72
377.686	302.59
378.066	299.43
378.447	293.1
378.827	314.12
379.208	297.39
379.588	301.69
379.968	315.02
380.349	306.66
380.729	310.95
381.109	297.85
381.489	321.8
381.87	303.95
382.25	310.05
382.63	316.38
383.01	321.57
383.39	341.46
383.77	305.75
384.15	323.16
384.53	322.93
384.91	323.83
385.29	316.38
385.67	319.99
386.049	340.56
386.429	339.2
386.809	332.42
387.189	306.66
387.568	336.04
387.948	311.86
388.328	340.78
388.707	324.29
389.087	354.57
389.466	336.26
389.846	346.88
390.225	352.76
390.605	345.3
390.984	343.49
391.363	349.82
391.743	347.34
392.122	337.39
392.501	359.54
392.881	345.3
393.26	347.56
393.639	365.64
394.018	350.5
394.397	348.47
394.776	369.03
395.155	335.13
395.534	357.05
395.913	357.5
396.292	342.82
396.671	349.6
397.05	376.49
397.429	355.47
397.808	365.64
398.186	346.21
398.565	334
398.944	373.32
399.323	358.18
399.701	370.39
400.08	362.7
400.458	360.89
400.837	360.44
401.215	364.06
401.594	358.18
401.972	374.91
402.351	374.45
402.729	366.54
403.107	378.07
403.486	363.38
403.864	394.57
404.242	374
404.62	385.07
404.999	405.19
405.377	395.47
405.755	402.7
406.133	409.25
406.511	413.1
406.889	406.09
407.267	398.18
407.645	407.45
408.023	415.13
408.401	390.27
408.779	412.64
409.156	403.61
409.534	414.9
409.912	423.04
410.29	434.34
410.667	422.59
411.045	416.94
411.422	430.27
411.8	417.84
412.178	424.4
412.555	428.92
412.933	426.66
413.31	426.43
413.687	429.59
414.065	439.31
414.442	460.55
414.819	439.31
415.197	453.1
415.574	442.7
415.951	458.52
416.328	465.52
416.705	455.36
417.082	446.32
417.46	448.12
417.837	461.23
418.214	442.47
418.591	453.77
418.967	459.65
419.344	468.01
419.721	475.02
420.098	472.08
420.475	472.53
420.852	458.74
421.228	464.85
421.605	477.05
421.982	478.41
422.358	479.99
422.735	489.7
423.111	505.07
423.488	509.59
423.864	500.55
424.241	512.75
424.617	517.27
424.994	494
425.37	491.29
425.746	517.27
426.123	511.62
426.499	505.98
426.875	524.96
427.251	526.77
427.627	516.37
428.003	548.69
428.379	542.13
428.756	542.81
429.132	540.1
429.507	536.48
429.883	540.55
430.259	542.13
430.635	557.5
431.011	568.57
431.387	572.19
431.763	554.34
432.138	564.5
432.514	570.38
432.89	577.61
433.265	568.35
433.641	608.12
434.016	599.76
434.392	592.98
434.767	609.48
435.143	594.79
435.518	606.76
435.894	606.09
436.269	620.32
436.644	642.69
437.02	619.42
437.395	603.37
437.77	649.7
438.145	619.19
438.52	651.06
438.895	644.73
439.271	630.04
439.646	640.21
440.021	658.06
440.395	670.72
440.77	651.73
441.145	663.71
441.52	671.85
441.895	684.5
442.27	681.11
442.645	681.34
443.019	685.63
443.394	696.48
443.769	685.86
444.143	712.07
444.518	697.16
444.892	677.27
445.267	682.69
445.641	704.39
446.016	691.73
446.39	692.19
446.764	690.83
447.139	686.54
447.513	715.91
447.887	729.92
448.262	721.56
448.636	700.09
449.01	724.73
449.384	712.07
449.758	738.29
450.132	750.04
450.506	749.13
450.88	760.66
451.254	745.52
451.628	748.45
452.002	757.95
452.376	759.53
452.75	781.22
453.123	766.08
453.497	800.43
453.871	812.18
454.244	800.43
454.618	791.84
454.992	811.73
455.365	805.63
455.739	840.88
456.112	841.33
456.486	846.76
456.859	836.14
457.232	858.51
457.606	876.81
457.979	845.85
458.352	874.1
458.725	898.06
459.099	874.33
459.472	867.32
459.845	884.72
460.218	912.07
460.591	929.24
460.964	930.37
461.337	932.4
461.71	962.01
462.083	971.95
462.456	967.21
462.829	971.73
463.201	978.51
463.574	967.43
463.947	975.57
464.32	996.81
464.692	1025.06
465.065	1013.08
465.438	1028.67
465.81	1033.42
466.183	1048.79
466.555	1098.95
466.928	1087.88
467.3	1080.65
467.672	1086.98
468.045	1112.06
468.417	1115.22
468.789	1109.58
469.161	1106.41
469.534	1151.61
469.906	1182.57
470.278	1189.57
470.65	1161.1
471.022	1195.22
471.394	1216.92
471.766	1230.48
472.138	1206.52
472.51	1248.1
472.882	1270.25
473.253	1246.52
473.625	1289.23
473.997	1305.5
474.369	1311.6
474.74	1328.55
475.112	1349.34
475.484	1413.97
475.855	1403.13
476.227	1390.47
476.598	1425.27
476.97	1444.93
477.341	1465.5
477.713	1479.06
478.084	1486.74
478.455	1537.59
478.827	1532.16
479.198	1555.67
479.569	1570.35
479.94	1610.58
480.311	1625.27
480.682	1643.35
481.053	1668.66
481.424	1716.34
481.795	1732.84
482.166	1758.6
482.537	1752.27
482.908	1787.52
483.279	1770.35
483.65	1843.34
484.021	1875.2
484.391	1883.79
484.762	1888.76
485.133	1935.09
485.503	1938.48
485.874	1982.32
486.244	2014.18
486.615	2003.79
486.985	2079.72
487.356	2051.25
487.726	2095.09
488.097	2155.2
488.467	2109.78
488.837	2187.29
489.207	2185.03
489.578	2222.99
489.948	2267.51
490.318	2290.56
490.688	2269.54
491.058	2321.75
491.428	2328.98
491.798	2343.67
492.168	2391.8
492.538	2427.96
492.908	2435.42
493.278	2441.29
493.648	2449.65
494.017	2490.78
494.387	2551.8
494.757	2541.63
495.126	2524
495.496	2548.63
495.866	2572.59
496.235	2608.29
496.605	2666.37
496.974	2681.96
497.344	2675.18
497.713	2684
498.082	2687.16
498.452	2726.48
498.821	2742.07
499.19	2756.99
499.559	2761.96
499.928	2815.75
500.298	2845.57
500.667	2891.68
501.036	2856.42
501.405	2877.44
501.774	2943.65
502.143	2925.8
502.512	2957.89
502.88	2958.79
503.249	2979.13
503.618	2993.37
503.987	3022.07
504.356	3085.79
504.724	3071.33
505.093	3037.21
505.462	3025.91
505.83	3110.43
506.199	3136.41
506.567	3141.39
506.936	3201.95
507.304	3203.31
507.672	3173.48
508.041	3223.42
508.409	3256.41
508.777	3255.96
509.145	3306.58
509.514	3361.04
509.882	3295.73
510.25	3346.13
510.618	3392.91
510.986	3377.76
511.354	3424.99
511.722	3456.41
512.09	3481.04
512.458	3455.73
512.826	3487.59
513.193	3504.77
513.561	3547.25
513.929	3564.43
514.297	3600.13
514.664	3637.19
515.032	3653.01
515.4	3682.62
515.767	3683.97
516.135	3749.28
516.502	3702.73
516.869	3756.51
517.237	3816.4
517.604	3790.86
517.972	3806
518.339	3904.3
518.706	3868.15
519.073	3913.34
519.44	3878.99
519.808	3996.96
520.175	3998.76
520.542	4012.55
520.909	4063.17
521.276	4039.89
521.643	4174.58
522.009	4137.74
522.376	4180.23
522.743	4270.17
523.11	4249.83
523.477	4298.87
523.843	4318.76
524.21	4348.81
524.577	4415.93
524.943	4436.27
525.31	4453.89
525.676	4494.35
526.043	4504.06
526.409	4533.44
526.776	4610.5
527.142	4594.91
527.508	4680.55
527.874	4680.1
528.241	4733.89
528.607	4751.74
528.973	4819.08
529.339	4774.56
529.705	4841.23
530.071	4877.61
530.437	4902.24
530.803	4919.87
531.169	4986.54
531.535	4970.04
531.901	5020.21
532.267	5036.25
532.632	5046.65
532.998	5101.79
533.364	5149.92
533.73	5165.29
534.095	5272.63
534.461	5285.28
534.826	5320.54
535.192	5269.47
535.557	5358.73
535.923	5314.21
536.288	5366.41
536.653	5392.63
537.019	5412.51
537.384	5427.65
537.749	5495.45
538.114	5506.52
538.479	5544.94
538.845	5559.18
539.21	5542
539.575	5650.92
539.94	5602.11
540.305	5671.72
540.67	5693.64
541.034	5760.07
541.399	5831.94
541.764	5841.88
542.129	5864.7
542.494	5889.79
542.858	5910.58
543.223	5922.56
543.587	6007.3
543.952	6010.69
544.316	5984.25
544.681	6024.7
545.045	6071.03
545.41	6080.52
545.774	6125.26
546.138	6143.12
546.503	6191.7
546.867	6216.33
547.231	6350.34
547.595	6312.83
547.959	6341.98
548.324	6349.21
548.688	6399.15
549.052	6392.83
549.416	6461.07
549.779	6480.73
550.143	6530.68
550.507	6640.73
550.871	6634.4
551.235	6652.93
551.599	6733.38
551.962	6783.78
552.326	6826.26
552.689	6869.2
553.053	6915.75
553.417	6952.13
553.78	7098.8
554.143	7024.67
554.507	7094.95
554.87	7157.1
555.234	7222.18
555.597	7279.81
555.96	7267.15
556.323	7360.03
556.686	7468.73
557.05	7530.42
557.413	7501.5
557.776	7582.4
558.139	7650.42
558.502	7646.13
558.865	7792.34
559.228	7856.29
559.59	7939.23
559.953	8032.56
560.316	8114.36
560.679	8118.88
561.041	8167.92
561.404	8198.43
561.767	8437.29
562.129	8352.77
562.492	8523.17
562.854	8532.66
563.217	8599.55
563.579	8622.6
563.941	8787.34
564.304	8825.98
564.666	8930.84
565.028	8938.3
565.39	9010.84
565.753	9138.52
566.115	9238.4
566.477	9255.8
566.839	9406.08
567.201	9452.18
567.563	9460.77
567.925	9587.32
568.287	9650.82
568.648	9703.47
569.01	9819.18
569.372	9896.24
569.734	9888.78
570.095	9996.12
570.457	10152.73
570.819	10143.46
571.18	10288.09
571.542	10329.67
571.903	10416.22
572.265	10440.86
572.626	10542.55
572.987	10625.71
573.349	10684.46
573.71	10807.17
574.071	10834.52
574.432	10908.19
574.794	11051.01
575.155	11174.85
575.516	11051.69
575.877	11252.13
576.238	11282.64
576.599	11319.48
576.96	11427.95
577.32	11451
577.681	11634.04
578.042	11646.47
578.403	11632.46
578.763	11795.17
579.124	11751.56
579.485	11953.36
579.845	12083.52
580.206	12048.04
580.566	12071.1
580.927	12161.26
581.287	12306.12
581.648	12253.46
582.008	12366.23
582.368	12373.91
582.728	12495.72
583.089	12460.24
583.449	12535.49
583.809	12621.14
584.169	12672.89
584.529	12680.57
584.889	12832.2
585.249	12760.57
585.609	12795.6
585.969	12958.98
586.329	12968.92
586.688	12934.12
587.048	13017.28
587.408	13054.57
587.768	13057.74
588.127	13125.98
588.487	13119.88
588.846	13353.77
589.206	13222.25
589.565	13345.41
589.925	13405.07
590.284	13355.58
590.643	13442.81
591.003	13526.42
591.362	13567.33
591.721	13601.22
592.08	13614.33
592.44	13702.69
592.799	13632.18
593.158	13722.58
593.517	13754.89
593.876	13804.61
594.235	13798.96
594.593	13866.08
594.952	13873.08
595.311	13845.29
595.67	14002.57
596.029	14086.64
596.387	14083.02
596.746	14159.18
597.104	14047.09
597.463	14070.59
597.822	14261.09
598.18	14182.68
598.538	14224.94
598.897	14410.69
599.255	14239.4
599.613	14463.12
599.972	14381.32
600.33	14453.63
600.688	14356.46
601.046	14501.09
601.404	14596.45
601.762	14589.67
602.12	14658.6
602.478	14726.84
602.836	14713.96
603.194	14688.2
603.552	14769.78
603.91	14648.43
604.268	14815.88
604.625	14794.41
604.983	14892.49
605.341	14819.27
605.698	14984.69
606.056	14873.73
606.413	14977.46
606.771	14985.37
607.128	15053.84
607.485	14971.81
607.843	15029.66
608.2	15066.72
608.557	15109.21
608.914	15112.37
609.272	15230.79
609.629	15301.74
609.986	15297
610.343	15207.51
610.7	15435.07
611.057	15346.72
611.414	15343.78
611.771	15407.96
612.127	15543.77
612.484	15530.67
612.841	15542.64
613.198	15448.86
613.554	15556.65
613.911	15651.34
614.267	15646.59
614.624	15587.16
614.98	15569.08
615.337	15694.28
615.693	15677.78
616.05	15641.4
616.406	15869.87
616.762	15705.35
617.118	15808.4
617.475	15816.08
617.831	15851.11
618.187	15955.06
618.543	15873.48
618.899	15901.05
619.255	15853.82
619.611	15935.4
619.967	16059.69
620.323	16125.45
620.678	16056.53
621.034	15951.22
621.39	16095.17
621.746	16042.74
622.101	16157.54
622.457	16062.63
622.812	16064.21
623.168	16146.24
623.523	16137.65
623.879	16287.03
624.234	16136.75
624.589	16207.03
624.945	16134.04
625.3	16259.46
625.655	16183.3
626.01	16212.23
626.365	16258.1
626.72	16137.2
627.075	16162.74
627.43	16193.02
627.785	16155.51
628.14	16268.5
628.495	16265.34
628.85	16181.72
629.205	16101.72
629.559	16344.2
629.914	16078
630.269	16202.06
630.623	16087.03
630.978	16092.23
631.332	16175.39
631.687	16204.32
632.041	16182.63
632.396	16141.72
632.75	16106.92
633.104	16129.52
633.459	16068.5
633.813	15996.42
634.167	16055.17
634.521	16062.4
634.875	16117.77
635.229	15994.61
635.583	16003.42
635.937	16038.45
636.291	15989.64
636.645	16048.84
636.999	15949.86
637.352	16068.96
637.706	15937.43
638.06	15921.39
638.413	15978.34
638.767	15861.05
639.121	15943.99
639.474	15880.49
639.828	15943.99
640.181	15918.9
640.534	15879.13
640.888	15895.85
641.241	15808.85
641.594	15852.01
641.947	15865.12
642.301	15844.78
642.654	15983.99
643.007	15876.19
643.36	15841.17
643.713	15821.73
644.066	15879.36
644.419	15819.02
644.771	15741.51
645.124	15466.49
645.477	15490.89
645.83	15449.09
646.182	15447.5
646.535	15279.15
646.888	15349.2
647.24	15215.65
647.593	15372.93
647.945	15374.29
648.298	15288.64
648.65	15213.39
649.002	15249.99
649.355	15371.35
649.707	15271.01
650.059	15396.43
650.411	15500.16
650.763	15661.74
651.115	15772.69
651.467	15594.62
651.819	15686.82
652.171	15637.1
652.523	15647.27
652.875	15664.45
653.227	15661.51
653.578	15675.52
653.93	15679.14
654.282	15555.07
654.633	15458.58
654.985	15646.14
655.337	15612.47
655.688	15631.91
656.039	15614.28
656.391	15525.47
656.742	15394.85
657.094	15489.76
657.445	15562.3
657.796	15595.52
658.147	15582.87
658.498	15541.06
658.849	15553.72
659.2	15516.88
659.551	15531.12
659.902	15610.89
660.253	15525.69
660.604	15577.22
660.955	15513.26
661.306	15563.21
661.656	15508.52
662.007	15535.18
662.358	15577.44
662.708	15630.32
663.059	15525.92
663.409	15437.56
663.76	15620.15
664.11	15550.55
664.461	15566.37
664.811	15486.37
665.161	15536.09
665.511	15465.81
665.862	15582.87
666.212	15641.17
666.562	15663.99
666.912	15638.46
667.262	15559.36
667.612	15601.62
667.962	15635.52
668.312	15541.74
668.662	15577.9
669.011	15571.12
669.361	15544
669.711	15621.51
670.06	15609.31
670.41	15626.93
670.76	15571.34
671.109	15648.63
671.459	15652.24
671.808	15583.55
672.157	15690.43
672.507	15626.26
672.856	15625.8
673.205	15668.51
673.554	15726.82
673.904	15662.64
674.253	15660.38
674.602	15718.46
674.951	15469.42
675.3	15404.34
675.649	15607.5
675.998	15644.33
676.346	15677.1
676.695	15723.2
677.044	15663.32
677.393	15718.68
677.741	15741.73
678.09	15604.79
678.438	15633.94
678.787	15632.13
679.135	15645.69
679.484	15578.8
679.832	15650.44
680.181	15486.82
680.529	15659.02
680.877	15550.1
681.225	15544.68
681.573	15723.65
681.922	15582.42
682.27	15542.42
682.618	15574.05
682.966	15530.67
683.314	15617.44
683.661	15640.72
684.009	15524.34
684.357	15535.86
684.705	15449.99
685.053	15567.95
685.4	15431.91
685.748	15445.7
686.095	15377.9
686.443	15415.41
686.79	15399.6
687.138	15376.32
687.485	15456.99
687.832	15395.53
688.18	15388.75
688.527	15352.82
688.874	15314.85
689.221	15310.78
689.568	15249.09
689.915	15207.74
690.262	15239.37
690.609	15179.04
690.956	15160.73
691.303	15158.7
691.65	15091.58
691.997	15150.11
692.344	15039.15
692.69	14963.9
693.037	15059.04
693.383	14942.21
693.73	15014.52
694.077	14911.92
694.423	14919.83
694.769	14910.12
695.116	14837.12
695.462	14822.66
695.808	14801.19
696.155	14821.98
696.501	14727.97
696.847	14763.23
697.193	14602.33
697.539	14727.75
697.885	14579.96
698.231	14597.13
698.577	14547.41
698.923	14584.7
699.269	14569.33
699.614	14500.18
699.96	14517.36
700.306	14465.83
700.651	14388.1
700.997	14400.3
701.342	14451.15
701.688	14450.47
702.033	14360.98
702.379	14308.32
702.724	14252.05
703.069	14358.04
703.415	14180.42
703.76	14220.42
704.105	14267.42
704.45	14235.11
704.795	14142
705.14	14137.26
705.485	14102
705.83	14054.09
706.175	14110.82
706.52	13974.1
706.865	13991.27
707.209	13973.64
707.554	14010.03
707.899	13985.62
708.243	13971.16
708.588	13947.2
708.932	13918.05
709.277	13830.6
709.621	13900.2
709.966	13799.86
710.31	13839.64
710.654	13736.36
710.998	13734.33
711.342	13839.18
711.687	13768
712.031	13713.09
712.375	13730.03
712.719	13738.4
713.063	13689.81
713.407	13712.86
713.75	13651.39
714.094	13716.25
714.438	13652.97
714.782	13613.88
715.125	13540.21
715.469	13649.58
715.812	13557.38
716.156	13481.68
716.499	13559.19
716.843	13470.38
717.186	13460.89
717.53	13476.03
717.873	13544.05
718.216	13488.23
718.559	13544.05
718.902	13412.98
719.246	13365.07
719.589	13331.63
719.932	13303.83
720.275	13395.13
720.617	13331.4
720.96	13382.7
721.303	13378.86
721.646	13380.21
721.989	13181.8
722.331	13353.32
722.674	13255.47
723.016	13320.1
723.359	13292.76
723.701	13287.56
724.044	13136.83
724.386	13146.1
724.729	13276.49
725.071	13191.07
725.413	13152.2
725.755	13201.23
726.097	13196.26
726.439	13116.04
726.782	13142.93
727.124	13183.38
727.465	13113.55
727.807	13038.53
728.149	13095.93
728.491	13058.41
728.833	13130.05
729.175	13010.28
729.516	12954.91
729.858	12922.82
730.199	13009.38
730.541	12887.8
730.882	12992.2
731.224	13015.25
731.565	12913.33
731.906	12926.44
732.248	12933.22
732.589	12929.38
732.93	12850.96
733.271	12905.65
733.612	12887.12
733.953	12867.01
734.294	12821.36
734.635	12781.36
734.976	12946.78
735.317	12804.64
735.658	12787.69
735.999	12826.33
736.339	12742.94
736.68	12786.78
737.021	12793.34
737.361	12792.66
737.702	12831.75
738.042	12648.48
738.383	12748.82
738.723	12698.42
739.063	12676.95
739.404	12687.8
739.744	12681.02
740.084	12631.31
740.424	12629.72
740.764	12657.29
741.104	12657.52
741.444	12573
741.784	12533.68
742.124	12553.34
742.464	12581.59
742.804	12556.51
743.143	12417.3
743.483	12465.89
743.823	12449.62
744.162	12378.43
744.502	12464.31
744.841	12402.39
745.181	12419.33
745.52	12345.66
745.86	12331.88
746.199	12436.74
746.538	12372.1
746.877	12364.42
747.216	12314.03
747.556	12256.85
747.895	12302.28
748.234	12248.04
748.573	12189.06
748.911	12166.69
749.25	12236.74
749.589	12071.77
749.928	12188.61
750.267	12206.46
750.605	12096.86
750.944	12070.64
751.283	12030.19
751.621	12114.48
751.96	11983.19
752.298	11994.49
752.636	11939.8
752.975	11940.7
753.313	11977.09
753.651	11920.82
753.989	11854.83
754.327	11862.74
754.666	11818.22
755.004	11738.9
755.342	11794.27
755.679	11796.3
756.017	11583.88
756.355	11740.26
756.693	11681.5
757.031	11624.78
757.368	11589.07
757.706	11552.69
758.044	11610.32
758.381	11531.45
758.719	11563.99
759.056	11436.99
759.394	11437.67
759.731	11383.66
760.068	11381.62
760.405	11299.14
760.743	11270.89
761.08	11285.58
761.417	11264.34
761.754	11163.55
762.091	11207.84
762.428	11114.51
762.765	11055.75
763.102	11128.97
763.438	11073.16
763.775	10944.12
764.112	10957.45
764.449	10974.4
764.785	10892.14
765.122	10787.96
765.458	10806.04
765.795	10802.65
766.131	10816.89
766.467	10790.9
766.804	10677.01
767.14	10598.14
767.476	10626.84
767.812	10590.23
768.148	10587.52
768.485	10478.59
768.821	10441.31
769.157	10365.6
769.492	10403.34
769.828	10345.26
770.164	10301.42
770.5	10229.11
770.836	10240.41
771.171	10184.14
771.507	10178.04
771.842	10103.92
772.178	10135.33
772.513	10114.08
772.849	10060.53
773.184	9996.12
773.519	10009.68
773.855	9895.56
774.19	9879.06
774.525	9811.27
774.86	9839.74
775.195	9850.14
775.53	9726.52
775.865	9735.34
776.2	9664.6
776.535	9608.79
776.87	9613.08
777.205	9545.74
777.539	9452.86
777.874	9530.37
778.209	9399.98
778.543	9371.73
778.878	9340.32
779.212	9300.55
779.547	9306.87
779.881	9262.36
780.215	9293.31
780.55	9235.01
780.884	9210.15
781.218	9113.88
781.552	9112.53
781.886	9111.17
782.22	9063.94
782.554	8989.59
782.888	8878.64
783.222	8883.83
783.556	8830.73
783.889	8864.63
784.223	8757.51
784.557	8755.48
784.89	8701.69
785.224	8675.03
785.557	8678.42
785.891	8635.48
786.224	8589.83
786.558	8556.16
786.891	8514.35
787.224	8482.26
787.557	8443.17
787.891	8425.99
788.224	8328.14
788.557	8416.95
788.89	8367.69
789.223	8317.07
789.556	8268.94
789.888	8198.65
790.221	8240.91
790.554	8187.58
790.887	8191.65
791.219	8123.63
791.552	8124.31
791.884	8064.65
792.217	7986.46
792.549	7990.07
792.882	7945.78
793.214	7896.52
793.546	7931.32
793.879	7883.86
794.211	7805.9
794.543	7825.78
794.875	7792.79
795.207	7831.43
795.539	7796.41
795.871	7762.96
796.203	7634.15
796.535	7680.93
796.867	7675.05
797.198	7593.92
797.53	7603.19
797.862	7525.23
798.193	7523.19
798.525	7452.23
798.856	7503.08
799.188	7442.52
799.519	7369.07
799.85	7329.52
800.182	7323.65
800.513	7348.06
800.844	7318.68
801.175	7262.63
801.506	7305.8
801.837	7219.02
802.168	7207.72
802.499	7148.96
802.83	7153.71
803.161	7151.45
803.491	7099.7
803.822	7063.09
804.153	7070.77
804.483	7008.18
804.814	7008.18
805.145	7021.06
805.475	6965.47
805.805	6868.97
806.136	6923.21
806.466	6923.89
806.796	6881.63
807.126	6785.81
807.457	6759.6
807.787	6802.31
808.117	6744.68
808.447	6722.08
808.777	6771.57
809.107	6703.33
809.436	6704.68
809.766	6664.68
810.096	6648.64
810.426	6635.08
810.755	6595.53
811.085	6611.58
811.414	6593.95
811.744	6518.92
812.073	6509.43
812.403	6528.19
812.732	6485.03
813.061	6467.17
813.39	6441.19
813.719	6377.23
814.049	6407.52
814.378	6417.01
814.707	6327.29
815.036	6384.24
815.365	6281.87
815.693	6333.84
816.022	6289.55
816.351	6290.23
816.68	6207.07
817.008	6237.35
817.337	6134.08
817.665	6180.18
817.994	6170.69
818.322	6186.05
818.651	6119.16
818.979	6125.71
819.307	6159.84
819.636	6102.21
819.964	6073.51
820.292	6054.3
820.62	6052.95
820.948	6043
821.276	6063.12
821.604	6084.13
821.932	6072.38
822.259	6042.55
822.587	6064.02
822.915	6005.94
823.243	6006.4
823.57	6023.57
823.898	6057.92
824.225	5956.68
824.553	6004.14
824.88	5946.28
825.207	6008.2
825.535	5972.27
825.862	6017.92
826.189	5949.45
826.516	5960.07
826.843	5990.12
827.17	5991.03
827.497	5983.35
827.824	5943.35
828.151	5949.9
828.478	6007.75
828.805	5980.41
829.131	5915.32
829.458	5937.7
829.785	5870.35
830.111	5859.28
830.438	5920.3
830.764	5920.07
831.09	5923.91
831.417	5876.91
831.743	5911.26
832.069	5872.84
832.395	5866.96
832.722	5886.62
833.048	5857.25
833.374	5834.87
833.7	5849.79
834.026	5843.24
834.351	5838.94
834.677	5753.3
835.003	5839.62
835.329	5784.71
835.654	5821.77
835.98	5773.41
836.306	5771.37
836.631	5776.57
836.956	5771.83
837.282	5767.53
837.607	5714.43
837.932	5670.36
838.258	5699.74
838.583	5650.47
838.908	5675.56
839.233	5662.22
839.558	5619.29
839.883	5673.3
840.208	5580.64
840.533	5635.11
840.858	5645.73
841.182	5622
841.507	5612.96
841.832	5579.29
842.156	5528.89
842.481	5549.68
842.805	5528.67
843.13	5548.1
843.454	5516.92
843.778	5482.79
844.103	5443.7
844.427	5477.6
844.751	5440.53
845.075	5400.76
845.399	5404.6
845.723	5371.38
846.047	5372.29
846.371	5344.94
846.695	5353.98
847.019	5338.62
847.343	5269.69
847.666	5213.87
847.99	5215.68
848.313	5179.3
848.637	5175.01
848.96	5191.73
849.284	5173.65
849.607	5126.19
849.931	5121.67
850.254	5026.53
850.577	5060.88
850.9	5022.47
851.223	5038.06
851.546	5016.37
851.869	4926.2
852.192	4982.02
852.515	4919.87
852.838	4929.59
853.161	4920.1
853.483	4906.09
853.806	4862.47
854.129	4829.48
854.451	4874.22
854.774	4831.06
855.096	4822.47
855.419	4802.13
855.741	4835.58
856.063	4758.74
856.385	4755.81
856.708	4704.96
857.03	4727.11
857.352	4698.41
857.674	4666.32
857.996	4641.46
858.318	4647.79
858.64	4725.98
858.961	4605.53
859.283	4575.7
859.605	4534.34
859.926	4595.81
860.248	4577.96
860.57	4540.22
860.891	4558.75
861.212	4521.69
861.534	4543.84
861.855	4507.23
862.176	4523.5
862.498	4504.97
862.819	4499.77
863.14	4507.9
863.461	4501.35
863.782	4469.49
864.103	4411.64
864.424	4464.06
864.745	4456.61
865.065	4478.3
865.386	4399.43
865.707	4423.39
866.027	4429.94
866.348	4403.73
866.668	4395.36
866.989	4395.14
867.309	4366.44
867.63	4369.15
867.95	4348.36
868.27	4296.16
868.59	4345.65
868.91	4278.76
869.23	4291.41
869.55	4352.43
869.87	4319.21
870.19	4309.72
870.51	4335.25
870.83	4334.35
871.15	4275.59
871.469	4254.13
871.789	4265.42
872.109	4262.26
872.428	4248.93
872.748	4278.08
873.067	4239.44
873.386	4235.14
873.706	4238.98
874.025	4242.6
874.344	4193.11
874.663	4195.14
874.982	4163.73
875.301	4188.14
875.62	4202.38
875.939	4139.55
876.258	4144.3
876.577	4125.99
876.896	4164.18
877.214	4151.53
877.533	4173.9
877.852	4138.87
878.17	4076.05
878.489	4091.87
878.807	4111.3
879.125	4090.97
879.444	4038.99
879.762	4068.14
880.08	4075.15
880.398	4042.15
880.716	4093.23
881.034	4050.51
881.352	4042.83
881.67	4046
881.988	4038.54
882.306	3997.18
882.624	4020.69
882.941	3978.43
883.259	3972.32
883.577	3981.36
883.894	3958.99
884.212	3932.1
884.529	3968.26
884.846	3924.87
885.164	3934.81
885.481	3892.1
885.798	3903.17
886.115	3892.33
886.432	3878.77
886.75	3855.04
887.067	3899.11
887.383	3880.12
887.7	3833.8
888.017	3840.13
888.334	3810.3
888.651	3816.62
888.967	3835.61
889.284	3779.34
889.6	3847.58
889.917	3748.15
890.233	3787.92
890.55	3745.89
890.866	3779.34
891.182	3738.66
891.498	3737.3
891.815	3723.97
892.131	3740.01
892.447	3699.11
892.763	3679
893.079	3699.34
893.395	3672.9
893.71	3691.88
894.026	3617.08
894.342	3681.26
894.657	3611.2
894.973	3617.31
895.289	3636.29
895.604	3616.63
895.92	3579.11
896.235	3579.79
896.55	3596.97
896.865	3584.76
897.181	3541.6
897.496	3555.61
897.811	3582.28
898.126	3541.15
898.441	3504.54
898.756	3505.67
899.071	3469.29
899.386	3469.51
899.7	3439.68
900.015	3455.73
900.33	3443.07
900.644	3429.29
900.959	3444.88
901.273	3412.57
901.588	3364.21
901.902	3363.75
902.216	3366.47
902.531	3373.02
902.845	3366.92
903.159	3344.54
903.473	3331.21
903.787	3299.57
904.101	3277.43
904.415	3290.99
904.729	3294.6
905.042	3281.27
905.356	3285.34
905.67	3227.71
905.984	3269.97
906.297	3252.57
906.611	3212.12
906.924	3224.32
907.237	3211.89
907.551	3212.57
907.864	3174.61
908.177	3197.88
908.491	3152.91
908.804	3173.48
909.117	3112.23
909.43	3127.38
909.743	3105
910.056	3119.24
910.368	3098.9
910.681	3067.04
910.994	3069.07
911.307	3039.02
911.619	3021.39
911.932	3017.55
912.244	3036.98
912.557	3000.15
912.869	3002.86
913.181	3021.16
913.494	2998.57
913.806	2993.82
914.118	2984.78
914.43	2929.64
914.742	2945.46
915.054	2891.68
915.366	2897.55
915.678	2891.45
915.99	2907.27
916.302	2857.55
916.613	2888.29
916.925	2880.6
917.236	2829.3
917.548	2822.52
917.859	2835.63
918.171	2829.98
918.482	2777.78
918.794	2811.68
919.105	2778.91
919.416	2764.22
919.727	2782.07
920.038	2783.2
920.349	2752.24
920.66	2753.83
920.971	2748.18
921.282	2731
921.593	2701.4
921.903	2700.04
922.214	2724.9
922.525	2703.88
922.835	2670.44
923.146	2665.92
923.456	2675.64
923.767	2609.2
924.077	2618.46
924.387	2566.94
924.697	2607.62
925.008	2587.73
925.318	2572.59
925.628	2593.38
925.938	2583.89
926.248	2516.09
926.558	2531.23
926.867	2529.43
927.177	2505.02
927.487	2508.18
927.796	2505.02
928.106	2471.8
928.416	2482.65
928.725	2467.05
929.034	2479.26
929.344	2462.53
929.653	2439.94
929.962	2438.13
930.271	2434.06
930.581	2410.11
930.89	2415.3
931.199	2415.08
931.508	2396.55
931.817	2404
932.125	2406.49
932.434	2406.94
932.743	2331.92
933.051	2360.16
933.36	2347.73
933.669	2311.13
933.977	2342.76
934.286	2331.69
934.594	2322.2
934.902	2349.54
935.21	2275.87
935.519	2291.01
935.827	2296.21
936.135	2281.75
936.443	2248.08
936.751	2264.35
937.059	2257.57
937.367	2245.36
937.674	2244.23
937.982	2233.61
938.29	2208.3
938.597	2204.24
938.905	2183.45
939.213	2182.54
939.52	2171.47
939.827	2185.93
940.135	2139.15
940.442	2166.72
940.749	2135.76
941.056	2144.35
941.363	2104.58
941.67	2139.15
941.977	2072.94
942.284	2103.9
942.591	2093.05
942.898	2099.38
943.205	2083.11
943.511	2084.69
943.818	2050.79
944.125	2066.39
944.431	2038.14
944.738	2049.66
945.044	2042.88
945.35	2020.96
945.657	2040.62
945.963	2021.64
946.269	2023.68
946.575	2022.77
946.881	1971.02
947.187	2002.89
947.493	1984.58
947.799	1994.3
948.105	1961.3
948.41	1961.3
948.716	1953.39
949.022	1951.36
949.327	1938.03
949.633	1922.89
949.938	1918.14
950.244	1909.78
950.549	1888.09
950.854	1898.26
951.16	1884.24
951.465	1881.76
951.77	1845.83
952.075	1868.88
952.38	1866.17
952.685	1859.84
952.99	1844.02
953.294	1860.97
953.599	1840.4
953.904	1803.79
954.209	1806.28
954.513	1827.52
954.818	1801.53
955.122	1818.03
955.426	1804.47
955.731	1808.77
956.035	1783.68
956.339	1743.46
956.643	1751.59
956.948	1753.4
957.252	1751.37
957.556	1747.3
957.86	1740.75
958.163	1723.34
958.467	1742.33
958.771	1710.69
959.075	1732.16
959.378	1699.84
959.682	1705.72
959.985	1715.44
960.289	1684.93
960.592	1666.4
960.896	1685.83
961.199	1663.01
961.502	1682.22
961.805	1647.41
962.108	1656.91
962.411	1644.7
962.714	1638.38
963.017	1628.88
963.32	1625.95
963.623	1632.5
963.926	1604.7
964.228	1637.7
964.531	1609.9
964.833	1591.82
965.136	1607.64
965.438	1570.35
965.741	1583.01
966.043	1590.92
966.345	1566.06
966.648	1565.61
966.95	1551.6
967.252	1565.61
967.554	1569.9
967.856	1563.57
968.158	1544.37
968.46	1529.45
968.761	1547.76
969.063	1533.52
969.365	1516.8
969.666	1515.44
969.968	1513.86
970.269	1497.36
970.571	1469.57
970.872	1502.79
971.174	1496.91
971.475	1513.86
971.776	1479.51
972.077	1471.83
972.378	1498.49
972.679	1482.9
972.98	1469.11
973.281	1457.36
973.582	1425.5
973.883	1448.1
974.183	1419.4
974.484	1434.76
974.785	1425.95
975.085	1430.7
975.386	1408.78
975.686	1404.26
975.986	1425.95
976.287	1402.67
976.587	1397.7
976.887	1378.95
977.187	1366.07
977.487	1363.35
977.787	1351.83
978.087	1365.84
978.387	1354.31
978.687	1360.64
978.987	1359.51
979.286	1333.07
979.586	1336.46
979.885	1349.12
980.185	1341.43
980.484	1292.85
980.784	1329.68
981.083	1313.64
981.382	1308.44
981.682	1302.56
981.981	1308.21
982.28	1305.73
982.579	1316.35
982.878	1284.26
983.177	1265.73
983.475	1287.65
983.774	1292.17
984.073	1274.99
984.372	1245.16
984.67	1254.43
984.969	1271.38
985.267	1270.25
985.566	1256.01
985.864	1239.74
986.162	1238.16
986.461	1220.31
986.759	1243.13
987.057	1223.24
987.355	1211.27
987.653	1211.49
987.951	1223.7
988.249	1226.18
988.547	1222.11
988.844	1195.9
989.142	1207.88
989.44	1199.52
989.737	1193.41
990.035	1203.36
990.332	1185.28
990.63	1168.56
990.927	1168.78
991.224	1185.73
991.521	1153.42
991.819	1159.97
992.116	1147.31
992.413	1159.74
992.71	1126.75
993.006	1114.55
993.303	1129.69
993.6	1113.64
993.897	1097.37
994.193	1126.75
994.49	1100.54
994.787	1127.2
995.083	1098.95
995.379	1102.12
995.676	1108.9
995.972	1100.08
996.268	1080.42
996.565	1100.08
996.861	1072.74
997.157	1073.87
997.453	1083.59
997.749	1073.42
998.044	1070.93
998.34	1058.28
998.636	1070.25
998.932	1049.01
999.227	1036.58
999.523	1021.67
999.818	1046.53
1000.114	1044.04
1000.409	1030.93
1000.704	1042.46
1001	1032.74
1001.295	1004.27
1001.59	1003.59
1001.885	1020.31
1002.18	1006.3
1002.475	985.06
1002.77	988
1003.065	983.25
1003.359	984.61
1003.654	977.38
1003.949	987.32
1004.243	992.29
1004.538	976.02
1004.832	960.88
1005.127	989.8
1005.421	943.03
1005.715	959.52
1006.009	948.9
1006.304	954.33
1006.598	958.39
1006.892	923.59
1007.186	952.74
1007.48	936.92
1007.773	905.29
1008.067	942.8
1008.361	916.36
1008.655	903.71
1008.948	895.8
1009.242	920.43
1009.535	893.99
1009.829	910.26
1010.122	915
1010.415	889.47
1010.708	907.09
1011.001	873.2
1011.295	900.99
1011.588	871.62
1011.881	849.7
1012.173	872.29
1012.466	835.91
1012.759	856.02
1013.052	859.86
1013.344	838.4
1013.637	851.28
1013.93	857.15
1014.222	821.9
1014.514	816.7
1014.807	828.68
1015.099	842.69
1015.391	814.89
1015.683	846.53
1015.976	822.8
1016.268	794.56
1016.56	780.54
1016.851	813.09
1017.143	795.91
1017.435	795.69
1017.727	781.67
1018.018	776.7
1018.31	770.15
1018.602	778.96
1018.893	777.83
1019.185	769.7
1019.476	778.96
1019.767	777.61
1020.058	768.12
1020.35	780.54
1020.641	755.46
1020.932	733.77
1021.223	734.44
1021.514	728.12
1021.804	742.58
1022.095	746.87
1022.386	742.13
1022.677	747.1
1022.967	724.5
1023.258	723.37
1023.548	699.19
1023.839	726.08
1024.129	734.22
1024.419	722.92
1024.709	710.72
1025	721.34
1025.29	687.21
1025.58	704.16
1025.87	706.87
1026.16	695.8
1026.449	702.13
1026.739	676.82
1027.029	684.73
1027.319	678.85
1027.608	653.09
1027.898	665.07
1028.187	668.68
1028.477	676.37
1028.766	684.73
1029.055	664.39
1029.344	670.04
1029.634	670.04
1029.923	675.24
1030.212	649.7
1030.501	658.51
1030.79	641.57
1031.078	648.12
1031.367	624.84
1031.656	642.69
1031.945	620.77
1032.233	611.96
1032.522	630.04
1032.81	639.31
1033.099	623.94
1033.387	630.72
1033.675	598.63
1033.963	608.12
1034.251	595.01
1034.54	617.16
1034.828	597.27
1035.116	578.29
1035.403	629.36
1035.691	626.42
1035.979	598.63
1036.267	589.36
1036.554	575.35
1036.842	593.66
1037.129	589.14
1037.417	587.78
1037.704	608.57
1037.992	563.83
1038.279	576.93
1038.566	579.19
1038.853	579.19
1039.14	579.19
