Data from brown_tile_FLMS001491_047.txt Node
Date: Tue Feb 07 10:37:34 GMT 2017
User: dcchb
Spectrometer: FLMS00149
Trigger mode: 0
Integration Time (sec): 2.000000E-2
Scans to average: 10
Electric dark correction enabled: true
Nonlinearity correction enabled: false
Boxcar width: 0
XAxis mode: Wavelengths
Number of Pixels in Spectrum: 2048
>>>>>Begin Spectral Data<<<<<
341.393	-14.38
341.776	-14.38
342.16	-14.38
342.543	-66.81
342.927	-59.35
343.31	-70.42
343.693	-68.39
344.077	-48.28
344.46	-72.68
344.843	-46.24
345.226	-45.34
345.61	-28.39
345.993	-18.9
346.376	-3.98
346.759	10.03
347.142	27.88
347.525	37.37
347.908	45.96
348.291	79.63
348.674	87.31
349.057	114.43
349.44	116.01
349.823	139.52
350.206	167.54
350.588	165.96
350.971	193.98
351.354	222.68
351.737	205.28
352.119	222.23
352.502	263.35
352.884	284.82
353.267	269
353.65	281.89
354.032	290.7
354.414	289.12
354.797	285.95
355.179	301.55
355.562	303.13
355.944	282.34
356.326	304.48
356.709	313.97
357.091	289.57
357.473	344.26
357.855	305.84
358.238	328.89
358.62	333.86
359.002	324.37
359.384	322.11
359.766	323.24
360.148	326.4
360.53	341.09
360.912	348.1
361.294	328.66
361.676	321.21
362.057	327.31
362.439	328.66
362.821	307.2
363.203	315.56
363.584	309.23
363.966	310.13
364.348	316.91
364.729	308.55
365.111	323.69
365.493	309.68
365.874	297.03
366.256	291.6
366.637	302
367.019	287.08
367.4	297.48
367.781	290.25
368.163	292.73
368.544	300.42
368.925	290.7
369.306	292.96
369.688	296.12
370.069	292.96
370.45	325.05
370.831	312.84
371.212	304.71
371.593	292.05
371.974	300.64
372.355	286.4
372.736	308.78
373.117	322.11
373.498	335.9
373.879	315.56
374.26	302.68
374.641	292.96
375.021	290.7
375.402	302.45
375.783	324.14
376.163	314.2
376.544	302.68
376.925	315.78
377.305	305.16
377.686	289.12
378.066	305.84
378.447	301.09
378.827	323.24
379.208	302
379.588	306.07
379.968	312.84
380.349	313.3
380.729	328.89
381.109	319.62
381.489	325.27
381.87	318.95
382.25	334.54
382.63	315.56
383.01	348.55
383.39	333.18
383.77	335.22
384.15	317.36
384.53	321.43
384.91	329.34
385.29	334.31
385.67	325.05
386.049	340.41
386.429	325.5
386.809	330.02
387.189	319.85
387.568	326.18
387.948	331.83
388.328	344.03
388.707	323.24
389.087	337.03
389.466	340.87
389.846	342.45
390.225	339.96
390.605	364.37
390.984	329.79
391.363	346.06
391.743	340.41
392.122	348.32
392.501	360.75
392.881	353.97
393.26	348.1
393.639	362.34
394.018	357.14
394.397	339.74
394.776	356.46
395.155	352.62
395.534	365.05
395.913	377.7
396.292	360.3
396.671	347.87
397.05	373.63
397.429	363.24
397.808	359.4
398.186	363.69
398.565	347.42
398.944	364.37
399.323	371.6
399.701	384.93
400.08	382.9
400.458	382.9
400.837	390.81
401.215	372.96
401.594	378.15
401.972	379.06
402.351	382.9
402.729	384.93
403.107	386.52
403.486	388.78
403.864	400.98
404.242	380.64
404.62	385.61
404.999	391.94
405.377	376.12
405.755	395.33
406.133	405.27
406.511	390.13
406.889	370.7
407.267	398.72
407.645	413.41
408.023	399.62
408.401	405.5
408.779	406.4
409.156	417.25
409.534	419.06
409.912	410.7
410.29	414.99
410.667	443.01
411.045	424.93
411.422	428.32
411.8	420.41
412.178	399.85
412.555	412.28
412.933	411.83
413.31	441.2
413.687	431.26
414.065	450.47
414.442	441.43
414.819	434.88
415.197	439.17
415.574	455.44
415.951	444.59
416.328	464.25
416.705	456.57
417.082	450.92
417.46	473.74
417.837	503.12
418.214	460.41
418.591	456.57
418.967	457.02
419.344	459.51
419.721	455.44
420.098	465.16
420.475	483.46
420.852	489.79
421.228	490.02
421.605	477.59
421.982	479.17
422.358	481.2
422.735	498.38
423.111	511.71
423.488	488.66
423.864	497.25
424.241	513.29
424.617	505.61
424.994	488.43
425.37	508.09
425.746	495.89
426.123	513.97
426.499	505.38
426.875	518.49
427.251	511.26
427.627	528.88
428.003	534.99
428.379	517.59
428.756	551.03
429.132	537.47
429.507	560.07
429.883	559.62
430.259	539.05
430.635	537.7
431.011	539.28
431.387	556.45
431.763	578.37
432.138	611.37
432.514	584.7
432.89	577.92
433.265	590.13
433.641	596
434.016	600.52
434.392	599.62
434.767	619.73
435.143	611.59
435.518	610.24
435.894	618.83
436.269	648.43
436.644	620.63
437.02	621.09
437.395	628.54
437.77	612.5
438.145	662.67
438.52	637.13
438.895	654.3
439.271	662.21
439.646	636.68
440.021	646.85
440.395	671.03
440.77	655.66
441.145	657.69
441.52	671.71
441.895	671.71
442.27	690.24
442.645	680.74
443.019	683.68
443.394	704.02
443.769	685.49
444.143	692.95
444.518	690.01
444.892	700.18
445.267	720.52
445.641	689.78
446.016	711.03
446.39	718.26
446.764	716.9
447.139	714.87
447.513	726.39
447.887	738.14
448.262	745.15
448.636	732.04
449.01	736.34
449.384	742.66
449.758	731.59
450.132	755.55
450.506	745.38
450.88	774.75
451.254	743.79
451.628	750.12
452.002	781.76
452.376	790.8
452.75	781.99
453.123	781.31
453.497	792.83
453.871	780.4
454.244	824.92
454.618	804.13
454.992	811.36
455.365	820.63
455.739	838.93
456.112	841.64
456.486	843.9
456.859	839.16
457.232	866.5
457.606	863.11
457.979	876.45
458.352	890.68
458.725	900.4
459.099	912.83
459.472	910.34
459.845	898.82
460.218	925.48
460.591	952.38
460.964	941.3
461.337	962.77
461.71	971.58
462.083	943.56
462.456	951.7
462.829	987.18
463.201	986.05
463.574	973.84
463.947	1001.64
464.32	1031.47
464.692	1030.79
465.065	1051.13
465.438	1051.81
465.81	1050.68
466.183	1058.36
466.555	1042.54
466.928	1097.68
467.3	1073.28
467.672	1079.6
468.045	1134.29
468.417	1152.6
468.789	1128.19
469.161	1148.08
469.534	1166.38
469.906	1162.31
470.278	1166.16
470.65	1212.93
471.022	1196.66
471.394	1232.59
471.766	1247.96
472.138	1243.44
472.51	1278.02
472.882	1274.18
473.253	1317.79
473.625	1304.46
473.997	1330.22
474.369	1332.03
474.74	1354.4
475.112	1362.31
475.484	1387.62
475.855	1420.16
476.227	1410.67
476.598	1433.49
476.97	1450.67
477.341	1500.38
477.713	1498.12
478.084	1507.16
478.455	1544.45
478.827	1578.35
479.198	1570.66
479.569	1581.96
479.94	1623.32
480.311	1646.37
480.682	1673.04
481.053	1690.44
481.424	1705.58
481.795	1745.8
482.166	1755.07
482.537	1767.5
482.908	1816.76
483.279	1827.38
483.65	1845.46
484.021	1894.05
484.391	1893.37
484.762	1939.24
485.133	1907.15
485.503	1936.08
485.874	2001.84
486.244	1998.68
486.615	2028.28
486.985	2044.55
487.356	2103.76
487.726	2078.67
488.097	2155.73
488.467	2184.66
488.837	2199.12
489.207	2184.21
489.578	2247.71
489.948	2273.92
490.318	2312.34
490.688	2323.64
491.058	2327.26
491.428	2376.07
491.798	2359.12
492.168	2438.89
492.538	2447.03
492.908	2460.36
493.278	2485.44
493.648	2491.09
494.017	2490.64
494.387	2515.05
494.757	2568.15
495.126	2575.61
495.496	2613.12
495.866	2624.42
496.235	2630.98
496.605	2682.95
496.974	2690.86
497.344	2694.7
497.713	2762.72
498.082	2740.13
498.452	2780.8
498.821	2792.33
499.19	2767.47
499.559	2828.03
499.928	2812.44
500.298	2858.77
500.667	2898.54
501.036	2866.9
501.405	2898.54
501.774	2929.5
502.143	2948.26
502.512	2928.14
502.88	2958.43
503.249	3015.15
503.618	3004.3
503.987	3026.22
504.356	3054.69
504.724	3042.49
505.093	3092.88
505.462	3093.79
505.83	3144.18
506.199	3136.73
506.567	3213.33
506.936	3219.66
507.304	3226.44
507.672	3248.13
508.041	3247.23
508.409	3314.8
508.777	3331.52
509.145	3307.79
509.514	3330.17
509.882	3392.76
510.25	3382.14
510.618	3416.72
510.986	3446.77
511.354	3449.03
511.722	3513.89
512.09	3506.89
512.458	3522.93
512.826	3564.06
513.193	3561.8
513.561	3591.18
513.929	3621.68
514.297	3644.73
514.664	3668.46
515.032	3700.33
515.4	3744.85
515.767	3728.35
516.135	3764.96
516.502	3734.9
516.869	3816.26
517.237	3855.35
517.604	3893.32
517.972	3884.95
518.339	3950.04
518.706	3962.69
519.073	3956.36
519.44	4016.25
519.808	4043.37
520.175	4048.79
520.542	4065.74
520.909	4093.08
521.276	4091.5
521.643	4175.34
522.009	4173.31
522.376	4231.61
522.743	4287.43
523.11	4329.46
523.477	4318.39
523.843	4420.08
524.21	4402.68
524.577	4437.93
524.943	4501.89
525.31	4470.48
525.676	4522.23
526.043	4541.43
526.409	4630.7
526.776	4654.65
527.142	4685.16
527.508	4677.25
527.874	4743.24
528.241	4749.56
528.607	4764.93
528.973	4820.75
529.339	4881.54
529.705	4906.85
530.071	4947.53
530.437	4955.43
530.803	4994.76
531.169	5016.68
531.535	5053.96
531.901	5113.4
532.267	5122.21
532.632	5129.67
532.998	5132.15
533.364	5204.47
533.73	5210.57
534.095	5278.82
534.461	5279.27
534.826	5293.5
535.192	5366.72
535.557	5374.41
535.923	5367.63
536.288	5441.98
536.653	5502.76
537.019	5465.03
537.384	5518.58
537.749	5546.15
538.114	5615.98
538.479	5659.37
538.845	5644.91
539.21	5618.02
539.575	5685.81
539.94	5672.93
540.305	5732.14
540.67	5720.84
541.034	5813.04
541.399	5854.39
541.764	5850.33
542.129	5885.81
542.494	5943.21
542.858	5972.13
543.223	5963.54
543.587	6072.02
543.952	6047.38
544.316	6130.77
544.681	6098.46
545.045	6182.75
545.41	6220.26
545.774	6236.3
546.138	6201.96
546.503	6293.93
546.867	6306.59
547.231	6363.08
547.595	6391.1
547.959	6432.01
548.324	6430.88
548.688	6530.31
549.052	6570.31
549.416	6571.89
549.779	6610.76
550.143	6648.05
550.507	6702.96
550.871	6773.92
551.235	6816.18
551.599	6884.88
551.962	6895.04
552.326	6885.78
552.689	6984.08
553.053	7022.5
553.417	7079.67
553.78	7123.97
554.143	7106.56
554.507	7221.14
554.87	7264.75
555.234	7402.6
555.597	7379.78
555.96	7400.34
556.323	7475.14
556.686	7542.03
557.05	7603.95
557.413	7723.27
557.776	7619.32
558.139	7817.28
558.502	7776.6
558.865	7813.21
559.228	7919.88
559.59	8015.92
559.953	8050.04
560.316	8195.12
560.679	8244.16
561.041	8262.92
561.404	8438.73
561.767	8411.84
562.129	8418.85
562.492	8516.02
562.854	8619.29
563.217	8699.52
563.579	8682.34
563.941	8899.74
564.304	8874.2
564.666	9002.33
565.028	8998.94
565.39	9139.73
565.753	9284.36
566.115	9269.9
566.477	9404.13
566.839	9430.8
567.201	9499.95
567.563	9632.15
567.925	9650.9
568.287	9767.96
568.648	9808.64
569.01	9899.03
569.372	9925.25
569.734	10058.13
570.095	10095.19
570.457	10209.53
570.819	10306.71
571.18	10307.16
571.542	10450.43
571.903	10471.9
572.265	10650.88
572.626	10683.65
572.987	10722.29
573.349	10811.33
573.71	10909.63
574.071	10896.3
574.432	11000.02
574.794	11167.25
575.155	11221.48
575.516	11229.85
575.877	11367.47
576.238	11389.16
576.599	11487.01
576.96	11489.95
577.32	11628.71
577.681	11702.38
578.042	11824.86
578.403	11856.5
578.763	11929.71
579.124	11900.34
579.485	12038.64
579.845	12126.55
580.206	12158.64
580.566	12243.83
580.927	12313.43
581.287	12374
581.648	12303.49
582.008	12497.84
582.368	12469.14
582.728	12538.96
583.089	12537.83
583.449	12600.21
583.809	12654.22
584.169	12717.49
584.529	12728.79
584.889	12966.98
585.249	12906.41
585.609	12933.3
585.969	13000.87
586.329	13005.84
586.688	13162.22
587.048	13093.07
587.408	13173.98
587.768	13147.54
588.127	13239.28
588.487	13196.57
588.846	13349.56
589.206	13323.8
589.565	13374.2
589.925	13451.93
590.284	13406.06
590.643	13469.11
591.003	13569.67
591.362	13592.04
591.721	13606.51
592.08	13632.95
592.44	13681.76
592.799	13755.2
593.158	13782.32
593.517	13833.62
593.876	13857.35
594.235	13879.04
594.593	13903.22
594.952	14015.54
595.311	13948.64
595.67	14012.6
596.029	14036.1
596.387	14196.32
596.746	14137.57
597.104	14073.84
597.463	14151.58
597.822	14253.95
598.18	14248.75
598.538	14321.52
598.897	14397.22
599.255	14272.03
599.613	14500.49
599.972	14436.32
600.33	14528.74
600.688	14462.98
601.046	14549.08
601.404	14621.62
601.762	14614.39
602.12	14783.42
602.478	14806.02
602.836	14667.72
603.194	14642.86
603.552	14785.23
603.91	14731.67
604.268	14899.13
604.625	14844.21
604.983	14918.34
605.341	14885.57
605.698	15023.64
606.056	15018.45
606.413	14916.3
606.771	15127.82
607.128	15180.48
607.485	15082.63
607.843	15093.25
608.2	15189.74
608.557	15198.78
608.914	15209.85
609.272	15341.83
609.629	15317.65
609.986	15416.85
610.343	15340.7
610.7	15426.57
611.057	15474.93
611.414	15456.85
611.771	15527.59
612.127	15494.82
612.484	15498.66
612.841	15652.55
613.198	15559.9
613.554	15632.22
613.911	15704.3
614.267	15704.53
614.624	15704.76
614.98	15765.77
615.337	15775.94
615.693	15733.68
616.05	15805.54
616.406	15894.36
616.762	15879.89
617.118	15916.28
617.475	15893.45
617.831	15908.37
618.187	15932.55
618.543	15994.24
618.899	16087.57
619.255	16081.92
619.611	16047.35
619.967	16205.31
620.323	16271.97
620.678	16060.45
621.034	16061.13
621.39	16075.37
621.746	16143.62
622.101	16200.34
622.457	16222.26
622.812	16200.79
623.168	16209.83
623.523	16241.92
623.879	16228.36
624.234	16284.4
624.589	16228.58
624.945	16255.02
625.3	16245.08
625.655	16222.94
626.01	16222.94
626.365	16297.51
626.72	16290.96
627.075	16220.45
627.43	16259.77
627.785	16209.15
628.14	16257.06
628.495	16254.12
628.85	16234.23
629.205	16264.97
629.559	16316.04
629.914	16344.97
630.269	16348.58
630.623	16128.7
630.978	16199.43
631.332	16365.08
631.687	16364.85
632.041	16268.13
632.396	16362.37
632.75	16199.43
633.104	16320.11
633.459	16207.79
633.813	16136.61
634.167	16222.48
634.521	16176.61
634.875	16218.64
635.229	16168.02
635.583	16167.34
635.937	16077.4
636.291	16077.18
636.645	16074.01
636.999	16030.62
637.352	16152.88
637.706	16071.98
638.06	16031.3
638.413	15975.03
638.767	15944.07
639.121	16109.72
639.474	15956.95
639.828	15941.81
640.181	16026.78
640.534	16037.63
640.888	16005.09
641.241	15881.7
641.594	15997.86
641.947	15934.58
642.301	15953.11
642.654	15898.65
643.007	16036.05
643.36	15945.2
643.713	15964.18
644.066	15987.01
644.419	15849.39
644.771	15763.06
645.124	15644.65
645.477	15560.13
645.83	15605.78
646.182	15456.18
646.535	15443.75
646.888	15573.69
647.24	15358.78
647.593	15534.14
647.945	15427.25
648.298	15407.82
648.65	15309.96
649.002	15320.36
649.355	15375.05
649.707	15415.72
650.059	15427.48
650.411	15585.89
650.763	15575.49
651.115	15815.04
651.467	15677.41
651.819	15740.46
652.171	15636.74
652.523	15621.37
652.875	15677.19
653.227	15542.27
653.578	15613.23
653.93	15708.15
654.282	15582.73
654.633	15580.69
654.985	15674.02
655.337	15619.56
655.688	15584.76
656.039	15651.42
656.391	15507.47
656.742	15590.41
657.094	15575.95
657.445	15643.97
657.796	15576.17
658.147	15599.9
658.498	15626.57
658.849	15634.25
659.2	15574.14
659.551	15516.06
659.902	15663.63
660.253	15522.39
660.604	15610.97
660.955	15603.74
661.306	15615.49
661.656	15658.2
662.007	15634.25
662.358	15574.36
662.708	15615.27
663.059	15595.83
663.409	15529.17
663.76	15676.96
664.11	15605.1
664.461	15722.38
664.811	15645.32
665.161	15705.89
665.511	15547.47
665.862	15587.92
666.212	15660.46
666.562	15751.31
666.912	15731.2
667.262	15641.03
667.612	15601.93
667.962	15637.87
668.312	15734.36
668.662	15712.44
669.011	15688.26
669.361	15694.36
669.711	15758.99
670.06	15613.23
670.41	15685.55
670.76	15608.71
671.109	15706.79
671.459	15696.17
671.808	15641.93
672.157	15613.01
672.507	15618.66
672.856	15708.15
673.205	15690.52
673.554	15724.42
673.904	15630.18
674.253	15770.07
674.602	15628.15
674.951	15465.44
675.3	15422.73
675.649	15684.42
675.998	15681.71
676.346	15712.44
676.695	15763.51
677.044	15587.7
677.393	15635.83
677.741	15666.57
678.09	15653.23
678.438	15682.61
678.787	15673.8
679.135	15596.28
679.484	15539.79
679.832	15668.15
680.181	15571.43
680.529	15605.78
680.877	15519.9
681.225	15522.84
681.573	15701.59
681.922	15584.31
682.27	15538.21
682.618	15530.75
682.966	15510.86
683.314	15592.67
683.661	15474.71
684.009	15466.8
684.357	15455.95
684.705	15431.09
685.053	15437.64
685.4	15474.71
685.748	15323.98
686.095	15334.14
686.443	15344.77
686.79	15374.14
687.138	15484.42
687.485	15400.58
687.832	15378.21
688.18	15427.48
688.527	15296.86
688.874	15250.53
689.221	15230.87
689.568	15267.71
689.915	15228.16
690.262	15258.44
690.609	15142.96
690.956	15125.34
691.303	15187.48
691.65	15071.55
691.997	15166.01
692.344	15012.35
692.69	14999.69
693.037	15104.55
693.383	14857.55
693.73	14930.77
694.077	14888.05
694.423	14970.09
694.769	14875.85
695.116	14848.73
695.462	14834.04
695.808	14699.81
696.155	14867.72
696.501	14770.54
696.847	14736.87
697.193	14669.3
697.539	14740.71
697.885	14644.22
698.231	14574.16
698.577	14681.96
698.923	14623.88
699.269	14570.55
699.614	14443.55
699.96	14404.45
700.306	14523.54
700.651	14396.09
700.997	14422.08
701.342	14460.95
701.688	14304.34
702.033	14336.43
702.379	14412.59
702.724	14304.34
703.069	14391.12
703.415	14203.33
703.76	14233.83
704.105	14296.88
704.45	14171.92
704.795	14162.42
705.14	14106.38
705.485	14114.06
705.83	14056.89
706.175	14077
706.52	14039.94
706.865	13990.68
707.209	14086.72
707.554	13960.62
707.899	14070.68
708.243	13907.97
708.588	13919.72
708.932	13808.76
709.277	13798.14
709.621	13814.64
709.966	13844.24
710.31	13929.21
710.654	13731.25
710.998	13883.56
711.342	13818.03
711.687	13758.59
712.031	13776.67
712.375	13679.27
712.719	13764.92
713.063	13698.71
713.407	13696.67
713.75	13692.38
714.094	13605.15
714.438	13598.6
714.782	13662.32
715.125	13607.18
715.469	13627.75
715.812	13519.05
716.156	13469.79
716.499	13557.02
716.843	13521.54
717.186	13451.26
717.53	13463.91
717.873	13515.21
718.216	13444.03
718.559	13434.76
718.902	13382.78
719.246	13473.85
719.589	13400.64
719.932	13350.69
720.275	13338.49
720.617	13284.48
720.96	13261.43
721.303	13392.95
721.646	13376.46
721.989	13208.33
722.331	13323.35
722.674	13280.41
723.016	13350.92
723.359	13191.15
723.701	13258.95
724.044	13213.07
724.386	13200.42
724.729	13278.38
725.071	13260.75
725.413	13275.67
725.755	13192.05
726.097	13048.1
726.439	13027.54
726.782	13013.53
727.124	13079.29
727.465	13090.36
727.807	13103.24
728.149	13035.22
728.491	13035
728.833	13045.39
729.175	13001.1
729.516	12956.81
729.858	12951.16
730.199	13006.97
730.541	12925.17
730.882	12990.7
731.224	13036.35
731.565	12856.24
731.906	12861.89
732.248	12940.31
732.589	12919.75
732.93	12801.33
733.271	12812.4
733.612	12847.88
733.953	12829.13
734.294	12829.13
734.635	12834.55
734.976	12838.62
735.317	12692.41
735.658	12802.23
735.999	12761.11
736.339	12690.37
736.68	12765.62
737.021	12693.99
737.361	12672.52
737.702	12896.02
738.042	12707.1
738.383	12667.55
738.723	12735.12
739.063	12674.78
739.404	12666.42
739.744	12664.38
740.084	12585.29
740.424	12612.18
740.764	12540.32
741.104	12582.35
741.444	12499.87
741.784	12496.03
742.124	12525.18
742.464	12459.42
742.804	12454.67
743.143	12472.3
743.483	12430.27
743.823	12380.55
744.162	12366.31
744.502	12454.22
744.841	12364.28
745.181	12330.38
745.52	12323.83
745.86	12350.49
746.199	12297.61
746.538	12290.16
746.877	12289.25
747.216	12314.11
747.556	12240.67
747.895	12257.84
748.234	12218.75
748.573	12173.55
748.911	12269.37
749.25	12200.89
749.589	12097.17
749.928	12147.34
750.267	12102.14
750.605	12081.57
750.944	12130.16
751.283	12008.81
751.621	12041.58
751.96	11954.12
752.298	12004.29
752.636	12023.5
752.975	11918.64
753.313	11858.53
753.651	12003.16
753.989	11881.13
754.327	11779.44
754.666	11770.85
755.004	11745.54
755.342	11789.83
755.679	11708.7
756.017	11683.62
756.355	11694.92
756.693	11619.44
757.031	11636.39
757.368	11542.83
757.706	11477.52
758.044	11430.07
758.381	11502.61
758.719	11477.98
759.056	11435.49
759.394	11420.12
759.731	11290.64
760.068	11268.94
760.405	11293.12
760.743	11266.46
761.08	11300.58
761.417	11170.86
761.754	11221.48
762.091	11173.12
762.428	11113.92
762.765	11101.26
763.102	11037.31
763.438	11050.64
763.775	10968.84
764.112	10985.78
764.449	10936.07
764.785	10919.35
765.122	10944.88
765.458	10868.27
765.795	10822.85
766.131	10789.41
766.467	10755.96
766.804	10706.47
767.14	10645.91
767.476	10715.51
767.812	10578.79
768.148	10659.47
768.485	10513.25
768.821	10455.63
769.157	10425.35
769.492	10407.04
769.828	10413.37
770.164	10300.38
770.5	10214.28
770.836	10266.03
771.171	10237.56
771.507	10180.61
771.842	10108.97
772.178	10076.88
772.513	10132.02
772.849	10043.66
773.184	10035.3
773.519	10054.06
773.855	9927.28
774.19	9882.54
774.525	9886.6
774.86	9906.94
775.195	9800.73
775.53	9741.75
775.865	9773.16
776.2	9696.33
776.535	9664.92
776.87	9540.17
777.205	9570.23
777.539	9503.79
777.874	9515.99
778.209	9388.76
778.543	9403.68
778.878	9400.29
779.212	9409.78
779.547	9299.5
779.881	9323
780.215	9214.08
780.55	9315.55
780.884	9186.96
781.218	9141.77
781.552	9153.74
781.886	9091.15
782.22	9054.76
782.554	9045.72
782.888	8919.4
783.222	8861.32
783.556	8838.72
783.889	8801.21
784.223	8779.74
784.557	8780.42
784.89	8728.22
785.224	8685.73
785.557	8666.75
785.891	8656.81
786.224	8619.52
786.558	8582.68
786.891	8538.84
787.224	8540.88
787.557	8481.22
787.891	8486.87
788.224	8388.11
788.557	8354.67
788.89	8412.97
789.223	8352.41
789.556	8269.02
789.888	8237.61
790.221	8210.49
790.554	8186.08
790.887	8182.02
791.219	8112.19
791.552	8168.23
791.884	8119.65
792.217	8031.74
792.549	8012.98
792.882	7954.45
793.214	7908.58
793.546	7888.92
793.879	7833.1
794.211	7807.34
794.543	7836.71
794.875	7877.17
795.207	7801.01
795.539	7767.56
795.871	7792.42
796.203	7652.09
796.535	7607.57
796.867	7570.28
797.198	7597.17
797.53	7580
797.862	7529.6
798.193	7590.39
798.525	7467.69
798.856	7481.7
799.188	7418.65
799.519	7369.38
799.85	7336.16
800.182	7356.05
800.513	7321.25
800.844	7254.81
801.175	7276.5
801.506	7212.55
801.837	7212.32
802.168	7213.68
802.499	7201.25
802.83	7194.02
803.161	7091.2
803.491	7168.48
803.822	7108.6
804.153	7076.28
804.483	7080.8
804.814	6972.56
805.145	6982.5
805.475	6969.84
805.805	6945.66
806.136	6886.68
806.466	6916.06
806.796	6877.87
807.126	6836.06
807.457	6793.8
807.787	6843.07
808.117	6760.58
808.447	6788.61
808.777	6750.42
809.107	6733.92
809.436	6701.38
809.766	6672.9
810.096	6639.23
810.426	6606.92
810.755	6624.77
811.085	6635.84
811.414	6595.17
811.744	6518.78
812.073	6488.5
812.403	6495.51
812.732	6422.29
813.061	6485.11
813.39	6415.28
813.719	6398.56
814.049	6421.16
814.378	6406.7
814.707	6382.52
815.036	6333.48
815.365	6282.41
815.693	6245.12
816.022	6197.89
816.351	6248.51
816.68	6189.75
817.008	6242.86
817.337	6236.98
817.665	6105.69
817.994	6216.19
818.322	6142.52
818.651	6112.01
818.979	6118.12
819.307	6136.42
819.636	6102.3
819.964	6074.73
820.292	6076.99
820.62	6062.07
820.948	6051.68
821.276	6045.35
821.604	5989.98
821.932	6041.28
822.259	6048.74
822.587	6032.47
822.915	6015.75
823.243	6001.73
823.57	6000.83
823.898	5997.44
824.225	6001.51
824.553	5968.06
824.88	5951.11
825.207	6005.8
825.535	5968.74
825.862	5993.15
826.189	5986.82
826.516	5909.76
826.843	5996.09
827.17	5965.58
827.497	5968.52
827.824	5984.11
828.151	5946.6
828.478	5922.64
828.805	5963.09
829.131	5942.53
829.458	5893.94
829.785	5909.99
830.111	5911.12
830.438	5914.51
830.764	5935.75
831.09	5878.57
831.417	5840.16
831.743	5836.09
832.069	5817.56
832.395	5828.41
832.722	5835.64
833.048	5845.35
833.374	5757.22
833.7	5822.98
834.026	5867.73
834.351	5860.27
834.677	5807.84
835.003	5765.58
835.329	5774.85
835.654	5786.83
835.98	5766.94
836.306	5839.03
836.631	5762.87
836.956	5776.88
837.282	5779.14
837.607	5726.71
837.932	5675.42
838.258	5724.68
838.583	5721.74
838.908	5659.82
839.233	5636.09
839.558	5651.91
839.883	5666.83
840.208	5633.16
840.533	5619.15
840.858	5642.42
841.182	5608.3
841.507	5575.98
841.832	5552.26
842.156	5486.49
842.481	5556.1
842.805	5576.21
843.13	5527.17
843.454	5515.87
843.778	5474.74
844.103	5445.82
844.427	5469.09
844.751	5457.57
845.075	5442.43
845.399	5404.46
845.723	5394.75
846.047	5392.26
846.371	5402.88
846.695	5326.27
847.019	5272.49
847.343	5269.78
847.666	5243.56
847.99	5193.62
848.313	5218.03
848.637	5141.87
848.96	5169.44
849.284	5147.75
849.607	5137.12
849.931	5131.7
850.254	5086.5
850.577	5061.19
850.9	5022.1
851.223	5042.21
851.546	5000.41
851.869	5011.93
852.192	4994.08
852.515	4889.45
852.838	4923.8
853.161	4924.7
853.483	4885.15
853.806	4889.22
854.129	4819.85
854.451	4825.49
854.774	4835.21
855.096	4776.23
855.419	4782.11
855.741	4799.96
856.063	4721.54
856.385	4764.93
856.708	4707.98
857.03	4714.76
857.352	4745.95
857.674	4695.1
857.996	4639.74
858.318	4649
858.64	4677.25
858.961	4652.84
859.283	4645.61
859.605	4570.13
859.926	4617.36
860.248	4591.38
860.57	4594.99
860.891	4550.25
861.212	4527.88
861.534	4518.84
861.855	4515.45
862.176	4497.82
862.498	4480.87
862.819	4476.8
863.14	4484.03
863.461	4479.51
863.782	4471.61
864.103	4492.17
864.424	4504.37
864.745	4441.32
865.065	4431.15
865.386	4399.29
865.707	4430.93
866.027	4437.48
866.348	4397.48
866.668	4423.92
866.989	4404.71
867.309	4358.39
867.63	4367.88
867.95	4350.93
868.27	4319.29
868.59	4378.5
868.91	4356.58
869.23	4374.88
869.55	4294.21
869.87	4312.97
870.19	4282.68
870.51	4296.92
870.83	4275
871.15	4253.98
871.469	4214.66
871.789	4289.24
872.109	4277.03
872.428	4276.36
872.748	4264.38
873.067	4275.23
873.386	4247.66
873.706	4233.87
874.025	4235.23
874.344	4210.82
874.663	4254.44
874.982	4202.91
875.301	4168.34
875.62	4163.82
875.939	4158.85
876.258	4173.99
876.577	4187.77
876.896	4179.18
877.214	4136.93
877.533	4149.58
877.852	4128.79
878.17	4142.12
878.489	4168.11
878.807	4175.12
879.125	4126.08
879.444	4068.45
879.762	4084.5
880.08	4112.52
880.398	4068.9
880.716	4077.49
881.034	4049.92
881.352	4068
881.67	3991.62
881.988	4021
882.306	4042.46
882.624	4010.15
882.941	4006.53
883.259	4003.37
883.577	3975.57
883.894	3956.59
884.212	3988.23
884.529	3918.85
884.846	3960.88
885.164	3933.31
885.481	3955.69
885.798	3911.62
886.115	3915.24
886.432	3920.21
886.75	3903.03
887.067	3905.07
887.383	3893.32
887.7	3870.49
888.017	3869.14
888.334	3877.04
888.651	3858.06
888.967	3832.3
889.284	3811.28
889.6	3812.87
889.917	3825.97
890.233	3784.17
890.55	3834.33
890.866	3781.91
891.182	3746.65
891.498	3737.61
891.815	3745.75
892.131	3749.82
892.447	3713.66
892.763	3744.17
893.079	3711.17
893.395	3680.67
893.71	3672.3
894.026	3675.24
894.342	3653.1
894.657	3645.64
894.973	3628.24
895.289	3630.72
895.604	3640.44
895.92	3610.61
896.235	3626.88
896.55	3589.14
896.865	3628.01
897.181	3545.3
897.496	3572.19
897.811	3556.38
898.126	3572.42
898.441	3490.61
898.756	3493.78
899.071	3498.3
899.386	3477.06
899.7	3479.54
900.015	3419.88
900.33	3444.51
900.644	3448.13
900.959	3436.15
901.273	3411.07
901.588	3412.88
901.902	3408.36
902.216	3378.3
902.531	3388.7
902.845	3348.7
903.159	3367.91
903.473	3348.47
903.787	3345.31
904.101	3314.57
904.415	3328.13
904.729	3329.49
905.042	3240.23
905.356	3278.87
905.67	3243.62
905.984	3289.04
906.297	3252.88
906.611	3193
906.924	3223.28
907.237	3196.84
907.551	3197.06
907.864	3153.45
908.177	3171.07
908.491	3153.45
908.804	3131.53
909.117	3099.44
909.43	3130.17
909.743	3087.91
910.056	3118.65
910.368	3089.72
910.681	3052.43
910.994	3058.54
911.307	3031.42
911.619	3061.7
911.932	3043.39
912.244	2968.59
912.557	3023.73
912.869	3021.93
913.181	2968.37
913.494	2981.25
913.806	2989.61
914.118	2993
914.43	2932.89
914.742	2931.76
915.054	2952.32
915.366	2915.94
915.678	2911.42
915.99	2913.23
916.302	2885.66
916.613	2878.43
916.925	2852.21
917.236	2820.12
917.548	2830.07
917.859	2854.25
918.171	2824.42
918.482	2793.91
918.794	2759.11
919.105	2804.98
919.416	2733.57
919.727	2773.12
920.038	2769.96
920.349	2783.74
920.66	2727.47
920.971	2729.28
921.282	2738.54
921.593	2682.05
921.903	2698.32
922.214	2673.23
922.525	2698.77
922.835	2677.3
923.146	2645.44
923.456	2642.28
923.767	2620.13
924.077	2611.54
924.387	2623.29
924.697	2614.03
925.008	2604.54
925.318	2596.63
925.628	2567.93
925.938	2551.88
926.248	2525.89
926.558	2560.47
926.867	2539.45
927.177	2509.85
927.487	2493.58
927.796	2499.91
928.106	2470.98
928.416	2482.96
928.725	2444.09
929.034	2476.63
929.344	2473.24
929.653	2460.81
929.962	2433.69
930.271	2432.11
930.581	2431.89
930.89	2423.98
931.199	2386.91
931.508	2395.28
931.817	2439.12
932.125	2348.95
932.434	2391.43
932.743	2320.25
933.051	2375.39
933.36	2350.98
933.669	2328.39
933.977	2347.82
934.286	2315.96
934.594	2319.35
934.902	2268.95
935.21	2270.08
935.519	2291.32
935.827	2273.25
936.135	2253.81
936.443	2233.7
936.751	2263.53
937.059	2233.25
937.367	2244.55
937.674	2263.75
937.982	2216.98
938.29	2229.18
938.597	2193.7
938.905	2168.16
939.213	2192.34
939.52	2165.9
939.827	2134.04
940.135	2159.35
940.442	2160.93
940.749	2157.77
941.056	2152.12
941.363	2115.28
941.67	2129.52
941.977	2133.59
942.284	2128.39
942.591	2082.52
942.898	2064.66
943.205	2068.05
943.511	2095.17
943.818	2068.96
944.125	2036.64
944.431	2025.57
944.738	2037.09
945.044	2042.97
945.35	2011.33
945.657	2016.3
945.963	2013.82
946.269	1993.48
946.575	1987.15
946.881	1985.57
947.187	1983.76
947.493	1986.25
947.799	1976.08
948.105	1923.2
948.41	1925.23
948.716	1961.62
949.022	1954.84
949.327	1946.25
949.633	1911.22
949.938	1925.68
950.244	1925.91
950.549	1880.49
950.854	1885.91
951.16	1899.24
951.465	1885.01
951.77	1887.49
952.075	1861.96
952.38	1854.95
952.685	1842.07
952.99	1856.99
953.294	1819.92
953.599	1808.62
953.904	1800.04
954.209	1769.53
954.513	1826.48
954.818	1799.36
955.122	1791.68
955.426	1795.29
955.731	1788.51
956.035	1769.76
956.339	1783.77
956.643	1777.44
956.948	1745.58
957.252	1769.53
957.556	1770.89
957.86	1733.82
958.163	1765.91
958.467	1735.41
958.771	1699.25
959.075	1717.33
959.378	1704.67
959.682	1700.38
959.985	1712.81
960.289	1709.87
960.592	1687.27
960.896	1664
961.199	1661.28
961.502	1679.36
961.805	1657.44
962.108	1656.54
962.411	1655.63
962.714	1612.47
963.017	1635.07
963.32	1624.22
963.623	1608.86
963.926	1626.03
964.228	1628.29
964.531	1596.88
964.833	1610.44
965.136	1608.86
965.438	1585.35
965.741	1570.44
966.043	1577.9
966.345	1592.59
966.648	1555.75
966.95	1572.7
967.252	1539.48
967.554	1537.22
967.856	1564.56
968.158	1557.78
968.46	1511.68
968.761	1504
969.063	1545.58
969.365	1525.69
969.666	1558.69
969.968	1492.7
970.269	1489.31
970.571	1495.64
970.872	1506.03
971.174	1481.4
971.475	1476.43
971.776	1464.9
972.077	1472.81
972.378	1453.83
972.679	1477.33
972.98	1473.04
973.281	1456.09
973.582	1424.45
973.883	1433.04
974.183	1459.03
974.484	1460.84
974.785	1406.83
975.085	1430.78
975.386	1442.76
975.686	1435.53
975.986	1386.26
976.287	1411.57
976.587	1357.79
976.887	1400.05
977.187	1390.1
977.487	1396.43
977.787	1381.07
978.087	1379.26
978.387	1371.8
978.687	1379.03
978.987	1369.09
979.286	1343.1
979.586	1316.89
979.885	1327.96
980.185	1333.38
980.484	1327.73
980.784	1344.46
981.083	1297
981.382	1319.82
981.682	1296.55
981.981	1311.24
982.28	1292.93
982.579	1305.14
982.878	1318.02
983.177	1293.16
983.475	1270.33
983.774	1268.98
984.073	1272.14
984.372	1250.67
984.67	1296.77
984.969	1236.44
985.267	1285.7
985.566	1274.85
985.864	1251.8
986.162	1253.61
986.461	1228.53
986.759	1231.92
987.057	1238.47
987.355	1225.14
987.653	1241.41
987.951	1186.72
988.249	1221.3
988.547	1187.62
988.844	1199.83
989.142	1203.22
989.44	1202.31
989.737	1192.6
990.035	1178.81
990.332	1189.43
990.63	1155.99
990.927	1150.11
991.224	1138.81
991.521	1169.77
991.819	1142.88
992.116	1146.5
992.413	1172.48
992.71	1167.51
993.006	1136.1
993.303	1139.49
993.6	1143.78
993.897	1128.42
994.193	1123.22
994.49	1130.68
994.787	1112.6
995.083	1092.94
995.379	1113.28
995.676	1096.1
995.972	1099.49
996.268	1077.12
996.565	1096.55
996.861	1082.77
997.157	1075.76
997.453	1081.41
997.749	1068.53
998.044	1061.53
998.34	1071.69
998.636	1054.97
998.932	1045.93
999.227	1067.4
999.523	1039.61
999.818	1051.36
1000.114	1042.09
1000.409	1019.72
1000.704	1011.58
1001	1022.88
1001.295	1013.39
1001.59	1015.2
1001.885	1013.62
1002.18	995.09
1002.475	1006.39
1002.77	1008.87
1003.065	986.73
1003.359	980.85
1003.654	974.07
1003.949	984.24
1004.243	971.58
1004.538	958.03
1004.832	964.35
1005.127	952.83
1005.421	941.75
1005.715	967.52
1006.009	954.64
1006.304	921.64
1006.598	940.62
1006.892	939.72
1007.186	932.49
1007.48	938.14
1007.773	917.57
1008.067	931.59
1008.361	902.43
1008.655	936.78
1008.948	889.33
1009.242	912.38
1009.535	912.83
1009.829	905.15
1010.122	883.23
1010.415	892.04
1010.708	891.13
1011.001	900.17
1011.295	895.88
1011.588	848.65
1011.881	866.5
1012.173	873.73
1012.466	879.16
1012.759	842.77
1013.052	856.33
1013.344	863.34
1013.637	845.71
1013.93	855.88
1014.222	828.09
1014.514	827.63
1014.807	829.44
1015.099	845.03
1015.391	831.93
1015.683	835.32
1015.976	810.46
1016.268	835.32
1016.56	829.22
1016.851	810.91
1017.143	809.1
1017.435	821.08
1017.727	781.31
1018.018	763
1018.31	792.15
1018.602	793.74
1018.893	779.05
1019.185	763.68
1019.476	760.52
1019.767	768.88
1020.058	770.01
1020.35	753.06
1020.641	766.62
1020.932	767.97
1021.223	732.95
1021.514	736.11
1021.804	745.15
1022.095	719.61
1022.386	751.48
1022.677	726.17
1022.967	708.09
1023.258	725.04
1023.548	737.69
1023.839	725.49
1024.129	725.72
1024.419	710.57
1024.709	695.66
1025	698.6
1025.29	705.38
1025.58	681.2
1025.87	702.21
1026.16	686.39
1026.449	697.02
1026.739	700.41
1027.029	693.85
1027.319	689.11
1027.608	687.75
1027.898	682.78
1028.187	668.32
1028.477	687.75
1028.766	657.24
1029.055	646.85
1029.344	673.29
1029.634	649.33
1029.923	652.5
1030.212	668.32
1030.501	672.38
1030.79	639.16
1031.078	629.22
1031.367	639.16
1031.656	635.32
1031.945	636
1032.233	639.62
1032.522	646.85
1032.81	626.96
1033.099	609.33
1033.387	606.85
1033.675	617.24
1033.963	617.92
1034.251	635.32
1034.54	635.1
1034.828	603.46
1035.116	581.99
1035.403	610.46
1035.691	594.87
1035.979	594.19
1036.267	581.54
1036.554	592.16
1036.842	589.45
1037.129	586.96
1037.417	572.05
1037.704	570.69
1037.992	563.46
1038.279	582.22
1038.566	570.47
1038.853	570.47
1039.14	570.47
