Data from brown_tile_FLMS001491_067.txt Node
Date: Tue Feb 07 10:37:50 GMT 2017
User: dcchb
Spectrometer: FLMS00149
Trigger mode: 0
Integration Time (sec): 2.000000E-2
Scans to average: 10
Electric dark correction enabled: true
Nonlinearity correction enabled: false
Boxcar width: 0
XAxis mode: Wavelengths
Number of Pixels in Spectrum: 2048
>>>>>Begin Spectral Data<<<<<
341.393	-4.96
341.776	-4.96
342.16	-4.96
342.543	-77.05
342.927	-85.18
343.31	-85.63
343.693	-62.36
344.077	-73.88
344.46	-50.15
344.843	-75.69
345.226	-49.48
345.61	-28.23
345.993	-5.64
346.376	-2.47
346.759	11.31
347.142	27.36
347.525	46.57
347.908	50.41
348.291	84.53
348.674	86.79
349.057	126.56
349.44	130.63
349.823	118.2
350.206	154.59
350.588	190.07
350.971	180.57
351.354	212.44
351.737	220.35
352.119	218.09
352.502	224.64
352.884	237.97
353.267	249.27
353.65	269.84
354.032	269.61
354.414	280.23
354.797	284.75
355.179	313.45
355.562	324.98
355.944	302.15
356.326	317.52
356.709	314.81
357.091	314.58
357.473	299.89
357.855	316.84
358.238	308.93
358.62	347.58
359.002	326.56
359.384	323.17
359.766	331.3
360.148	339.44
360.53	336.28
360.912	302.83
361.294	321.81
361.676	313.23
362.057	311.42
362.439	334.92
362.821	303.06
363.203	315.49
363.584	302.83
363.966	310.06
364.348	307.58
364.729	293.79
365.111	313
365.493	320.68
365.874	297.86
366.256	294.92
366.637	293.11
367.019	303.96
367.4	294.47
367.781	281.81
368.163	300.57
368.544	277.29
368.925	303.73
369.306	322.72
369.688	298.31
370.069	282.94
370.45	288.82
370.831	293.79
371.212	298.99
371.593	300.12
371.974	292.89
372.355	261.48
372.736	296.73
373.117	302.83
373.498	293.11
373.879	287.92
374.26	317.29
374.641	304.64
375.021	318.65
375.402	309.84
375.783	314.13
376.163	309.16
376.544	323.4
376.925	275.26
377.305	324.75
377.686	285.2
378.066	293.11
378.447	312.32
378.827	300.57
379.208	336.73
379.588	327.01
379.968	312.77
380.349	318.65
380.729	310.51
381.109	297.63
381.489	316.39
381.87	319.55
382.25	303.96
382.63	315.49
383.01	320.68
383.39	329.95
383.77	315.71
384.15	316.39
384.53	334.92
384.91	320.91
385.29	329.95
385.67	324.75
386.049	337.86
386.429	333.34
386.809	337.41
387.189	344.86
387.568	335.6
387.948	327.01
388.328	343.51
388.707	347.12
389.087	327.46
389.466	340.57
389.846	319.55
390.225	337.18
390.605	333.56
390.984	336.73
391.363	344.19
391.743	342.38
392.122	345.54
392.501	349.61
392.881	348.03
393.26	333.34
393.639	343.96
394.018	345.09
394.397	362.72
394.776	355.94
395.155	359.78
395.534	360.46
395.913	336.28
396.292	362.49
396.671	343.96
397.05	360
397.429	334.92
397.808	371.76
398.186	344.86
398.565	361.81
398.944	372.21
399.323	378.31
399.701	366.78
400.08	375.37
400.458	352.77
400.837	387.35
401.215	397.97
401.594	374.69
401.972	376.28
402.351	372.21
402.729	380.57
403.107	381.7
403.486	387.12
403.864	385.54
404.242	374.92
404.62	365.2
404.999	387.57
405.377	375.82
405.755	404.52
406.133	389.38
406.511	391.64
406.889	398.87
407.267	416.27
407.645	410.4
408.023	399.1
408.401	398.2
408.779	391.64
409.156	412.88
409.534	403.17
409.912	421.02
410.29	395.26
410.667	411.75
411.045	413.11
411.422	390.51
411.8	412.21
412.178	420.34
412.555	432.55
412.933	428.25
413.31	427.8
413.687	422.6
414.065	448.82
414.442	437.97
414.819	431.64
415.197	429.61
415.574	452.66
415.951	444.97
416.328	454.01
416.705	455.14
417.082	437.74
417.46	427.8
417.837	443.84
418.214	452.43
418.591	467.35
418.967	456.5
419.344	446.33
419.721	464.86
420.098	456.05
420.475	466.89
420.852	452.88
421.228	466.67
421.605	471.64
421.982	475.93
422.358	479.78
422.735	469.38
423.111	494.92
423.488	485.65
423.864	504.63
424.241	492.88
424.617	503.05
424.994	493.79
425.37	517.06
425.746	473.67
426.123	499.44
426.499	510.06
426.875	527.68
427.251	507.12
427.627	517.29
428.003	505.99
428.379	533.33
428.756	528.59
429.132	550.28
429.507	536.27
429.883	561.13
430.259	549.15
430.635	540.56
431.011	535.14
431.387	569.94
431.763	561.36
432.138	583.95
432.514	571.07
432.89	564.75
433.265	572.65
433.641	570.17
434.016	588.47
434.392	565.65
434.767	600.45
435.143	588.7
435.518	609.26
435.894	611.98
436.269	624.18
436.644	613.78
437.02	625.53
437.395	615.59
437.77	642.48
438.145	627.79
438.52	625.76
438.895	638.42
439.271	628.47
439.646	645.42
440.021	650.84
440.395	654.91
440.77	668.25
441.145	654.69
441.52	679.77
441.895	703.72
442.27	678.64
442.645	683.16
443.019	667.57
443.394	662.82
443.769	688.58
444.143	691.75
444.518	703.5
444.892	708.7
445.267	691.52
445.641	703.27
446.016	716.61
446.39	708.24
446.764	698.07
447.139	686.55
447.513	731.52
447.887	712.54
448.262	730.16
448.636	728.36
449.01	727
449.384	745.08
449.758	743.5
450.132	742.82
450.506	765.64
450.88	771.75
451.254	749.37
451.628	737.62
452.002	752.99
452.376	777.62
452.75	764.74
453.123	758.64
453.497	790.73
453.871	793.89
454.244	813.33
454.618	804.96
454.992	805.19
455.365	784.4
455.739	803.83
456.112	829.82
456.486	837.28
456.859	835.25
457.232	852.87
457.606	864.62
457.979	835.92
458.352	851.97
458.725	894.68
459.099	905.08
459.472	896.94
459.845	921.12
460.218	910.95
460.591	910.5
460.964	932.42
461.337	950.27
461.71	947.33
462.083	952.53
462.456	948.69
462.829	952.98
463.201	994.34
463.574	978.07
463.947	991.4
464.32	1011.29
464.692	1036.37
465.065	1023.94
465.438	1027.78
465.81	1027.56
466.183	1037.05
466.555	1056.26
466.928	1058.29
467.3	1080.21
467.672	1070.49
468.045	1110.27
468.417	1124.05
468.789	1130.83
469.161	1131.28
469.534	1127.67
469.906	1183.94
470.278	1161.34
470.65	1167.22
471.022	1196.59
471.394	1210.15
471.766	1215.35
472.138	1213.54
472.51	1246.31
472.882	1265.07
473.253	1270.49
473.625	1314.1
473.997	1314.1
474.369	1346.87
474.74	1355.91
475.112	1362.24
475.484	1377.38
475.855	1395.46
476.227	1408.79
476.598	1425.51
476.97	1466.87
477.341	1475
477.713	1498.73
478.084	1493.53
478.455	1533.31
478.827	1540.54
479.198	1575.57
479.569	1580.99
479.94	1604.72
480.311	1631.38
480.682	1659.18
481.053	1708.9
481.424	1710.25
481.795	1707.09
482.166	1757.03
482.537	1757.26
482.908	1792.74
483.279	1813.53
483.65	1820.31
484.021	1889
484.391	1869.34
484.762	1906.18
485.133	1922.22
485.503	1916.57
485.874	1966.52
486.244	1999.06
486.615	2036.12
486.985	2028.66
487.356	2070.24
487.726	2088.32
488.097	2129.22
488.467	2109.56
488.837	2146.85
489.207	2162.9
489.578	2181.43
489.948	2226.4
490.318	2262.33
490.688	2262.1
491.058	2296.68
491.428	2339.39
491.798	2356.79
492.168	2396.79
492.538	2419.61
492.908	2423
493.278	2466.16
493.648	2478.82
494.017	2483.79
494.387	2531.02
494.757	2542.09
495.126	2556.11
495.496	2585.93
495.866	2607.63
496.235	2630.23
496.605	2607.86
496.974	2655.54
497.344	2671.81
497.713	2693.28
498.082	2723.56
498.452	2740.73
498.821	2770.34
499.19	2800.62
499.559	2776.66
499.928	2821.86
500.298	2819.6
500.667	2870.67
501.036	2863.44
501.405	2874.29
501.774	2888.98
502.143	2942.54
502.512	2947.06
502.88	3001.07
503.249	2981.18
503.618	2988.64
503.987	3017.34
504.356	3034.96
504.724	3022.53
505.093	3050.78
505.462	3062.98
505.83	3094.17
506.199	3112.93
506.567	3124.23
506.936	3149.99
507.304	3206.03
507.672	3223.21
508.041	3204.45
508.409	3259.59
508.777	3260.49
509.145	3305.24
509.514	3311.57
509.882	3346.59
510.25	3364.45
510.618	3336.88
510.986	3376.2
511.354	3406.25
511.722	3443.09
512.09	3467.49
512.458	3452.13
512.826	3496.42
513.193	3569.64
513.561	3548.4
513.929	3564.89
514.297	3625
514.664	3646.25
515.032	3682.4
515.4	3696.19
515.767	3685.34
516.135	3700.03
516.502	3688.73
516.869	3734.83
517.237	3773.47
517.604	3762.63
517.972	3841.5
518.339	3852.57
518.706	3835.39
519.073	3962.17
519.44	3918.78
519.808	4029.29
520.175	3987.25
520.542	4053.01
520.909	4053.69
521.276	4035.61
521.643	4081.71
522.009	4128.04
522.376	4172.33
522.743	4231.09
523.11	4221.82
523.477	4326.91
523.843	4309.73
524.21	4346.11
524.577	4409.62
524.943	4456.17
525.31	4467.47
525.676	4484.64
526.043	4492.55
526.409	4524.19
526.776	4612.32
527.142	4676.05
527.508	4672.21
527.874	4672.43
528.241	4697.97
528.607	4746.56
528.973	4781.81
529.339	4826.55
529.705	4827.23
530.071	4876.04
530.437	4899.55
530.803	4954.69
531.169	4980
531.535	4997.4
531.901	5038.98
532.267	5081.46
532.632	5103.61
532.998	5101.35
533.364	5157.62
533.73	5184.96
534.095	5224.06
534.461	5218.63
534.826	5267.9
535.192	5330.95
535.557	5331.63
535.923	5406.88
536.288	5391.28
536.653	5454.11
537.019	5414.56
537.384	5478.06
537.749	5502.02
538.114	5469.02
538.479	5512.86
538.845	5574.56
539.21	5589.92
539.575	5628.11
539.94	5687.32
540.305	5676.02
540.67	5712.41
541.034	5729.58
541.399	5826.53
541.764	5806.87
542.129	5826.98
542.494	5884.15
542.858	5928.22
543.223	5949.46
543.587	5969.12
543.952	5962.12
544.316	6025.39
544.681	6060.42
545.045	6070.81
545.41	6139.51
545.774	6097.93
546.138	6169.57
546.503	6219.06
546.867	6213.41
547.231	6289.79
547.595	6300.41
547.959	6344.93
548.324	6426.29
548.688	6461.54
549.052	6419.51
549.416	6486.17
549.779	6530.92
550.143	6527.53
550.507	6617.47
550.871	6683
551.235	6707.18
551.599	6763.23
551.962	6779.95
552.326	6815.65
552.689	6940.85
553.053	6912.6
553.417	6952.37
553.78	7066.95
554.143	7037.34
554.507	7157.79
554.87	7146.72
555.234	7242.76
555.597	7255.87
555.96	7300.16
556.323	7401.4
556.686	7398.92
557.05	7515.75
557.413	7541.28
557.776	7631.68
558.139	7675.74
558.502	7733.37
558.865	7749.64
559.228	7856.76
559.59	7902.41
559.953	7986.92
560.316	8087.03
560.679	8130.42
561.041	8194.83
561.404	8258.1
561.767	8358.21
562.129	8369.51
562.492	8533.35
562.854	8523.41
563.217	8553.24
563.579	8703.51
563.941	8776.05
564.304	8860.8
564.666	8888.14
565.028	8884.75
565.39	9059.89
565.753	9141.47
566.115	9151.86
566.477	9223.73
566.839	9320.9
567.201	9421.01
567.563	9479.99
567.925	9576.71
568.287	9622.13
568.648	9775.35
569.01	9752.53
569.372	9933.99
569.734	9919.3
570.095	10018.51
570.457	10089.24
570.819	10197.94
571.18	10213.3
571.542	10272.96
571.903	10365.84
572.265	10437.48
572.626	10502.11
572.987	10584.37
573.349	10717.25
573.71	10786.85
574.071	10884.7
574.432	10971.7
574.794	11030.68
575.155	11044.92
575.516	11084.02
575.877	11239.49
576.238	11306.84
576.599	11451.69
576.96	11418.02
577.32	11477.68
577.681	11583.21
578.042	11684
578.403	11682.19
578.763	11714.28
579.124	11918.8
579.485	11922.64
579.845	12097.55
580.206	12085.12
580.566	12035.4
580.927	12151.33
581.287	12246.02
581.648	12291.67
582.008	12436.07
582.368	12430.87
582.728	12475.84
583.089	12444.66
583.449	12537.76
583.809	12579.12
584.169	12593.81
584.529	12591.1
584.889	12765.78
585.249	12801.03
585.609	12830.86
585.969	12962.61
586.329	12938.21
586.688	12998.09
587.048	13089.16
587.408	13010.29
587.768	13092.1
588.127	13093.46
588.487	13100.91
588.846	13301.36
589.206	13252.55
589.565	13287.8
589.925	13338.87
590.284	13404.41
590.643	13453.9
591.003	13500.22
591.362	13600.79
591.721	13609.83
592.08	13625.87
592.44	13675.13
592.799	13758.75
593.158	13655.02
593.517	13719.65
593.876	13798.3
594.235	13781.12
594.593	13840.1
594.952	13886.65
595.311	13904.96
595.67	14029.93
596.029	14001.68
596.387	14173.88
596.746	14214.78
597.104	14140.66
597.463	14125.52
597.822	14267.21
598.18	14228.34
598.538	14281.45
598.897	14316.02
599.255	14225.4
599.613	14367.09
599.972	14408.67
600.33	14468.56
600.688	14431.5
601.046	14539.52
601.404	14566.64
601.762	14614.55
602.12	14616.13
602.478	14685.5
602.836	14733.86
603.194	14638.73
603.552	14871.49
603.91	14732.06
604.268	14764.37
604.625	14758.5
604.983	14864.93
605.341	14843.92
605.698	14896.8
606.056	14966.85
606.413	15003.91
606.771	14923.01
607.128	15042.1
607.485	15011.37
607.843	14960.52
608.2	15133.63
608.557	15246.84
608.914	15182.21
609.272	15205.04
609.629	15287.75
609.986	15307.41
610.343	15285.04
610.7	15348.76
611.057	15431.02
611.414	15368.42
611.771	15403.9
612.127	15502.43
612.484	15457.23
612.841	15545.82
613.198	15476.22
613.554	15544.01
613.911	15654.52
614.267	15563.45
614.624	15542.2
614.98	15660.85
615.337	15611.58
615.693	15680.96
616.05	15635.99
616.406	15830.11
616.762	15676.66
617.118	15793.5
617.475	15810.9
617.831	15910.56
618.187	15932.7
618.543	15878.47
618.899	15986.26
619.255	15973.61
619.611	15928.63
619.967	15964.79
620.323	16046.82
620.678	16052.47
621.034	16035.75
621.39	16040.27
621.746	16104.22
622.101	16169.98
622.457	16057.45
622.812	16075.07
623.168	16183.77
623.523	16222.86
623.879	16190.32
624.234	16106.48
624.589	16205.01
624.945	16156.65
625.3	16202.3
625.655	16201.85
626.01	16148.74
626.365	16233.94
626.72	16282.75
627.075	16339.25
627.43	16236.88
627.785	16194.62
628.14	16189.42
628.495	16235.97
628.85	16253.15
629.205	16158.91
629.559	16282.75
629.914	16188.06
630.269	16127.05
630.623	16117.78
630.978	16144.9
631.332	16194.39
631.687	16278.46
632.041	16189.87
632.396	16171.57
632.75	16134.51
633.104	16113.49
633.459	16116.65
633.813	16170.66
634.167	16097.67
634.521	16116.65
634.875	16054.51
635.229	16052.25
635.583	15982.87
635.937	15983.1
636.291	16034.85
636.645	16099.7
636.999	16031.01
637.352	16091.57
637.706	15929.99
638.06	16032.36
638.413	15999.14
638.767	15970.89
639.121	15967.96
639.474	15918.01
639.828	15971.8
640.181	15924.79
640.534	15885.47
640.888	15945.81
641.241	15862.87
641.594	15822.42
641.947	15902.87
642.301	15859.03
642.654	15880.73
643.007	15871.46
643.36	15871.24
643.713	15780.84
644.066	15923.89
644.419	15810.9
644.771	15617.68
645.124	15641.86
645.477	15562.32
645.83	15447.29
646.182	15314.19
646.535	15309.67
646.888	15419.5
647.24	15210.24
647.593	15384.92
647.945	15387.41
648.298	15269.22
648.65	15285.26
649.002	15187.86
649.355	15280.74
649.707	15345.6
650.059	15383.34
650.411	15556.67
650.763	15539.72
651.115	15779.49
651.467	15651.13
651.819	15651.13
652.171	15631.02
652.523	15718.47
652.875	15655.65
653.227	15546.27
653.578	15637.12
653.93	15573.84
654.282	15564.35
654.633	15541.98
654.985	15579.27
655.337	15601.19
655.688	15524.58
656.039	15626.04
656.391	15428.99
656.742	15519.38
657.094	15539.27
657.445	15557.8
657.796	15603.45
658.147	15570
658.498	15501.75
658.849	15562.77
659.2	15560.28
659.551	15499.95
659.902	15549.21
660.253	15548.08
660.604	15615.42
660.955	15500.85
661.306	15553.5
661.656	15552.6
662.007	15589.21
662.358	15513.05
662.708	15547.18
663.059	15612.03
663.409	15453.39
663.76	15590.79
664.11	15561.19
664.461	15607.06
664.811	15548.53
665.161	15602.32
665.511	15515.09
665.862	15599.6
666.212	15598.7
666.562	15658.36
666.912	15639.6
667.262	15621.75
667.612	15586.5
667.962	15632.6
668.312	15636.44
668.662	15631.69
669.011	15692.71
669.361	15565.25
669.711	15653.61
670.06	15597.57
670.41	15680.05
670.76	15613.39
671.109	15636.67
671.459	15658.59
671.808	15631.92
672.157	15678.25
672.507	15548.76
672.856	15546.27
673.205	15654.97
673.554	15726.61
673.904	15604.58
674.253	15782.65
674.602	15641.86
674.951	15430.57
675.3	15409.78
675.649	15611.58
675.998	15546.05
676.346	15632.15
676.695	15688.64
677.044	15570.9
677.393	15693.84
677.741	15641.86
678.09	15628.98
678.438	15688.19
678.787	15650.45
679.135	15786.04
679.484	15609.55
679.832	15705.82
680.181	15546.27
680.529	15637.8
680.877	15603.45
681.225	15582.2
681.573	15668.3
681.922	15604.8
682.27	15522.54
682.618	15682.77
682.966	15517.35
683.314	15637.57
683.661	15518.02
684.009	15460.85
684.357	15501.3
684.705	15393.51
685.053	15445.71
685.4	15500.85
685.748	15439.83
686.095	15372.94
686.443	15485.71
686.79	15393.28
687.138	15431.02
687.485	15391.47
687.832	15468.76
688.18	15414.98
688.527	15342.21
688.874	15302.44
689.221	15344.92
689.568	15270.57
689.915	15228.99
690.262	15268.77
690.609	15176.34
690.956	15177.69
691.303	15123.01
691.65	15125.49
691.997	15105.38
692.344	14977.47
692.69	15077.36
693.037	15038.26
693.383	14956.23
693.73	14946.97
694.077	14897.93
694.423	14949.68
694.769	14891.6
695.116	14830.13
695.462	14810.02
695.808	14854.99
696.155	14850.25
696.501	14750.81
696.847	14714.66
697.193	14722.56
697.539	14738.38
697.885	14602.34
698.231	14613.64
698.577	14580.2
698.923	14579.74
699.269	14489.8
699.614	14424.49
699.96	14424.49
700.306	14503.36
700.651	14413.87
700.997	14450.71
701.342	14371.84
701.688	14394.89
702.033	14353.31
702.379	14279.19
702.724	14332.29
703.069	14379.3
703.415	14176.82
703.76	14272.86
704.105	14239.64
704.45	14272.41
704.795	14078.51
705.14	14116.03
705.485	14099.3
705.83	14142.92
706.175	14147.89
706.52	14029.48
706.865	13998.29
707.209	14011.17
707.554	13957.84
707.899	13969.82
708.243	13973.66
708.588	13891.63
708.932	13842.81
709.277	13871.29
709.621	13978.63
709.966	13800.78
710.31	13815.92
710.654	13729.14
710.998	13748.58
711.342	13864.73
711.687	13778.63
712.031	13758.52
712.375	13702.7
712.719	13645.08
713.063	13744.74
713.407	13747.22
713.75	13739.09
714.094	13597.62
714.438	13516.49
714.782	13630.62
715.125	13533.9
715.469	13629.49
715.812	13566.21
716.156	13528.92
716.499	13479.89
716.843	13575.93
717.186	13446.21
717.53	13544.52
717.873	13489.15
718.216	13502.48
718.559	13421.36
718.902	13332.09
719.246	13383.84
719.589	13335.26
719.932	13304.75
720.275	13222.04
720.617	13354.01
720.96	13391.07
721.303	13360.11
721.646	13289.83
721.989	13285.31
722.331	13372.77
722.674	13224.98
723.016	13329.38
723.359	13210.29
723.701	13217.75
724.044	13174.81
724.386	13224.3
724.729	13239.89
725.071	13209.61
725.413	13248.03
725.755	13134.36
726.097	13175.94
726.439	13076.51
726.782	13083.74
727.124	13164.19
727.465	13076.51
727.807	13064.98
728.149	13101.36
728.491	13036.51
728.833	13025.43
729.175	13089.39
729.516	12999.45
729.858	13004.42
730.199	12972.1
730.541	13038.09
730.882	12921.03
731.224	13004.42
731.565	12888.71
731.906	12982.27
732.248	12951.54
732.589	12930.3
732.93	12928.26
733.271	12818.89
733.612	12942.72
733.953	12863.18
734.294	12852.56
734.635	12836.74
734.976	12816.4
735.317	12746.57
735.658	12796.97
735.999	12768.27
736.339	12747.02
736.68	12855.95
737.021	12799.68
737.361	12693.24
737.702	12795.84
738.042	12758.77
738.383	12682.84
738.723	12677.42
739.063	12702.28
739.404	12797.19
739.744	12699.34
740.084	12622.51
740.424	12643.98
740.764	12625.44
741.104	12654.82
741.444	12518.56
741.784	12526.46
742.124	12553.58
742.464	12568.95
742.804	12498.44
743.143	12514.49
743.483	12469.52
743.823	12449.86
744.162	12413.93
744.502	12468.61
744.841	12429.52
745.181	12410.08
745.52	12292.35
745.86	12441.27
746.199	12387.49
746.538	12282.18
746.877	12399.69
747.216	12309.97
747.556	12256.19
747.895	12343.64
748.234	12187.94
748.573	12213.25
748.911	12195.17
749.25	12175.06
749.589	12121.73
749.928	12171.22
750.267	12169.19
750.605	12122.86
750.944	12003.77
751.283	12044.22
751.621	12032.01
751.96	12062.07
752.298	11907.05
752.636	12040.6
752.975	11890.32
753.313	11939.59
753.651	11953.15
753.989	11867.05
754.327	11840.61
754.666	11795.18
755.004	11792.02
755.342	11782.76
755.679	11770.1
756.017	11648.97
756.355	11714.28
756.693	11647.39
757.031	11708.86
757.368	11461.86
757.706	11571.24
758.044	11555.19
758.381	11492.37
758.719	11440.84
759.056	11465.02
759.394	11472.71
759.731	11373.95
760.068	11320.39
760.405	11378.25
760.743	11295.08
761.08	11245.14
761.417	11220.28
761.754	11232.71
762.091	11185.03
762.428	11148.2
762.765	11120.63
763.102	11217.57
763.438	11002.44
763.775	10978.03
764.112	11064.36
764.449	11015.54
764.785	10957.69
765.122	10806.28
765.458	10769.9
765.795	10788.66
766.131	10782.78
766.467	10699.62
766.804	10732.16
767.14	10660.52
767.476	10679.96
767.812	10577.82
768.148	10635.89
768.485	10504.37
768.821	10436.12
769.157	10373.53
769.492	10451.26
769.828	10429.8
770.164	10279.97
770.5	10312.51
770.836	10205.17
771.171	10300.99
771.507	10205.4
771.842	10059.86
772.178	10102.35
772.513	10053.54
772.849	10032.97
773.184	9975.35
773.519	10067.55
773.855	9977.83
774.19	9865.52
774.525	9886.53
774.86	9862.58
775.195	9851.28
775.53	9790.72
775.865	9780.77
776.2	9670.49
776.535	9569.25
776.87	9564.73
777.205	9591.63
777.539	9479.54
777.874	9475.92
778.209	9413.55
778.543	9421.01
778.878	9339.43
779.212	9351.86
779.547	9284.06
779.881	9300.56
780.215	9225.31
780.55	9251.3
780.884	9205.2
781.218	9160.45
781.552	9184.86
781.886	9082.94
782.22	8997.74
782.554	8989.83
782.888	8930.4
783.222	8871.19
783.556	8853.57
783.889	8816.51
784.223	8747.81
784.557	8780.12
784.89	8753.46
785.224	8687.92
785.557	8611.31
785.891	8611.09
786.224	8510.52
786.558	8577.19
786.891	8483.41
787.224	8439.11
787.557	8431.43
787.891	8329.51
788.224	8423.3
788.557	8393.24
788.89	8360.47
789.223	8343.52
789.556	8217.2
789.888	8300.13
790.221	8148.73
790.554	8120.03
790.887	8187.14
791.219	8082.51
791.552	8103.76
791.884	8042.51
792.217	8067.37
792.549	7998.22
792.882	7934.95
793.214	7878.23
793.546	7908.73
793.879	7876.19
794.211	7833.25
794.543	7831.22
794.875	7791.67
795.207	7797.55
795.539	7809.07
795.871	7733.37
796.203	7653.37
796.535	7666.03
796.867	7656.08
797.198	7624.45
797.53	7549.65
797.862	7493.15
798.193	7564.11
798.525	7470.33
798.856	7521.17
799.188	7437.11
799.519	7385.36
799.85	7348.75
800.182	7324.57
800.513	7359.14
800.844	7199.37
801.175	7259.03
801.506	7257.9
801.837	7284.12
802.168	7199.37
802.499	7202.54
802.83	7165.48
803.161	7141.52
803.491	7123.89
803.822	7098.36
804.153	7061.52
804.483	7029.89
804.814	6952.83
805.145	6930.23
805.475	6960.06
805.805	6944.24
806.136	6928.65
806.466	6908.76
806.796	6898.36
807.126	6808.2
807.457	6794.86
807.787	6796.67
808.117	6768.42
808.447	6714.41
808.777	6751.48
809.107	6697.92
809.436	6749.67
809.766	6669.9
810.096	6655.43
810.426	6663.79
810.755	6596
811.085	6561.88
811.414	6599.61
811.744	6521.88
812.073	6478.94
812.403	6478.26
812.732	6472.84
813.061	6468.54
813.39	6428.09
813.719	6430.35
814.049	6470.13
814.378	6395.55
814.707	6360.07
815.036	6361.88
815.365	6290.47
815.693	6186.07
816.022	6252.05
816.351	6229.91
816.68	6191.94
817.008	6238.72
817.337	6174.77
817.665	6133.19
817.994	6174.54
818.322	6179.29
818.651	6137.71
818.979	6108.33
819.307	6114.88
819.636	6097.71
819.964	6089.12
820.292	6050.48
820.62	6088.44
820.948	6057.71
821.276	6114.43
821.604	6026.07
821.932	6087.76
822.259	6008.67
822.587	6085.5
822.915	6061.32
823.243	6015.22
823.57	6004.83
823.898	6070.36
824.225	6010.93
824.553	5947.43
824.88	6019.74
825.207	5956.02
825.535	5988.11
825.862	5981.78
826.189	5930.93
826.516	6024.94
826.843	5999.63
827.17	5985.17
827.497	6009.57
827.824	5954.43
828.151	5983.36
828.478	5906.53
828.805	5977.26
829.131	5919.63
829.458	5925.73
829.785	5932.29
830.111	5915.56
830.438	5944.49
830.764	5903.81
831.09	5923.47
831.417	5846.41
831.743	5894.1
832.069	5890.48
832.395	5889.35
832.722	5858.84
833.048	5874.66
833.374	5867.66
833.7	5839.18
834.026	5815.23
834.351	5845.28
834.677	5829.01
835.003	5813.19
835.329	5801.9
835.654	5808.67
835.98	5758.73
836.306	5805.96
836.631	5752.86
836.956	5730.26
837.282	5822.23
837.607	5728.45
837.932	5686.19
838.258	5737.94
838.583	5731.39
838.908	5630.83
839.233	5684.38
839.558	5694.78
839.883	5628.79
840.208	5659.53
840.533	5623.37
840.858	5631.28
841.182	5644.39
841.507	5563.03
841.832	5572.07
842.156	5528.23
842.481	5572.75
842.805	5529.36
843.13	5469.93
843.454	5503.15
843.778	5446.88
844.103	5420.44
844.427	5466.54
844.751	5423.15
845.075	5429.25
845.399	5408.91
845.723	5389.48
846.047	5386.31
846.371	5300.89
846.695	5313.77
847.019	5297.73
847.343	5303.38
847.666	5252.31
847.99	5271.06
848.313	5207.33
848.637	5187.45
848.96	5175.92
849.284	5139.31
849.607	5081.69
849.931	5111.52
850.254	5065.64
850.577	5078.3
850.9	5041.92
851.223	4984.97
851.546	5010.05
851.869	4989.49
852.192	5003.05
852.515	4937.96
852.838	4900.9
853.161	4897.96
853.483	4884.41
853.806	4867.91
854.129	4907
854.451	4841.69
854.774	4861.81
855.096	4836.05
855.419	4766.22
855.741	4743.17
856.063	4763.96
856.385	4748.14
856.708	4749.72
857.03	4755.37
857.352	4718.99
857.674	4715.6
857.996	4677.41
858.318	4621.14
858.64	4625.43
858.961	4647.58
859.283	4636.73
859.605	4601.25
859.926	4591.53
860.248	4577.75
860.57	4539.78
860.891	4572.1
861.212	4589.27
861.534	4507.24
861.855	4504.53
862.176	4484.42
862.498	4519.22
862.819	4527.13
863.14	4478.77
863.461	4461.82
863.782	4460.69
864.103	4486.68
864.424	4429.95
864.745	4456.17
865.065	4448.94
865.386	4435.38
865.707	4386.11
866.027	4395.38
866.348	4413.68
866.668	4343.18
866.989	4374.14
867.309	4402.38
867.63	4362.84
867.95	4347.02
868.27	4327.36
868.59	4322.16
868.91	4363.06
869.23	4333.01
869.55	4282.61
869.87	4314.48
870.19	4353.12
870.51	4315.83
870.83	4285.1
871.15	4276.74
871.469	4302.95
871.789	4267.02
872.109	4313.35
872.428	4233.58
872.748	4263.86
873.067	4232.45
873.386	4271.54
873.706	4200.13
874.025	4211.43
874.344	4207.81
874.663	4182.28
874.982	4198.32
875.301	4238.55
875.62	4142.28
875.939	4195.84
876.258	4138.44
876.577	4087.82
876.896	4125.78
877.214	4184.54
877.533	4148.38
877.852	4129.62
878.17	4105.22
878.489	4122.17
878.807	4074.94
879.125	4107.02
879.444	4058.44
879.762	4092.11
880.08	4102.05
880.398	4050.98
880.716	4016.63
881.034	4006.46
881.352	4028.83
881.67	4063.86
881.988	4002.17
882.306	4045.11
882.624	4030.42
882.941	4006.01
883.259	3990.64
883.577	3956.29
883.894	3965.56
884.212	3975.5
884.529	3933.02
884.846	3915.62
885.164	3943.19
885.481	3868.39
885.798	3912.23
886.115	3891.89
886.432	3893.25
886.75	3869.74
887.067	3894.15
887.383	3902.06
887.7	3877.88
888.017	3825.68
888.334	3860.25
888.651	3834.26
888.967	3815.28
889.284	3795.62
889.6	3800.59
889.917	3758.33
890.233	3788.16
890.55	3774.83
890.866	3761.5
891.182	3740.71
891.498	3748.84
891.815	3714.04
892.131	3714.49
892.447	3690.31
892.763	3683.76
893.079	3682.4
893.395	3675.4
893.71	3646.47
894.026	3638.34
894.342	3622.74
894.657	3625.68
894.973	3645.79
895.289	3583.42
895.604	3615.06
895.92	3591.33
896.235	3587.72
896.55	3557.66
896.865	3590.88
897.181	3558.56
897.496	3551.11
897.811	3533.93
898.126	3487.38
898.441	3495.74
898.756	3495.97
899.071	3473.82
899.386	3525.57
899.7	3437.21
900.015	3448.96
900.33	3462.52
900.644	3421.62
900.959	3431.11
901.273	3385.91
901.588	3407.38
901.902	3386.82
902.216	3352.69
902.531	3319.02
902.845	3352.92
903.159	3328.51
903.473	3307.5
903.787	3301.62
904.101	3322.64
904.415	3312.24
904.729	3279.02
905.042	3278.8
905.356	3259.36
905.67	3265.46
905.984	3255.52
906.297	3229.76
906.611	3226.14
906.924	3209.87
907.237	3211.46
907.551	3236.31
907.864	3177.11
908.177	3199.7
908.491	3147.73
908.804	3166.48
909.117	3100.27
909.43	3090.78
909.743	3126.71
910.056	3124.68
910.368	3093.49
910.681	3051.91
910.994	3034.06
911.307	3068.63
911.619	3083.32
911.932	3053.95
912.244	3006.04
912.557	2990.22
912.869	2990.44
913.181	2993.61
913.494	2975.76
913.806	2967.62
914.118	2980.05
914.43	2945.7
914.742	2943.44
915.054	2956.77
915.366	2877.23
915.678	2944.34
915.99	2906.15
916.302	2907.51
916.613	2835.65
916.925	2888.53
917.236	2880.84
917.548	2825.93
917.859	2834.52
918.171	2803.1
918.482	2765.82
918.794	2810.79
919.105	2805.59
919.416	2776.89
919.727	2791.58
920.038	2759.94
920.349	2757.46
920.66	2739.15
920.971	2709.55
921.282	2698.47
921.593	2684.92
921.903	2716.1
922.214	2657.8
922.525	2667.51
922.835	2644.46
923.146	2634.52
923.456	2650.57
923.767	2639.04
924.077	2635.88
924.387	2591.36
924.697	2595.88
925.008	2605.6
925.318	2588.87
925.628	2571.92
925.938	2534.86
926.248	2552.49
926.558	2547.07
926.867	2549.1
927.177	2510.68
927.487	2518.37
927.796	2506.39
928.106	2456.22
928.416	2496.22
928.725	2494.64
929.034	2501.64
929.344	2463.9
929.653	2485.15
929.962	2427.75
930.271	2416
930.581	2419.39
930.89	2412.15
931.199	2410.35
931.508	2375.32
931.817	2385.94
932.125	2381.65
932.434	2356.11
932.743	2349.1
933.051	2374.41
933.36	2376.45
933.669	2337.81
933.977	2311.59
934.286	2316.56
934.594	2349.56
934.902	2298.48
935.21	2302.78
935.519	2276.11
935.827	2293.51
936.135	2260.97
936.443	2269.33
936.751	2237.02
937.059	2243.12
937.367	2231.59
937.674	2239.73
937.982	2240.63
938.29	2231.14
938.597	2235.89
938.905	2202.22
939.213	2189.11
939.52	2185.95
939.827	2199.73
940.135	2155.44
940.442	2178.04
940.749	2151.82
941.056	2140.3
941.363	2124.7
941.67	2119.28
941.977	2115.44
942.284	2103.24
942.591	2109.79
942.898	2059.4
943.205	2097.59
943.511	2128.77
943.818	2072.05
944.125	2064.82
944.431	2042.9
944.738	2043.58
945.044	2038.83
945.35	2020.53
945.657	1997.25
945.963	2030.7
946.269	2001.54
946.575	2017.81
946.881	2020.07
947.187	2003.35
947.493	1966.97
947.799	1949.57
948.105	1940.3
948.41	1963.35
948.716	1945.27
949.022	1927.87
949.327	1950.7
949.633	1912.73
949.938	1940.98
950.244	1938.49
950.549	1880.64
950.854	1881.32
951.16	1894.2
951.465	1863.92
951.77	1912.51
952.075	1874.99
952.38	1857.82
952.685	1839.51
952.99	1839.06
953.294	1865.05
953.599	1849.23
953.904	1811.94
954.209	1806.75
954.513	1845.39
954.818	1809.46
955.122	1803.81
955.426	1803.13
955.731	1802.68
956.035	1763.58
956.339	1778.95
956.643	1778.95
956.948	1723.81
957.252	1752.28
957.556	1737.82
957.86	1729.23
958.163	1708.44
958.467	1733.75
958.771	1706.41
959.075	1706.86
959.378	1700.99
959.682	1709.12
959.985	1706.64
960.289	1687.43
960.592	1660.54
960.896	1679.07
961.199	1682.46
961.502	1685.17
961.805	1646.75
962.108	1618.73
962.411	1642
962.714	1654.66
963.017	1625.96
963.32	1630.03
963.623	1638.39
963.926	1631.61
964.228	1622.57
964.531	1599.07
964.833	1581.89
965.136	1598.16
965.438	1564.49
965.741	1585.28
966.043	1563.14
966.345	1567.88
966.648	1559.52
966.95	1556.13
967.252	1553.19
967.554	1533.08
967.856	1539.86
968.158	1535.12
968.46	1536.92
968.761	1512.74
969.063	1520.2
969.365	1508.9
969.666	1520.88
969.968	1518.84
970.269	1482.91
970.571	1502.12
970.872	1490.37
971.174	1476.59
971.475	1460.77
971.776	1487.88
972.077	1489.92
972.378	1493.53
972.679	1467.32
972.98	1460.54
973.281	1468
973.582	1423.93
973.883	1447.43
974.183	1422.12
974.484	1416.93
974.785	1416.93
975.085	1431.16
975.386	1447.21
975.686	1423.25
975.986	1391.62
976.287	1390.26
976.587	1397.49
976.887	1399.07
977.187	1391.39
977.487	1403.37
977.787	1375.8
978.087	1379.64
978.387	1357.49
978.687	1363.82
978.987	1362.01
979.286	1369.7
979.586	1343.71
979.885	1352.52
980.185	1353.65
980.484	1324.27
980.784	1344.39
981.083	1333.09
981.382	1317.72
981.682	1306.65
981.981	1333.76
982.28	1308
982.579	1282.01
982.878	1270.94
983.177	1293.54
983.475	1282.47
983.774	1276.14
984.073	1275.46
984.372	1269.36
984.67	1257.38
984.969	1259.42
985.267	1263.94
985.566	1266.42
985.864	1228.91
986.162	1238.63
986.461	1223.03
986.759	1212.41
987.057	1213.54
987.355	1209.47
987.653	1223.71
987.951	1192.07
988.249	1209.25
988.547	1211.51
988.844	1191.17
989.142	1188.01
989.44	1195.46
989.737	1213.54
990.035	1192.3
990.332	1166.31
990.63	1190.94
990.927	1176.93
991.224	1179.42
991.521	1145.52
991.819	1164.28
992.116	1138.06
992.413	1159.53
992.71	1135.8
993.006	1127.22
993.303	1164.5
993.6	1138.29
993.897	1141.68
994.193	1122.7
994.49	1117.5
994.787	1124.28
995.083	1096.93
995.379	1107.78
995.676	1109.59
995.972	1085.41
996.268	1095.35
996.565	1066.88
996.861	1085.41
997.157	1073.43
997.453	1050.83
997.749	1062.59
998.044	1061.91
998.34	1054
998.636	1057.39
998.932	1039.08
999.227	1055.35
999.523	1036.37
999.818	1044.51
1000.114	1037.95
1000.409	1026.43
1000.704	1025.3
1001	1020.55
1001.295	1023.94
1001.59	1018.29
1001.885	987.78
1002.18	995.02
1002.475	993.21
1002.77	994.56
1003.065	994.11
1003.359	988.46
1003.654	1002.7
1003.949	982.36
1004.243	975.13
1004.538	966.54
1004.832	978.52
1005.127	987.33
1005.421	971.06
1005.715	972.64
1006.009	959.76
1006.304	945.98
1006.598	947.56
1006.892	945.98
1007.186	919.09
1007.48	937.16
1007.773	923.61
1008.067	919.54
1008.361	919.99
1008.655	926.54
1008.948	928.58
1009.242	919.76
1009.535	908.92
1009.829	877.51
1010.122	906.2
1010.415	896.26
1010.708	899.65
1011.001	902.59
1011.295	872.08
1011.588	860.1
1011.881	861.91
1012.173	863.27
1012.466	882.25
1012.759	881.57
1013.052	856.26
1013.344	854.45
1013.637	840.44
1013.93	824.85
1014.222	833.21
1014.514	828.01
1014.807	824.4
1015.099	852.65
1015.391	846.55
1015.683	829.14
1015.976	819.88
1016.268	817.62
1016.56	823.04
1016.851	792.31
1017.143	799.54
1017.435	789.15
1017.727	783.5
1018.018	774.46
1018.31	769.26
1018.602	792.08
1018.893	774.23
1019.185	783.04
1019.476	727.9
1019.767	769.94
1020.058	773.78
1020.35	777.62
1020.641	749.37
1020.932	764.06
1021.223	755.7
1021.514	759.32
1021.804	748.02
1022.095	743.72
1022.386	738.75
1022.677	721.35
1022.967	728.36
1023.258	727.68
1023.548	734.46
1023.839	704.18
1024.129	722.48
1024.419	689.94
1024.709	715.02
1025	723.61
1025.29	712.54
1025.58	688.13
1025.87	688.81
1026.16	678.19
1026.449	704.85
1026.739	675.7
1027.029	688.13
1027.319	668.25
1027.608	696.72
1027.898	690.62
1028.187	663.73
1028.477	670.96
1028.766	665.08
1029.055	647.68
1029.344	648.13
1029.634	678.64
1029.923	683.84
1030.212	653.78
1030.501	658.75
1030.79	632.09
1031.078	653.1
1031.367	614.91
1031.656	648.13
1031.945	623.95
1032.233	645.42
1032.522	623.73
1032.81	642.26
1033.099	609.26
1033.387	626.44
1033.675	612.88
1033.963	612.2
1034.251	616.27
1034.54	585.76
1034.828	607
1035.116	587.34
1035.403	591.86
1035.691	606.78
1035.979	607.46
1036.267	577.63
1036.554	571.07
1036.842	570.85
1037.129	573.33
1037.417	577.4
1037.704	576.27
1037.992	581.92
1038.279	574.69
1038.566	576.5
1038.853	576.5
1039.14	576.5
