Data from brown_tile_FLMS001491_097.txt Node
Date: Tue Feb 07 10:38:16 GMT 2017
User: dcchb
Spectrometer: FLMS00149
Trigger mode: 0
Integration Time (sec): 2.000000E-2
Scans to average: 10
Electric dark correction enabled: true
Nonlinearity correction enabled: false
Boxcar width: 0
XAxis mode: Wavelengths
Number of Pixels in Spectrum: 2048
>>>>>Begin Spectral Data<<<<<
341.393	-9.1
341.776	-9.1
342.16	-9.1
342.543	-70.11
342.927	-66.72
343.31	-44.35
343.693	-76.89
344.077	-62.65
344.46	-69.43
344.843	-58.81
345.226	-47.06
345.61	-24.69
345.993	-23.78
346.376	-12.49
346.759	10.34
347.142	10.56
347.525	45.59
347.908	70.68
348.291	76.33
348.674	99.38
349.057	107.29
349.44	135.53
349.823	142.54
350.206	166.49
350.588	181.86
350.971	200.62
351.354	215.76
351.737	225.93
352.119	235.42
352.502	235.87
352.884	251.01
353.267	240.84
353.65	281.74
354.032	293.72
354.414	291.69
354.797	304.34
355.179	276.32
355.562	276.55
355.944	308.41
356.326	315.64
356.709	329.65
357.091	318.58
357.473	332.14
357.855	319.48
358.238	323.78
358.62	334.85
359.002	339.6
359.384	327.84
359.766	323.1
360.148	308.86
360.53	323.1
360.912	315.19
361.294	308.41
361.676	326.71
362.057	331.01
362.439	340.05
362.821	299.82
363.203	308.18
363.584	308.41
363.966	303.44
364.348	300.5
364.729	319.94
365.111	311.57
365.493	290.78
365.874	307.05
366.256	295.75
366.637	306.6
367.019	311.8
367.4	289.88
367.781	314.96
368.163	295.08
368.544	311.35
368.925	288.07
369.306	287.62
369.688	305.92
370.069	291.91
370.45	279.26
370.831	290.56
371.212	289.88
371.593	297.56
371.974	310.44
372.355	307.28
372.736	308.18
373.117	314.29
373.498	300.05
373.879	308.41
374.26	298.47
374.641	320.84
375.021	293.72
375.402	297.56
375.783	320.84
376.163	327.39
376.544	333.04
376.925	335.08
377.305	298.92
377.686	328.75
378.066	303.66
378.447	312.93
378.827	305.25
379.208	315.87
379.588	297.56
379.968	308.41
380.349	316.77
380.729	302.99
381.109	288.07
381.489	324.68
381.87	308.64
382.25	310.67
382.63	333.04
383.01	310.9
383.39	308.41
383.77	307.73
384.15	333.49
384.53	346.83
384.91	349.99
385.29	319.71
385.67	333.95
386.049	335.53
386.429	340.05
386.809	324.91
387.189	345.25
387.568	352.93
387.948	341.18
388.328	346.15
388.707	363.78
389.087	355.64
389.466	356.09
389.846	333.72
390.225	346.83
390.605	321.74
390.984	330.1
391.363	342.99
391.743	344.34
392.122	354.74
392.501	360.16
392.881	349.31
393.26	342.76
393.639	363.55
394.018	358.13
394.397	357
394.776	360.61
395.155	366.94
395.534	349.09
395.913	357.67
396.292	382.76
396.671	374.17
397.05	351.12
397.429	363.78
397.808	370.56
398.186	361.74
398.565	364.45
398.944	370.56
399.323	373.72
399.701	365.81
400.08	380.5
400.458	395.19
400.837	385.92
401.215	385.47
401.594	379.82
401.972	373.49
402.351	384.79
402.729	392.48
403.107	378.92
403.486	385.7
403.864	382.98
404.242	369.43
404.62	382.31
404.999	394.74
405.377	374.85
405.755	393.15
406.133	397.67
406.511	406.03
406.889	386.15
407.267	406.26
407.645	411.01
408.023	396.32
408.401	407.16
408.779	418.24
409.156	409.2
409.534	407.62
409.912	438.35
410.29	401.06
410.667	443.55
411.045	401.29
411.422	417.56
411.8	399.48
412.178	421.63
412.555	425.7
412.933	439.93
413.31	434.28
413.687	442.42
414.065	449.2
414.442	457.56
414.819	436.99
415.197	439.93
415.574	441.06
415.951	442.42
416.328	459.82
416.705	457.78
417.082	451.01
417.46	486.94
417.837	478.12
418.214	469.31
418.591	473.15
418.967	473.38
419.344	459.59
419.721	481.51
420.098	486.94
420.475	486.71
420.852	460.04
421.228	485.13
421.605	488.52
421.982	496.65
422.358	489.2
422.735	515.86
423.111	500.27
423.488	496.43
423.864	511.79
424.241	498.91
424.617	490.78
424.994	502.53
425.37	512.02
425.746	510.21
426.123	509.76
426.499	521.74
426.875	519.03
427.251	526.26
427.627	526.26
428.003	526.71
428.379	559.48
428.756	573.49
429.132	562.41
429.507	534.62
429.883	534.62
430.259	547.27
430.635	554.51
431.011	578.23
431.387	583.43
431.763	579.82
432.138	578.01
432.514	597.44
432.89	581.85
433.265	592.24
433.641	621.85
434.016	603.32
434.392	605.13
434.767	609.87
435.143	617.55
435.518	620.27
435.894	636.76
436.269	627.27
436.644	624.79
437.02	619.81
437.395	653.94
437.77	629.98
438.145	644.9
438.52	669.98
438.895	654.84
439.271	663.2
439.646	671.11
440.021	671.11
440.395	692.13
440.77	678.8
441.145	671.79
441.52	670.43
441.895	664.33
442.27	681.73
442.645	687.16
443.019	711.11
443.394	702.07
443.769	703.88
444.143	694.84
444.518	725.12
444.892	693.26
445.267	741.39
445.641	700.49
446.016	724.67
446.39	725.57
446.764	749.98
447.139	705.91
447.513	726.03
447.887	723.77
448.262	742.52
448.636	759.7
449.01	742.07
449.384	768.51
449.758	770.54
450.132	773.26
450.506	778.23
450.88	794.05
451.254	782.97
451.628	789.08
452.002	797.66
452.376	785.01
452.75	797.21
453.123	793.82
453.497	808.06
453.871	788.85
454.244	825.01
454.618	833.82
454.992	858.45
455.365	855.74
455.739	841.05
456.112	849.19
456.486	846.47
456.859	885.12
457.232	880.15
457.606	857.1
457.979	889.41
458.352	897.1
458.725	895.51
459.099	913.37
459.472	941.61
459.845	930.99
460.218	947.26
460.591	941.61
460.964	945.91
461.337	986.81
461.71	986.58
462.083	1002.63
462.456	992.01
462.829	996.53
463.201	1010.99
463.574	993.36
463.947	1018.22
464.32	1023.87
464.692	1017.09
465.065	1048.73
465.438	1038.79
465.81	1074.49
466.183	1069.07
466.555	1058.22
466.928	1095.96
467.3	1110.42
467.672	1121.95
468.045	1131.89
468.417	1129.41
468.789	1160.14
469.161	1141.16
469.534	1170.76
469.906	1190.19
470.278	1207.82
470.65	1223.64
471.022	1209.86
471.394	1227.26
471.766	1254.15
472.138	1273.13
472.51	1284.66
472.882	1294.15
473.253	1315.39
473.625	1314.26
473.997	1347.25
474.369	1355.39
474.74	1369.85
475.112	1399
475.484	1409.4
475.855	1449.85
476.227	1425.22
476.598	1448.49
476.97	1460.02
477.341	1502.05
477.713	1541.37
478.084	1535.04
478.455	1555.38
478.827	1591.31
479.198	1606.91
479.569	1619.34
479.94	1672.89
480.311	1667.7
480.682	1691.2
481.053	1756.51
481.424	1733.01
481.795	1753.34
482.166	1780.91
482.537	1795.83
482.908	1853
483.279	1864.53
483.65	1883.96
484.021	1948.37
484.391	1941.59
484.762	1968.93
485.133	1953.11
485.503	1976.39
485.874	2002.38
486.244	2050.51
486.615	2080.79
486.985	2101.36
487.356	2157.17
487.726	2147.91
488.097	2173.22
488.467	2210.73
488.837	2208.25
489.207	2271.97
489.578	2268.58
489.948	2260.45
490.318	2328.92
490.688	2342.48
491.058	2385.19
491.428	2371.86
491.798	2455.92
492.168	2452.31
492.538	2454.79
492.908	2519.2
493.278	2513.55
493.648	2496.15
494.017	2595.13
494.387	2584.96
494.757	2630.38
495.126	2612.76
495.496	2677.39
495.866	2672.64
496.235	2714.9
496.605	2737.72
496.974	2723.71
497.344	2792.86
497.713	2750.61
498.082	2820.43
498.452	2806.65
498.821	2855.24
499.19	2843.26
499.559	2853.2
499.928	2873.54
500.298	2899.08
500.667	2926.19
501.036	2911.96
501.405	2946.08
501.774	3003.03
502.143	2993.31
502.512	2991.96
502.88	3048.9
503.249	3036.25
503.618	3060.88
503.987	3085.29
504.356	3103.14
504.724	3103.82
505.093	3128
505.462	3118.28
505.83	3155.79
506.199	3191.27
506.567	3262.46
506.936	3246.19
507.304	3280.08
507.672	3253.19
508.041	3350.14
508.409	3308.56
508.777	3375.9
509.145	3422.23
509.514	3386.97
509.882	3415.45
510.25	3467.87
510.618	3475.33
510.986	3493.41
511.354	3521.21
511.722	3529.57
512.09	3567.99
512.458	3560.53
512.826	3636.46
513.193	3608.21
513.561	3649.34
513.929	3720.98
514.297	3673.52
514.664	3717.36
515.032	3751.71
515.4	3779.51
515.767	3835.1
516.135	3833.52
516.502	3824.93
516.869	3905.15
517.237	3913.29
517.604	3887.07
517.972	3954.87
518.339	3964.13
518.706	4007.75
519.073	3998.71
519.44	4027.41
519.808	4087.97
520.175	4059.5
520.542	4115.54
520.909	4147.41
521.276	4171.59
521.643	4195.77
522.009	4263.33
522.376	4325.93
522.743	4343.11
523.11	4373.16
523.477	4426.72
523.843	4481.41
524.21	4453.61
524.577	4519.37
524.943	4536.77
525.31	4590.33
525.676	4595.75
526.043	4613.61
526.409	4661.74
526.776	4710.78
527.142	4707.62
527.508	4781.74
527.874	4834.84
528.241	4860.61
528.607	4883.43
528.973	4938.34
529.339	4957.55
529.705	5009.3
530.071	5006.14
530.437	5070.32
530.803	5073.71
531.169	5155.97
531.535	5085.46
531.901	5178.56
532.267	5200.26
532.632	5193.03
532.998	5279.13
533.364	5259.24
533.73	5274.38
534.095	5359.35
534.461	5390.08
534.826	5429.18
535.192	5487.26
535.557	5482.96
535.923	5508.27
536.288	5515.05
536.653	5629.17
537.019	5539.68
537.384	5577.42
537.749	5644.31
538.114	5756.63
538.479	5722.96
538.845	5695.39
539.21	5741.04
539.575	5782.16
539.94	5830.3
540.305	5847.47
540.67	5893.12
541.034	5856.74
541.399	5906
541.764	6026.9
542.129	5993.23
542.494	6023.51
542.858	6057.41
543.223	6082.5
543.587	6127.47
543.952	6161.59
544.316	6192.1
544.681	6217.41
545.045	6240.46
545.41	6292.21
545.774	6336.73
546.138	6345.54
546.503	6382.15
546.867	6384.86
547.231	6475.03
547.595	6449.49
547.959	6580.34
548.324	6551.41
548.688	6622.82
549.052	6689.26
549.416	6635.93
549.779	6758.64
550.143	6739.65
550.507	6816.94
550.871	6827.11
551.235	6878.18
551.599	6932.19
551.962	7015.13
552.326	7045.86
552.689	7075.92
553.053	7092.41
553.417	7173.77
553.78	7300.99
554.143	7285.85
554.507	7348.9
554.87	7460.76
555.234	7505.51
555.597	7471.39
555.96	7557.48
556.323	7667.99
556.686	7682.23
557.05	7716.8
557.413	7811.26
557.776	7818.27
558.139	7981.43
558.502	7949.34
558.865	7985.5
559.228	8104.82
559.59	8129.9
559.953	8187.75
560.316	8382.55
560.679	8415.09
561.041	8513.17
561.404	8507.29
561.767	8645.14
562.129	8684.46
562.492	8803.55
562.854	8813.05
563.217	8814.63
563.579	8900.5
563.941	9079.03
564.304	9095.52
564.666	9205.35
565.028	9282.64
565.39	9338.91
565.753	9463.65
566.115	9506.81
566.477	9613.02
566.839	9662.06
567.201	9779.57
567.563	9907.71
567.925	9943.86
568.287	9952
568.648	10041.26
569.01	10173.69
569.372	10238.77
569.734	10317.86
570.095	10432.66
570.457	10518.31
570.819	10602.83
571.18	10681.24
571.542	10664.3
571.903	10859.54
572.265	10926.44
572.626	10991.97
572.987	10995.13
573.349	11115.36
573.71	11226.99
574.071	11290.95
574.432	11401
574.794	11437.83
575.155	11478.29
575.516	11557.15
575.877	11663.14
576.238	11724.61
576.599	11863.81
576.96	11880.99
577.32	11985.84
577.681	12047.08
578.042	12107.65
578.403	12162.11
578.763	12313.52
579.124	12250.02
579.485	12444.81
579.845	12430.35
580.206	12489.78
580.566	12608.43
580.927	12621.53
581.287	12692.49
581.648	12753.96
582.008	12830.57
582.368	12899.49
582.728	12949.89
583.089	13022.65
583.449	13021.3
583.809	13061.07
584.169	13259.26
584.529	13179.03
584.889	13304.45
585.249	13295.87
585.609	13244.57
585.969	13452.92
586.329	13440.49
586.688	13548.74
587.048	13583.32
587.408	13578.57
587.768	13696.08
588.127	13717.32
588.487	13721.16
588.846	13882.06
589.206	13776.53
589.565	13846.36
589.925	13944.21
590.284	13924.1
590.643	14011.55
591.003	14046.13
591.362	14139.01
591.721	14173.13
592.08	14124.54
592.44	14191.21
592.799	14250.64
593.158	14302.39
593.517	14341.71
593.876	14457.64
594.235	14394.14
594.593	14477.75
594.952	14614.93
595.311	14411.54
595.67	14564.53
596.029	14748.26
596.387	14648.82
596.746	14774.47
597.104	14760.23
597.463	14775.15
597.822	14828.71
598.18	14737.41
598.538	14859.89
598.897	14957.06
599.255	14793.45
599.613	15050.17
599.972	14953.9
600.33	15014.92
600.688	15099.43
601.046	15201.13
601.404	15203.16
601.762	15272.76
602.12	15315.7
602.478	15316.15
602.836	15298.98
603.194	15319.54
603.552	15317.05
603.91	15351.4
604.268	15446.32
604.625	15399.54
604.983	15562.7
605.341	15451.97
605.698	15661.9
606.056	15609.25
606.413	15587.56
606.771	15722.02
607.128	15802.47
607.485	15776.25
607.843	15700.32
608.2	15826.42
608.557	15923.14
608.914	15836.36
609.272	15944.16
609.629	16009.24
609.986	16076.58
610.343	15916.81
610.7	16202.46
611.057	16144.38
611.414	16120.2
611.771	16069.58
612.127	16245.62
612.484	16196.81
612.841	16308.89
613.198	16273.64
613.554	16227.09
613.911	16370.59
614.267	16338.04
614.624	16370.13
614.98	16381.21
615.337	16409.23
615.693	16535.1
616.05	16452.84
616.406	16551.82
616.762	16516.12
617.118	16606.74
617.475	16592.28
617.831	16619.85
618.187	16647.42
618.543	16703.91
618.899	16867.75
619.255	16731.25
619.611	16772.38
619.967	16821.2
620.323	16808.77
620.678	16750.01
621.034	16720.86
621.39	16733.97
621.746	16725.61
622.101	17004.02
622.457	16884.25
622.812	16957.46
623.168	16976.45
623.523	16914.75
623.879	16908.2
624.234	16907.3
624.589	16888.09
624.945	16955.2
625.3	17003.11
625.655	17098.48
626.01	16996.11
626.365	16960.4
626.72	16992.27
627.075	17031.59
627.43	16972.83
627.785	17034.52
628.14	17011.25
628.495	17107.52
628.85	17068.87
629.205	16957.46
629.559	17051.7
629.914	17031.59
630.269	17031.59
630.623	16941.87
630.978	16977.12
631.332	16998.14
631.687	17142.54
632.041	16944.58
632.396	17032.26
632.75	16916.56
633.104	16997.91
633.459	16879.73
633.813	16849.44
634.167	16891.93
634.521	16913.85
634.875	16905.94
635.229	17032.94
635.583	16728.32
635.937	16779.62
636.291	16917.92
636.645	16762.89
636.999	16835.21
637.352	16877.01
637.706	16759.5
638.06	16798.6
638.413	16747.07
638.767	16808.32
639.121	16797.24
639.474	16677.47
639.828	16739.39
640.181	16733.29
640.534	16761.54
640.888	16774.19
641.241	16625.72
641.594	16665.49
641.947	16686.74
642.301	16625.27
642.654	16587.08
643.007	16701.43
643.36	16704.36
643.713	16552.05
644.066	16635.66
644.419	16517.7
644.771	16391.38
645.124	16284.04
645.477	16286.75
645.83	16250.36
646.182	16153.42
646.535	16196.13
646.888	16032.52
647.24	16009.47
647.593	16165.62
647.945	16051.72
648.298	16089.46
648.65	16067.32
649.002	15913.65
649.355	16001.56
649.707	15984.83
650.059	16092.63
650.411	16323.81
650.763	16351.83
651.115	16489.91
651.467	16423.69
651.819	16535.33
652.171	16357.03
652.523	16443.58
652.875	16365.61
653.227	16340.76
653.578	16499.4
653.93	16460.98
654.282	16357.25
654.633	16347.54
654.985	16336.46
655.337	16354.99
655.688	16284.49
656.039	16397.25
656.391	16328.78
656.742	16293.53
657.094	16359.06
657.445	16333.3
657.796	16241.78
658.147	16310.02
658.498	16329.01
658.849	16350.25
659.2	16310.93
659.551	16244.49
659.902	16363.36
660.253	16277.93
660.604	16340.53
660.955	16260.76
661.306	16401.09
661.656	16333.98
662.007	16324.26
662.358	16314.54
662.708	16263.24
663.059	16330.36
663.409	16227.99
663.76	16362.23
664.11	16352.06
664.461	16382.34
664.811	16362.68
665.161	16370.59
665.511	16270.02
665.862	16291.72
666.212	16359.51
666.562	16367.42
666.912	16345.73
667.262	16353.86
667.612	16426.18
667.962	16430.25
668.312	16431.38
668.662	16492.17
669.011	16493.3
669.361	16390.25
669.711	16410.13
670.06	16427.31
670.41	16378.5
670.76	16439.96
671.109	16481.09
671.459	16484.93
671.808	16395.44
672.157	16395.22
672.507	16314.54
672.856	16391.38
673.205	16419.17
673.554	16392.28
673.904	16371.72
674.253	16552.95
674.602	16425.05
674.951	16233.41
675.3	16157.26
675.649	16423.01
675.998	16412.85
676.346	16415.33
676.695	16449.45
677.044	16363.81
677.393	16417.36
677.741	16474.99
678.09	16443.35
678.438	16379.63
678.787	16385.95
679.135	16379.85
679.484	16242.91
679.832	16360.19
680.181	16302.34
680.529	16309.57
680.877	16321.32
681.225	16305.96
681.573	16359.06
681.922	16370.59
682.27	16246.97
682.618	16292.85
682.966	16258.27
683.314	16284.04
683.661	16235
684.009	16100.31
684.357	16208.56
684.705	16163.36
685.053	16171.04
685.4	16132.63
685.748	16063.25
686.095	16180.99
686.443	16122.01
686.79	16118.16
687.138	16106.41
687.485	16032.52
687.832	16001.56
688.18	16098.73
688.527	15969.69
688.874	16005.85
689.221	16034.55
689.568	15934.89
689.915	15967.66
690.262	15854.67
690.609	15876.81
690.956	15865.74
691.303	15786.2
691.65	15756.14
691.997	15805.63
692.344	15638.18
692.69	15815.8
693.037	15791.17
693.383	15624.62
693.73	15816.02
694.077	15692.41
694.423	15738.06
694.769	15576.94
695.116	15600.89
695.462	15596.37
695.808	15502.81
696.155	15556.14
696.501	15521.57
696.847	15464.4
697.193	15424.62
697.539	15479.99
697.885	15394.34
698.231	15339.43
698.577	15296.94
698.923	15364.29
699.269	15255.59
699.614	15218.53
699.96	15225.53
700.306	15206.32
700.651	15114.12
700.997	15182.82
701.342	15098.98
701.688	15157.29
702.033	15039.1
702.379	15069.38
702.724	15068.25
703.069	15043.39
703.415	14836.16
703.76	14837.97
704.105	14939.89
704.45	14941.47
704.795	14884.07
705.14	14888.59
705.485	14792.77
705.83	14739.22
706.175	14837.07
706.52	14874.81
706.865	14614.02
707.209	14718.88
707.554	14591.65
707.899	14724.53
708.243	14588.03
708.588	14648.37
708.932	14594.59
709.277	14553.46
709.621	14573.57
709.966	14515.04
710.31	14560.92
710.654	14416.51
710.998	14493.12
711.342	14404.76
711.687	14339.45
712.031	14438.89
712.375	14305.1
712.719	14455.38
713.063	14340.81
713.407	14439.11
713.75	14381.03
714.094	14334.71
714.438	14369.28
714.782	14328.38
715.125	14289.51
715.469	14317.53
715.812	14264.2
716.156	14145.33
716.499	14241.6
716.843	14237.99
717.186	14092.45
717.53	14181.27
717.873	14188.27
718.216	14177.42
718.559	14118.67
718.902	14038.67
719.246	14049.07
719.589	14095.84
719.932	13955.96
720.275	13991.21
720.617	14009.07
720.96	14009.74
721.303	13979.91
721.646	14028.73
721.989	13921.16
722.331	13933.81
722.674	13981.5
723.016	14007.03
723.359	13954.83
723.701	13901.5
724.044	13839.58
724.386	13830.99
724.729	13902.4
725.071	13769.75
725.413	13860.37
725.755	13935.4
726.097	13745.8
726.439	13656.53
726.782	13747.83
727.124	13814.5
727.465	13764.1
727.807	13738.79
728.149	13735.63
728.491	13722.07
728.833	13711.22
729.175	13645.46
729.516	13633.03
729.858	13569.76
730.199	13631.45
730.541	13573.82
730.882	13645.46
731.224	13699.92
731.565	13562.75
731.906	13547.61
732.248	13589.19
732.589	13581.73
732.93	13504.22
733.271	13459.48
733.612	13549.87
733.953	13561.62
734.294	13496.09
734.635	13468.97
734.976	13528.63
735.317	13419.25
735.658	13410.89
735.999	13447.27
736.339	13431.91
736.68	13508.51
737.021	13402.08
737.361	13328.41
737.702	13409.76
738.042	13251.57
738.383	13307.39
738.723	13340.38
739.063	13311.91
739.404	13322.31
739.744	13317.11
740.084	13261.97
740.424	13233.95
740.764	13180.61
741.104	13253.61
741.444	13167.51
741.784	13170.22
742.124	13264.68
742.464	13170.67
742.804	13136.77
743.143	13144.23
743.483	13093.84
743.823	13133.16
744.162	13057.23
744.502	13078.47
744.841	13072.14
745.181	13050.22
745.52	13029.21
745.86	13045.7
746.199	13051.13
746.538	13034.4
746.877	12947.4
747.216	12971.13
747.556	12873.05
747.895	12976.1
748.234	12911.24
748.573	12860.4
748.911	12823.11
749.25	12875.09
749.589	12812.04
749.928	12832.15
750.267	12835.76
750.605	12762.32
750.944	12744.47
751.283	12634.64
751.621	12724.81
751.96	12612.95
752.298	12581.31
752.636	12636.67
752.975	12494.08
753.313	12564.81
753.651	12619.72
753.989	12518.26
754.327	12550.35
754.666	12384.7
755.004	12472.38
755.342	12432.38
755.679	12431.48
756.017	12293.86
756.355	12376.34
756.693	12329.56
757.031	12231.03
757.368	12257.25
757.706	12175.44
758.044	12196.68
758.381	12158.72
758.719	12114.43
759.056	12101.32
759.394	12044.37
759.731	12106.29
760.068	11997.37
760.405	11967.54
760.743	11843.02
761.08	11839.86
761.417	11778.84
761.754	11795.34
762.091	11798.5
762.428	11761.22
762.765	11653.87
763.102	11664.5
763.438	11685.06
763.775	11608.68
764.112	11563.26
764.449	11612.75
764.785	11522.58
765.122	11413.43
765.458	11497.04
765.795	11345.18
766.131	11369.59
766.467	11309.02
766.804	11228.57
767.14	11237.16
767.476	11233.09
767.812	11131.4
768.148	11146.09
768.485	11123.49
768.821	11004.63
769.157	11028.13
769.492	10943.61
769.828	10908.13
770.164	10832.65
770.5	10863.61
770.836	10847.34
771.171	10729.15
771.507	10733.67
771.842	10632.43
772.178	10623.62
772.513	10558.54
772.849	10574.58
773.184	10513.79
773.519	10489.61
773.855	10442.61
774.19	10441.25
774.525	10399.22
774.86	10387.92
775.195	10364.87
775.53	10303.63
775.865	10246.68
776.2	10191.54
776.535	10133.91
776.87	10076.97
777.205	10060.92
777.539	10019.79
777.874	10038.1
778.209	9938.89
778.543	9911.1
778.878	9845.79
779.212	9880.59
779.547	9862.51
779.881	9839.91
780.215	9790.42
780.55	9806.24
780.884	9677.2
781.218	9626.81
781.552	9644.21
781.886	9590.2
782.22	9567.6
782.554	9422.07
782.888	9406.93
783.222	9360.83
783.556	9339.13
783.889	9312.47
784.223	9211.68
784.557	9220.04
784.89	9190.89
785.224	9152.25
785.557	9093.04
785.891	9063.43
786.224	9077.44
786.558	9141.85
786.891	8922.42
787.224	8984.11
787.557	8869.99
787.891	8872.7
788.224	8894.17
788.557	8870.22
788.89	8852.82
789.223	8827.96
789.556	8770.79
789.888	8704.57
790.221	8700.05
790.554	8609.21
790.887	8615.99
791.219	8583.67
791.552	8547.06
791.884	8488.99
792.217	8517.69
792.549	8420.29
792.882	8393.4
793.214	8298.03
793.546	8336.67
793.879	8306.62
794.211	8244.25
794.543	8352.04
794.875	8169.9
795.207	8210.8
795.539	8194.53
795.871	8147.75
796.203	8063.91
796.535	8057.36
796.867	8006.96
797.198	8003.35
797.53	8011.48
797.862	7924.03
798.193	7925.61
798.525	7864.37
798.856	7854.43
799.188	7767.42
799.519	7718.61
799.85	7763.58
800.182	7697.14
800.513	7747.08
800.844	7654.88
801.175	7684.71
801.506	7651.27
801.837	7648.56
802.168	7598.16
802.499	7602.91
802.83	7568.33
803.161	7433.87
803.491	7545.96
803.822	7477.49
804.153	7440.88
804.483	7357.04
804.814	7386.64
805.145	7332.86
805.475	7389.13
805.805	7282.69
806.136	7304.16
806.466	7278.85
806.796	7293.99
807.126	7159.98
807.457	7176.93
807.787	7156.82
808.117	7145.29
808.447	7092.41
808.777	7206.08
809.107	7079.98
809.436	7031.4
809.766	7025.75
810.096	7003.83
810.426	6975.81
810.755	6976.48
811.085	6958.4
811.414	6903.04
811.744	6893.77
812.073	6849.03
812.403	6934
812.732	6806.54
813.061	6807.9
813.39	6757.51
813.719	6757.73
814.049	6733.33
814.378	6738.3
814.707	6724.96
815.036	6661.69
815.365	6654.91
815.693	6558.42
816.022	6641.58
816.351	6574.01
816.68	6596.38
817.008	6536.72
817.337	6498.08
817.665	6529.49
817.994	6465.76
818.322	6530.17
818.651	6425.99
818.979	6390.74
819.307	6486.1
819.636	6435.71
819.964	6412.43
820.292	6392.54
820.62	6377.4
820.948	6351.41
821.276	6402.49
821.604	6344.41
821.932	6353
822.259	6337.63
822.587	6330.85
822.915	6326.78
823.243	6332.66
823.57	6306.22
823.898	6317.07
824.225	6243.4
824.553	6284.52
824.88	6293.56
825.207	6273.68
825.535	6198.65
825.862	6305.77
826.189	6247.91
826.516	6292.89
826.843	6337.63
827.17	6212.66
827.497	6229.84
827.824	6192.78
828.151	6247.91
828.478	6271.42
828.805	6238.88
829.131	6254.47
829.458	6195.26
829.785	6246.11
830.111	6199.55
830.438	6254.24
830.764	6215.6
831.09	6178.09
831.417	6158.2
831.743	6200.01
832.069	6181.02
832.395	6173.79
832.722	6191.87
833.048	6168.82
833.374	6122.27
833.7	6098.99
834.026	6141.02
834.351	6113.68
834.677	6088.6
835.003	6126.56
835.329	6075.72
835.654	6055.83
835.98	6054.02
836.306	6129.73
836.631	6042.95
836.956	6068.48
837.282	5988.71
837.607	6006.34
837.932	6025.32
838.258	5967.92
838.583	5943.52
838.908	5914.59
839.233	5954.82
839.558	5912.78
839.883	5932.89
840.208	5892.22
840.533	5958.66
840.858	5891.54
841.182	5840.92
841.507	5898.55
841.832	5844.31
842.156	5824.88
842.481	5812.22
842.805	5792.56
843.13	5806.12
843.454	5801.15
843.778	5769.51
844.103	5710.08
844.427	5742.17
844.751	5695.61
845.075	5647.93
845.399	5688.38
845.723	5659.46
846.047	5636.41
846.371	5611.1
846.695	5604.32
847.019	5543.98
847.343	5543.53
847.666	5539.01
847.99	5479.8
848.313	5481.16
848.637	5460.59
848.96	5446.81
849.284	5402.97
849.607	5390.08
849.931	5358.67
850.254	5293.59
850.577	5280.48
850.9	5253.14
851.223	5239.81
851.546	5220.82
851.869	5222.18
852.192	5256.53
852.515	5133.82
852.838	5170.88
853.161	5124.55
853.483	5124.78
853.806	5111.67
854.129	5072.13
854.451	5049.53
854.774	5063.54
855.096	5046.59
855.419	5010.43
855.741	5002.07
856.063	5003.2
856.385	4946.71
856.708	4958.46
857.03	4972.92
857.352	4958.01
857.674	4918.01
857.996	4913.49
858.318	4946.25
858.64	4910.55
858.961	4870.1
859.283	4814.28
859.605	4793.26
859.926	4842.53
860.248	4789.42
860.57	4825.58
860.891	4783.55
861.212	4751.91
861.534	4778.8
861.855	4737.22
862.176	4720.5
862.498	4748.07
862.819	4791.68
863.14	4756.88
863.461	4727.5
863.782	4699.25
864.103	4716.2
864.424	4680.5
864.745	4669.43
865.065	4637.79
865.386	4666.04
865.707	4609.31
866.027	4610.44
866.348	4577
866.668	4626.04
866.989	4624.45
867.309	4519.6
867.63	4603.44
867.95	4531.12
868.27	4542.2
868.59	4562.31
868.91	4538.36
869.23	4518.47
869.55	4524.57
869.87	4535.64
870.19	4522.99
870.51	4530.67
870.83	4495.42
871.15	4492.48
871.469	4488.41
871.789	4497.45
872.109	4476.89
872.428	4414.29
872.748	4493.38
873.067	4438.02
873.386	4474.4
873.706	4418.36
874.025	4401.64
874.344	4401.64
874.663	4358.25
874.982	4372.94
875.301	4398.92
875.62	4376.78
875.939	4344.69
876.258	4323.67
876.577	4330
876.896	4321.64
877.214	4315.31
877.533	4348.08
877.852	4312.6
878.17	4405.48
878.489	4329.1
878.807	4295.65
879.125	4289.32
879.444	4306.27
879.762	4300.4
880.08	4228.53
880.398	4257.91
880.716	4274.63
881.034	4267.18
881.352	4244.8
881.67	4250.68
881.988	4182.21
882.306	4225.82
882.624	4207.29
882.941	4191.25
883.259	4179.04
883.577	4160.06
883.894	4162.09
884.212	4151.47
884.529	4173.39
884.846	4128.65
885.164	4107.18
885.481	4127.74
885.798	4140.63
886.115	4097.91
886.432	4095.88
886.75	4104.47
887.067	4073.73
887.383	4054.07
887.7	4062.21
888.017	4062.44
888.334	4054.98
888.651	4034.19
888.967	4035.09
889.284	3987.18
889.6	3942.44
889.917	3954.19
890.233	3975.21
890.55	3983.79
890.866	3904.25
891.182	3902.67
891.498	3918.71
891.815	3937.02
892.131	3916.22
892.447	3902.21
892.763	3884.36
893.079	3887.07
893.395	3831.03
893.71	3829.45
894.026	3861.76
894.342	3808.43
894.657	3820.18
894.973	3819.5
895.289	3758.04
895.604	3819.5
895.92	3757.81
896.235	3744.48
896.55	3716.46
896.865	3752.61
897.181	3712.61
897.496	3768.66
897.811	3708.09
898.126	3651.6
898.441	3672.16
898.756	3666.51
899.071	3681.2
899.386	3678.72
899.7	3632.62
900.015	3609.57
900.33	3594.2
900.644	3595.1
900.959	3593.07
901.273	3604.82
901.588	3549.91
901.902	3567.99
902.216	3543.13
902.531	3548.55
902.845	3509.68
903.159	3509.46
903.473	3526.18
903.787	3497.48
904.101	3439.63
904.415	3435.11
904.729	3441.43
905.042	3452.06
905.356	3445.05
905.67	3411.38
905.984	3440.08
906.297	3382.23
906.611	3375.22
906.924	3354.66
907.237	3361.66
907.551	3350.82
907.864	3309.91
908.177	3343.81
908.491	3345.84
908.804	3315.34
909.117	3270.59
909.43	3254.1
909.743	3274.43
910.056	3247.09
910.368	3209.12
910.681	3208.9
910.994	3229.92
911.307	3199.18
911.619	3174.1
911.932	3205.96
912.244	3192.18
912.557	3193.76
912.869	3190.59
913.181	3133.87
913.494	3164.61
913.806	3122.12
914.118	3105.62
914.43	3081.44
914.742	3064.72
915.054	3051.84
915.366	3079.64
915.678	3017.72
915.99	3028.11
916.302	3014.55
916.613	2985.85
916.925	3044.84
917.236	2977.27
917.548	2979.75
917.859	2962.58
918.171	2947.66
918.482	2943.59
918.794	2935.91
919.105	2934.33
919.416	2879.19
919.727	2879.87
920.038	2903.37
920.349	2875.57
920.66	2869.25
920.971	2848
921.282	2849.59
921.593	2831.51
921.903	2832.41
922.214	2791.73
922.525	2800.77
922.835	2781.57
923.146	2803.94
923.456	2759.87
923.767	2765.52
924.077	2720.55
924.387	2755.35
924.697	2723.04
925.008	2721
925.318	2699.53
925.628	2715.35
925.938	2690.72
926.248	2664.51
926.558	2663.38
926.867	2626.09
927.177	2672.42
927.487	2643.26
927.796	2626.54
928.106	2572.31
928.416	2606.2
928.725	2568.69
929.034	2582.47
929.344	2592.87
929.653	2589.93
929.962	2553.55
930.271	2533.89
930.581	2545.19
930.89	2535.24
931.199	2511.06
931.508	2480.33
931.817	2515.13
932.125	2507.22
932.434	2483.95
932.743	2465.87
933.051	2486.43
933.36	2462.7
933.669	2420.67
933.977	2429.94
934.286	2413.67
934.594	2408.02
934.902	2387
935.21	2402.59
935.519	2390.39
935.827	2380.67
936.135	2374.34
936.443	2370.05
936.751	2363.72
937.059	2322.37
937.367	2352.42
937.674	2310.17
937.982	2333.67
938.29	2301.58
938.597	2292.09
938.905	2268.58
939.213	2295.48
939.52	2263.39
939.827	2279.21
940.135	2239.88
940.442	2234.91
940.749	2218.19
941.056	2240.11
941.363	2215.48
941.67	2218.64
941.977	2208.92
942.284	2178.87
942.591	2202.82
942.898	2172.77
943.205	2161.24
943.511	2169.6
943.818	2155.37
944.125	2179.77
944.431	2138.87
944.738	2130.06
945.044	2108.59
945.35	2120.57
945.657	2131.41
945.963	2118.08
946.269	2080.57
946.575	2129.38
946.881	2069.95
947.187	2050.51
947.493	2050.51
947.799	2057.06
948.105	2024.3
948.41	2023.85
948.716	2070.85
949.022	2036.5
949.327	2040.57
949.633	2012.09
949.938	1988.59
950.244	1995.6
950.549	1965.77
950.854	2032.43
951.16	1965.99
951.465	1978.65
951.77	1976.61
952.075	1968.93
952.38	1921.25
952.685	1928.03
952.99	1905.2
953.294	1925.99
953.599	1921.93
953.904	1931.42
954.209	1895.26
954.513	1892.55
954.818	1911.31
955.122	1889.61
955.426	1876.28
955.731	1852.1
956.035	1859.78
956.339	1845.32
956.643	1833.57
956.948	1833.79
957.252	1816.17
957.556	1854.81
957.86	1783.63
958.163	1827.92
958.467	1801.25
958.771	1779.56
959.075	1811.42
959.378	1828.37
959.682	1790.63
959.985	1805.32
960.289	1762.84
960.592	1765.32
960.896	1749.95
961.199	1748.6
961.502	1747.92
961.805	1715.83
962.108	1726
962.411	1719.67
962.714	1749.05
963.017	1719.9
963.32	1726.45
963.623	1693.23
963.926	1696.4
964.228	1685.77
964.531	1712.44
964.833	1681.71
965.136	1671.09
965.438	1681.71
965.741	1634.93
966.043	1663.18
966.345	1636.28
966.648	1632.67
966.95	1629.73
967.252	1612.56
967.554	1604.2
967.856	1594.25
968.158	1594.7
968.46	1615.04
968.761	1586.34
969.063	1580.69
969.365	1588.38
969.666	1572.11
969.968	1575.95
970.269	1576.63
970.571	1560.13
970.872	1565.55
971.174	1540.47
971.475	1577.08
971.776	1528.72
972.077	1518.55
972.378	1538.66
972.679	1539.56
972.98	1541.82
973.281	1483.75
973.582	1500.47
973.883	1480.81
974.183	1469.28
974.484	1497.98
974.785	1461.83
975.085	1490.07
975.386	1463.18
975.686	1458.89
975.986	1468.38
976.287	1466.8
976.587	1436.06
976.887	1424.09
977.187	1440.13
977.487	1435.39
977.787	1410.53
978.087	1432
978.387	1402.17
978.687	1404.43
978.987	1424.09
979.286	1410.98
979.586	1399
979.885	1388.16
980.185	1407.59
980.484	1393.81
980.784	1396.52
981.083	1375.5
981.382	1387.03
981.682	1356.74
981.981	1363.07
982.28	1383.18
982.579	1346.8
982.878	1338.21
983.177	1322.17
983.475	1370.75
983.774	1333.24
984.073	1328.04
984.372	1316.52
984.67	1321.94
984.969	1288.72
985.267	1320.81
985.566	1312.23
985.864	1290.53
986.162	1321.94
986.461	1271.55
986.759	1277.42
987.057	1265.67
987.355	1271.1
987.653	1261.38
987.951	1249.63
988.249	1256.86
988.547	1246.69
988.844	1243.53
989.142	1222.51
989.44	1261.83
989.737	1227.48
990.035	1242.85
990.332	1219.35
990.63	1239.23
990.927	1232.91
991.224	1208.05
991.521	1214.83
991.819	1193.36
992.116	1202.4
992.413	1211.66
992.71	1188.84
993.006	1183.64
993.303	1172.34
993.6	1177.99
993.897	1182.74
994.193	1160.36
994.49	1169.86
994.787	1161.27
995.083	1174.83
995.379	1159.46
995.676	1160.14
995.972	1145.9
996.268	1125.11
996.565	1114.94
996.861	1128.05
997.157	1132.12
997.453	1095.06
997.749	1110.87
998.044	1102.74
998.34	1099.8
998.636	1090.76
998.932	1075.62
999.227	1088.28
999.523	1081.72
999.818	1092.8
1000.114	1069.29
1000.409	1069.75
1000.704	1060.93
1001	1039.46
1001.295	1064.1
1001.59	1058.45
1001.885	1052.57
1002.18	1036.07
1002.475	1047.15
1002.77	1030.42
1003.065	1043.53
1003.359	1032.46
1003.654	1001.27
1003.949	998.79
1004.243	1019.13
1004.538	1009.63
1004.832	990.43
1005.127	991.78
1005.421	988.84
1005.715	1022.06
1006.009	980.71
1006.304	968.51
1006.598	972.12
1006.892	973.25
1007.186	972.35
1007.48	987.49
1007.773	958.34
1008.067	969.18
1008.361	932.35
1008.655	940.03
1008.948	942.74
1009.242	953.59
1009.535	922.63
1009.829	930.31
1010.122	912.69
1010.415	923.31
1010.708	899.58
1011.001	920.37
1011.295	897.77
1011.588	879.24
1011.881	895.74
1012.173	903.42
1012.466	912.69
1012.759	898
1013.052	900.03
1013.344	882.86
1013.637	875.17
1013.93	879.92
1014.222	856.42
1014.514	860.03
1014.807	879.47
1015.099	852.12
1015.391	835.4
1015.683	838.79
1015.976	855.29
1016.268	853.93
1016.56	837.21
1016.851	832.24
1017.143	816.65
1017.435	840.6
1017.727	829.98
1018.018	825.68
1018.31	830.43
1018.602	822.75
1018.893	814.84
1019.185	820.71
1019.476	796.98
1019.767	798.57
1020.058	792.01
1020.35	801.05
1020.641	780.71
1020.932	756.31
1021.223	774.61
1021.514	775.29
1021.804	751.34
1022.095	777.78
1022.386	765.57
1022.677	752.92
1022.967	735.97
1023.258	752.92
1023.548	762.18
1023.839	749.08
1024.129	723.54
1024.419	710.89
1024.709	738.68
1025	695.97
1025.29	745.69
1025.58	707.04
1025.87	726.7
1026.16	722.64
1026.449	689.42
1026.739	715.86
1027.029	717.44
1027.319	684.22
1027.608	693.48
1027.898	683.32
1028.187	667.95
1028.477	683.77
1028.766	684.45
1029.055	673.15
1029.344	668.63
1029.634	672.47
1029.923	674.05
1030.212	684.22
1030.501	662.52
1030.79	659.14
1031.078	649.87
1031.367	652.13
1031.656	648.51
1031.945	661.17
1032.233	647.61
1032.522	641.73
1032.81	636.76
1033.099	606.48
1033.387	627.05
1033.675	614.39
1033.963	639.7
1034.251	632.02
1034.54	637.67
1034.828	623.43
1035.116	604.9
1035.403	609.42
1035.691	624.79
1035.979	616.65
1036.267	596.09
1036.554	613.49
1036.842	601.96
1037.129	591.57
1037.417	592.92
1037.704	601.06
1037.992	606.26
1038.279	598.8
1038.566	596.09
1038.853	596.09
1039.14	596.09
