Data from brown_tile_FLMS001491_095.txt Node
Date: Tue Feb 07 10:38:16 GMT 2017
User: dcchb
Spectrometer: FLMS00149
Trigger mode: 0
Integration Time (sec): 2.000000E-2
Scans to average: 10
Electric dark correction enabled: true
Nonlinearity correction enabled: false
Boxcar width: 0
XAxis mode: Wavelengths
Number of Pixels in Spectrum: 2048
>>>>>Begin Spectral Data<<<<<
341.393	-19.58
341.776	-19.58
342.16	-19.58
342.543	-64.09
342.927	-57.31
343.31	-65.22
343.693	-81.27
344.077	-53.7
344.46	-62.74
344.843	-48.5
345.226	-54.15
345.61	-15.96
345.993	-13.47
346.376	-4.66
346.759	18.16
347.142	18.62
347.525	32.85
347.908	44.15
348.291	72.85
348.674	94.32
349.057	118.73
349.44	116.24
349.823	128.89
350.206	164.37
350.588	205.5
350.971	220.87
351.354	195.79
351.737	213.64
352.119	240.53
352.502	251.83
352.884	279.17
353.267	285.05
353.65	298.38
354.032	298.16
354.414	289.57
354.797	302.68
355.179	322.56
355.562	302
355.944	319.17
356.326	333.41
356.709	313.75
357.091	312.84
357.473	326.4
357.855	319.62
358.238	317.59
358.62	325.95
359.002	323.47
359.384	312.17
359.766	337.93
360.148	356.69
360.53	319.85
360.912	330.92
361.294	330.02
361.676	301.32
362.057	324.6
362.439	317.82
362.821	316.46
363.203	323.92
363.584	319.62
363.966	311.26
364.348	319.4
364.729	327.31
365.111	322.34
365.493	287.99
365.874	308.55
366.256	300.19
366.637	290.02
367.019	309.68
367.4	291.38
367.781	303.35
368.163	335.67
368.544	307.65
368.925	325.5
369.306	297.25
369.688	344.93
370.069	309.68
370.45	309.68
370.831	305.16
371.212	308.1
371.593	309.46
371.974	313.3
372.355	309.91
372.736	297.03
373.117	307.87
373.498	311.26
373.879	315.33
374.26	308.1
374.641	319.62
375.021	302.68
375.402	286.86
375.783	325.73
376.163	317.59
376.544	330.7
376.925	317.36
377.305	312.39
377.686	320.08
378.066	318.04
378.447	323.69
378.827	317.59
379.208	309.68
379.588	312.17
379.968	326.18
380.349	344.48
380.729	325.95
381.109	344.71
381.489	318.27
381.87	328.66
382.25	327.08
382.63	323.47
383.01	342
383.39	356.69
383.77	319.17
384.15	322.11
384.53	329.57
384.91	330.92
385.29	332.96
385.67	341.54
386.049	348.78
386.429	342
386.809	345.39
387.189	345.61
387.568	332.05
387.948	355.1
388.328	347.65
388.707	358.95
389.087	357.36
389.466	329.57
389.846	339.51
390.225	352.62
390.605	340.41
390.984	338.38
391.363	340.19
391.743	352.39
392.122	348.78
392.501	359.85
392.881	356.23
393.26	376.12
393.639	351.71
394.018	344.71
394.397	332.05
394.776	358.49
395.155	374.09
395.534	358.95
395.913	374.31
396.292	372.28
396.671	356.46
397.05	368.66
397.429	367.98
397.808	363.01
398.186	380.64
398.565	370.02
398.944	405.5
399.323	375.44
399.701	390.81
400.08	387.65
400.458	391.49
400.837	388.1
401.215	378.61
401.594	379.96
401.972	388.78
402.351	399.85
402.729	385.84
403.107	391.94
403.486	404.59
403.864	397.59
404.242	384.71
404.62	408.66
404.999	387.19
405.377	407.53
405.755	398.04
406.133	415.22
406.511	412.5
406.889	408.89
407.267	405.5
407.645	403.46
408.023	392.39
408.401	410.7
408.779	412.05
409.156	422.22
409.534	426.74
409.912	426.51
410.29	439.17
410.667	435.33
411.045	444.37
411.422	426.74
411.8	450.92
412.178	445.72
412.555	457.02
412.933	440.75
413.31	441.2
413.687	457.7
414.065	461.77
414.442	440.3
414.819	429.45
415.197	470.58
415.574	454.08
415.951	482.33
416.328	454.99
416.705	467.64
417.082	481.43
417.46	484.59
417.837	466.29
418.214	480.52
418.591	475.78
418.967	482.33
419.344	490.24
419.721	493.86
420.098	486.63
420.475	471.94
420.852	485.04
421.228	489.34
421.605	504.03
421.982	501.09
422.358	488.43
422.735	495.89
423.111	503.8
423.488	504.7
423.864	515.55
424.241	510.81
424.617	511.48
424.994	514.42
425.37	505.83
425.746	525.95
426.123	536.12
426.499	517.59
426.875	527.75
427.251	520.07
427.627	566.17
428.003	541.54
428.379	544.93
428.756	549.9
429.132	565.72
429.507	575.44
429.883	560.52
430.259	563.46
430.635	583.57
431.011	566.4
431.387	592.16
431.763	591.71
432.138	600.07
432.514	609.56
432.89	626.51
433.265	597.81
433.641	607.98
434.016	627.41
434.392	607.98
434.767	608.88
435.143	621.99
435.518	619.5
435.894	613.18
436.269	633.97
436.644	621.09
437.02	650.01
437.395	614.98
437.77	670.12
438.145	653.4
438.52	656.34
438.895	652.27
439.271	666.73
439.646	665.6
440.021	658.6
440.395	658.37
440.77	681.42
441.145	673.06
441.52	705.6
441.895	690.01
442.27	696.11
442.645	694.53
443.019	697.92
443.394	683
443.769	714.42
444.143	683.23
444.518	739.73
444.892	719.39
445.267	734.75
445.641	719.16
446.016	728.43
446.39	723.91
446.764	734.3
447.139	714.87
447.513	756.9
447.887	751.03
448.262	747.18
448.636	741.08
449.01	744.47
449.384	775.66
449.758	764.58
450.132	756.68
450.506	763
450.88	789.89
451.254	788.09
451.628	787.41
452.002	811.36
452.376	795.32
452.75	834.64
453.123	802.32
453.497	813.62
453.871	808.43
454.244	821.31
454.618	832.15
454.992	837.8
455.365	861.98
455.739	863.34
456.112	870.57
456.486	868.08
456.859	861.53
457.232	881.19
457.606	871.47
457.979	880.06
458.352	897.69
458.725	925.71
459.099	933.85
459.472	928.65
459.845	927.97
460.218	944.01
460.591	953.73
460.964	953.05
461.337	956.44
461.71	982.88
462.083	997.12
462.456	996.67
462.829	1015.2
463.201	997.57
463.574	992.6
463.947	1012.49
464.32	1058.36
464.692	1034.86
465.065	1053.62
465.438	1060.62
465.81	1069.21
466.183	1080.73
466.555	1121.19
466.928	1085.71
467.3	1112.82
467.672	1119.38
468.045	1139.49
468.417	1146.95
468.789	1174.52
469.161	1167.29
469.534	1166.83
469.906	1187.17
470.278	1185.36
470.65	1209.09
471.022	1240.96
471.394	1278.7
471.766	1253.84
472.138	1246.15
472.51	1299.71
472.882	1309.2
473.253	1298.13
473.625	1317.11
473.997	1351.46
474.369	1397.56
474.74	1387.17
475.112	1369.31
475.484	1423.78
475.855	1431.91
476.227	1436.43
476.598	1467.39
476.97	1472.59
477.341	1498.58
477.713	1509.65
478.084	1546.26
478.455	1571.57
478.827	1575.41
479.198	1628.06
479.569	1600.27
479.94	1668.29
480.311	1686.59
480.682	1706.48
481.053	1731.79
481.424	1768.63
481.795	1759.36
482.166	1767.95
482.537	1833.26
482.908	1883.88
483.279	1830.32
483.65	1906.02
484.021	1896.98
484.391	1951.45
484.762	1925.68
485.133	1991.9
485.503	1969.07
485.874	2079.8
486.244	2054.72
486.615	2101.05
486.985	2117.77
487.356	2158.22
487.726	2137.66
488.097	2200.93
488.467	2204.09
488.837	2230.08
489.207	2293.13
489.578	2309.4
489.948	2291.1
490.318	2334.94
490.688	2338.55
491.058	2418.78
491.428	2400.47
491.798	2466.46
492.168	2456.07
492.538	2470.98
492.908	2492
493.278	2566.8
493.648	2539.68
494.017	2556.85
494.387	2555.95
494.757	2639.11
495.126	2659
495.496	2641.82
495.866	2639.11
496.235	2677.53
496.605	2742.84
496.974	2732.44
497.344	2749.84
497.713	2752.55
498.082	2809.5
498.452	2820.12
498.821	2828.71
499.19	2837.3
499.559	2875.04
499.928	2895.83
500.298	2894.25
500.667	2962.72
501.036	2934.02
501.405	2956.39
501.774	2944.19
502.143	2990.51
502.512	3043.17
502.88	3069.83
503.249	3056.28
503.618	3044.98
503.987	3068.48
504.356	3122.71
504.724	3115.26
505.093	3143.73
505.462	3157.97
505.83	3187.57
506.199	3186.22
506.567	3249.94
506.936	3264.41
507.304	3291.07
507.672	3294.24
508.041	3322.71
508.409	3353.67
508.777	3341.92
509.145	3406.32
509.514	3399.54
509.882	3417.4
510.25	3466.21
510.618	3500.11
510.986	3463.5
511.354	3509.82
511.722	3561.57
512.09	3555.7
512.458	3547.56
512.826	3625.98
513.193	3615.13
513.561	3656.94
513.929	3694.45
514.297	3712.98
514.664	3732.19
515.032	3767.67
515.4	3769.03
515.767	3795.24
516.135	3825.97
516.502	3851.96
516.869	3879.98
517.237	3888.34
517.604	3874.11
517.972	3947.55
518.339	4018.28
518.706	4002.47
519.073	3999.53
519.44	4043.14
519.808	4115.23
520.175	4115.68
520.542	4145.29
520.909	4170.14
521.276	4170.6
521.643	4249.01
522.009	4265.51
522.376	4331.95
522.743	4333.76
523.11	4363.36
523.477	4422.12
523.843	4442.68
524.21	4462.34
524.577	4491.49
524.943	4578.27
525.31	4572.17
525.676	4584.82
526.043	4693.97
526.409	4709.34
526.776	4726.74
527.142	4750.24
527.508	4770.13
527.874	4838.15
528.241	4870.01
528.607	4864.14
528.973	4912.72
529.339	4920.86
529.705	4989.56
530.071	4974.42
530.437	5049.9
530.803	5055.09
531.169	5109.78
531.535	5100.74
531.901	5171.02
532.267	5196.33
532.632	5218.7
532.998	5258.25
533.364	5307.52
533.73	5302.77
534.095	5385.71
534.461	5406.27
534.826	5430.9
535.192	5458.25
535.557	5478.13
535.923	5470.45
536.288	5531.24
536.653	5598.13
537.019	5580.5
537.384	5629.99
537.749	5656.66
538.114	5631.35
538.479	5719.48
538.845	5719.71
539.21	5785.02
539.575	5761.52
539.94	5782.31
540.305	5870.44
540.67	5855.75
541.034	5938.46
541.399	5942.53
541.764	5982.3
542.129	5968.29
542.494	6017.33
542.858	6065.24
543.223	6080.6
543.587	6160.83
543.952	6157.89
544.316	6194.95
544.681	6280.82
545.045	6243.76
545.41	6282.18
545.774	6332.8
546.138	6319.69
546.503	6380.03
546.867	6424.55
547.231	6497.09
547.595	6545.45
547.959	6507.26
548.324	6564.43
548.688	6565.56
549.052	6628.84
549.416	6711.09
549.779	6742.96
550.143	6770.08
550.507	6826.8
550.871	6842.62
551.235	6870.64
551.599	6963.29
551.962	7002.39
552.326	7065.66
552.689	7105.21
553.053	7188.14
553.417	7146.56
553.78	7311.08
554.143	7308.82
554.507	7247.13
554.87	7370.74
555.234	7494.35
555.597	7495.48
555.96	7559.66
556.323	7656.38
556.686	7714.01
557.05	7753.1
557.413	7776.38
557.776	7883.95
558.139	7994.22
558.502	8024.28
558.865	8085.97
559.228	8140.21
559.59	8159.87
559.953	8232.41
560.316	8398.28
560.679	8395.34
561.041	8468.11
561.404	8593.76
561.767	8637.82
562.129	8627.2
562.492	8821.32
562.854	8779.06
563.217	8929.79
563.579	8916.69
563.941	9058.38
564.304	9126.85
564.666	9224.02
565.028	9285.26
565.39	9354.64
565.753	9436.22
566.115	9585.6
566.477	9615.88
566.839	9681.19
567.201	9787.4
567.563	9848.87
567.925	9887.28
568.287	10057.67
568.648	10021.52
569.01	10198.91
569.372	10286.59
569.734	10289.31
570.095	10393.03
570.457	10491.79
570.819	10589.86
571.18	10626.02
571.542	10781.27
571.903	10771.33
572.265	10942.62
572.626	10943.53
572.987	11088.61
573.349	11148.72
573.71	11268.26
574.071	11290.41
574.432	11318.21
574.794	11544.19
575.155	11593.23
575.516	11587.8
575.877	11677.07
576.238	11750.28
576.599	11810.85
576.96	11925.87
577.32	11975.59
577.681	12108.92
578.042	12101.24
578.403	12222.59
578.763	12250.61
579.124	12364.73
579.485	12420.32
579.845	12545.07
580.206	12486.76
580.566	12597.72
580.927	12602.24
581.287	12712.07
581.648	12688.79
582.008	12830.26
582.368	12829.58
582.728	12942.34
583.089	13015.79
583.449	13020.53
583.809	13065.5
584.169	13135.78
584.529	13211.26
584.889	13362.22
585.249	13308.44
585.609	13312.5
585.969	13402.67
586.329	13455.78
586.688	13558.37
587.048	13535.1
587.408	13634.75
587.768	13671.82
588.127	13680.63
588.487	13750.91
588.846	13858.93
589.206	13859.38
589.565	13845.82
589.925	13944.35
590.284	14002.43
590.643	14010.56
591.003	14153.16
591.362	14159.94
591.721	14106.61
592.08	14223.21
592.44	14190.9
592.799	14270.22
593.158	14322.42
593.517	14394.28
593.876	14463.21
594.235	14395.19
594.593	14404.23
594.952	14527.16
595.311	14572.81
595.67	14534.84
596.029	14652.35
596.387	14782.07
596.746	14748.17
597.104	14766.93
597.463	14759.02
597.822	14783.88
598.18	14788.17
598.538	14862.29
598.897	14960.14
599.255	14825.68
599.613	15144.32
599.972	14994.49
600.33	15061.61
600.688	14954.27
601.046	15263.19
601.404	15190.19
601.762	15164.43
602.12	15252.11
602.478	15368.72
602.836	15344.99
603.194	15334.82
603.552	15303.19
603.91	15400.81
604.268	15412.56
604.625	15439.68
604.983	15544.31
605.341	15481.26
605.698	15592.9
606.056	15724.42
606.413	15706.56
606.771	15726.68
607.128	15831.08
607.485	15635.38
607.843	15701.37
608.2	15794.02
608.557	15840.35
608.914	15913.56
609.272	15936.61
609.629	15914.24
609.986	16065.43
610.343	15887.12
610.7	16152.65
611.057	16081.02
611.414	16118.08
611.771	16129.15
612.127	16184.52
612.484	16236.95
612.841	16280.11
613.198	16292.09
613.554	16262.26
613.911	16400.78
614.267	16389.03
614.624	16347.23
614.98	16393.78
615.337	16489.37
615.693	16452.53
616.05	16471.97
616.406	16492.08
616.762	16491.18
617.118	16568.46
617.475	16566.2
617.831	16606.65
618.187	16700.89
618.543	16687.33
618.899	16745.63
619.255	16749.93
619.611	16775.69
619.967	16780.21
620.323	16863.37
620.678	16846.65
621.034	16735.01
621.39	16756.71
621.746	16690.27
622.101	16972.97
622.457	16752.64
622.812	16876.25
623.168	16950.6
623.523	16902.69
623.879	16936.14
624.234	16800.09
624.589	16911.05
624.945	17052.07
625.3	16970.94
625.655	17030.82
626.01	16988.56
626.365	17029.69
626.72	16975.23
627.075	17005.51
627.43	17019.52
627.785	16994.67
628.14	17049.58
628.495	16959.64
628.85	17031.95
629.205	16995.34
629.559	17097.94
629.914	17020.88
630.269	16938.85
630.623	16973.88
630.978	16872.18
631.332	17015.23
631.687	17140.2
632.041	16982.69
632.396	17029.47
632.75	16962.12
633.104	16937.49
633.459	16866.99
633.813	16861.34
634.167	17024.27
634.521	16906.76
634.875	16881.67
635.229	16919.19
635.583	16842.58
635.937	16717.61
636.291	16849.59
636.645	16814.33
636.999	16833.99
637.352	16889.13
637.706	16690.95
638.06	16845.29
638.413	16823.82
638.767	16763.03
639.121	16734.56
639.474	16758.51
639.828	16805.74
640.181	16755.58
640.534	16716.93
640.888	16644.17
641.241	16561.23
641.594	16670.83
641.947	16776.59
642.301	16646.43
642.654	16627.44
643.007	16657.05
643.36	16673.09
643.713	16568.24
644.066	16683.94
644.419	16526.88
644.771	16502.48
645.124	16281.92
645.477	16325.08
645.83	16156.5
646.182	16136.38
646.535	16106.55
646.888	16173.67
647.24	16091.19
647.593	16130.96
647.945	16093.9
648.298	15961.7
648.65	16021.58
649.002	16084.18
649.355	15939.1
649.707	16057.97
650.059	16066.78
650.411	16241.01
650.763	16320.79
651.115	16467.45
651.467	16462.93
651.819	16428.35
652.171	16437.84
652.523	16345.19
652.875	16396.26
653.227	16312.2
653.578	16452.31
653.93	16378.86
654.282	16366.43
654.633	16316.49
654.985	16366.21
655.337	16346.32
655.688	16388.58
656.039	16377.73
656.391	16241.47
656.742	16305.42
657.094	16287.57
657.445	16355.59
657.796	16294.57
658.147	16329.6
658.498	16375.47
658.849	16360.56
659.2	16287.57
659.551	16274.91
659.902	16375.02
660.253	16319.43
660.604	16294.35
660.955	16229.26
661.306	16353.55
661.656	16308.13
662.007	16315.59
662.358	16323.95
662.708	16304.74
663.059	16267.45
663.409	16228.58
663.76	16389.94
664.11	16322.82
664.461	16314.23
664.811	16365.53
665.161	16444.17
665.511	16386.09
665.862	16395.59
666.212	16473.78
666.562	16518.97
666.912	16461.12
667.262	16405.3
667.612	16351.75
667.962	16433.78
668.312	16472.87
668.662	16500.22
669.011	16399.43
669.361	16422.03
669.711	16432.2
670.06	16382.7
670.41	16348.36
670.76	16448.24
671.109	16499.99
671.459	16416.15
671.808	16524.62
672.157	16432.87
672.507	16331.86
672.856	16315.36
673.205	16403.72
673.554	16465.41
673.904	16445.08
674.253	16553.77
674.602	16510.84
674.951	16230.39
675.3	16223.84
675.649	16380.45
675.998	16443.72
676.346	16505.19
676.695	16603.04
677.044	16422.03
677.393	16481.69
677.741	16420.44
678.09	16396.94
678.438	16430.16
678.787	16423.83
679.135	16474.23
679.484	16372.99
679.832	16428.35
680.181	16283.27
680.529	16343.16
680.877	16362.37
681.225	16347.45
681.573	16408.24
681.922	16363.04
682.27	16300
682.618	16227
682.966	16274.91
683.314	16339.32
683.661	16245.08
684.009	16186.55
684.357	16251.18
684.705	16068.81
685.053	16173.22
685.4	16159.21
685.748	16099.77
686.095	16174.57
686.443	16060.45
686.79	16051.64
687.138	16222.26
687.485	16112.66
687.832	16055.93
688.18	16083.73
688.527	15982.04
688.874	16046.22
689.221	16084.63
689.568	16014.35
689.915	15939.1
690.262	15905.66
690.609	15912.43
690.956	15779.56
691.303	15865.88
691.65	15739.56
691.997	15846.9
692.344	15681.48
692.69	15772.55
693.037	15825.43
693.383	15701.14
693.73	15819.78
694.077	15631.54
694.423	15664.53
694.769	15656.85
695.116	15632.89
695.462	15627.47
695.808	15463.86
696.155	15504.31
696.501	15508.6
696.847	15541.82
697.193	15474.71
697.539	15471.32
697.885	15377.31
698.231	15352.68
698.577	15296.41
698.923	15322.17
699.269	15283.52
699.614	15131.89
699.96	15198.78
700.306	15276.52
700.651	15122.62
700.997	15192.68
701.342	15152.91
701.688	15153.13
702.033	15061.38
702.379	15072.91
702.724	14966.92
703.069	15090.31
703.415	14999.92
703.76	14856.42
704.105	14974.61
704.45	14930.54
704.795	14878.11
705.14	14882.63
705.485	14881.5
705.83	14823.65
706.175	14844.44
706.52	14736.42
706.865	14709.3
707.209	14692.58
707.554	14641.06
707.899	14680.15
708.243	14717.21
708.588	14655.29
708.932	14534.62
709.277	14636.76
709.621	14622.75
709.966	14525.8
710.31	14596.31
710.654	14451.68
710.998	14512.92
711.342	14487.61
711.687	14522.64
712.031	14401.74
712.375	14322.42
712.719	14342.53
713.063	14379.14
713.407	14462.3
713.75	14312.7
714.094	14352.7
714.438	14304.79
714.782	14371.68
715.125	14251.91
715.469	14300.95
715.812	14228.19
716.156	14252.14
716.499	14168.3
716.843	14153.84
717.186	14098.25
717.53	14295.53
717.873	14225.02
718.216	14132.82
718.559	14179.82
718.902	14068.64
719.246	14105.93
719.589	14012.82
719.932	14008.53
720.275	14020.28
720.617	14021.86
720.96	14015.76
721.303	14069.77
721.646	14075.87
721.989	13943.9
722.331	14023.9
722.674	13902.54
723.016	13938.48
723.359	13962.88
723.701	13925.82
724.044	13849.89
724.386	13815.99
724.729	13903.22
725.071	13830
725.413	13754.98
725.755	13821.42
726.097	13740.74
726.439	13735.32
726.782	13721.98
727.124	13805.6
727.465	13759.72
727.807	13731.93
728.149	13652.61
728.491	13665.26
728.833	13769.89
729.175	13701.65
729.516	13651.7
729.858	13594.98
730.199	13648.31
730.541	13653.51
730.882	13660.74
731.224	13653.74
731.565	13545.94
731.906	13586.17
732.248	13630.46
732.589	13588.43
732.93	13525.15
733.271	13516.11
733.612	13540.29
733.953	13588.65
734.294	13425.27
734.635	13513.18
734.976	13517.92
735.317	13442.9
735.658	13442.67
735.999	13414.42
736.339	13390.92
736.68	13525.38
737.021	13402.67
737.361	13290.58
737.702	13448.77
738.042	13290.13
738.383	13359.96
738.723	13460.07
739.063	13272.05
739.404	13357.02
739.744	13363.58
740.084	13264.37
740.424	13249
740.764	13195.22
741.104	13313.86
741.444	13214.88
741.784	13131.49
742.124	13232.28
742.464	13132.17
742.804	13183.01
743.143	13108.89
743.483	13141.43
743.823	13012.17
744.162	13097.59
744.502	13049.23
744.841	13061.44
745.181	13095.11
745.52	12995.45
745.86	13090.59
746.199	13058.72
746.538	12993.19
746.877	12912.97
747.216	12926.98
747.556	12969.24
747.895	12958.39
748.234	12857.83
748.573	12872.29
748.911	12907.99
749.25	12816.02
749.589	12798.17
749.928	12843.59
750.267	12816.47
750.605	12746.42
750.944	12727.66
751.283	12725.63
751.621	12743.25
751.96	12647.44
752.298	12612.63
752.636	12648.11
752.975	12575.57
753.313	12522.92
753.651	12563.6
753.989	12501.45
754.327	12515.46
754.666	12456.48
755.004	12482.92
755.342	12416.26
755.679	12416.03
756.017	12310.95
756.355	12382.81
756.693	12321.79
757.031	12347.33
757.368	12183.04
757.706	12205.87
758.044	12123.83
758.381	12189.82
758.719	12076.15
759.056	12113.21
759.394	11998.64
759.731	12005.19
760.068	12042.48
760.405	11902.6
760.743	11893.33
761.08	11844.29
761.417	11898.08
761.754	11755.03
762.091	11774.69
762.428	11717.74
762.765	11612.21
763.102	11680.46
763.438	11618.08
763.775	11591.64
764.112	11545.77
764.449	11578.76
764.785	11438.43
765.122	11487.92
765.458	11388.03
765.795	11346.68
766.131	11359.33
766.467	11315.27
766.804	11353.46
767.14	11159.11
767.476	11181.94
767.812	11155.27
768.148	11096.52
768.485	11092.9
768.821	11052.45
769.157	11022.17
769.492	10990.53
769.828	10892.91
770.164	10860.82
770.5	10799.12
770.836	10785.56
771.171	10787.82
771.507	10720.71
771.842	10653.36
772.178	10625.34
772.513	10592.8
772.849	10622.63
773.184	10580.6
773.519	10533.82
773.855	10473.03
774.19	10380.83
774.525	10435.97
774.86	10389.42
775.195	10358.46
775.53	10249.53
775.865	10225.8
776.2	10132.47
776.535	10138.35
776.87	10115.75
777.205	10048.18
777.539	10003.89
777.874	10015.41
778.209	9970.67
778.543	9934.51
778.878	9868.98
779.212	9902.88
779.547	9762.31
779.881	9797.34
780.215	9710.11
780.55	9776.1
780.884	9694.52
781.218	9715.99
781.552	9642.77
781.886	9567.97
782.22	9552.83
782.554	9427.41
782.888	9380.86
783.222	9343.57
783.556	9376.11
783.889	9329.1
784.223	9242.55
784.557	9257.92
784.89	9218.6
785.224	9217.47
785.557	9140.41
785.891	9116
786.224	9075.1
786.558	9099.51
786.891	9038.94
787.224	8921.21
787.557	8949.23
787.891	8927.08
788.224	8889.57
788.557	8855.9
788.89	8856.35
789.223	8858.61
789.556	8726.63
789.888	8720.08
790.221	8715.79
790.554	8655.68
790.887	8597.15
791.219	8624.72
791.552	8512.63
791.884	8480.99
792.217	8536.13
792.549	8422.24
792.882	8366.42
793.214	8359.19
793.546	8330.71
793.879	8261.79
794.211	8223.37
794.543	8273.99
794.875	8318.28
795.207	8242.81
795.539	8182.02
795.871	8181.79
796.203	8155.12
796.535	8065.64
796.867	8033.77
797.198	7986.54
797.53	8026.09
797.862	7928.46
798.193	7871.52
798.525	7869.48
798.856	7910.16
799.188	7846.66
799.519	7769.82
799.85	7744.51
800.182	7780.9
800.513	7686.44
800.844	7599.66
801.175	7704.51
801.506	7704.51
801.837	7652.99
802.168	7610.28
802.499	7571.41
802.83	7530.96
803.161	7484.18
803.491	7554.24
803.822	7466.33
804.153	7469.94
804.483	7378.42
804.814	7384.98
805.145	7357.63
805.475	7319.44
805.805	7332.55
806.136	7318.99
806.466	7296.16
806.796	7289.61
807.126	7201.48
807.457	7224.53
807.787	7175.26
808.117	7095.27
808.447	7112.67
808.777	7165.55
809.107	7014.14
809.436	7081.25
809.766	7012.56
810.096	6982.5
810.426	6930.52
810.755	6985.66
811.085	6941.37
811.414	6961.48
811.744	6817.08
812.073	6857.31
812.403	6854.37
812.732	6807.36
813.061	6777.31
813.39	6779.34
813.719	6735.95
814.049	6760.13
814.378	6779.57
814.707	6713.35
815.036	6683.75
815.365	6681.49
815.693	6573.25
816.022	6629.74
816.351	6584.09
816.68	6611.21
817.008	6556.52
817.337	6536.86
817.665	6492.34
817.994	6508.16
818.322	6483.98
818.651	6445.34
818.979	6391.33
819.307	6422.97
819.636	6408.05
819.964	6368.5
820.292	6385.45
820.62	6397.66
820.948	6345.68
821.276	6380.48
821.604	6305.23
821.932	6381.39
822.259	6375.06
822.587	6259.81
822.915	6291.9
823.243	6321.5
823.57	6306.59
823.898	6286.02
824.225	6269.3
824.553	6300.71
824.88	6291.44
825.207	6322.63
825.535	6290.99
825.862	6262.97
826.189	6281.73
826.516	6231.33
826.843	6321.05
827.17	6283.54
827.497	6238.56
827.824	6261.16
828.151	6265
828.478	6231.33
828.805	6244.21
829.131	6294.61
829.458	6272.46
829.785	6151.11
830.111	6229.53
830.438	6242.86
830.764	6302.97
831.09	6187.94
831.417	6232.01
831.743	6193.37
832.069	6225.91
832.395	6166.7
832.722	6203.54
833.048	6160.37
833.374	6151.11
833.7	6103.43
834.026	6111.79
834.351	6089.87
834.677	6075.86
835.003	6142.52
835.329	6108.4
835.654	6079.92
835.98	6067.95
836.306	6034.05
836.631	6053.71
836.956	6057.33
837.282	6036.99
837.607	5983.43
837.932	5988.18
838.258	6026.59
838.583	6001.73
838.908	5952.24
839.233	5900.49
839.558	5941.4
839.883	5867.73
840.208	5914.96
840.533	5900.27
840.858	5880.38
841.182	5890.33
841.507	5910.66
841.832	5832.25
842.156	5829.54
842.481	5811.91
842.805	5831.34
843.13	5808.29
843.454	5803.55
843.778	5712.93
844.103	5747.96
844.427	5728.52
844.751	5722.19
845.075	5690.78
845.399	5715.64
845.723	5629.99
846.047	5654.85
846.371	5633.83
846.695	5564.01
847.019	5543.89
847.343	5508.64
847.666	5483.33
847.99	5480.17
848.313	5489.88
848.637	5416.44
848.96	5446.5
849.284	5422.54
849.607	5355.2
849.931	5351.81
850.254	5343.67
850.577	5331.7
850.9	5287.63
851.223	5269.32
851.546	5206.28
851.869	5233.17
852.192	5190.23
852.515	5206.5
852.838	5159.72
853.161	5156.79
853.483	5112.27
853.806	5124.02
854.129	5098.93
854.451	5107.75
854.774	5068.65
855.096	5050.8
855.419	5039.73
855.741	5043.57
856.063	4996.34
856.385	4992.5
856.708	4945.72
857.03	4959.73
857.352	4971.93
857.674	4913.4
857.996	4927.41
858.318	4859.84
858.64	4928.54
858.961	4877.47
859.283	4854.65
859.605	4833.63
859.926	4837.25
860.248	4804.48
860.57	4755.44
860.891	4774.65
861.212	4786.85
861.534	4766.51
861.855	4723.35
862.176	4772.16
862.498	4768.55
862.819	4738.27
863.14	4666.85
863.461	4718.38
863.782	4727.87
864.103	4639.96
864.424	4672.73
864.745	4682.67
865.065	4655.56
865.386	4638.15
865.707	4642
866.027	4664.59
866.348	4654.65
866.668	4588.44
866.989	4599.29
867.309	4576.69
867.63	4566.74
867.95	4574.2
868.27	4593.86
868.59	4516.35
868.91	4532.17
869.23	4565.16
869.55	4560.19
869.87	4540.98
870.19	4541.89
870.51	4522.45
870.83	4540.53
871.15	4517.25
871.469	4479.06
871.789	4472.74
872.109	4473.41
872.428	4453.53
872.748	4433.87
873.067	4455.56
873.386	4427.76
873.706	4463.02
874.025	4464.37
874.344	4417.37
874.663	4404.49
874.982	4430.48
875.301	4417.6
875.62	4405.62
875.939	4396.35
876.258	4318.84
876.577	4312.29
876.896	4359.52
877.214	4298.5
877.533	4319.75
877.852	4319.52
878.17	4353.64
878.489	4323.13
878.807	4338.5
879.125	4294.66
879.444	4306.19
879.762	4284.72
880.08	4272.74
880.398	4233.65
880.716	4274.1
881.034	4245.17
881.352	4226.41
881.67	4189.58
881.988	4260.76
882.306	4207.21
882.624	4237.04
882.941	4208.56
883.259	4138.96
883.577	4159.75
883.894	4193.19
884.212	4171.73
884.529	4160.2
884.846	4142.57
885.164	4154.55
885.481	4129.47
885.798	4136.02
886.115	4051.73
886.432	4104.61
886.75	4049.7
887.067	4089.24
887.383	4040.43
887.7	4051.73
888.017	4042.01
888.334	4085.4
888.651	4012.18
888.967	4026.87
889.284	4054.44
889.6	4020.32
889.917	3942.81
890.233	3973.77
890.55	3947.1
890.866	3980.09
891.182	3946.42
891.498	3926.31
891.815	3932.64
892.131	3918.17
892.447	3906.42
892.763	3868.23
893.079	3864.62
893.395	3867.1
893.71	3834.11
894.026	3803.37
894.342	3819.65
894.657	3841.11
894.973	3815.8
895.289	3823.49
895.604	3764.73
895.92	3776.03
896.235	3747.56
896.55	3772.64
896.865	3737.39
897.181	3782.36
897.496	3753.66
897.811	3716.37
898.126	3733.55
898.441	3667.78
898.756	3667.33
899.071	3626.88
899.386	3674.11
899.7	3610.61
900.015	3610.16
900.33	3590.05
900.644	3603.83
900.959	3622.36
901.273	3595.92
901.588	3605.19
901.902	3601.57
902.216	3562.7
902.531	3496.04
902.845	3500.56
903.159	3521.8
903.473	3489.94
903.787	3532.87
904.101	3459.43
904.415	3496.49
904.729	3459.2
905.042	3445.87
905.356	3448.13
905.67	3432.54
905.984	3417.85
906.297	3416.94
906.611	3373.33
906.924	3402.93
907.237	3364.52
907.551	3378.98
907.864	3345.08
908.177	3337.85
908.491	3337.85
908.804	3284.52
909.117	3326.32
909.43	3277.96
909.743	3282.94
910.056	3273.45
910.368	3257.17
910.681	3227.8
910.994	3207.23
911.307	3223.73
911.619	3214.46
911.932	3168.36
912.244	3152.09
912.557	3202.26
912.869	3145.76
913.181	3183.73
913.494	3155.26
913.806	3148.93
914.118	3081.13
914.43	3076.39
914.742	3073.9
915.054	3057.63
915.366	3084.3
915.678	3080.68
915.99	3050.17
916.302	3016.73
916.613	2995.03
916.925	3000.23
917.236	2994.81
917.548	2984.87
917.859	2981.02
918.171	2941.02
918.482	2960.68
918.794	2938.76
919.105	2928.6
919.416	2889.95
919.727	2928.82
920.038	2885.43
920.349	2866.45
920.66	2869.61
920.971	2854.25
921.282	2845.89
921.593	2847.47
921.903	2814.02
922.214	2806.11
922.525	2824.87
922.835	2787.58
923.146	2802.95
923.456	2787.58
923.767	2742.39
924.077	2767.7
924.387	2762.72
924.697	2712.56
925.008	2729.5
925.318	2739.67
925.628	2707.13
925.938	2710.75
926.248	2671.88
926.558	2675.72
926.867	2654.25
927.177	2682.95
927.487	2634.14
927.796	2635.95
928.106	2609.51
928.416	2615.16
928.725	2655.83
929.034	2579.45
929.344	2609.73
929.653	2585.1
929.962	2530.64
930.271	2543.52
930.581	2563.18
930.89	2513.01
931.199	2493.58
931.508	2495.39
931.817	2510.98
932.125	2517.98
932.434	2483.64
932.743	2454.94
933.051	2481.38
933.36	2454.48
933.669	2430.76
933.977	2463.07
934.286	2439.34
934.594	2406.12
934.902	2438.66
935.21	2386.01
935.519	2439.34
935.827	2400.25
936.135	2365.67
936.443	2351.89
936.751	2349.4
937.059	2334.26
937.367	2337.88
937.674	2332.23
937.982	2331.1
938.29	2329.06
938.597	2264.21
938.905	2282.96
939.213	2313.7
939.52	2248.16
939.827	2281.61
940.135	2275.05
940.442	2233.47
940.749	2244.77
941.056	2281.38
941.363	2235.28
941.67	2194.38
941.977	2203.42
942.284	2199.12
942.591	2207.03
942.898	2143.31
943.205	2148.5
943.511	2169.75
943.818	2165.68
944.125	2152.34
944.431	2167.71
944.738	2137.88
945.044	2143.53
945.35	2143.08
945.657	2135.85
945.963	2094.49
946.269	2118.22
946.575	2093.14
946.881	2083.42
947.187	2046.81
947.493	2072.12
947.799	2062.4
948.105	2014.04
948.41	2035.06
948.716	2026.47
949.022	2025.34
949.327	2023.99
949.633	1995.96
949.938	1979.24
950.244	2025.57
950.549	1978.11
950.854	1992.12
951.16	1960.03
951.465	1987.6
951.77	1950.09
952.075	1972.69
952.38	1960.49
952.685	1937.43
952.99	1916.87
953.294	1923.42
953.599	1931.11
953.904	1889.3
954.209	1916.19
954.513	1894.95
954.818	1903.09
955.122	1915.51
955.426	1866.48
955.731	1892.92
956.035	1867.38
956.339	1852.01
956.643	1875.29
956.948	1878.68
957.252	1839.81
957.556	1844.78
957.86	1827.83
958.163	1823.77
958.467	1821.05
958.771	1805.69
959.075	1796.2
959.378	1797.1
959.682	1809.98
959.985	1784.9
960.289	1788.96
960.592	1779.92
960.896	1742.41
961.199	1773.6
961.502	1729.53
961.805	1738.57
962.108	1729.76
962.411	1695.18
962.714	1711.45
963.017	1718.46
963.32	1711.23
963.623	1689.08
963.926	1699.93
964.228	1695.18
964.531	1697.89
964.833	1681.62
965.136	1677.1
965.438	1656.99
965.741	1648.85
966.043	1671.45
966.345	1636.43
966.648	1658.8
966.95	1625.8
967.252	1640.49
967.554	1624.45
967.856	1616.77
968.158	1625.13
968.46	1600.72
968.761	1602.75
969.063	1626.26
969.365	1610.44
969.666	1563.43
969.968	1559.59
970.269	1591.68
970.571	1567.05
970.872	1546.94
971.174	1565.47
971.475	1576.77
971.776	1528.18
972.077	1575.41
972.378	1543.32
972.679	1518.46
972.98	1517.56
973.281	1532.25
973.582	1544
973.883	1517.78
974.183	1483.89
974.484	1517.33
974.785	1481.18
975.085	1488.18
975.386	1485.24
975.686	1458.8
975.986	1444.79
976.287	1449.09
976.587	1457
976.887	1405.92
977.187	1448.63
977.487	1436.43
977.787	1440.5
978.087	1422.65
978.387	1416.77
978.687	1438.24
978.987	1403.89
979.286	1420.84
979.586	1390.33
979.885	1425.36
980.185	1392.36
980.484	1385.59
980.784	1379.03
981.083	1391.23
981.382	1388.97
981.682	1379.71
981.981	1336.55
982.28	1362.53
982.579	1364.12
982.878	1356.89
983.177	1360.95
983.475	1315.76
983.774	1341.07
984.073	1297
984.372	1317.34
984.67	1304.68
984.969	1302.42
985.267	1301.29
985.566	1314.17
985.864	1290.45
986.162	1313.5
986.461	1311.01
986.759	1261.07
987.057	1252.71
987.355	1245.48
987.653	1244.57
987.951	1264.46
988.249	1259.94
988.547	1265.59
988.844	1256.77
989.142	1257.68
989.44	1236.66
989.737	1267.17
990.035	1265.14
990.332	1241.63
990.63	1199.38
990.927	1213.39
991.224	1246.38
991.521	1241.63
991.819	1196.21
992.116	1213.61
992.413	1209.77
992.71	1184.69
993.006	1200.51
993.303	1180.62
993.6	1189.88
993.897	1185.14
994.193	1153.73
994.49	1160.28
994.787	1155.31
995.083	1163.67
995.379	1144.46
995.676	1144.01
995.972	1139.94
996.268	1102.43
996.565	1111.24
996.861	1112.82
997.157	1116.44
997.453	1108.08
997.749	1107.63
998.044	1113.05
998.34	1102.88
998.636	1141.98
998.932	1090.45
999.227	1087.74
999.523	1075.76
999.818	1091.36
1000.114	1087.29
1000.409	1067.18
1000.704	1066.95
1001	1055.2
1001.295	1040.51
1001.59	1061.75
1001.885	1053.62
1002.18	1064.92
1002.475	1026.27
1002.77	1034.18
1003.065	1032.6
1003.359	1025.14
1003.654	1042.32
1003.949	1017.46
1004.243	1027.63
1004.538	1031.7
1004.832	1005.93
1005.127	1006.61
1005.421	992.15
1005.715	992.83
1006.009	975.2
1006.304	983.56
1006.598	989.44
1006.892	923.45
1007.186	975.88
1007.48	964.13
1007.773	978.14
1008.067	953.51
1008.361	947.63
1008.655	983.56
1008.948	951.7
1009.242	941.98
1009.535	937.69
1009.829	963
1010.122	939.27
1010.415	922.32
1010.708	895.2
1011.001	916.9
1011.295	939.04
1011.588	916.9
1011.881	897.01
1012.173	886.84
1012.466	906.5
1012.759	882.32
1013.052	893.39
1013.344	881.19
1013.637	881.42
1013.93	871.47
1014.222	878.25
1014.514	873.96
1014.807	851.36
1015.099	864.24
1015.391	863.34
1015.683	860.85
1015.976	869.89
1016.268	840.74
1016.56	833.51
1016.851	839.38
1017.143	808.65
1017.435	862.21
1017.727	838.03
1018.018	819.95
1018.31	814.07
1018.602	807.07
1018.893	827.63
1019.185	802.55
1019.476	819.72
1019.767	802.78
1020.058	765.71
1020.35	808.88
1020.641	804.36
1020.932	795.77
1021.223	763.23
1021.514	788.31
1021.804	761.87
1022.095	757.58
1022.386	787.63
1022.677	795.54
1022.967	753.74
1023.258	762.78
1023.548	756.22
1023.839	741.08
1024.129	760.29
1024.419	744.02
1024.709	710.35
1025	730.24
1025.29	725.04
1025.58	718.94
1025.87	724.59
1026.16	718.71
1026.449	718.48
1026.739	716
1027.029	706.28
1027.319	723.91
1027.608	700.63
1027.898	699.05
1028.187	706.51
1028.477	715.77
1028.766	699.95
1029.055	669.22
1029.344	715.77
1029.634	678.94
1029.923	686.17
1030.212	694.3
1030.501	662.44
1030.79	664.02
1031.078	673.51
1031.367	656.56
1031.656	636
1031.945	655.89
1032.233	653.85
1032.522	664.02
1032.81	629.67
1033.099	631.48
1033.387	632.16
1033.675	629.67
1033.963	621.99
1034.251	631.03
1034.54	620.86
1034.828	628.09
1035.116	629.67
1035.403	617.7
1035.691	636.9
1035.979	610.46
1036.267	616.79
1036.554	603.23
1036.842	612.72
1037.129	626.06
1037.417	597.58
1037.704	595.78
1037.992	612.05
1038.279	593.52
1038.566	605.27
1038.853	605.27
1039.14	605.27
