Data from brown_tile_FLMS001491_050.txt Node
Date: Tue Feb 07 10:37:35 GMT 2017
User: dcchb
Spectrometer: FLMS00149
Trigger mode: 0
Integration Time (sec): 2.000000E-2
Scans to average: 10
Electric dark correction enabled: true
Nonlinearity correction enabled: false
Boxcar width: 0
XAxis mode: Wavelengths
Number of Pixels in Spectrum: 2048
>>>>>Begin Spectral Data<<<<<
341.393	-20.37
341.776	-20.37
342.16	-20.37
342.543	-58.56
342.927	-68.5
343.31	-50.65
343.693	-62.85
344.077	-66.47
344.46	-57.2
344.843	-64.43
345.226	-39.12
345.61	-31.21
345.993	-26.47
346.376	-12.68
346.759	-2.74
347.142	20.54
347.525	41.1
347.908	38.16
348.291	78.61
348.674	122.91
349.057	112.51
349.44	121.78
349.823	120.65
350.206	182.57
350.588	178.95
350.971	212.85
351.354	210.59
351.737	212.4
352.119	247.2
352.502	231.38
352.884	273.41
353.267	281.55
353.65	281.55
354.032	287.87
354.414	299.4
354.797	312.28
355.179	306.63
355.562	304.37
355.944	327.87
356.326	323.13
356.709	311.38
357.091	331.04
357.473	344.37
357.855	325.84
358.238	335.56
358.62	321.09
359.002	337.59
359.384	342.79
359.766	316.12
360.148	331.04
360.53	313.41
360.912	330.58
361.294	333.3
361.676	320.64
362.057	308.44
362.439	327.42
362.821	331.26
363.203	323.35
363.584	321.77
363.966	305.73
364.348	300.08
364.729	299.62
365.111	296.46
365.493	314.31
365.874	296.69
366.256	317.03
366.637	302.56
367.019	293.3
367.4	298.49
367.781	302.56
368.163	302.56
368.544	299.62
368.925	314.31
369.306	307.99
369.688	306.63
370.069	289.91
370.45	284.48
370.831	294.43
371.212	287.42
371.593	304.37
371.974	294.2
372.355	300.08
372.736	331.26
373.117	299.4
373.498	300.98
373.879	296.91
374.26	302.79
374.641	280.19
375.021	322.9
375.402	302.79
375.783	326.97
376.163	315.67
376.544	318.61
376.925	296.91
377.305	304.82
377.686	328.78
378.066	302.79
378.447	316.57
378.827	314.31
379.208	323.35
379.588	330.81
379.968	343.24
380.349	320.42
380.729	317.93
381.109	340.3
381.489	333.07
381.87	319.29
382.25	329.68
382.63	316.35
383.01	309.79
383.39	314.54
383.77	307.53
384.15	327.19
384.53	325.16
384.91	333.3
385.29	320.87
385.67	329.23
386.049	340.3
386.429	350.92
386.809	336.46
387.189	340.98
387.568	338.95
387.948	351.6
388.328	318.83
388.707	320.87
389.087	323.13
389.466	357.93
389.846	348.66
390.225	362.67
390.605	340.3
390.984	356.8
391.363	360.41
391.743	344.82
392.122	324.93
392.501	362.45
392.881	352.5
393.26	344.14
393.639	369
394.018	354.09
394.397	353.41
394.776	341.21
395.155	343.69
395.534	363.8
395.913	378.72
396.292	365.61
396.671	364.03
397.05	379.4
397.429	362.22
397.808	354.31
398.186	371.49
398.565	385.05
398.944	364.93
399.323	375.33
399.701	375.33
400.08	363.58
400.458	377.36
400.837	383.69
401.215	377.59
401.594	366.06
401.972	383.24
402.351	396.35
402.729	382.33
403.107	411.26
403.486	402.9
403.864	364.48
404.242	391.15
404.62	394.54
404.999	404.48
405.377	387.31
405.755	394.99
406.133	415.78
406.511	399.51
406.889	390.47
407.267	399.96
407.645	415.78
408.023	402.67
408.401	404.25
408.779	438.38
409.156	416.68
409.534	422.79
409.912	413.29
410.29	419.62
410.667	429.34
411.045	417.36
411.422	425.5
411.8	429.79
412.178	439.73
412.555	421.66
412.933	438.83
413.31	436.57
413.687	450.13
414.065	425.95
414.442	447.19
414.819	449.9
415.197	439.51
415.574	463.46
415.951	434.54
416.328	449.9
416.705	460.07
417.082	455.78
417.46	435.44
417.837	445.38
418.214	467.3
418.591	457.36
418.967	478.15
419.344	467.98
419.721	469.34
420.098	476.12
420.475	479.51
420.852	475.89
421.228	481.09
421.605	472.95
421.982	485.61
422.358	506.17
422.735	485.38
423.111	507.08
423.488	481.54
423.864	517.7
424.241	515.44
424.617	495.55
424.994	503.91
425.37	523.12
425.746	512.27
426.123	530.58
426.499	525.16
426.875	528.77
427.251	549.56
427.627	539.17
428.003	536.45
428.379	543.23
428.756	559.05
429.132	550.92
429.507	566.96
429.883	544.14
430.259	549.56
430.635	536.45
431.011	564.48
431.387	583.91
431.763	563.57
432.138	577.13
432.514	591.14
432.89	574.19
433.265	581.65
433.641	578.26
434.016	596.79
434.392	599.96
434.767	620.97
435.143	616.9
435.518	630.69
435.894	599.96
436.269	613.06
436.644	614.87
437.02	644.25
437.395	657.81
437.77	625.49
438.145	640.63
438.52	648.32
438.895	629.56
439.271	653.29
439.646	661.42
440.021	649.67
440.395	648.77
440.77	657.36
441.145	663.01
441.52	683.57
441.895	662.55
442.27	688.09
442.645	677.02
443.019	692.83
443.394	719.5
443.769	707.52
444.143	695.55
444.518	695.55
444.892	703
445.267	711.59
445.641	703.46
446.016	719.05
446.39	722.89
446.764	705.26
447.139	712.95
447.513	724.7
447.887	734.19
448.262	749.78
448.636	731.48
449.01	748.65
449.384	746.62
449.758	772.15
450.132	772.83
450.506	732.61
450.88	746.62
451.254	750.91
451.628	765.6
452.002	790.01
452.376	771.7
452.75	786.17
453.123	765.83
453.497	802.21
453.871	809.89
454.244	788.65
454.618	813.28
454.992	812.83
455.365	828.42
455.739	834.98
456.112	859.84
456.486	874.07
456.859	859.38
457.232	873.85
457.606	844.92
457.979	881.98
458.352	865.03
458.725	905.03
459.099	910.68
459.472	907.97
459.845	922.66
460.218	927.18
460.591	930.34
460.964	924.69
461.337	947.74
461.71	974.41
462.083	964.47
462.456	977.57
462.829	988.42
463.201	978.03
463.574	1013.96
463.947	1010.34
464.32	1037.91
464.692	1032.49
465.065	1044.69
465.438	1047.4
465.81	1042.2
466.183	1046.5
466.555	1071.13
466.928	1111.13
467.3	1091.92
467.672	1096.67
468.045	1125.14
468.417	1135.76
468.789	1136.21
469.161	1155.2
469.534	1176.44
469.906	1172.82
470.278	1183.9
470.65	1201.07
471.022	1209.21
471.394	1220.05
471.766	1227.51
472.138	1273.61
472.51	1241.97
472.882	1271.58
473.253	1277.45
473.625	1309.99
473.997	1321.52
474.369	1336.21
474.74	1335.53
475.112	1365.36
475.484	1381.18
475.855	1411.46
476.227	1396.32
476.598	1455.07
476.97	1454.4
477.341	1461.63
477.713	1518.8
478.084	1523.32
478.455	1546.15
478.827	1535.3
479.198	1589.08
479.569	1601.51
479.94	1622.98
480.311	1643.32
480.682	1659.14
481.053	1708.4
481.424	1733.71
481.795	1726.93
482.166	1727.84
482.537	1746.59
482.908	1802.41
483.279	1841.05
483.65	1862.07
484.021	1893.03
484.391	1913.14
484.762	1943.42
485.133	1945.91
485.503	1948.4
485.874	1992.91
486.244	2014.83
486.615	2069.75
486.985	2064.55
487.356	2098.9
487.726	2128.28
488.097	2151.55
488.467	2186.35
488.837	2184.32
489.207	2186.35
489.578	2249.18
489.948	2247.37
490.318	2301.15
490.688	2275.62
491.058	2358.55
491.428	2374.15
491.798	2386.8
492.168	2429.29
492.538	2434.26
492.908	2437.65
493.278	2484.2
493.648	2483.75
494.017	2516.97
494.387	2555.38
494.757	2556.74
495.126	2628.15
495.496	2603.97
495.866	2590.19
496.235	2647.13
496.605	2673.8
496.974	2683.07
497.344	2725.1
497.713	2703.4
498.082	2753.35
498.452	2758.54
498.821	2777.75
499.19	2790.18
499.559	2868.6
499.928	2832.21
500.298	2883.51
500.667	2891.87
501.036	2903.85
501.405	2905.66
501.774	2905.66
502.143	2940.01
502.512	2977.97
502.88	2996.5
503.249	2984.53
503.618	3014.58
503.987	3087.57
504.356	3063.62
504.724	3087.8
505.093	3104.97
505.462	3084.64
505.83	3168.7
506.199	3195.82
506.567	3203.28
506.936	3199.89
507.304	3227.91
507.672	3250.51
508.041	3250.06
508.409	3274.46
508.777	3354.01
509.145	3371.18
509.514	3351.97
509.882	3368.92
510.25	3398.07
510.618	3436.94
510.986	3395.81
511.354	3451.63
511.722	3485.3
512.09	3512.65
512.458	3491.63
512.826	3541.8
513.193	3594.45
513.561	3592.65
513.929	3604.17
514.297	3641.68
514.664	3677.62
515.032	3681.91
515.4	3720.33
515.767	3740.44
516.135	3761.45
516.502	3761.45
516.869	3821.57
517.237	3861.79
517.604	3875.12
517.972	3930.49
518.339	3858.4
518.706	3903.37
519.073	3960.09
519.44	3983.14
519.808	4050.71
520.175	4037.38
520.542	4059.53
520.909	4137.94
521.276	4128.9
521.643	4191.5
522.009	4182.23
522.376	4238.96
522.743	4295.23
523.11	4322.34
523.477	4363.02
523.843	4336.35
524.21	4435.34
524.577	4461.55
524.943	4460.42
525.31	4489.57
525.676	4520.53
526.043	4585.39
526.409	4605.95
526.776	4663.8
527.142	4640.75
527.508	4709.23
527.874	4731.82
528.241	4780.64
528.607	4824.93
528.973	4847.53
529.339	4898.83
529.705	4892.72
530.071	4967.3
530.437	4994.64
530.803	5028.54
531.169	5009.78
531.535	5040.29
531.901	5093.85
532.267	5072.15
532.632	5144.02
532.998	5184.47
533.364	5225.37
533.73	5231.47
534.095	5287.52
534.461	5317.35
534.826	5332.49
535.192	5366.16
535.557	5382.88
535.923	5367.06
536.288	5445.25
536.653	5491.13
537.019	5438.7
537.384	5533.84
537.749	5608.64
538.114	5624.46
538.479	5571.58
538.845	5595.3
539.21	5666.49
539.575	5685.02
539.94	5718.24
540.305	5768.63
540.67	5780.16
541.034	5775.64
541.399	5816.09
541.764	5833.04
542.129	5915.07
542.494	5941.51
542.858	5955.07
543.223	5973.83
543.587	6081.85
543.952	6075.29
544.316	6103.54
544.681	6094.27
545.045	6193.26
545.41	6193.48
545.774	6209.3
546.138	6223.76
546.503	6278.68
546.867	6288.62
547.231	6387.83
547.595	6381.95
547.959	6448.84
548.324	6442.06
548.688	6520.93
549.052	6513.92
549.416	6542.85
549.779	6607.48
550.143	6661.04
550.507	6751.88
550.871	6744.43
551.235	6799.57
551.599	6862.16
551.962	6878.21
552.326	6965.44
552.689	7028.04
553.053	6983.06
553.417	7028.71
553.78	7137.86
554.143	7114.36
554.507	7222.83
554.87	7279.33
555.234	7397.52
555.597	7345.77
555.96	7472.32
556.323	7470.74
556.686	7517.97
557.05	7564.74
557.413	7580.11
557.776	7705.08
558.139	7733.55
558.502	7778.3
558.865	7859.88
559.228	7959.54
559.59	7976.49
559.953	8066.43
560.316	8153.2
560.679	8225.97
561.041	8320.43
561.404	8354.78
561.767	8438.39
562.129	8414.67
562.492	8604.94
562.854	8578.05
563.217	8717.93
563.579	8774.66
563.941	8849.68
564.304	8955.44
564.666	8999.28
565.028	9047.42
565.39	9077.47
565.753	9228.88
566.115	9319.5
566.477	9309.56
566.839	9409.44
567.201	9544.81
567.563	9540.96
567.925	9712.48
568.287	9763.33
568.648	9808.75
569.01	9888.3
569.372	10032.48
569.734	10024.34
570.095	10102.76
570.457	10186.82
570.819	10257.1
571.18	10375.97
571.542	10472.01
571.903	10464.56
572.265	10591.33
572.626	10712.23
572.987	10755.85
573.349	10855.05
573.71	10921.94
574.071	10972.56
574.432	11021.15
574.794	11225.44
575.155	11263.4
575.516	11237.87
575.877	11370.07
576.238	11380.01
576.599	11528.71
576.96	11549.72
577.32	11669.72
577.681	11718.76
578.042	11750.17
578.403	11787.23
578.763	11875.59
579.124	11930.51
579.485	12050.5
579.845	12078.07
580.206	12139.31
580.566	12250.05
580.927	12337.73
581.287	12334.11
581.648	12377.73
582.008	12377.05
582.368	12513.99
582.728	12480.55
583.089	12571.39
583.449	12628.34
583.809	12660.2
584.169	12722.58
584.529	12780.65
584.889	12992.17
585.249	12859.97
585.609	12859.75
585.969	13009.35
586.329	13010.93
586.688	13088.22
587.048	13094.99
587.408	13137.71
587.768	13218.38
588.127	13261.32
588.487	13229.45
588.846	13441.88
589.206	13169.57
589.565	13355.55
589.925	13430.81
590.284	13440.3
590.643	13459.5
591.003	13549.67
591.362	13658.6
591.721	13624.47
592.08	13708.54
592.44	13733.17
592.799	13727.07
593.158	13764.36
593.517	13826.73
593.876	13857.91
594.235	13824.02
594.593	13904.69
594.952	14010
595.311	14043.9
595.67	13973.16
596.029	14094.74
596.387	14162.99
596.746	14170.9
597.104	14158.47
597.463	14138.13
597.822	14258.13
598.18	14243.89
598.538	14245.25
598.897	14352.36
599.255	14321.18
599.613	14457.22
599.972	14458.35
600.33	14516.43
600.688	14402.53
601.046	14565.92
601.404	14688.63
601.762	14645.91
602.12	14741.96
602.478	14744.44
602.836	14735.4
603.194	14716.42
603.552	14780.15
603.91	14786.02
604.268	14814.5
604.625	14841.62
604.983	14957.09
605.341	14855.85
605.698	14895.63
606.056	15044.32
606.413	15056.07
606.771	15177.88
607.128	15108.95
607.485	15082.29
607.843	15098.78
608.2	15143.75
608.557	15249.06
608.914	15282.96
609.272	15297.87
609.629	15306.24
609.986	15435.95
610.343	15347.82
610.7	15500.36
611.057	15485.21
611.414	15409.06
611.771	15494.93
612.127	15582.61
612.484	15532.44
612.841	15661.48
613.198	15660.58
613.554	15633.01
613.911	15747.58
614.267	15729.05
614.624	15638.43
614.98	15815.38
615.337	15757.98
615.693	15848.37
616.05	15889.95
616.406	15902.6
616.762	15897.41
617.118	15849.72
617.475	15911.42
617.831	15894.7
618.187	15941.7
618.543	15945.77
618.899	16105.54
619.255	16070.51
619.611	16061.24
619.967	16068.25
620.323	16156.16
620.678	16066.44
621.034	16045.65
621.39	15994.58
621.746	16160
622.101	16208.81
622.457	16170.62
622.812	16135.37
623.168	16279.54
623.523	16269.83
623.879	16287.23
624.234	16204.97
624.589	16243.61
624.945	16272.76
625.3	16267.57
625.655	16290.84
626.01	16303.72
626.365	16350.95
626.72	16357.51
627.075	16316.15
627.43	16209.26
627.785	16237.74
628.14	16268.02
628.495	16277.06
628.85	16201.81
629.205	16240
629.559	16334.68
629.914	16298.98
630.269	16237.74
630.623	16259.43
630.978	16206.1
631.332	16278.41
631.687	16328.81
632.041	16239.32
632.396	16333.78
632.75	16160.68
633.104	16312.76
633.459	16168.59
633.813	16238.19
634.167	16194.35
634.521	16178.98
634.875	16198.42
635.229	16124.75
635.583	16147.12
635.937	16165.42
636.291	16103.73
636.645	16077.29
636.999	15971.3
637.352	16167.68
637.706	16077.52
638.06	16029.61
638.413	16059.21
638.767	15962.04
639.121	16023.28
639.474	15975.14
639.828	15971.98
640.181	16005.43
640.534	16013.34
640.888	16035.26
641.241	15923.17
641.594	15995.48
641.947	15919.78
642.301	15883.62
642.654	15949.16
643.007	15861.48
643.36	15952.55
643.713	15897.63
644.066	16034.8
644.419	15900.12
644.771	15814.25
645.124	15599.56
645.477	15658.77
645.83	15517.98
646.182	15581.26
646.535	15425.55
646.888	15515.72
647.24	15459.23
647.593	15483.63
647.945	15476.17
648.298	15357.31
648.65	15327.7
649.002	15277.08
649.355	15418.32
649.707	15335.16
650.059	15502.84
650.411	15604.08
650.763	15644.53
651.115	15721.59
651.467	15755.72
651.819	15744.64
652.171	15601.14
652.523	15701.71
652.875	15602.05
653.227	15594.82
653.578	15626.68
653.93	15642.95
654.282	15554.59
654.633	15558.66
654.985	15606.12
655.337	15580.58
655.688	15642.5
656.039	15697.19
656.391	15570.41
656.742	15567.02
657.094	15634.14
657.445	15587.81
657.796	15605.89
658.147	15587.13
658.498	15553.91
658.849	15631.43
659.2	15554.37
659.551	15587.36
659.902	15610.86
660.253	15640.24
660.604	15682.27
660.955	15560.47
661.306	15640.01
661.656	15618.09
662.007	15588.94
662.358	15611.76
662.708	15652.89
663.059	15604.08
663.409	15485.21
663.76	15623.06
664.11	15593.23
664.461	15704.19
664.811	15754.13
665.161	15668.71
665.511	15564.08
665.862	15762.95
666.212	15725.89
666.562	15692.21
666.912	15695.38
667.262	15579.9
667.612	15751.42
667.962	15684.76
668.312	15638.66
668.662	15687.69
669.011	15717.07
669.361	15684.31
669.711	15650.86
670.06	15619.45
670.41	15672.55
670.76	15680.46
671.109	15673.46
671.459	15659
671.808	15654.02
672.157	15756.85
672.507	15529.28
672.856	15615.15
673.205	15704.64
673.554	15718.88
673.904	15661.93
674.253	15695.38
674.602	15638.88
674.951	15403.63
675.3	15354.37
675.649	15630.75
675.998	15671.2
676.346	15697.41
676.695	15718.43
677.044	15664.87
677.393	15708.94
677.741	15679.79
678.09	15692.89
678.438	15637.98
678.787	15609.5
679.135	15596.62
679.484	15581.03
679.832	15731.54
680.181	15628.71
680.529	15632.33
680.877	15501.03
681.225	15534.93
681.573	15710.75
681.922	15567.92
682.27	15534.7
682.618	15535.83
682.966	15484.31
683.314	15569.96
683.661	15402.28
684.009	15517.53
684.357	15430.75
684.705	15422.62
685.053	15481.15
685.4	15519.11
685.748	15366.57
686.095	15450.19
686.443	15288.61
686.79	15322.73
687.138	15421.71
687.485	15412.67
687.832	15371.09
688.18	15432.79
688.527	15320.92
688.874	15303.07
689.221	15240.7
689.568	15212.45
689.915	15224.43
690.262	15282.96
690.609	15176.75
690.956	15161.38
691.303	15168.39
691.65	15123.19
691.997	15033.93
692.344	14930.88
692.69	14982.63
693.037	15042.74
693.383	14969.3
693.73	14936.08
694.077	14895.63
694.423	14961.61
694.769	14861.28
695.116	14881.39
695.462	14884.33
695.808	14857.89
696.155	14788.96
696.501	14698.34
696.847	14689.08
697.193	14633.49
697.539	14822.86
697.885	14624.22
698.231	14620.83
698.577	14615.63
698.923	14572.7
699.269	14633.71
699.614	14591.45
699.96	14542.41
700.306	14445.47
700.651	14576.31
700.997	14417.45
701.342	14472.13
701.688	14353.04
702.033	14304
702.379	14356.66
702.724	14393.72
703.069	14391.68
703.415	14295.64
703.76	14233.27
704.105	14300.61
704.45	14202.99
704.795	14199.6
705.14	14134.74
705.485	14127.96
705.83	14070.79
706.175	14145.14
706.52	14078.92
706.865	13997.34
707.209	13975.2
707.554	13975.88
707.899	14008.19
708.243	13905.14
708.588	13955.31
708.932	13880.51
709.277	13839.38
709.621	13866.95
709.966	13804.35
710.31	13914.86
710.654	13787.41
710.998	13799.61
711.342	13780.63
711.687	13763.23
712.031	13725.03
712.375	13692.72
712.719	13694.75
713.063	13631.48
713.407	13767.52
713.75	13685.26
714.094	13636.68
714.438	13615.88
714.782	13621.53
715.125	13617.01
715.469	13572.27
715.812	13532.95
716.156	13520.52
716.499	13510.12
716.843	13485.27
717.186	13398.04
717.53	13466.28
717.873	13531.14
718.216	13421.77
718.559	13377.25
718.902	13316.01
719.246	13361.88
719.589	13395.55
719.932	13234.88
720.275	13317.59
720.617	13346.29
720.96	13318.49
721.303	13381.09
721.646	13351.49
721.989	13301.77
722.331	13363.01
722.674	13287.76
723.016	13272.84
723.359	13268.55
723.701	13219.96
724.044	13162.56
724.386	13151.72
724.729	13276.23
725.071	13135.22
725.413	13172.96
725.755	13122.34
726.097	13148.78
726.439	13112.62
726.782	13089.8
727.124	13112.85
727.465	13032.4
727.807	13009.57
728.149	13044.37
728.491	13007.31
728.833	13098.38
729.175	12996.69
729.516	12951.27
729.858	12965.73
730.199	13009.57
730.541	12975.68
730.882	12919.18
731.224	12976.13
731.565	12949.46
731.906	12862.46
732.248	12915.34
732.589	12880.54
732.93	12768.22
733.271	12890.03
733.612	12825.62
733.953	12859.29
734.294	12827.88
734.635	12773.42
734.976	12811.39
735.317	12706.08
735.658	12804.61
735.999	12696.14
736.339	12719.64
736.68	12756.7
737.021	12694.55
737.361	12651.39
737.702	12697.94
738.042	12690.94
738.383	12601.9
738.723	12699.52
739.063	12635.35
739.404	12626.53
739.744	12576.82
740.084	12566.87
740.424	12569.13
740.764	12637.61
741.104	12609.81
741.444	12575.46
741.784	12441.68
742.124	12607.1
742.464	12541.34
742.804	12455.24
743.143	12492.98
743.483	12560.77
743.823	12375.01
744.162	12410.27
744.502	12406.88
744.841	12363.71
745.181	12374.56
745.52	12332.98
745.86	12302.93
746.199	12305.18
746.538	12260.67
746.877	12298.86
747.216	12265.86
747.556	12289.37
747.895	12277.39
748.234	12290.72
748.573	12201.91
748.911	12234.45
749.25	12173.66
749.589	12218.63
749.928	12066.55
750.267	12109.26
750.605	12125.75
750.944	12108.35
751.283	11979.77
751.621	12029.26
751.96	11974.35
752.298	12005.76
752.636	11982.71
752.975	11883.5
753.313	11834.24
753.651	11914.69
753.989	11827.68
754.327	11799.21
754.666	11657.74
755.004	11798.53
755.342	11810.73
755.679	11695.71
756.017	11634.92
756.355	11646.45
756.693	11567.35
757.031	11681.25
757.368	11592.44
757.706	11478.99
758.044	11526
758.381	11515.6
758.719	11480.35
759.056	11430.63
759.394	11361.03
759.731	11374.14
760.068	11368.49
760.405	11314.7
760.743	11244.42
761.08	11224.99
761.417	11182.5
761.754	11157.64
762.091	11179.34
762.428	11129.62
762.765	11027.48
763.102	11054.82
763.438	11102.73
763.775	10976.41
764.112	11067.48
764.449	11016.63
764.785	10983.64
765.122	10876.97
765.458	10798.33
765.795	10813.47
766.131	10782.29
766.467	10773.25
766.804	10661.16
767.14	10643.53
767.476	10648.73
767.812	10546.59
768.148	10587.49
768.485	10541.62
768.821	10443.99
769.157	10394.05
769.492	10434.27
769.828	10394.95
770.164	10272.47
770.5	10288.51
770.836	10242.41
771.171	10199.25
771.507	10220.95
771.842	10100.05
772.178	10046.49
772.513	10113.6
772.849	10035.19
773.184	10016.88
773.519	9963.55
773.855	9975.3
774.19	9938.02
774.525	9853.95
774.86	9883.55
775.195	9821.63
775.53	9730.56
775.865	9768.53
776.2	9661.86
776.535	9596.33
776.87	9578.48
777.205	9489.44
777.539	9467.52
777.874	9526.95
778.209	9425.26
778.543	9373.06
778.878	9382.32
779.212	9371.7
779.547	9341.42
779.881	9339.84
780.215	9234.98
780.55	9210.58
780.884	9144.82
781.218	9173.52
781.552	9158.6
781.886	9112.95
782.22	8994.31
782.554	8974.2
782.888	8967.19
783.222	8865.28
783.556	8856.69
783.889	8848.78
784.223	8827.31
784.557	8736.01
784.89	8754.77
785.224	8728.1
785.557	8740.31
785.891	8633.64
786.224	8676.13
786.558	8571.95
786.891	8447.43
787.224	8537.83
787.557	8419.19
787.891	8453.08
788.224	8428.22
788.557	8439.75
788.89	8415.8
789.223	8404.27
789.556	8306.65
789.888	8266.65
790.221	8255.57
790.554	8175.12
790.887	8184.84
791.219	8173.09
791.552	8119.76
791.884	8084.5
792.217	8037.05
792.549	8013.77
792.882	7960.44
793.214	7874.34
793.546	7961.57
793.879	7811.74
794.211	7811.52
794.543	7854.91
794.875	7775.81
795.207	7863.72
795.539	7710.5
795.871	7785.98
796.203	7630.51
796.535	7670.5
796.867	7617.85
797.198	7574.69
797.53	7552.54
797.862	7570.62
798.193	7491.07
798.525	7481.81
798.856	7544.18
799.188	7417.4
799.519	7410.17
799.85	7312.32
800.182	7298.76
800.513	7307.12
800.844	7281.59
801.175	7270.52
801.506	7288.14
801.837	7195.49
802.168	7232.78
802.499	7221.93
802.83	7144.64
803.161	7059.22
803.491	7162.95
803.822	7173.57
804.153	7062.16
804.483	7031.65
804.814	6957.75
805.145	6953.46
805.475	6933.8
805.805	6992.33
806.136	6910.52
806.466	6871.43
806.796	6812.9
807.126	6831.66
807.457	6878.43
807.787	6795.05
808.117	6793.24
808.447	6734.71
808.777	6733.13
809.107	6676.41
809.436	6661.49
809.766	6675.5
810.096	6643.86
810.426	6602.06
810.755	6607.71
811.085	6631.44
811.414	6585.56
811.744	6522.74
812.073	6481.61
812.403	6471.67
812.732	6492
813.061	6470.76
813.39	6442.51
813.719	6432.57
814.049	6435.28
814.378	6375.85
814.707	6355.51
815.036	6370.88
815.365	6312.35
815.693	6269.86
816.022	6256.3
816.351	6299.02
816.68	6254.5
817.008	6229.86
817.337	6220.6
817.665	6187.83
817.994	6200.26
818.322	6145.8
818.651	6117.33
818.979	6147.83
819.307	6146.25
819.636	6143.31
819.964	6021.28
820.292	6031.23
820.62	6093.37
820.948	6012.47
821.276	6033.26
821.604	6021.96
821.932	6025.58
822.259	6012.92
822.587	6087.04
822.915	5972.24
823.243	6012.92
823.57	6064.9
823.898	6007.27
824.225	6039.13
824.553	5964.56
824.88	6012.47
825.207	6032.36
825.535	5988.51
825.862	5948.06
826.189	5965.69
826.516	5959.82
826.843	6021.96
827.17	5951.68
827.497	5954.62
827.824	5955.97
828.151	5914.39
828.478	5965.92
828.805	5981.96
829.131	5907.84
829.458	5892.92
829.785	5874.85
830.111	5913.71
830.438	5905.58
830.764	5924.11
831.09	5859.7
831.417	5897.44
831.743	5866.71
832.069	5882.3
832.395	5901.96
832.722	5841.4
833.048	5875.52
833.374	5854.28
833.7	5804.56
834.026	5824
834.351	5837.33
834.677	5805.02
835.003	5827.39
835.329	5795.98
835.654	5807.95
835.98	5789.2
836.306	5802.31
836.631	5792.81
836.956	5768.18
837.282	5786.26
837.607	5721.18
837.932	5703.55
838.258	5741.29
838.583	5733.38
838.908	5695.87
839.233	5665.13
839.558	5694.96
839.883	5620.39
840.208	5654.74
840.533	5613.84
840.858	5595.76
841.182	5630.78
841.507	5562.31
841.832	5577
842.156	5519.83
842.481	5548.75
842.805	5529.77
843.13	5475.53
843.454	5498.81
843.778	5482.77
844.103	5487.29
844.427	5512.14
844.751	5492.26
845.075	5452.26
845.399	5417.68
845.723	5376.33
846.047	5391.24
846.371	5335.88
846.695	5294.07
847.019	5309.89
847.343	5285.93
847.666	5227.4
847.99	5279.38
848.313	5234.86
848.637	5193.28
848.96	5180.85
849.284	5165.03
849.607	5101.98
849.931	5122.55
850.254	5097.01
850.577	5077.35
850.9	5024.25
851.223	5025.15
851.546	5036.22
851.869	4926.17
852.192	4962.1
852.515	4958.71
852.838	4888.43
853.161	4899.5
853.483	4873.74
853.806	4826.29
854.129	4873.74
854.451	4830.58
854.774	4784.03
855.096	4834.19
855.419	4763.46
855.741	4805.27
856.063	4755.33
856.385	4761.88
856.708	4740.86
857.03	4695.22
857.352	4704.48
857.674	4673.3
857.996	4713.52
858.318	4691.6
858.64	4650.02
858.961	4692.96
859.283	4644.37
859.605	4581.55
859.926	4624.48
860.248	4570.25
860.57	4565.5
860.891	4573.86
861.212	4566.86
861.534	4567.54
861.855	4527.76
862.176	4511.94
862.498	4533.64
862.819	4527.54
863.14	4489.8
863.461	4468.1
863.782	4482.11
864.103	4463.81
864.424	4461.55
864.745	4460.87
865.065	4419.74
865.386	4379.97
865.707	4422.91
866.027	4415.22
866.348	4410.7
866.668	4424.71
866.989	4380.87
867.309	4357.6
867.63	4361.89
867.95	4346.3
868.27	4295.45
868.59	4347.43
868.91	4329.12
869.23	4384.04
869.55	4338.61
869.87	4337.94
870.19	4310.14
870.51	4344.49
870.83	4293.19
871.15	4248.45
871.469	4266.07
871.789	4250.03
872.109	4285.06
872.428	4285.06
872.748	4264.04
873.067	4239.63
873.386	4242.35
873.706	4232.4
874.025	4236.92
874.344	4250.26
874.663	4185.85
874.982	4230.82
875.301	4197.83
875.62	4184.04
875.939	4147.89
876.258	4178.62
876.577	4130.03
876.896	4131.39
877.214	4117.83
877.533	4108.11
877.852	4124.84
878.17	4103.82
878.489	4158.96
878.807	4137.26
879.125	4132.52
879.444	4136.59
879.762	4071.5
880.08	4083.48
880.398	4064.5
880.716	4072.41
881.034	4018.17
881.352	4036.02
881.67	4002.8
881.988	4019.75
882.306	4055.68
882.624	4040.77
882.941	3989.92
883.259	3998.06
883.577	3985.4
883.894	3978.17
884.212	3969.13
884.529	3956.48
884.846	3921.22
885.164	3910.6
885.481	3921.22
885.798	3953.31
886.115	3895.91
886.432	3928.91
886.75	3913.54
887.067	3856.14
887.383	3867.44
887.7	3899.3
888.017	3875.58
888.334	3899.76
888.651	3850.04
888.967	3833.54
889.284	3839.42
889.6	3804.84
889.917	3825.63
890.233	3815.46
890.55	3763.94
890.866	3781.79
891.182	3745.18
891.498	3758.74
891.815	3746.54
892.131	3721
892.447	3694.11
892.763	3688.24
893.079	3715.13
893.395	3706.77
893.71	3679.2
894.026	3670.61
894.342	3659.76
894.657	3653.66
894.973	3666.54
895.289	3647.33
895.604	3628.58
895.92	3630.38
896.235	3617.5
896.55	3562.59
896.865	3560.56
897.181	3604.17
897.496	3578.63
897.811	3530.05
898.126	3536.6
898.441	3556.49
898.756	3529.14
899.071	3528.92
899.386	3474
899.7	3459.54
900.015	3461.35
900.33	3437.85
900.644	3444.63
900.959	3414.57
901.273	3437.4
901.588	3429.49
901.902	3410.28
902.216	3396.49
902.531	3375.25
902.845	3370.5
903.159	3360.56
903.473	3364.18
903.787	3330.05
904.101	3340
904.415	3317.4
904.729	3286.21
905.042	3295.7
905.356	3272.88
905.67	3258.87
905.984	3258.42
906.297	3235.14
906.611	3254.8
906.924	3265.42
907.237	3184.29
907.551	3189.27
907.864	3220.23
908.177	3188.81
908.491	3175.93
908.804	3156.95
909.117	3168.25
909.43	3114.24
909.743	3069.5
910.056	3092.77
910.368	3067.91
910.681	3097.29
910.994	3030.4
911.307	3060.23
911.619	3036.95
911.932	3059.55
912.244	3025.43
912.557	3005.99
912.869	3008.25
913.181	2980.68
913.494	3004.41
913.806	2972.55
914.118	2954.02
914.43	2985.88
914.742	2972.32
915.054	2887.81
915.366	2917.86
915.678	2916.28
915.99	2905.66
916.302	2855.94
916.613	2860.01
916.925	2853.91
917.236	2846.9
917.548	2843.29
917.859	2857.98
918.171	2855.26
918.482	2793.57
918.794	2766.45
919.105	2812.33
919.416	2762.38
919.727	2736.17
920.038	2776.62
920.349	2735.27
920.66	2748.15
920.971	2711.99
921.282	2728.71
921.593	2705.89
921.903	2697.3
922.214	2671.09
922.525	2657.3
922.835	2654.37
923.146	2651.43
923.456	2649.85
923.767	2653.91
924.077	2618.43
924.387	2622.95
924.697	2590.41
925.008	2612.78
925.318	2578.21
925.628	2573.01
925.938	2590.86
926.248	2573.24
926.558	2507.7
926.867	2546.12
927.177	2503.18
927.487	2527.81
927.796	2500.47
928.106	2501.6
928.416	2461.83
928.725	2467.7
929.034	2450.98
929.344	2472.22
929.653	2490.08
929.962	2434.26
930.271	2418.89
930.581	2392
930.89	2418.67
931.199	2406.24
931.508	2404.43
931.817	2402.62
932.125	2392.45
932.434	2371.43
932.743	2345.22
933.051	2340.48
933.36	2321.27
933.669	2325.56
933.977	2328.27
934.286	2306.35
934.594	2302.51
934.902	2314.49
935.21	2303.87
935.519	2291.89
935.827	2304.77
936.135	2266.8
936.443	2267.03
936.751	2227.94
937.059	2242.4
937.367	2226.58
937.674	2236.75
937.982	2222.96
938.29	2200.14
938.597	2224.09
938.905	2189.29
939.213	2222.96
939.52	2170.99
939.827	2186.81
940.135	2189.52
940.442	2133.25
940.749	2156.07
941.056	2145.68
941.363	2097.32
941.67	2110.65
941.977	2122.4
942.284	2116.07
942.591	2053.25
942.898	2086.02
943.205	2112.68
943.511	2062.97
943.818	2061.61
944.125	2048.73
944.431	2039.24
944.738	2045.34
945.044	2038.34
945.35	2046.7
945.657	2042.86
945.963	2006.25
946.269	2030.65
946.575	1995.85
946.881	1984.33
947.187	1962.86
947.493	1953.14
947.799	1991.56
948.105	1967.83
948.41	1942.52
948.716	1954.72
949.022	1945.23
949.327	1921.96
949.633	1894.61
949.938	1909.98
950.244	1944.33
950.549	1902.52
950.854	1901.84
951.16	1924.44
951.465	1899.36
951.77	1874.95
952.075	1863.88
952.38	1853.93
952.685	1879.92
952.99	1814.16
953.294	1836.08
953.599	1834.05
953.904	1817.55
954.209	1828.17
954.513	1801.28
954.818	1794.95
955.122	1790.66
955.426	1781.17
955.731	1792.69
956.035	1772.13
956.339	1777.78
956.643	1794.5
956.948	1750.89
957.252	1757.21
957.556	1761.96
957.86	1749.3
958.163	1745.24
958.467	1749.98
958.771	1739.81
959.075	1725.12
959.378	1696.42
959.682	1709.98
959.985	1704.79
960.289	1695.75
960.592	1683.09
960.896	1655.97
961.199	1662.75
961.502	1650.32
961.805	1662.98
962.108	1644.67
962.411	1651.23
962.714	1636.31
963.017	1674.5
963.32	1616.43
963.623	1633.15
963.926	1608.52
964.228	1610.55
964.531	1593.15
964.833	1604
965.136	1611.68
965.438	1574.39
965.741	1590.89
966.043	1588.18
966.345	1570.33
966.648	1551.8
966.95	1560.61
967.252	1553.83
967.554	1556.77
967.856	1554.06
968.158	1557.44
968.46	1540.27
968.761	1540.04
969.063	1507.5
969.365	1523.32
969.666	1494.85
969.968	1499.37
970.269	1493.04
970.571	1483.1
970.872	1478.58
971.174	1462.53
971.475	1479.03
971.776	1507.28
972.077	1473.38
972.378	1462.31
972.679	1458.69
972.98	1471.35
973.281	1458.92
973.582	1469.09
973.883	1451.23
974.183	1472.7
974.484	1418.24
974.785	1434.74
975.085	1433.61
975.386	1402.65
975.686	1404.23
975.986	1437.22
976.287	1424.79
976.587	1377.79
976.887	1377.79
977.187	1385.47
977.487	1364.68
977.787	1375.75
978.087	1380.95
978.387	1359.48
978.687	1322.65
978.987	1368.75
979.286	1349.99
979.586	1347.73
979.885	1358.13
980.185	1345.7
980.484	1350.44
980.784	1352.25
981.083	1339.15
981.382	1358.13
981.682	1305.7
981.981	1317
982.28	1292.14
982.579	1307.73
982.878	1303.67
983.177	1296.66
983.475	1287.62
983.774	1305.93
984.073	1258.47
984.372	1291.69
984.67	1270.67
984.969	1242.88
985.267	1279.94
985.566	1247.62
985.864	1271.12
986.162	1263.22
986.461	1255.98
986.759	1246.49
987.057	1213.27
987.355	1194.74
987.653	1235.19
987.951	1233.61
988.249	1201.52
988.547	1203.33
988.844	1208.3
989.142	1194.52
989.44	1202.2
989.737	1203.33
990.035	1186.83
990.332	1156.78
990.63	1181.86
990.927	1168.53
991.224	1162.65
991.521	1159.72
991.819	1175.31
992.116	1178.47
992.413	1166.95
992.71	1159.94
993.006	1136.67
993.303	1140.28
993.6	1138.47
993.897	1126.72
994.193	1140.51
994.49	1111.13
994.787	1110.23
995.083	1124.46
995.379	1111.58
995.676	1107.74
995.972	1101.86
996.268	1090.79
996.565	1098.02
996.861	1092.37
997.157	1108.19
997.453	1069.32
997.749	1071.81
998.044	1047.85
998.34	1074.97
998.636	1062.32
998.932	1055.99
999.227	1066.38
999.523	1053.96
999.818	1042.43
1000.114	1049.44
1000.409	1040.17
1000.704	1019.61
1001	1045.37
1001.295	1012.83
1001.59	995.2
1001.885	1017.57
1002.18	1014.63
1002.475	1023
1002.77	1007.18
1003.065	987.52
1003.359	959.27
1003.654	983
1003.949	992.94
1004.243	943.68
1004.538	954.52
1004.832	976.67
1005.127	986.84
1005.421	957.46
1005.715	963.79
1006.009	953.17
1006.304	934.41
1006.598	936.44
1006.892	957.23
1007.186	950.46
1007.48	916.33
1007.773	927.86
1008.067	928.08
1008.361	906.61
1008.655	909.55
1008.948	888.54
1009.242	908.2
1009.535	893.73
1009.829	891.02
1010.122	911.13
1010.415	900.51
1010.708	870.01
1011.001	890.57
1011.295	864.81
1011.588	886.73
1011.881	899.84
1012.173	844.7
1012.466	860.97
1012.759	853.96
1013.052	852.83
1013.344	836.79
1013.637	837.01
1013.93	841.08
1014.222	840.85
1014.514	832.04
1014.807	828.88
1015.099	857.8
1015.391	815.32
1015.683	831.59
1015.976	827.29
1016.268	806.28
1016.56	797.69
1016.851	803.79
1017.143	799.5
1017.435	790.46
1017.727	797.92
1018.018	805.15
1018.31	780.97
1018.602	778.26
1018.893	759.5
1019.185	793.62
1019.476	766.73
1019.767	763.34
1020.058	758.82
1020.35	765.38
1020.641	755.88
1020.932	765.38
1021.223	761.76
1021.514	735.77
1021.804	741.87
1022.095	750.01
1022.386	732.16
1022.677	736.45
1022.967	738.26
1023.258	738.26
1023.548	723.34
1023.839	734.64
1024.129	723.34
1024.419	721.31
1024.709	698.48
1025	719.95
1025.29	701.65
1025.58	704.81
1025.87	722.21
1026.16	673.85
1026.449	685.38
1026.739	672.27
1027.029	686.06
1027.319	685.15
1027.608	666.39
1027.898	681.99
1028.187	680.86
1028.477	667.75
1028.766	652.84
1029.055	661.88
1029.344	642.44
1029.634	659.39
1029.923	657.81
1030.212	641.08
1030.501	655.1
1030.79	625.49
1031.078	646.51
1031.367	632.27
1031.656	627.3
1031.945	608.54
1032.233	636.57
1032.522	628.66
1032.81	593.18
1033.099	599.28
1033.387	637.47
1033.675	612.39
1033.963	626.17
1034.251	622.55
1034.54	614.64
1034.828	586.85
1035.116	610.58
1035.403	603.57
1035.691	582.33
1035.979	592.5
1036.267	582.78
1036.554	584.59
1036.842	576.23
1037.129	596.57
1037.417	587.3
1037.704	583.91
1037.992	573.29
1038.279	593.63
1038.566	573.97
1038.853	573.97
1039.14	573.97
