Data from brown_tile_FLMS001491_041.txt Node
Date: Tue Feb 07 10:37:33 GMT 2017
User: dcchb
Spectrometer: FLMS00149
Trigger mode: 0
Integration Time (sec): 2.000000E-2
Scans to average: 10
Electric dark correction enabled: true
Nonlinearity correction enabled: false
Boxcar width: 0
XAxis mode: Wavelengths
Number of Pixels in Spectrum: 2048
>>>>>Begin Spectral Data<<<<<
341.393	-23.11
341.776	-23.11
342.16	-23.11
342.543	-48.64
342.927	-58.81
343.31	-64.24
343.693	-74.18
344.077	-79.6
344.46	-75.31
344.843	-50
345.226	-50.9
345.61	-41.19
345.993	-2.09
346.376	-17.68
346.759	14.18
347.142	28.42
347.525	39.49
347.908	71.13
348.291	78.81
348.674	91.47
349.057	131.69
349.44	139.83
349.823	125.59
350.206	171.46
350.588	184.8
350.971	190.67
351.354	205.59
351.737	218.47
352.119	239.49
352.502	256.43
352.884	243.55
353.267	268.41
353.65	291.01
354.032	313.61
354.414	290.78
354.797	300.05
355.179	308.64
355.562	318.58
355.944	308.18
356.326	333.27
356.709	306.38
357.091	330.1
357.473	315.64
357.855	338.24
358.238	319.03
358.62	317.9
359.002	330.78
359.384	344.12
359.766	342.53
360.148	333.95
360.53	330.56
360.912	330.33
361.294	320.39
361.676	303.89
362.057	307.28
362.439	316.55
362.821	317.68
363.203	322.87
363.584	305.25
363.966	314.96
364.348	345.92
364.729	304.12
365.111	299.82
365.493	303.21
365.874	310.67
366.256	309.09
366.637	306.38
367.019	285.36
367.4	313.61
367.781	304.57
368.163	290.11
368.544	325.58
368.925	290.33
369.306	288.52
369.688	310.67
370.069	307.05
370.45	308.41
370.831	319.94
371.212	297.79
371.593	316.32
371.974	308.86
372.355	309.31
372.736	288.98
373.117	280.61
373.498	295.53
373.879	305.02
374.26	320.39
374.641	308.64
375.021	288.07
375.402	302.99
375.783	323.32
376.163	312.03
376.544	310.44
376.925	294.63
377.305	319.94
377.686	307.28
378.066	303.44
378.447	325.13
378.827	329.2
379.208	325.36
379.588	311.8
379.968	307.28
380.349	314.96
380.729	336.66
381.109	312.7
381.489	321.29
381.87	336.21
382.25	340.73
382.63	319.71
383.01	327.84
383.39	311.35
383.77	332.14
384.15	352.48
384.53	349.09
384.91	355.64
385.29	337.56
385.67	319.48
386.049	342.76
386.429	332.59
386.809	321.74
387.189	327.17
387.568	328.97
387.948	333.95
388.328	324.45
388.707	335.98
389.087	345.92
389.466	343.21
389.846	359.48
390.225	346.83
390.605	356.77
390.984	346.6
391.363	350.22
391.743	355.87
392.122	370.56
392.501	325.81
392.881	342.53
393.26	362.19
393.639	354.51
394.018	347.5
394.397	360.16
394.776	379.37
395.155	366.71
395.534	365.58
395.913	372.59
396.292	355.41
396.671	374.4
397.05	364.68
397.429	340.73
397.808	357
398.186	370.78
398.565	350.44
398.944	367.62
399.323	396.32
399.701	374.17
400.08	358.58
400.458	382.08
400.837	373.94
401.215	365.58
401.594	366.94
401.972	384.11
402.351	397.9
402.729	370.1
403.107	388.86
403.486	385.02
403.864	402.42
404.242	394.74
404.62	405.58
404.999	391.35
405.377	389.54
405.755	408.07
406.133	377.79
406.511	397.67
406.889	398.58
407.267	414.85
407.645	407.16
408.023	412.14
408.401	395.19
408.779	404
409.156	402.64
409.534	394.96
409.912	421.18
410.29	436.54
410.667	415.75
411.045	425.47
411.422	427.5
411.8	421.18
412.178	443.77
412.555	434.51
412.933	446.03
413.31	435.64
413.687	428.86
414.065	437.9
414.442	471.57
414.819	460.27
415.197	440.84
415.574	462.98
415.951	458.01
416.328	472.47
416.705	455.52
417.082	470.21
417.46	463.89
417.837	461.4
418.214	479.25
418.591	458.01
418.967	466.6
419.344	452.36
419.721	494.17
420.098	460.27
420.475	483.55
420.852	501.17
421.228	502.3
421.605	493.26
421.982	499.37
422.358	491.91
422.735	503.43
423.111	512.92
423.488	500.27
423.864	492.36
424.241	509.99
424.617	496.88
424.994	508.4
425.37	514.96
425.746	519.93
426.123	526.26
426.499	517.67
426.875	515.41
427.251	512.47
427.627	531.45
428.003	571.91
428.379	546.14
428.756	550.21
429.132	559.02
429.507	545.69
429.883	555.41
430.259	552.47
430.635	553.38
431.011	544.56
431.387	576.43
431.763	581.17
432.138	573.94
432.514	572.13
432.89	588.4
433.265	622.3
433.641	585.46
434.016	624.33
434.392	604.22
434.767	611.23
435.143	611.68
435.518	614.16
435.894	619.59
436.269	642.41
436.644	643.99
437.02	625.01
437.395	624.11
437.77	630.21
438.145	640.83
438.52	650.77
438.895	655.07
439.271	645.12
439.646	641.06
440.021	666.59
440.395	641.06
440.77	658.91
441.145	671.34
441.52	697.55
441.895	687.84
442.27	683.32
442.645	691.68
443.019	705.24
443.394	685.35
443.769	696.65
444.143	693.71
444.518	702.52
444.892	692.13
445.267	702.98
445.641	723.09
446.016	698.23
446.39	738.23
446.764	712.92
447.139	731.9
447.513	719.47
447.887	708.63
448.262	725.35
448.636	733.71
449.01	756.08
449.384	756.53
449.758	737.78
450.132	761.73
450.506	765.12
450.88	746.82
451.254	755.18
451.628	745.23
452.002	781.17
452.376	761.05
452.75	759.47
453.123	761.28
453.497	803.54
453.871	789.53
454.244	820.26
454.618	828.17
454.992	867.27
455.365	836.08
455.739	841.5
456.112	845.57
456.486	865.91
456.859	837.44
457.232	853.48
457.606	858.9
457.979	875.63
458.352	888.51
458.725	883.76
459.099	926.25
459.472	916.53
459.845	933.93
460.218	904.1
460.591	942.97
460.964	929.18
461.337	957.88
461.71	977.77
462.083	963.53
462.456	996.53
462.829	975.29
463.201	979.13
463.574	969.64
463.947	1004.66
464.32	1031.1
464.692	1019.8
465.065	1069.97
465.438	1037.66
465.81	1081.5
466.183	1043.53
466.555	1073.81
466.928	1093.02
467.3	1098.45
467.672	1107.94
468.045	1131.44
468.417	1139.57
468.789	1138.9
469.161	1137.54
469.534	1164.88
469.906	1159.91
470.278	1170.76
470.65	1198.1
471.022	1225.67
471.394	1215.28
471.766	1241.04
472.138	1274.26
472.51	1226.8
472.882	1290.53
473.253	1291.66
473.625	1317.87
473.997	1343.19
474.369	1319.23
474.74	1344.77
475.112	1372.56
475.484	1392
475.855	1389.74
476.227	1416.18
476.598	1445.1
476.97	1453.92
477.341	1497.31
477.713	1500.7
478.084	1505.89
478.455	1542.5
478.827	1542.05
479.198	1596.29
479.569	1590.86
479.94	1620.92
480.311	1627.92
480.682	1721.48
481.053	1700.69
481.424	1708.37
481.795	1729.16
482.166	1746.34
482.537	1778.2
482.908	1786.56
483.279	1826.56
483.65	1871.31
484.021	1890.97
484.391	1900.46
484.762	1904.07
485.133	1952.66
485.503	1933.45
485.874	1986.11
486.244	1988.82
486.615	2063.39
486.985	2104.29
487.356	2116.27
487.726	2118.98
488.097	2154.01
488.467	2173.67
488.837	2202.15
489.207	2200.56
489.578	2228.36
489.948	2271.75
490.318	2307.91
490.688	2284.63
491.058	2358.53
491.428	2348.81
491.798	2390.62
492.168	2441.69
492.538	2437.39
492.908	2436.94
493.278	2474.91
493.648	2487.34
494.017	2526.43
494.387	2554.68
494.757	2554
495.126	2594.23
495.496	2603.94
495.866	2617.95
496.235	2628.8
496.605	2639.65
496.974	2692.08
497.344	2695.69
497.713	2745.41
498.082	2726.88
498.452	2770.49
498.821	2794.45
499.19	2785.18
499.559	2799.42
499.928	2821.56
500.298	2837.16
500.667	2896.36
501.036	2911.51
501.405	2956.25
501.774	2925.52
502.143	2932.07
502.512	2966.65
502.88	2983.82
503.249	3022.91
503.618	3013.88
503.987	3034.44
504.356	3038.06
504.724	3091.61
505.093	3078.96
505.462	3148.56
505.83	3108.34
506.199	3135.45
506.567	3202.12
506.936	3203.93
507.304	3223.59
507.672	3288.22
508.041	3206.86
508.409	3310.82
508.777	3328.67
509.145	3329.35
509.514	3351.27
509.882	3354.43
510.25	3396.46
510.618	3431.04
510.986	3428.78
511.354	3430.59
511.722	3495.44
512.09	3513.3
512.458	3554.65
512.826	3570.7
513.193	3626.06
513.561	3619.74
513.929	3640.75
514.297	3661.99
514.664	3716.91
515.032	3686.17
515.4	3699.51
515.767	3793.29
516.135	3775.21
516.502	3744.7
516.869	3810.01
517.237	3813.85
517.604	3867.41
517.972	3893.85
518.339	3907.19
518.706	3910.35
519.073	3949.22
519.44	3956.45
519.808	4067.18
520.175	4061.98
520.542	4067.63
520.909	4111.93
521.276	4097.46
521.643	4121.64
522.009	4209.32
522.376	4257.91
522.743	4275.76
523.11	4312.15
523.477	4327.74
523.843	4374.29
524.21	4436.66
524.577	4451.58
524.943	4521.63
525.31	4563.44
525.676	4566.6
526.043	4581.07
526.409	4615.42
526.776	4683.44
527.142	4673.27
527.508	4736.77
527.874	4742.19
528.241	4796.2
528.607	4718.69
528.973	4832.13
529.339	4880.27
529.705	4907.39
530.071	4966.59
530.437	4966.37
530.803	5018.79
531.169	5030.77
531.535	5023.09
531.901	5069.87
532.267	5142.86
532.632	5120.94
532.998	5158.9
533.364	5197.09
533.73	5246.36
534.095	5263.08
534.461	5301.73
534.826	5366.58
535.192	5344.21
535.557	5430.76
535.923	5406.58
536.288	5392.57
536.653	5481.16
537.019	5521.83
537.384	5550.31
537.749	5550.98
538.114	5584.88
538.479	5608.84
538.845	5696.52
539.21	5647.48
539.575	5590.76
539.94	5722.05
540.305	5781.71
540.67	5736.29
541.034	5787.59
541.399	5848.15
541.764	5860.13
542.129	5881.82
542.494	5961.82
542.858	5935.38
543.223	5996.17
543.587	6026.9
543.952	6056.73
544.316	6082.72
544.681	6085.21
545.045	6162.72
545.41	6249.5
545.774	6230.29
546.138	6278.2
546.503	6291.76
546.867	6372.43
547.231	6388.93
547.595	6400.45
547.959	6485.65
548.324	6497.63
548.688	6530.17
549.052	6607.45
549.416	6623.72
549.779	6619.66
550.143	6652.88
550.507	6690.84
550.871	6813.78
551.235	6798.18
551.599	6823.49
551.962	6890.61
552.326	6905.52
552.689	7020.1
553.053	6985.52
553.417	7042.24
553.78	7116.82
554.143	7153.2
554.507	7232.3
554.87	7268
555.234	7416.92
555.597	7333.54
555.96	7397.26
556.323	7492.18
556.686	7559.74
557.05	7551.84
557.413	7642.91
557.776	7676.35
558.139	7816.24
558.502	7803.58
558.865	7887.19
559.228	7968.55
559.59	8010.13
559.953	8057.81
560.316	8135.32
560.679	8193.85
561.041	8285.6
561.404	8299.39
561.767	8448.76
562.129	8461.87
562.492	8591.36
562.854	8580.51
563.217	8631.58
563.579	8736.66
563.941	8806.27
564.304	8878.81
564.666	9024.79
565.028	9065.24
565.39	9129.19
565.753	9257.78
566.115	9335.52
566.477	9385.91
566.839	9449.19
567.201	9561.95
567.563	9603.98
567.925	9699.12
568.287	9736.86
568.648	9818.89
569.01	9904.09
569.372	9980.47
569.734	10053.24
570.095	10186.12
570.457	10196.96
570.819	10272.22
571.18	10325.1
571.542	10469.72
571.903	10468.37
572.265	10566.67
572.626	10684.86
572.987	10769.15
573.349	10787.68
573.71	10938.41
574.071	10959.88
574.432	11043.95
574.794	11209.59
575.155	11265.41
575.516	11229.93
575.877	11347.67
576.238	11423.6
576.599	11525.97
576.96	11548.57
577.32	11631.05
577.681	11712.63
578.042	11774.32
578.403	11839.41
578.763	11958.05
579.124	12006.86
579.485	12038.5
579.845	12142.68
580.206	12086.41
580.566	12193.75
580.927	12250.92
581.287	12399.39
581.648	12297.25
582.008	12420.18
582.368	12406.17
582.728	12516.9
583.089	12578.82
583.449	12666.28
583.809	12697.01
584.169	12747.4
584.529	12817.01
584.889	12910.79
585.249	12907.4
585.609	12834.18
585.969	13034.18
586.329	13016.32
586.688	13108.53
587.048	13085.25
587.408	13045.48
587.768	13167.96
588.127	13154.17
588.487	13262.42
588.846	13365.47
589.206	13207.28
589.565	13261.29
589.925	13404.34
590.284	13432.13
590.643	13487.27
591.003	13522.53
591.362	13654.73
591.721	13685.91
592.08	13622.86
592.44	13689.98
592.799	13769.75
593.158	13723.65
593.517	13784.21
593.876	13791.9
594.235	13858.34
594.593	13960.48
594.952	13980.82
595.311	13957.99
595.67	14014.49
596.029	14110.76
596.387	14099.69
596.746	14205.45
597.104	14082.29
597.463	14146.01
597.822	14277.31
598.18	14259.91
598.538	14290.87
598.897	14327.25
599.255	14338.1
599.613	14532.44
599.972	14501.94
600.33	14527.25
600.688	14529.73
601.046	14558.88
601.404	14553.23
601.762	14602.72
602.12	14684.08
602.478	14736.51
602.836	14720.23
603.194	14662.61
603.552	14802.72
603.91	14776.05
604.268	14908.48
604.625	14823.06
604.983	14887.46
605.341	14887.24
605.698	15010.4
606.056	15032.99
606.413	15025.09
606.771	15141.24
607.128	15105.31
607.485	15026.89
607.843	15077.06
608.2	15197.28
608.557	15288.36
608.914	15210.17
609.272	15325.19
609.629	15385.3
609.986	15427.11
610.343	15350.95
610.7	15539.65
611.057	15462.14
611.414	15449.48
611.771	15457.16
612.127	15617.84
612.484	15612.41
612.841	15642.47
613.198	15649.48
613.554	15569.25
613.911	15747.1
614.267	15742.13
614.624	15679.53
614.98	15739.42
615.337	15842.46
615.693	15772.41
616.05	15902.35
616.406	15830.04
616.762	15836.82
617.118	15951.84
617.475	15858.96
617.831	16007.88
618.187	15902.58
618.543	15945.74
618.899	16115.68
619.255	16059.41
619.611	16021.22
619.967	16155
620.323	16189.35
620.678	16080.2
621.034	16101.89
621.39	16138.73
621.746	16085.85
622.101	16202.68
622.457	16110.93
622.812	16244.26
623.168	16183.7
623.523	16246.75
623.879	16240.87
624.234	16126.98
624.589	16286.97
624.945	16262.11
625.3	16247.43
625.655	16321.77
626.01	16310.7
626.365	16288.1
626.72	16301.44
627.075	16247.88
627.43	16242.91
627.785	16236.58
628.14	16206.52
628.495	16363.36
628.85	16312.28
629.205	16207.65
629.559	16301.44
629.914	16265.5
630.269	16283.81
630.623	16254.88
630.978	16283.13
631.332	16259.4
631.687	16262.57
632.041	16276.58
632.396	16343.24
632.75	16216.69
633.104	16192.96
633.459	16153.87
633.813	16217.82
634.167	16180.99
634.521	16209.91
634.875	16213.98
635.229	16228.44
635.583	16065.06
635.937	16155.45
636.291	16085.85
636.645	16059.18
636.999	16003.59
637.352	16142.57
637.706	16066.41
638.06	16151.38
638.413	16016.47
638.767	16031.84
639.121	16042.23
639.474	15901.67
639.828	16097.6
640.181	15944.38
640.534	16059.18
640.888	15928.79
641.241	15899.86
641.594	15943.93
641.947	15985.96
642.301	15898.96
642.654	15923.14
643.007	15999.3
643.36	15883.82
643.713	15857.61
644.066	16043.36
644.419	15850.6
644.771	15738.06
645.124	15639.76
645.477	15577.61
645.83	15601.12
646.182	15515.69
646.535	15436.83
646.888	15493.32
647.24	15403.61
647.593	15563.83
647.945	15458.07
648.298	15394.79
648.65	15388.01
649.002	15348.69
649.355	15414.45
649.707	15228.92
650.059	15372.87
650.411	15554.11
650.763	15641.57
651.115	15827.32
651.467	15686.99
651.819	15705.75
652.171	15654.22
652.523	15649.7
652.875	15597.95
653.227	15560.44
653.578	15708.23
653.93	15605.86
654.282	15622.13
654.633	15548.91
654.985	15579.42
655.337	15674.33
655.688	15596.14
656.039	15674.56
656.391	15574.45
656.742	15508.91
657.094	15611.28
657.445	15648.12
657.796	15595.01
658.147	15609.7
658.498	15561.34
658.849	15601.34
659.2	15580.78
659.551	15575.81
659.902	15612.87
660.253	15618.52
660.604	15648.8
660.955	15617.16
661.306	15673.2
661.656	15550.72
662.007	15651.06
662.358	15640.21
662.708	15565.64
663.059	15569.7
663.409	15550.27
663.76	15638.85
664.11	15743.03
664.461	15689.25
664.811	15730.83
665.161	15693.77
665.511	15677.27
665.862	15712.52
666.212	15805.86
666.562	15659.42
666.912	15648.12
667.262	15682.47
667.612	15597.73
667.962	15706.65
668.312	15589.14
668.662	15692.64
669.011	15653.09
669.361	15665.75
669.711	15686.08
670.06	15661.68
670.41	15586.2
670.76	15667.55
671.109	15812.18
671.459	15695.58
671.808	15637.5
672.157	15713.43
672.507	15663.71
672.856	15636.82
673.205	15706.2
673.554	15725.63
673.904	15652.19
674.253	15787.55
674.602	15721.11
674.951	15407.67
675.3	15384.4
675.649	15641.11
675.998	15623.49
676.346	15596.14
676.695	15735.12
677.044	15515.92
677.393	15700.32
677.741	15635.46
678.09	15651.28
678.438	15608.8
678.787	15691.51
679.135	15668.01
679.484	15603.6
679.832	15651.06
680.181	15646.99
680.529	15705.75
680.877	15583.94
681.225	15566.31
681.573	15700.55
681.922	15496.26
682.27	15588.46
682.618	15586.65
682.966	15463.72
683.314	15582.13
683.661	15470.72
684.009	15413.78
684.357	15440.22
684.705	15412.19
685.053	15451.29
685.4	15477.5
685.748	15397.05
686.095	15388.47
686.443	15379.2
686.79	15307.79
687.138	15373.55
687.485	15437.28
687.832	15376.71
688.18	15409.93
688.527	15295.81
688.874	15313.89
689.221	15302.59
689.568	15260.33
689.915	15165.87
690.262	15253.1
690.609	15226.44
690.956	15145.53
691.303	15107.79
691.65	15079.77
691.997	15057.85
692.344	14947.35
692.69	15043.84
693.037	15011.53
693.383	14905.31
693.73	14975.59
694.077	14843.85
694.423	14969.95
694.769	14853.11
695.116	14919.78
695.462	14856.05
695.808	14735.83
696.155	14867.12
696.501	14737.86
696.847	14744.87
697.193	14616.51
697.539	14704.64
697.885	14626.45
698.231	14571.09
698.577	14677.75
698.923	14649.05
699.269	14558.66
699.614	14547.58
699.96	14489.28
700.306	14491.77
700.651	14427.59
700.997	14501.94
701.342	14430.98
701.688	14369.06
702.033	14311.21
702.379	14381.71
702.724	14359.11
703.069	14392.56
703.415	14223.3
703.76	14319.57
704.105	14271.21
704.45	14159.8
704.795	14139.68
705.14	14118.44
705.485	14160.7
705.83	14003.19
706.175	14075.05
706.52	14043.19
706.865	14101.72
707.209	14013.81
707.554	13935.85
707.899	14028.28
708.243	13942.63
708.588	13943.31
708.932	13908.73
709.277	13853.59
709.621	13857.88
709.966	13788.73
710.31	13874.15
710.654	13670.77
710.998	13798
711.342	13836.42
711.687	13731.11
712.031	13718.45
712.375	13752.58
712.719	13740.37
713.063	13686.59
713.407	13747.15
713.75	13695.18
714.094	13725.46
714.438	13603.43
714.782	13619.47
715.125	13558.01
715.469	13590.09
715.812	13519.14
716.156	13487.05
716.499	13535.86
716.843	13431.68
717.186	13456.09
717.53	13506.48
717.873	13525.01
718.216	13492.7
718.559	13391.23
718.902	13384.9
719.246	13467.61
719.589	13347.16
719.932	13265.13
720.275	13365.92
720.617	13358.69
720.96	13307.39
721.303	13276.2
721.646	13316.88
721.989	13285.24
722.331	13283.66
722.674	13238.01
723.016	13220.84
723.359	13185.36
723.701	13230.56
724.044	13219.71
724.386	13124.57
724.729	13174.74
725.071	13189.43
725.413	13201.86
725.755	13149.2
726.097	13053.39
726.439	13024.46
726.782	13037.34
727.124	13117.79
727.465	13034.86
727.807	13081.86
728.149	12974.52
728.491	13014.74
728.833	13049.09
729.175	12955.08
729.516	13028.08
729.858	13008.42
730.199	12997.57
730.541	13031.47
730.882	12966.83
731.224	13022.88
731.565	12934.74
731.906	12867.85
732.248	12922.99
732.589	12949.43
732.93	12843.67
733.271	12935.2
733.612	12858.59
733.953	12887.29
734.294	12870.11
734.635	12864.69
734.976	12820.17
735.317	12727.74
735.658	12779.04
735.999	12813.62
736.339	12687.52
736.68	12779.49
737.021	12741.76
737.361	12665.6
737.702	12724.81
738.042	12683
738.383	12666.5
738.723	12671.47
739.063	12652.49
739.404	12657.92
739.744	12601.87
740.084	12606.62
740.424	12600.29
740.764	12602.32
741.104	12472.61
741.444	12552.83
741.784	12445.49
742.124	12530.24
742.464	12475.55
742.804	12533.63
743.143	12440.75
743.483	12435.77
743.823	12452.27
744.162	12368.66
744.502	12505.6
744.841	12395.55
745.181	12491.14
745.52	12351.03
745.86	12401.2
746.199	12370.47
746.538	12335.44
746.877	12293.18
747.216	12312.16
747.556	12229.23
747.895	12265.38
748.234	12303.57
748.573	12201.66
748.911	12183.8
749.25	12166.63
749.589	12097.25
749.928	12182.45
750.267	12202.79
750.605	12114.65
750.944	12032.4
751.283	12069.91
751.621	11988.78
751.96	11940.87
752.298	11954.88
752.636	11984.49
752.975	11902.68
753.313	11834.66
753.651	11880.08
753.989	11860.87
754.327	11843.93
754.666	11723.7
755.004	11741.78
755.342	11751.5
755.679	11704.72
756.017	11645.96
756.355	11650.26
756.693	11688.9
757.031	11554.67
757.368	11613.88
757.706	11572.29
758.044	11531.39
758.381	11499.53
758.719	11488.23
759.056	11544.05
759.394	11460.43
759.731	11355.13
760.068	11361.45
760.405	11286.43
760.743	11159.65
761.08	11260.44
761.417	11166.66
761.754	11196.03
762.091	11231.96
762.428	11167.11
762.765	11085.3
763.102	11067.45
763.438	11055.25
763.775	10965.76
764.112	10967.56
764.449	10904.29
764.785	10903.16
765.122	10876.72
765.458	10859.77
765.795	10849.15
766.131	10874.01
766.467	10744.75
766.804	10629.72
767.14	10604.41
767.476	10623.17
767.812	10599.66
768.148	10624.3
768.485	10518.09
768.821	10519.67
769.157	10442.61
769.492	10455.04
769.828	10418.88
770.164	10307.24
770.5	10251.65
770.836	10281.26
771.171	10251.88
771.507	10179.79
771.842	10121.49
772.178	10163.74
772.513	10088.49
772.849	10053.46
773.184	10020.92
773.519	10034.26
773.855	9938.21
774.19	9902.96
774.525	9874.49
774.86	9888.72
775.195	9882.62
775.53	9773.47
775.865	9712.68
776.2	9647.37
776.535	9619.8
776.87	9629.52
777.205	9491.9
777.539	9490.77
777.874	9481.5
778.209	9417.55
778.543	9400.37
778.878	9427.27
779.212	9334.39
779.547	9339.58
779.881	9303.88
780.215	9290.55
780.55	9208.06
780.884	9202.64
781.218	9105.01
781.552	9090.55
781.886	9053.72
782.22	9074.96
782.554	9021.4
782.888	8924
783.222	8929.43
783.556	8820.05
783.889	8864.57
784.223	8708.19
784.557	8769.66
784.89	8756.32
785.224	8754.97
785.557	8702.54
785.891	8649.89
786.224	8699.6
786.558	8597.46
786.891	8473.39
787.224	8531.02
787.557	8499.38
787.891	8461.87
788.224	8489.89
788.557	8398.82
788.89	8298.26
789.223	8387.52
789.556	8263.68
789.888	8249.44
790.221	8290.57
790.554	8197.47
790.887	8181.88
791.219	8152.5
791.552	8141.2
791.884	8033.18
792.217	8069.34
792.549	7978.49
792.882	7960.86
793.214	7929.68
793.546	7929.23
793.879	7835.22
794.211	7861.43
794.543	7828.66
794.875	7835.9
795.207	7795.44
795.539	7690.81
795.871	7767.42
796.203	7634.32
796.535	7684.71
796.867	7604.49
797.198	7604.04
797.53	7597.48
797.862	7513.42
798.193	7531.04
798.525	7533.76
798.856	7433.42
799.188	7331.95
799.519	7389.81
799.85	7360.88
800.182	7324.72
800.513	7326.08
800.844	7250.6
801.175	7261.9
801.506	7279.53
801.837	7288.34
802.168	7244.05
802.499	7207.21
802.83	7118.17
803.161	7098.97
803.491	7099.42
803.822	7139.19
804.153	7068.68
804.483	7014.67
804.814	6982.58
805.145	7001.79
805.475	6968.35
805.805	6927.44
806.136	6919.76
806.466	6900.55
806.796	6810.16
807.126	6802.93
807.457	6796.83
807.787	6768.35
808.117	6782.82
808.447	6753.89
808.777	6759.31
809.107	6740.11
809.436	6656.49
809.766	6682.93
810.096	6688.13
810.426	6646.32
810.755	6586.44
811.085	6618.98
811.414	6582.14
811.744	6501.92
812.073	6604.52
812.403	6483.16
812.732	6444.52
813.061	6470.51
813.39	6439.1
813.719	6401.81
814.049	6407.91
814.378	6389.38
814.707	6400.68
815.036	6365.43
815.365	6308.93
815.693	6279.78
816.022	6250.85
816.351	6222.6
816.68	6171.98
817.008	6235.94
817.337	6106.68
817.665	6163.4
817.994	6217.63
818.322	6137.41
818.651	6125.21
818.979	6065.55
819.307	6152.78
819.636	6164.53
819.964	6056.51
820.292	6097.86
820.62	6067.58
820.948	6044.53
821.276	6062.61
821.604	6033.46
821.932	6050.41
822.259	6018.09
822.587	6080.01
822.915	5967.7
823.243	5992.1
823.57	5952.56
823.898	5993.91
824.225	5986.45
824.553	5942.39
824.88	5982.84
825.207	5999.33
825.535	5936.74
825.862	5973.57
826.189	5944.65
826.516	5939
826.843	5946.68
827.17	5920.92
827.497	5964.08
827.824	5940.13
828.151	5977.19
828.478	5923.18
828.805	5973.57
829.131	5915.49
829.458	5973.57
829.785	5826.46
830.111	5921.37
830.438	5948.71
830.764	5856.29
831.09	5896.06
831.417	5870.52
831.743	5874.59
832.069	5854.25
832.395	5842.95
832.722	5859.68
833.048	5846.12
833.374	5846.8
833.7	5759.57
834.026	5823.52
834.351	5818.55
834.677	5832.56
835.003	5800.92
835.329	5792.33
835.654	5810.86
835.98	5755.95
836.306	5832.11
836.631	5744.43
836.956	5744.88
837.282	5745.1
837.607	5775.84
837.932	5739.68
838.258	5743.75
838.583	5707.14
838.908	5673.92
839.233	5657.2
839.558	5667.82
839.883	5617.65
840.208	5633.02
840.533	5651.32
840.858	5630.98
841.182	5612.68
841.507	5596.63
841.832	5565.45
842.156	5541.72
842.481	5572.9
842.805	5567.03
843.13	5530.65
843.454	5482.51
843.778	5461.27
844.103	5498.56
844.427	5478.22
844.751	5480.48
845.075	5401.38
845.399	5395.73
845.723	5397.54
846.047	5374.27
846.371	5381.04
846.695	5329.75
847.019	5273.03
847.343	5323.19
847.666	5250.43
847.99	5253.14
848.313	5248.39
848.637	5159.36
848.96	5219.02
849.284	5166.14
849.607	5155.97
849.931	5131.56
850.254	5068.28
850.577	5078.91
850.9	5053.14
851.223	5001.17
851.546	5010.89
851.869	4998.68
852.192	4993.48
852.515	4943.09
852.838	4936.76
853.161	4870.1
853.483	4888.85
853.806	4889.08
854.129	4837.1
854.451	4881.4
854.774	4847.27
855.096	4850.21
855.419	4783.09
855.741	4790.33
856.063	4758.69
856.385	4803.21
856.708	4742.87
857.03	4734.73
857.352	4743.77
857.674	4710.33
857.996	4675.53
858.318	4663.78
858.64	4639.82
858.961	4650.22
859.283	4626.49
859.605	4617
859.926	4604.79
860.248	4615.19
860.57	4545.13
860.891	4576.09
861.212	4519.37
861.534	4546.72
861.855	4512.82
862.176	4518.92
862.498	4539.94
862.819	4511.24
863.14	4515.98
863.461	4533.16
863.782	4457
864.103	4465.59
864.424	4499.26
864.745	4475.98
865.065	4441.63
865.386	4433.95
865.707	4425.82
866.027	4440.28
866.348	4413.39
866.668	4354.63
866.989	4353.28
867.309	4363.44
867.63	4384.69
867.95	4408.42
868.27	4320.96
868.59	4387.17
868.91	4307.85
869.23	4316.44
869.55	4318.25
869.87	4326.61
870.19	4287.29
870.51	4290.68
870.83	4297.46
871.15	4275.09
871.469	4256.33
871.789	4247.74
872.109	4258.14
872.428	4256.1
872.748	4295.65
873.067	4243.67
873.386	4252.94
873.706	4234.86
874.025	4242.09
874.344	4192.83
874.663	4197.35
874.982	4200.74
875.301	4202.09
875.62	4158.93
875.939	4167.97
876.258	4182.66
876.577	4153.05
876.896	4169.33
877.214	4165.26
877.533	4119.84
877.852	4144.47
878.17	4120.29
878.489	4118.93
878.807	4138.82
879.125	4136.78
879.444	4096.11
879.762	4065.15
880.08	4078.25
880.398	4065.6
880.716	4061.31
881.034	4044.13
881.352	4050.23
881.67	4022.21
881.988	4024.7
882.306	4014.75
882.624	4005.49
882.941	4014.3
883.259	4058.82
883.577	4006.84
883.894	3961.2
884.212	4032.38
884.529	3989.9
884.846	3937.24
885.164	3995.77
885.481	3934.08
885.798	3972.72
886.115	3918.03
886.432	3936.56
886.75	3911.48
887.067	3885.04
887.383	3881.42
887.7	3902.21
888.017	3876.9
888.334	3889.33
888.651	3812.27
888.967	3868.09
889.284	3857.92
889.6	3816.11
889.917	3817.92
890.233	3812.72
890.55	3751.94
890.866	3771.14
891.182	3784.25
891.498	3780.64
891.815	3760.52
892.131	3710.35
892.447	3678.49
892.763	3720.52
893.079	3732.05
893.395	3664.03
893.71	3676.23
894.026	3666.51
894.342	3647.98
894.657	3646.4
894.973	3657.47
895.289	3678.04
895.604	3644.37
895.92	3655.44
896.235	3577.25
896.55	3566.4
896.865	3612.28
897.181	3608.21
897.496	3602.33
897.811	3527.53
898.126	3556.23
898.441	3474.2
898.756	3521.66
899.071	3481.43
899.386	3478.5
899.7	3476.46
900.015	3443.69
900.33	3478.95
900.644	3453.64
900.959	3404.83
901.273	3402.79
901.588	3426.97
901.902	3383.58
902.216	3368.89
902.531	3390.59
902.845	3358.95
903.159	3351.49
903.473	3319.63
903.787	3282.57
904.101	3338.61
904.415	3330.03
904.729	3313.75
905.042	3275.11
905.356	3259.52
905.67	3280.54
905.984	3239.63
906.297	3259.07
906.611	3205.51
906.924	3253.64
907.237	3241.21
907.551	3207.09
907.864	3193.31
908.177	3199.41
908.491	3162.57
908.804	3150.37
909.117	3163.48
909.43	3116.25
909.743	3099.52
910.056	3094.1
910.368	3098.39
910.681	3079.41
910.994	3062.46
911.307	3038.28
911.619	3025.17
911.932	3056.13
912.244	3008
912.557	3009.58
912.869	3013.65
913.181	2998.06
913.494	2975.46
913.806	2942.47
914.118	2979.3
914.43	2924.16
914.742	2953.99
915.054	2940.43
915.366	2924.61
915.678	2949.24
915.99	2901.56
916.302	2875.35
916.613	2864.95
916.925	2850.49
917.236	2869.02
917.548	2837.38
917.859	2867.89
918.171	2835.35
918.482	2787.89
918.794	2795.12
919.105	2809.59
919.416	2764.62
919.727	2797.84
920.038	2763.94
920.349	2740.21
920.66	2726.2
920.971	2744.28
921.282	2738.85
921.593	2736.59
921.903	2688.01
922.214	2709.25
922.525	2682.36
922.835	2683.04
923.146	2654.11
923.456	2655.69
923.767	2656.37
924.077	2624.28
924.387	2607.11
924.697	2585.64
925.008	2611.4
925.318	2586.54
925.628	2559.65
925.938	2578.63
926.248	2530.05
926.558	2553.32
926.867	2536.15
927.177	2510.84
927.487	2535.02
927.796	2524.62
928.106	2528.46
928.416	2504.96
928.725	2487.11
929.034	2452.76
929.344	2479.65
929.653	2495.47
929.962	2445.3
930.271	2469.71
930.581	2474.68
930.89	2427.22
931.199	2389.49
931.508	2458.64
931.817	2372.76
932.125	2398.98
932.434	2396.72
932.743	2368.24
933.051	2361.69
933.36	2353.1
933.669	2343.16
933.977	2323.5
934.286	2327.11
934.594	2308.58
934.902	2278.08
935.21	2298.64
935.519	2274.46
935.827	2282.82
936.135	2259.09
936.443	2243.05
936.751	2252.54
937.059	2232.88
937.367	2242.37
937.674	2206.67
937.982	2231.75
938.29	2207.8
938.597	2211.41
938.905	2200.79
939.213	2174.12
939.52	2170.06
939.827	2205.99
940.135	2164.41
940.442	2158.98
940.749	2132.32
941.056	2140.9
941.363	2142.26
941.67	2154.46
941.977	2099.1
942.284	2098.87
942.591	2100.68
942.898	2091.64
943.205	2087.12
943.511	2054.8
943.818	2079.21
944.125	2039.66
944.431	2046.44
944.738	2020.23
945.044	2039.21
945.35	2032.88
945.657	2047.35
945.963	2019.33
946.269	2007.57
946.575	2006.67
946.881	1967.8
947.187	1981.36
947.493	1975.71
947.799	1973
948.105	1962.6
948.41	1936.84
948.716	1932.1
949.022	1950.4
949.327	1941.36
949.633	1923.51
949.938	1914.7
950.244	1943.85
950.549	1919.44
950.854	1884.87
951.16	1898.65
951.465	1884.19
951.77	1876.28
952.075	1868.14
952.38	1843.28
952.685	1864.08
952.99	1849.16
953.294	1806.68
953.599	1840.12
953.904	1804.87
954.209	1826.34
954.513	1822.72
954.818	1801.48
955.122	1788.6
955.426	1774.36
955.731	1798.09
956.035	1771.87
956.339	1788.6
956.643	1763.74
956.948	1740.91
957.252	1755.6
957.556	1735.72
957.86	1749.73
958.163	1730.29
958.467	1723.51
958.771	1729.16
959.075	1718.77
959.378	1723.97
959.682	1706.79
959.985	1710.41
960.289	1701.37
960.592	1685.55
960.896	1669.5
961.199	1667.7
961.502	1680.8
961.805	1672.22
962.108	1662.05
962.411	1645.1
962.714	1650.3
963.017	1659.11
963.32	1610.52
963.623	1595.83
963.926	1616.85
964.228	1607.81
964.531	1609.84
964.833	1576.17
965.136	1606.45
965.438	1575.95
965.741	1596.29
966.043	1562.61
966.345	1582.73
966.648	1565.1
966.95	1578.89
967.252	1582.05
967.554	1567.81
967.856	1570.07
968.158	1533.01
968.46	1530.07
968.761	1515.38
969.063	1554.03
969.365	1542.95
969.666	1502.28
969.968	1499.57
970.269	1498.21
970.571	1522.62
970.872	1492.56
971.174	1527.36
971.475	1475.84
971.776	1508.83
972.077	1471.32
972.378	1457.08
972.679	1459.57
972.98	1449.62
973.281	1462.73
973.582	1454.59
973.883	1445.33
974.183	1450.98
974.484	1419.12
974.785	1431.32
975.085	1413.69
975.386	1408.95
975.686	1424.99
975.986	1400.13
976.287	1432.9
976.587	1381.6
976.887	1388.16
977.187	1408.49
977.487	1397.87
977.787	1386.57
978.087	1373.92
978.387	1401.26
978.687	1359.23
978.987	1353.58
979.286	1343.41
979.586	1343.41
979.885	1329.63
980.185	1354.71
980.484	1328.72
980.784	1318.1
981.083	1342.73
981.382	1295.05
981.682	1321.49
981.981	1306.58
982.28	1302.73
982.579	1284.66
982.878	1266.12
983.177	1304.54
983.475	1288.5
983.774	1299.12
984.073	1297.31
984.372	1281.27
984.67	1269.97
984.969	1250.98
985.267	1279.91
985.566	1269.74
985.864	1246.24
986.162	1240.81
986.461	1225
986.759	1227.71
987.057	1230.19
987.355	1227.48
987.653	1207.14
987.951	1188.61
988.249	1202.17
988.547	1204.66
988.844	1198.33
989.142	1195.39
989.44	1195.84
989.737	1168.95
990.035	1222.51
990.332	1166.24
990.63	1177.09
990.927	1165.79
991.224	1182.29
991.521	1191.78
991.819	1150.87
992.116	1150.65
992.413	1140.7
992.71	1127.6
993.006	1143.64
993.303	1133.7
993.6	1113.59
993.897	1126.24
994.193	1129.86
994.49	1099.35
994.787	1117.88
995.083	1088.73
995.379	1103.19
995.676	1124.21
995.972	1104.1
996.268	1103.87
996.565	1086.24
996.861	1075.62
997.157	1082.17
997.453	1074.72
997.749	1070.2
998.044	1063.42
998.34	1060.03
998.636	1047.83
998.932	1040.59
999.227	1043.08
999.523	1085.11
999.818	1052.12
1000.114	1022.06
1000.409	1016.41
1000.704	1020.48
1001	1026.81
1001.295	1040.82
1001.59	1011.22
1001.885	1008.73
1002.18	996.75
1002.475	1010.31
1002.77	1013.25
1003.065	985.91
1003.359	989.97
1003.654	1000.82
1003.949	993.36
1004.243	983.65
1004.538	979.8
1004.832	981.61
1005.127	965.79
1005.421	968.96
1005.715	955.4
1006.009	940.94
1006.304	945
1006.598	959.01
1006.892	956.08
1007.186	936.19
1007.48	914.27
1007.773	940.71
1008.067	927.83
1008.361	885.57
1008.655	933.25
1008.948	887.38
1009.242	915.85
1009.535	925.79
1009.829	908.62
1010.122	906.59
1010.415	891.22
1010.708	882.86
1011.001	897.1
1011.295	885.12
1011.588	865.46
1011.881	853.48
1012.173	877.89
1012.466	875.63
1012.759	883.31
1013.052	866.59
1013.344	868.17
1013.637	841.5
1013.93	860.26
1014.222	835.85
1014.514	828.85
1014.807	842.86
1015.099	830.66
1015.391	802.18
1015.683	819.58
1015.976	813.93
1016.268	804.22
1016.56	797.21
1016.851	801.73
1017.143	801.96
1017.435	806.93
1017.727	792.69
1018.018	808.96
1018.31	775.52
1018.602	801.5
1018.893	794.5
1019.185	755.4
1019.476	757.66
1019.767	765.57
1020.058	782.3
1020.35	776.19
1020.641	741.62
1020.932	774.39
1021.223	749.3
1021.514	724.44
1021.804	759.02
1022.095	720.83
1022.386	760.83
1022.677	724.9
1022.967	724.44
1023.258	703.43
1023.548	733.26
1023.839	718.12
1024.129	712.02
1024.419	733.48
1024.709	719.47
1025	707.27
1025.29	700.26
1025.58	682.41
1025.87	683.54
1026.16	685.8
1026.449	697.78
1026.739	670.89
1027.029	684.9
1027.319	693.71
1027.608	688.29
1027.898	677.21
1028.187	657.78
1028.477	666.82
1028.766	674.73
1029.055	644.9
1029.344	655.52
1029.634	660.94
1029.923	658.91
1030.212	645.12
1030.501	646.93
1030.79	618.68
1031.078	639.7
1031.367	626.37
1031.656	633.6
1031.945	636.54
1032.233	641.28
1032.522	627.05
1032.81	630.66
1033.099	616.65
1033.387	614.39
1033.675	613.49
1033.963	589.76
1034.251	600.83
1034.54	614.16
1034.828	606.03
1035.116	610.55
1035.403	609.19
1035.691	603.09
1035.979	618.23
1036.267	609.42
1036.554	603.54
1036.842	578.23
1037.129	589.53
1037.417	592.24
1037.704	609.64
1037.992	582.3
1038.279	578.69
1038.566	577.33
1038.853	577.33
1039.14	577.33
