Data from brown_tile_FLMS001491_003.txt Node
Date: Tue Feb 07 10:36:59 GMT 2017
User: dcchb
Spectrometer: FLMS00149
Trigger mode: 0
Integration Time (sec): 2.000000E-2
Scans to average: 10
Electric dark correction enabled: true
Nonlinearity correction enabled: false
Boxcar width: 0
XAxis mode: Wavelengths
Number of Pixels in Spectrum: 2048
>>>>>Begin Spectral Data<<<<<
341.393	-15.17
341.776	-15.17
342.16	-15.17
342.543	-44.77
342.927	-63.08
343.31	-70.76
343.693	-68.5
344.077	-57.2
344.46	-52.68
344.843	-44.09
345.226	-30.76
345.61	-42.74
345.993	-18.33
346.376	-11.33
346.759	18.28
347.142	22.8
347.525	19.41
347.908	63.02
348.291	83.81
348.674	89.46
349.057	99.63
349.44	116.58
349.823	146.18
350.206	151.83
350.588	193.64
350.971	192.28
351.354	204.94
351.737	211.94
352.119	228.44
352.502	237.71
352.884	242.68
353.267	256.69
353.65	279.96
354.032	267.99
354.414	293.75
354.797	297.82
355.179	305.95
355.562	312.73
355.944	305.05
356.326	301.88
356.709	317.7
357.091	315.44
357.473	327.19
357.855	303.92
358.238	322.9
358.62	323.81
359.002	322.45
359.384	350.25
359.766	324.71
360.148	322.9
360.53	327.65
360.912	323.35
361.294	338.95
361.676	329.68
362.057	320.19
362.439	323.13
362.821	319.51
363.203	290.36
363.584	310.02
363.966	311.38
364.348	320.87
364.729	300.08
365.111	319.51
365.493	290.59
365.874	300.98
366.256	312.96
366.637	308.44
367.019	302.11
367.4	299.62
367.781	311.6
368.163	280.64
368.544	299.17
368.925	308.21
369.306	284.71
369.688	326.97
370.069	287.2
370.45	301.43
370.831	330.36
371.212	291.72
371.593	305.5
371.974	314.54
372.355	317.7
372.736	304.82
373.117	310.02
373.498	310.02
373.879	306.86
374.26	286.52
374.641	287.2
375.021	281.32
375.402	305.27
375.783	303.92
376.163	317.7
376.544	321.09
376.925	310.02
377.305	324.71
377.686	313.64
378.066	307.08
378.447	334.65
378.827	313.18
379.208	310.25
379.588	309.12
379.968	321.32
380.349	318.61
380.729	317.48
381.109	291.26
381.489	292.85
381.87	331.71
382.25	334.65
382.63	322.68
383.01	343.24
383.39	336.46
383.77	340.98
384.15	315.44
384.53	341.88
384.91	335.33
385.29	339.62
385.67	340.53
386.049	331.94
386.429	326.06
386.809	337.59
387.189	356.12
387.568	342.56
387.948	350.47
388.328	335.33
388.707	326.06
389.087	321.55
389.466	332.84
389.846	349.34
390.225	345.95
390.605	365.16
390.984	347.99
391.363	354.54
391.743	363.35
392.122	343.69
392.501	359.51
392.881	356.12
393.26	367.19
393.639	353.63
394.018	359.28
394.397	369
394.776	350.7
395.155	369.45
395.534	367.65
395.913	367.19
396.292	381.66
396.671	394.99
397.05	366.29
397.429	358.38
397.808	374.43
398.186	368.55
398.565	373.75
398.944	369.45
399.323	371.94
399.701	396.8
400.08	384.14
400.458	391.15
400.837	387.76
401.215	376.01
401.594	391.83
401.972	377.36
402.351	393.63
402.729	405.38
403.107	382.56
403.486	377.59
403.864	413.07
404.242	421.43
404.62	385.5
404.999	411.03
405.377	387.76
405.755	405.16
406.133	416.01
406.511	412.62
406.889	420.75
407.267	417.59
407.645	430.92
408.023	427.08
408.401	415.1
408.779	436.8
409.156	440.19
409.534	436.57
409.912	436.8
410.29	433.41
410.667	437.02
411.045	457.81
411.422	455.33
411.8	452.16
412.178	452.84
412.555	479.51
412.933	447.64
413.31	458.04
413.687	467.53
414.065	469.34
414.442	456
414.819	476.34
415.197	471.6
415.574	474.31
415.951	494.65
416.328	480.86
416.705	483.35
417.082	511.14
417.46	505.72
417.837	509.11
418.214	479.96
418.591	474.08
418.967	492.61
419.344	505.5
419.721	511.82
420.098	488.32
420.475	507.98
420.852	491.94
421.228	520.64
421.605	488.77
421.982	530.35
422.358	507.08
422.735	512.27
423.111	513.18
423.488	507.08
423.864	550.24
424.241	537.58
424.617	542.56
424.994	521.09
425.37	558.38
425.746	538.71
426.123	547.75
426.499	551.82
426.875	567.64
427.251	553.4
427.627	561.09
428.003	575.1
428.379	587.75
428.756	578.26
429.132	589.79
429.507	603.57
429.883	579.62
430.259	572.16
430.635	591.59
431.011	620.97
431.387	631.37
431.763	638.15
432.138	636.79
432.514	606.51
432.89	622.1
433.265	623.01
433.641	657.13
434.016	644.25
434.392	663.91
434.767	642.89
435.143	658.03
435.518	649.22
435.894	672.72
436.269	705.26
436.644	682.44
437.02	677.92
437.395	691.7
437.77	707.75
438.145	696.9
438.52	702.78
438.895	703.91
439.271	713.85
439.646	736.68
440.021	732.16
440.395	721.31
440.77	706.39
441.145	727.41
441.52	727.41
441.895	730.8
442.27	754.3
442.645	745.94
443.019	740.97
443.394	746.39
443.769	741.42
444.143	775.54
444.518	789.33
444.892	761.31
445.267	745.49
445.641	776
446.016	796.79
446.39	773.74
446.764	784.36
447.139	799.72
447.513	791.59
447.887	797.24
448.262	801.98
448.636	791.59
449.01	821.19
449.384	818.71
449.758	828.2
450.132	860.51
450.506	854.41
450.88	824.81
451.254	822.32
451.628	823.68
452.002	861.42
452.376	864.81
452.75	878.14
453.123	867.75
453.497	890.12
453.871	880.17
454.244	885.15
454.618	898.25
454.992	916.78
455.365	917.24
455.739	928.99
456.112	924.92
456.486	956.78
456.859	951.36
457.232	973.96
457.606	960.4
457.979	940.96
458.352	974.41
458.725	998.36
459.099	990.91
459.472	1007.63
459.845	1025.93
460.218	1034.07
460.591	1021.41
460.964	1063.22
461.337	1054.86
461.71	1072.94
462.083	1069.1
462.456	1068.64
462.829	1078.36
463.201	1108.19
463.574	1113.16
463.947	1095.99
464.32	1138.92
464.692	1121.07
465.065	1140.96
465.438	1140.96
465.81	1181.41
466.183	1183.22
466.555	1209.88
466.928	1223.89
467.3	1213.27
467.672	1268.41
468.045	1283.1
468.417	1246.72
468.789	1262.99
469.161	1295.98
469.534	1274.06
469.906	1319.26
470.278	1331.01
470.65	1334.85
471.022	1361.74
471.394	1395.87
471.766	1373.72
472.138	1406.04
472.51	1403.78
472.882	1447.39
473.253	1446.49
473.625	1463.21
473.997	1496.2
474.369	1526.49
474.74	1518.35
475.112	1541.17
475.484	1605.13
475.855	1569.42
476.227	1572.36
476.598	1648.74
476.97	1678.57
477.341	1687.39
477.713	1705.01
478.084	1684.67
478.455	1747.04
478.827	1752.02
479.198	1789.3
479.569	1795.4
479.94	1839.47
480.311	1842.18
480.682	1901.62
481.053	1927.15
481.424	1939.58
481.795	1918.34
482.166	2009.86
482.537	2011.67
482.908	2061.84
483.279	2068.84
483.65	2123.76
484.021	2119.69
484.391	2198.78
484.762	2175.51
485.133	2187.26
485.503	2214.38
485.874	2272.68
486.244	2268.16
486.615	2317.2
486.985	2344.77
487.356	2388.38
487.726	2410.76
488.097	2448.49
488.467	2466.8
488.837	2521.04
489.207	2522.39
489.578	2545.67
489.948	2587.47
490.318	2628.6
490.688	2642.39
491.058	2662.73
491.428	2677.19
491.798	2716.28
492.168	2761.48
492.538	2787.92
492.908	2834.93
493.278	2863.85
493.648	2859.78
494.017	2902.95
494.387	2943.62
494.757	2964.64
495.126	2975.49
495.496	2944.08
495.866	2990.63
496.235	3036.05
496.605	3059.1
496.974	3070.17
497.344	3111.08
497.713	3130.96
498.082	3153.79
498.452	3206.67
498.821	3196.27
499.19	3179.78
499.559	3240.34
499.928	3260.68
500.298	3267.91
500.667	3322.37
501.036	3283.28
501.405	3344.74
501.774	3333.67
502.143	3347.45
502.512	3383.61
502.88	3396.94
503.249	3393.1
503.618	3457.96
503.987	3472.65
504.356	3513.55
504.724	3505.64
505.093	3542.03
505.462	3584.51
505.83	3581.35
506.199	3613.44
506.567	3665.19
506.936	3694.56
507.304	3689.59
507.672	3726.65
508.041	3707.67
508.409	3758.97
508.777	3793.09
509.145	3803.26
509.514	3823.15
509.882	3836.71
510.25	3889.14
510.618	3897.72
510.986	3890.49
511.354	3951.96
511.722	3959.42
512.09	4018.17
512.458	4024.95
512.826	4025.4
513.193	4105.85
513.561	4099.75
513.929	4179.97
514.297	4175.68
514.664	4241.44
515.032	4224.72
515.4	4259.97
515.767	4284.6
516.135	4323.93
516.502	4327.32
516.869	4376.81
517.237	4378.84
517.604	4433.75
517.972	4491.38
518.339	4455.45
518.706	4484.37
519.073	4559.4
519.44	4564.82
519.808	4563.24
520.175	4573.64
520.542	4621.09
520.909	4698.61
521.276	4703.58
521.643	4760.3
522.009	4825.16
522.376	4867.41
522.743	4918.94
523.11	4951.25
523.477	5005.72
523.843	4982.67
524.21	5067.18
524.577	5094.98
524.943	5127.07
525.31	5154.41
525.676	5195.99
526.043	5224.92
526.409	5270.57
526.776	5297.46
527.142	5339.72
527.508	5383.33
527.874	5393.05
528.241	5490.22
528.607	5445.03
528.973	5553.5
529.339	5534.97
529.705	5646.38
530.071	5656.32
530.437	5686.83
530.803	5710.1
531.169	5767.96
531.535	5717.79
531.901	5791.46
532.267	5886.14
532.632	5884.79
532.998	5943.09
533.364	5927.95
533.73	5986.03
534.095	6086.82
534.461	6087.5
534.826	6109.42
535.192	6162.97
535.557	6167.27
535.923	6198
536.288	6230.32
536.653	6232.35
537.019	6295.85
537.384	6302.63
537.749	6320.48
538.114	6384.66
538.479	6455.85
538.845	6402.52
539.21	6466.69
539.575	6498.11
539.94	6542.17
540.305	6572.68
540.67	6571.78
541.034	6576.3
541.399	6701.49
541.764	6690.87
542.129	6717.08
542.494	6740.13
542.858	6787.14
543.223	6864.2
543.587	6894.03
543.952	6902.84
544.316	6906.91
544.681	6968.83
545.045	7041.37
545.41	7106.23
545.774	7135.15
546.138	7180.57
546.503	7179.44
546.867	7219.44
547.231	7321.59
547.595	7329.72
547.959	7371.08
548.324	7304.41
548.688	7444.3
549.052	7516.84
549.416	7515.25
549.779	7583.73
550.143	7628.47
550.507	7685.42
550.871	7703.27
551.235	7761.8
551.599	7838.18
551.962	7870.05
552.326	7892.87
552.689	8007.22
553.053	7942.59
553.417	8035.92
553.78	8154.33
554.143	8164.28
554.507	8216.7
554.87	8254.9
555.234	8389.36
555.597	8354.78
555.96	8451.05
556.323	8461.22
556.686	8504.38
557.05	8746.63
557.413	8728.1
557.776	8757.48
558.139	8909.12
558.502	8852.85
558.865	9030.47
559.228	9173.06
559.59	9189.79
559.953	9185.72
560.316	9297.35
560.679	9319.95
561.041	9471.14
561.404	9574.18
561.767	9622.54
562.129	9610.79
562.492	9747.06
562.854	9839.04
563.217	9859.15
563.579	9966.94
563.941	10067.96
564.304	10170.1
564.666	10251.91
565.028	10307.05
565.39	10392.69
565.753	10500.49
566.115	10578.9
566.477	10699.8
566.839	10717.43
567.201	10832.23
567.563	10888.05
567.925	11032.22
568.287	11111.09
568.648	11188.83
569.01	11279
569.372	11396.06
569.734	11377.98
570.095	11582.49
570.457	11647.8
570.819	11713.56
571.18	11751.3
571.542	11895.48
571.903	11984.06
572.265	12052.54
572.626	12143.61
572.987	12282.59
573.349	12383.15
573.71	12450.27
574.071	12486.65
574.432	12633.54
574.794	12783.82
575.155	12880.76
575.516	12850.03
575.877	12944.94
576.238	12988.56
576.599	13086.41
576.96	13172.05
577.32	13253.63
577.681	13424.93
578.042	13494.98
578.403	13546.28
578.763	13530.69
579.124	13604.81
579.485	13672.83
579.845	13791.02
580.206	13768.88
580.566	13939.94
580.927	13935.65
581.287	13947.4
581.648	14034.18
582.008	14182.88
582.368	14186.72
582.728	14360.27
583.089	14334.06
583.449	14363.44
583.809	14442.3
584.169	14546.71
584.529	14554.62
584.889	14680.94
585.249	14659.7
585.609	14678.46
585.969	14772.69
586.329	14787.15
586.688	14877.32
587.048	14896.3
587.408	14888.62
587.768	14968.62
588.127	14970.43
588.487	15099.69
588.846	15162.06
589.206	15132.23
589.565	15165.45
589.925	15309.4
590.284	15334.94
590.643	15318.67
591.003	15382.84
591.362	15441.83
591.721	15430.3
592.08	15474.14
592.44	15563.86
592.799	15633.46
593.158	15663.74
593.517	15720.69
593.876	15741.48
594.235	15700.8
594.593	15886.11
594.952	15828.48
595.311	15795.04
595.67	15959.78
596.029	16098.98
596.387	16136.5
596.746	16232.31
597.104	16094.46
597.463	16120.9
597.822	16249.94
598.18	16105.09
598.538	16171.75
598.897	16411.07
599.255	16281.8
599.613	16557.28
599.972	16402.25
600.33	16517.5
600.688	16462.14
601.046	16578.74
601.404	16662.13
601.762	16615.58
602.12	16686.99
602.478	16722.24
602.836	16817.38
603.194	16679.53
603.552	16749.81
603.91	16712.07
604.268	16883.37
604.625	16828.46
604.983	16875.91
605.341	16880.21
605.698	17070.26
606.056	17054.21
606.413	16987.77
606.771	17136.92
607.128	17131.27
607.485	17060.77
607.843	17139.63
608.2	17352.96
608.557	17349.35
608.914	17255.34
609.272	17327.43
609.629	17497.14
609.986	17444.71
610.343	17336.92
610.7	17547.76
611.057	17555.89
611.414	17611.71
611.771	17540.3
612.127	17685.83
612.484	17663.69
612.841	17770.13
613.198	17689
613.554	17664.59
613.911	17820.29
614.267	17800.18
614.624	17835.66
614.98	17871.82
615.337	17929.67
615.693	17933.06
616.05	17881.76
616.406	18038.59
616.762	18050.57
617.118	18048.54
617.475	18031.59
617.831	18058.25
618.187	18139.16
618.543	18134.64
618.899	18247.63
619.255	18225.03
619.611	18327.4
619.967	18286.72
620.323	18304.12
620.678	18283.11
621.034	18266.16
621.39	18314.52
621.746	18265.71
622.101	18431.13
622.457	18291.24
622.812	18403.56
623.168	18402.43
623.523	18336.89
623.879	18480.39
624.234	18380.51
624.589	18388.64
624.945	18482.65
625.3	18424.57
625.655	18459.15
626.01	18431.8
626.365	18469.54
626.72	18451.01
627.075	18432.93
627.43	18454.85
627.785	18418.7
628.14	18416.66
628.495	18461.41
628.85	18466.6
629.205	18339.83
629.559	18463.89
629.914	18512.93
630.269	18371.69
630.623	18428.41
630.978	18396.1
631.332	18502.54
631.687	18419.37
632.041	18405.14
632.396	18509.99
632.75	18337.57
633.104	18354.97
633.459	18313.16
633.813	18314.29
634.167	18320.62
634.521	18313.61
634.875	18361.75
635.229	18269.55
635.583	18202.66
635.937	18139.61
636.291	18209.44
636.645	18323.56
636.999	18196.56
637.352	18233.84
637.706	18093.73
638.06	18183.22
638.413	18134.86
638.767	18166.5
639.121	18202.21
639.474	18062.77
639.828	18064.58
640.181	18164.24
640.534	18130.12
640.888	17996.79
641.241	17961.76
641.594	17982.1
641.947	18078.59
642.301	18056.45
642.654	18022.55
643.007	18028.88
643.36	18045.37
643.713	17974.87
644.066	18072.72
644.419	17849.67
644.771	17860.75
645.124	17643.8
645.477	17599.73
645.83	17463.69
646.182	17448.1
646.535	17347.31
646.888	17448.1
647.24	17371.04
647.593	17500.3
647.945	17477.48
648.298	17393.86
648.65	17282.23
649.002	17213.08
649.355	17370.59
649.707	17330.14
650.059	17410.36
650.411	17645.84
650.763	17712.05
651.115	17861.87
651.467	17836.56
651.819	17741.43
652.171	17775.32
652.523	17727.19
652.875	17750.01
653.227	17680.86
653.578	17738.49
653.93	17736.91
654.282	17681.99
654.633	17584.37
654.985	17626.4
655.337	17701.43
655.688	17722.9
656.039	17699.17
656.391	17584.37
656.742	17631.6
657.094	17706.85
657.445	17744.59
657.796	17660.75
658.147	17700.75
658.498	17576.46
658.849	17672.28
659.2	17661.43
659.551	17606.29
659.902	17589.34
660.253	17647.87
660.604	17684.93
660.955	17616.68
661.306	17678.6
661.656	17643.8
662.007	17668.89
662.358	17646.51
662.708	17651.71
663.059	17593.18
663.409	17561.32
663.76	17696.23
664.11	17660.52
664.461	17651.03
664.811	17678.15
665.161	17757.92
665.511	17679.73
665.862	17652.61
666.212	17719.28
666.562	17691.94
666.912	17678.15
667.262	17665.95
667.612	17709.56
667.962	17756.34
668.312	17731.93
668.662	17862.33
669.011	17784.36
669.361	17729.22
669.711	17808.09
670.06	17701.65
670.41	17708.21
670.76	17773.29
671.109	17812.61
671.459	17790.46
671.808	17771.26
672.157	17755.21
672.507	17635.21
672.856	17658.04
673.205	17747.08
673.554	17789.11
673.904	17719.96
674.253	17829.56
674.602	17642.22
674.951	17432.28
675.3	17418.72
675.649	17748.66
675.998	17656.91
676.346	17722.44
676.695	17782.56
677.044	17576.46
677.393	17624.82
677.741	17710.69
678.09	17645.38
678.438	17633.86
678.787	17625.95
679.135	17737.36
679.484	17646.74
679.832	17613.07
680.181	17565.84
680.529	17621.43
680.877	17651.03
681.225	17649.9
681.573	17729.68
681.922	17676.12
682.27	17560.64
682.618	17615.55
682.966	17546.18
683.314	17575.33
683.661	17540.3
684.009	17507.31
684.357	17461.21
684.705	17446.29
685.053	17423.69
685.4	17503.69
685.748	17408.1
686.095	17376.69
686.443	17373.3
686.79	17311.38
687.138	17360.19
687.485	17411.72
687.832	17394.99
688.18	17351.83
688.527	17268.67
688.874	17362.23
689.221	17255.79
689.568	17282
689.915	17112.97
690.262	17149.13
690.609	17092.63
690.956	17106.64
691.303	17032.97
691.65	16987.55
691.997	16994.1
692.344	16993.88
692.69	16951.84
693.037	17011.95
693.383	16817.83
693.73	16866.42
694.077	16794.33
694.423	16771.51
694.769	16735.58
695.116	16807.67
695.462	16746.2
695.808	16640.66
696.155	16805.18
696.501	16521.8
696.847	16619.87
697.193	16461.69
697.539	16531.29
697.885	16438.86
698.231	16402.7
698.577	16439.77
698.923	16464.62
699.269	16359.54
699.614	16345.76
699.96	16352.31
700.306	16311.86
700.651	16289.94
700.997	16208.13
701.342	16163.16
701.688	16219.88
702.033	16168.36
702.379	16202.26
702.724	16115.93
703.069	16218.3
703.415	16014.47
703.76	16064.86
704.105	16058.98
704.45	16038.87
704.795	15900.57
705.14	15960.68
705.485	15909.84
705.83	15818.99
706.175	15915.26
706.52	15801.14
706.865	15759.78
707.209	15807.92
707.554	15748.94
707.899	15860.12
708.243	15680.24
708.588	15693.57
708.932	15568.38
709.277	15615.38
709.621	15588.26
709.966	15550.98
710.31	15614.48
710.654	15456.51
710.998	15560.92
711.342	15505.55
711.687	15546.91
712.031	15447.25
712.375	15473.24
712.719	15400.92
713.063	15455.16
713.407	15451.54
713.75	15364.77
714.094	15325.9
714.438	15383.52
714.782	15386.01
715.125	15281.15
715.469	15225.79
715.812	15232.34
716.156	15246.35
716.499	15277.54
716.843	15296.07
717.186	15116.41
717.53	15163.19
717.873	15310.3
718.216	15155.96
718.559	15165.67
718.902	15110.08
719.246	15035.06
719.589	14994.15
719.932	14939.47
720.275	14848.39
720.617	15004.1
720.96	14956.41
721.303	14945.57
721.646	15001.16
721.989	14825.12
722.331	14969.52
722.674	14978.56
723.016	14898.56
723.359	14861.95
723.701	14938.34
724.044	14742.41
724.386	14700.6
724.729	14897.89
725.071	14798.23
725.413	14791.67
725.755	14866.25
726.097	14714.84
726.439	14685.24
726.782	14642.52
727.124	14790.32
727.465	14702.18
727.807	14685.24
728.149	14532.92
728.491	14624.45
728.833	14772.01
729.175	14595.07
729.516	14583.77
729.858	14627.84
730.199	14605.24
730.541	14557.1
730.882	14522.98
731.224	14561.4
731.565	14521.4
731.906	14567.72
732.248	14613.6
732.589	14468.97
732.93	14400.27
733.271	14486.82
733.612	14495.64
733.953	14434.17
734.294	14463.77
734.635	14462.42
734.976	14445.47
735.317	14402.98
735.658	14363.21
735.999	14343.55
736.339	14362.08
736.68	14343.32
737.021	14375.64
737.361	14296.09
737.702	14396.66
738.042	14322.31
738.383	14248.18
738.723	14199.37
739.063	14213.38
739.404	14258.13
739.744	14108.3
740.084	14177.23
740.424	14102.88
740.764	14186.04
741.104	14126.15
741.444	14145.59
741.784	14059.72
742.124	14087.96
742.464	14044.8
742.804	14045.48
743.143	13978.59
743.483	13977.23
743.823	13997.12
744.162	14022.65
744.502	14023.11
744.841	13871.25
745.181	13895.65
745.52	13864.92
745.86	13861.3
746.199	13842.09
746.538	13826.5
746.877	13859.49
747.216	13899.49
747.556	13777.69
747.895	13815.88
748.234	13723.45
748.573	13707.63
748.911	13683.45
749.25	13744.47
749.589	13647.3
749.928	13603.23
750.267	13753.51
750.605	13557.13
750.944	13637.35
751.283	13586.51
751.621	13505.38
751.96	13430.35
752.298	13434.87
752.636	13470.8
752.975	13357.81
753.313	13277.36
753.651	13427.64
753.989	13294.99
754.327	13243.01
754.666	13253.86
755.004	13252.5
755.342	13230.58
755.679	13161.89
756.017	13103.36
756.355	13114.66
756.693	13087.76
757.031	13007.77
757.368	13037.6
757.706	13023.81
758.044	12928.67
758.381	12937.71
758.719	12924.6
759.056	12931.84
759.394	12913.53
759.731	12781.78
760.068	12748.79
760.405	12664.72
760.743	12670.6
761.08	12718.96
761.417	12549.25
761.754	12567.32
762.091	12594.22
762.428	12528.91
762.765	12501.11
763.102	12497.95
763.438	12380.66
763.775	12334.79
764.112	12313.77
764.449	12327.56
764.785	12287.78
765.122	12236.71
765.458	12140.22
765.795	12081.46
766.131	12128.24
766.467	12056.6
766.804	11964.63
767.14	11990.62
767.476	11969.37
767.812	11809.6
768.148	11948.13
768.485	11894.8
768.821	11678.08
769.157	11771.19
769.492	11748.36
769.828	11685.54
770.164	11597.63
770.5	11623.62
770.836	11547.69
771.171	11489.39
771.507	11404.64
771.842	11268.6
772.178	11337.53
772.513	11319.67
772.849	11245.55
773.184	11238.77
773.519	11248.04
773.855	11143.18
774.19	11137.53
774.525	11047.14
774.86	11070.42
775.195	11000.36
775.53	10937.09
775.865	10791.1
776.2	10818.22
776.535	10768.73
776.87	10697.09
777.205	10662.97
777.539	10675.4
777.874	10614.83
778.209	10536.64
778.543	10510.2
778.878	10545.01
779.212	10474.05
779.547	10425.91
779.881	10439.92
780.215	10358.57
780.55	10369.64
780.884	10248.52
781.218	10225.92
781.552	10244.22
781.886	10194.73
782.22	10124
782.554	10076.32
782.888	9954.74
783.222	9995.64
783.556	9907.51
783.889	9891.01
784.223	9822.54
784.557	9818.7
784.89	9803.33
785.224	9719.04
785.557	9698.93
785.891	9672.26
786.224	9655.54
786.558	9607.18
786.891	9529.89
787.224	9462.1
787.557	9485.6
787.891	9461.64
788.224	9407.41
788.557	9501.87
788.89	9359.95
789.223	9374.19
789.556	9241.08
789.888	9225.27
790.221	9211.93
790.554	9106.62
790.887	9124.03
791.219	9132.84
791.552	9103.46
791.884	8998.38
792.217	8967.42
792.549	8945.73
792.882	8856.24
793.214	8842.68
793.546	8889.91
793.879	8792.51
794.211	8797.48
794.543	8855.33
794.875	8729.23
795.207	8703.47
795.539	8628.45
795.871	8698.95
796.203	8594.1
796.535	8582.12
796.867	8587.32
797.198	8459.41
797.53	8525.85
797.862	8404.95
798.193	8420.54
798.525	8375.8
798.856	8326.98
799.188	8291.73
799.519	8286.76
799.85	8227.1
800.182	8258.06
800.513	8258.74
800.844	8167.67
801.175	8191.39
801.506	8186.88
801.837	8091.28
802.168	8067.1
802.499	8001.12
802.83	8043.15
803.161	7988.01
803.491	8029.59
803.822	7968.8
804.153	7889.48
804.483	7854.68
804.814	7839.09
805.145	7766.77
805.475	7793.21
805.805	7736.27
806.136	7726.55
806.466	7778.75
806.796	7738.98
807.126	7696.94
807.457	7662.82
807.787	7630.05
808.117	7619.43
808.447	7580.11
808.777	7511.19
809.107	7525.2
809.436	7510.28
809.766	7465.54
810.096	7451.75
810.426	7377.4
810.755	7425.77
811.085	7443.62
811.414	7397.29
811.744	7282.49
812.073	7276.62
812.403	7283.17
812.732	7206.11
813.061	7202.72
813.39	7170.86
813.719	7188.48
814.049	7213.34
814.378	7207.69
814.707	7089.73
815.036	7124.3
815.365	7095.15
815.693	7020.8
816.022	7014.48
816.351	6940.58
816.68	6968.6
817.008	6960.24
817.337	6930.19
817.665	6883.86
817.994	6913.69
818.322	6950.3
818.651	6881.15
818.979	6820.13
819.307	6842.05
819.636	6788.27
819.964	6783.97
820.292	6772.9
820.62	6783.3
820.948	6770.87
821.276	6762.51
821.604	6728.16
821.932	6798.21
822.259	6701.72
822.587	6703.07
822.915	6704.2
823.243	6730.64
823.57	6657.42
823.898	6638.67
824.225	6688.61
824.553	6709.4
824.88	6671.66
825.207	6651.1
825.535	6668.05
825.862	6672.79
826.189	6627.14
826.516	6679.34
826.843	6676.63
827.17	6657.88
827.497	6686.8
827.824	6664.66
828.151	6673.24
828.478	6679.12
828.805	6594.6
829.131	6596.18
829.458	6626.92
829.785	6616.52
830.111	6590.98
830.438	6675.05
830.764	6616.29
831.09	6605.45
831.417	6558.44
831.743	6570.65
832.069	6597.31
832.395	6578.33
832.722	6574.94
833.048	6532.91
833.374	6557.09
833.7	6491.1
834.026	6526.58
834.351	6517.77
834.677	6508.5
835.003	6492.68
835.329	6500.59
835.654	6518.22
835.98	6436.41
836.306	6453.36
836.631	6412.23
836.956	6475.96
837.282	6434.83
837.607	6431.22
837.932	6450.2
838.258	6415.17
838.583	6333.82
838.908	6318.45
839.233	6320.71
839.558	6279.58
839.883	6341.73
840.208	6280.26
840.533	6283.2
840.858	6317.32
841.182	6270.54
841.507	6274.61
841.832	6237.77
842.156	6222.18
842.481	6244.33
842.805	6215.63
843.13	6157.32
843.454	6214.27
843.778	6156.87
844.103	6141.51
844.427	6123.65
844.751	6139.92
845.075	6084.78
845.399	6094.95
845.723	6018.57
846.047	6031.68
846.371	5981.74
846.695	5964.11
847.019	5926.37
847.343	5922.75
847.666	5958.69
847.99	5863.77
848.313	5853.6
848.637	5854.28
848.96	5804.56
849.284	5749.88
849.607	5753.04
849.931	5735.41
850.254	5704.91
850.577	5661.52
850.9	5624.23
851.223	5591.69
851.546	5586.94
851.869	5489.32
852.192	5572.03
852.515	5503.78
852.838	5512.37
853.161	5526.38
853.483	5484.8
853.806	5476.21
854.129	5401.41
854.451	5422.43
854.774	5359.83
855.096	5408.42
855.419	5344.01
855.741	5332.26
856.063	5316.44
856.385	5370.45
856.708	5266.73
857.03	5258.59
857.352	5266.5
857.674	5259.72
857.996	5230.12
858.318	5172.94
858.64	5211.59
858.961	5168.42
859.283	5173.85
859.605	5127.97
859.926	5126.16
860.248	5132.94
860.57	5128.88
860.891	5110.35
861.212	5107.86
861.534	5071.48
861.855	5056.79
862.176	5064.47
862.498	5046.84
862.819	5081.87
863.14	5029.22
863.461	5043.23
863.782	5011.37
864.103	5011.37
864.424	4953.51
864.745	4960.97
865.065	4934.53
865.386	4874.87
865.707	4966.85
866.027	4937.47
866.348	4929.11
866.668	4912.84
866.989	4914.87
867.309	4871.93
867.63	4872.16
867.95	4862.67
868.27	4882.78
868.59	4832.84
868.91	4850.24
869.23	4812.05
869.55	4780.19
869.87	4838.49
870.19	4785.38
870.51	4807.98
870.83	4797.59
871.15	4749.9
871.469	4741.77
871.789	4738.6
872.109	4740.19
872.428	4721.66
872.748	4716.68
873.067	4730.47
873.386	4753.75
873.706	4733.63
874.025	4680.07
874.344	4680.75
874.663	4693.18
874.982	4644.6
875.301	4668.32
875.62	4705.84
875.939	4619.29
876.258	4662.67
876.577	4636.46
876.896	4623.13
877.214	4608.21
877.533	4576.35
877.852	4585.39
878.17	4593.52
878.489	4631.49
878.807	4583.13
879.125	4558.72
879.444	4603.01
879.762	4567.31
880.08	4515.79
880.398	4558.04
880.716	4511.72
881.034	4530.25
881.352	4495.45
881.67	4524.37
881.988	4488.67
882.306	4494.54
882.624	4483.02
882.941	4455
883.259	4444.37
883.577	4452.96
883.894	4416.35
884.212	4406.86
884.529	4447.76
884.846	4387.43
885.164	4400.99
885.481	4322.57
885.798	4367.31
886.115	4318.05
886.432	4319.86
886.75	4280.99
887.067	4332.51
887.383	4304.27
887.7	4301.78
888.017	4291.38
888.334	4289.35
888.651	4271.5
888.967	4269.69
889.284	4210.03
889.6	4230.14
889.917	4175.91
890.233	4240.31
890.55	4188.11
890.866	4229.69
891.182	4216.36
891.498	4213.87
891.815	4171.61
892.131	4141.78
892.447	4121.9
892.763	4114.44
893.079	4131.16
893.395	4049.58
893.71	4045.97
894.026	4081.22
894.342	4073.31
894.657	4040.54
894.973	4045.97
895.289	3996.25
895.604	4046.87
895.92	4027.44
896.235	4015.91
896.55	3957.61
896.865	3996.93
897.181	3952.86
897.496	3957.83
897.811	3991.28
898.126	3919.87
898.441	3926.65
898.756	3876.25
899.071	3901.34
899.386	3891.17
899.7	3837.84
900.015	3879.42
900.33	3824.05
900.644	3802.58
900.959	3794.45
901.273	3760.1
901.588	3777.95
901.902	3772.53
902.216	3766.43
902.531	3785.18
902.845	3724.17
903.159	3703.15
903.473	3737.05
903.787	3689.14
904.101	3638.97
904.415	3644.85
904.729	3648.92
905.042	3593.55
905.356	3621.57
905.67	3619.54
905.984	3599.43
906.297	3579.76
906.611	3568.69
906.924	3564.4
907.237	3545.42
907.551	3539.31
907.864	3526.66
908.177	3544.96
908.491	3530.05
908.804	3456.83
909.117	3474.68
909.43	3485.98
909.743	3417.73
910.056	3445.76
910.368	3413.44
910.681	3446.89
910.994	3396.94
911.307	3370.73
911.619	3368.02
911.932	3388.13
912.244	3341.13
912.557	3350.84
912.869	3348.13
913.181	3332.99
913.494	3292.77
913.806	3300.45
914.118	3266.33
914.43	3263.16
914.742	3230.4
915.054	3240.11
915.366	3192.43
915.678	3195.14
915.99	3222.71
916.302	3199.66
916.613	3223.16
916.925	3154.24
917.236	3172.09
917.548	3137.74
917.859	3156.05
918.171	3127.35
918.482	3088.03
918.794	3115.14
919.105	3108.82
919.416	3041.25
919.727	3092.55
920.038	3040.34
920.349	3032.43
920.66	3018.42
920.971	3010.29
921.282	2995.37
921.593	2973.45
921.903	2954.92
922.214	2971.87
922.525	3001.47
922.835	2948.37
923.146	2935.94
923.456	2910.18
923.767	2914.92
924.077	2953.57
924.387	2870.86
924.697	2877.64
925.008	2866.34
925.318	2888.94
925.628	2895.49
925.938	2848.26
926.248	2852.1
926.558	2818.43
926.867	2818.2
927.177	2808.26
927.487	2803.51
927.796	2768.94
928.106	2781.82
928.416	2742.27
928.725	2755.38
929.034	2728.04
929.344	2745.21
929.653	2725.55
929.962	2694.82
930.271	2689.17
930.581	2691.43
930.89	2666.12
931.199	2648.04
931.508	2672.22
931.817	2638.55
932.125	2640.81
932.434	2616.17
932.743	2623.18
933.051	2632.9
933.36	2564.2
933.669	2588.6
933.977	2544.54
934.286	2550.87
934.594	2556.74
934.902	2552.9
935.21	2517.65
935.519	2568.04
935.827	2541.83
936.135	2499.12
936.443	2494.37
936.751	2523.07
937.059	2476.74
937.367	2467.48
937.674	2476.52
937.982	2446.46
938.29	2449.85
938.597	2412.11
938.905	2405.78
939.213	2405.33
939.52	2387.25
939.827	2406.01
940.135	2377.76
940.442	2355.39
940.749	2347.25
941.056	2354.94
941.363	2326.01
941.67	2323.75
941.977	2321.49
942.284	2315.39
942.591	2296.63
942.898	2277.88
943.205	2302.74
943.511	2278.1
943.818	2262.29
944.125	2282.17
944.431	2257.09
944.738	2266.13
945.044	2264.77
945.35	2242.4
945.657	2216.41
945.963	2217.54
946.269	2206.02
946.575	2188.61
946.881	2192
947.187	2166.47
947.493	2176.19
947.799	2154.27
948.105	2153.59
948.41	2141.84
948.716	2146.81
949.022	2129.41
949.327	2146.36
949.633	2118.11
949.938	2100.26
950.244	2102.52
950.549	2113.14
950.854	2070.2
951.16	2077.43
951.465	2054.38
951.77	2046.7
952.075	2043.53
952.38	2023.87
952.685	2050.77
952.99	2016.87
953.294	1990.2
953.599	2008.73
953.904	2009.64
954.209	1967.15
954.513	1992.01
954.818	1968.96
955.122	1986.36
955.426	1951.78
955.731	1968.96
956.035	1962.86
956.339	1940.49
956.643	1931.9
956.948	1923.54
957.252	1938.45
957.556	1925.12
957.86	1907.04
958.163	1876.53
958.467	1914.05
958.771	1864.33
959.075	1865.91
959.378	1900.49
959.682	1853.03
959.985	1860.49
960.289	1855.74
960.592	1843.99
960.896	1851.67
961.199	1826.36
961.502	1847.15
961.805	1818.46
962.108	1793.82
962.411	1787.5
962.714	1782.07
963.017	1803.77
963.32	1804.67
963.623	1783.88
963.926	1768.29
964.228	1800.6
964.531	1765.58
964.833	1743.65
965.136	1769.64
965.438	1732.13
965.741	1734.39
966.043	1724.67
966.345	1705.69
966.648	1709.76
966.95	1724.67
967.252	1728.74
967.554	1697.78
967.856	1700.72
968.158	1683.09
968.46	1660.72
968.761	1651.45
969.063	1673.15
969.365	1654.39
969.666	1659.14
969.968	1635.18
970.269	1623.88
970.571	1614.17
970.872	1608.07
971.174	1612.36
971.475	1615.97
971.776	1592.02
972.077	1580.95
972.378	1588.4
972.679	1590.66
972.98	1618.23
973.281	1562.64
973.582	1565.58
973.883	1571
974.183	1539.59
974.484	1564.22
974.785	1575.07
975.085	1516.32
975.386	1534.39
975.686	1530.33
975.986	1528.97
976.287	1517.67
976.587	1519.48
976.887	1507.5
977.187	1528.29
977.487	1501.85
977.787	1491.68
978.087	1491.01
978.387	1472.7
978.687	1485.36
978.987	1476.54
979.286	1486.94
979.586	1462.31
979.885	1458.46
980.185	1437
980.484	1443.78
980.784	1453.04
981.083	1418.69
981.382	1432.25
981.682	1424.34
981.981	1412.82
982.28	1415.53
982.579	1408.3
982.878	1410.1
983.177	1418.24
983.475	1422.53
983.774	1422.53
984.073	1409.65
984.372	1360.39
984.67	1366.04
984.969	1386.38
985.267	1378.92
985.566	1376.21
985.864	1369.2
986.162	1369.43
986.461	1335.98
986.759	1327.17
987.057	1302.99
987.355	1292.59
987.653	1315.87
987.951	1314.51
988.249	1332.59
988.547	1308.86
988.844	1314.74
989.142	1305.02
989.44	1312.03
989.737	1275.87
990.035	1279.71
990.332	1285.14
990.63	1261.41
990.927	1276.55
991.224	1260.96
991.521	1268.41
991.819	1238.81
992.116	1255.76
992.413	1229.77
992.71	1248.3
993.006	1240.62
993.303	1212.6
993.6	1271.35
993.897	1185.03
994.193	1199.49
994.49	1201.52
994.787	1197.45
995.083	1189.32
995.379	1193.39
995.676	1209.88
995.972	1198.13
996.268	1184.57
996.565	1182.77
996.861	1169.43
997.157	1168.75
997.453	1147.06
997.749	1171.69
998.044	1107.97
998.34	1137.34
998.636	1125.14
998.932	1131.02
999.227	1128.98
999.523	1121.52
999.818	1163.33
1000.114	1104.58
1000.409	1125.37
1000.704	1101.41
1001	1091.24
1001.295	1094.86
1001.59	1104.35
1001.885	1091.47
1002.18	1053.73
1002.475	1084.01
1002.77	1068.64
1003.065	1063.9
1003.359	1060.96
1003.654	1060.73
1003.949	1041.3
1004.243	1046.72
1004.538	1056.44
1004.832	1051.47
1005.127	1032.26
1005.421	1025.93
1005.715	1031.13
1006.009	1014.63
1006.304	1042.88
1006.598	1008.76
1006.892	1010.34
1007.186	1000.62
1007.48	1014.86
1007.773	1003.11
1008.067	971.92
1008.361	969.66
1008.655	964.47
1008.948	987.52
1009.242	953.84
1009.535	988.19
1009.829	975.77
1010.122	970.12
1010.415	940.06
1010.708	951.59
1011.001	944.81
1011.295	931.25
1011.588	947.29
1011.881	946.61
1012.173	920.17
1012.466	920.17
1012.759	897.8
1013.052	918.14
1013.344	908.2
1013.637	895.09
1013.93	904.13
1014.222	898.93
1014.514	880.17
1014.807	874.98
1015.099	895.99
1015.391	898.71
1015.683	883.11
1015.976	866.62
1016.268	870.46
1016.56	870.01
1016.851	863
1017.143	880.17
1017.435	850.57
1017.727	859.38
1018.018	831.81
1018.31	855.99
1018.602	825.49
1018.893	809.89
1019.185	836.11
1019.476	828.65
1019.767	827.29
1020.058	795.88
1020.35	795.43
1020.641	815.09
1020.932	808.54
1021.223	811.02
1021.514	789.78
1021.804	787.75
1022.095	800.4
1022.386	757.47
1022.677	773.51
1022.967	776.9
1023.258	774.19
1023.548	782.1
1023.839	781.87
1024.129	737.58
1024.419	741.2
1024.709	754.3
1025	747.97
1025.29	753.62
1025.58	720.86
1025.87	745.26
1026.16	730.57
1026.449	732.16
1026.739	746.84
1027.029	702.78
1027.319	726.73
1027.608	745.49
1027.898	724.02
1028.187	709.11
1028.477	691.7
1028.766	693.96
1029.055	711.14
1029.344	706.85
1029.634	694.64
1029.923	683.8
1030.212	700.97
1030.501	671.14
1030.79	682.21
1031.078	663.01
1031.367	684.25
1031.656	666.39
1031.945	677.92
1032.233	650.8
1032.522	658.94
1032.81	656.68
1033.099	656.45
1033.387	676.34
1033.675	659.84
1033.963	651.25
1034.251	634.98
1034.54	628.66
1034.828	652.16
1035.116	609.45
1035.403	624.36
1035.691	651.93
1035.979	637.92
1036.267	637.47
1036.554	621.42
1036.842	625.49
1037.129	607.19
1037.417	597.92
1037.704	615.1
1037.992	610.58
1038.279	616
1038.566	620.97
1038.853	620.97
1039.14	620.97
