Data from brown_tile_FLMS001491_027.txt Node
Date: Tue Feb 07 10:37:17 GMT 2017
User: dcchb
Spectrometer: FLMS00149
Trigger mode: 0
Integration Time (sec): 2.000000E-2
Scans to average: 10
Electric dark correction enabled: true
Nonlinearity correction enabled: false
Boxcar width: 0
XAxis mode: Wavelengths
Number of Pixels in Spectrum: 2048
>>>>>Begin Spectral Data<<<<<
341.393	-20.78
341.776	-20.78
342.16	-20.78
342.543	-73.2
342.927	-67.1
343.31	-65.75
343.693	-52.87
344.077	-70.94
344.46	-58.52
344.843	-60.32
345.226	-39.31
345.61	-37.27
345.993	-30.04
346.376	-17.39
346.759	17.41
347.142	34.14
347.525	34.82
347.908	51.09
348.291	95.6
348.674	87.24
349.057	112.1
349.44	127.92
349.823	136.06
350.206	146.9
350.588	194.36
350.971	195.04
351.354	200.91
351.737	229.16
352.119	225.77
352.502	223.29
352.884	242.95
353.267	279.33
353.65	290.85
354.032	274.13
354.414	290.4
354.797	306.9
355.179	294.47
355.562	326.11
355.944	304.19
356.326	297.41
356.709	312.1
357.091	312.1
357.473	327.92
357.855	311.87
358.238	329.27
358.62	336.95
359.002	318.42
359.384	302.83
359.766	318.2
360.148	312.1
360.53	357.29
360.912	308.25
361.294	319.1
361.676	325.88
362.057	326.33
362.439	312.55
362.821	307.35
363.203	302.83
363.584	314.81
363.966	316.16
364.348	312.55
364.729	321.36
365.111	308.03
365.493	294.24
365.874	298.76
366.256	313.23
366.637	299.44
367.019	289.05
367.4	287.92
367.781	305.54
368.163	299.22
368.544	291.31
368.925	300.12
369.306	291.76
369.688	298.31
370.069	286.56
370.45	284.07
370.831	300.57
371.212	314.81
371.593	295.83
371.974	282.72
372.355	313.68
372.736	301.93
373.117	291.08
373.498	274.58
373.879	287.01
374.26	308.03
374.641	300.57
375.021	289.72
375.402	303.73
375.783	306.67
376.163	315.94
376.544	310.06
376.925	294.7
377.305	278.65
377.686	298.76
378.066	312.77
378.447	282.72
378.827	327.92
379.208	335.6
379.588	320.01
379.968	314.81
380.349	335.37
380.729	316.84
381.109	311.42
381.489	310.06
381.87	305.54
382.25	296.28
382.63	329.95
383.01	310.06
383.39	313.9
383.77	324.07
384.15	324.98
384.53	316.16
384.91	340.12
385.29	308.25
385.67	327.69
386.049	317.52
386.429	305.32
386.809	331.53
387.189	339.89
387.568	331.3
387.948	320.46
388.328	321.59
388.707	341.25
389.087	348.25
389.466	340.34
389.846	336.95
390.225	333.34
390.605	334.47
390.984	330.63
391.363	350.51
391.743	343.73
392.122	356.84
392.501	329.27
392.881	374.02
393.26	362.94
393.639	349.16
394.018	332.21
394.397	360.91
394.776	356.16
395.155	368.37
395.534	359.33
395.913	377.41
396.292	350.74
396.671	385.99
397.05	375.82
397.429	336.73
397.808	331.3
398.186	363.85
398.565	360.91
398.944	361.36
399.323	350.06
399.701	368.14
400.08	372.43
400.458	404.3
400.837	390.29
401.215	375.82
401.594	372.43
401.972	387.57
402.351	375.15
402.729	370.63
403.107	373.79
403.486	383.51
403.864	394.13
404.242	382.6
404.62	392.09
404.999	396.61
405.377	384.64
405.755	401.13
406.133	371.3
406.511	413.56
406.889	400.46
407.267	411.75
407.645	386.44
408.023	396.61
408.401	393.22
408.779	402.04
409.156	385.31
409.534	409.95
409.912	417.18
410.29	416.95
410.667	436.16
411.045	416.05
411.422	424.41
411.8	419.89
412.178	441.36
412.555	416.27
412.933	427.8
413.31	449.72
413.687	441.58
414.065	429.61
414.442	448.59
414.819	456.27
415.197	450.17
415.574	434.8
415.951	440
416.328	444.3
416.705	433.68
417.082	456.05
417.46	447.69
417.837	469.38
418.214	463.73
418.591	458.08
418.967	446.33
419.344	447.91
419.721	452.88
420.098	463.5
420.475	467.12
420.852	458.99
421.228	470.51
421.605	461.47
421.982	477.06
422.358	478.87
422.735	484.52
423.111	489.04
423.488	512.09
423.864	493.56
424.241	479.32
424.617	489.27
424.994	493.11
425.37	494.01
425.746	500.79
426.123	510.06
426.499	507.8
426.875	527.68
427.251	528.59
427.627	507.35
428.003	501.24
428.379	515.48
428.756	526.1
429.132	523.84
429.507	546.89
429.883	531.98
430.259	536.27
430.635	544.18
431.011	555.71
431.387	548.7
431.763	566.78
432.138	566.55
432.514	567.23
432.89	586.67
433.265	585.08
433.641	587.57
434.016	607
434.392	593.9
434.767	600.22
435.143	592.99
435.518	588.25
435.894	591.86
436.269	599.32
436.644	599.09
437.02	603.39
437.395	617.63
437.77	643.61
438.145	619.88
438.52	626.89
438.895	632.99
439.271	602.48
439.646	642.71
440.021	651.97
440.395	642.48
440.77	631.18
441.145	658.3
441.52	649.71
441.895	665.99
442.27	658.75
442.645	670.28
443.019	687.68
443.394	653.78
443.769	682.48
444.143	678.87
444.518	688.58
444.892	672.76
445.267	674.8
445.641	718.19
446.016	694.23
446.39	701.92
446.764	708.24
447.139	699.66
447.513	695.14
447.887	700.33
448.262	711.18
448.636	703.72
449.01	715.48
449.384	759.09
449.758	738.75
450.132	734.23
450.506	739.66
450.88	745.76
451.254	717.51
451.628	746.44
452.002	764.97
452.376	770.16
452.75	769.49
453.123	780.11
453.497	788.47
453.871	763.84
454.244	773.78
454.618	802.93
454.992	775.36
455.365	788.92
455.739	768.58
456.112	836.15
456.486	833.44
456.859	833.21
457.232	848.35
457.606	826.43
457.979	852.42
458.352	864.17
458.725	864.4
459.099	871.86
459.472	868.47
459.845	886.54
460.218	909.82
460.591	908.46
460.964	927.22
461.337	930.16
461.71	925.64
462.083	960.89
462.456	940.33
462.829	943.49
463.201	950.05
463.574	954.57
463.947	979.2
464.32	986.65
464.692	983.49
465.065	994.56
465.438	1016.71
465.81	1017.84
466.183	1020.55
466.555	1021.23
466.928	1042.47
467.3	1031.63
467.672	1032.76
468.045	1076.37
468.417	1086.31
468.789	1098.74
469.161	1085.41
469.534	1098.06
469.906	1123.37
470.278	1138.06
470.65	1148.91
471.022	1155.69
471.394	1185.29
471.766	1193.66
472.138	1182.13
472.51	1226.42
472.882	1227.78
473.253	1229.59
473.625	1260.09
473.997	1268
474.369	1289.02
474.74	1286.53
475.112	1325.63
475.484	1338.28
475.855	1332.86
476.227	1388.68
476.598	1390.03
476.97	1393.2
477.341	1431.16
477.713	1430.71
478.084	1431.84
478.455	1479.75
478.827	1485.17
479.198	1531.27
479.569	1531.73
479.94	1556.36
480.311	1572.85
480.682	1622.8
481.053	1609.46
481.424	1647.2
481.795	1678.61
482.166	1667.99
482.537	1677.71
482.908	1752.74
483.279	1743.7
483.65	1754.77
484.021	1806.07
484.391	1834.54
484.762	1870.25
485.133	1835.9
485.503	1884.03
485.874	1897.59
486.244	1903.69
486.615	1957.02
486.985	1978.27
487.356	2020.53
487.726	2028.21
488.097	2051.03
488.467	2081.99
488.837	2099.85
489.207	2112.5
489.578	2132.39
489.948	2182.56
490.318	2198.37
490.688	2173.97
491.058	2228.88
491.428	2265.72
491.798	2286.51
492.168	2319.73
492.538	2340.52
492.908	2310.46
493.278	2392.95
493.648	2390.01
494.017	2422.1
494.387	2430.01
494.757	2448.31
495.126	2521.98
495.496	2493.06
495.866	2499.84
496.235	2524.02
496.605	2536.22
496.974	2520.63
497.344	2579.61
497.713	2600.62
498.082	2612.6
498.452	2666.38
498.821	2674.52
499.19	2704.58
499.559	2692.15
499.928	2730.56
500.298	2731.92
500.667	2744.35
501.036	2765.82
501.405	2780.73
501.774	2797.23
502.143	2857.11
502.512	2785.25
502.88	2866.15
503.249	2838.13
503.618	2884.91
503.987	2924.01
504.356	2940.05
504.724	2935.08
505.093	2937.11
505.462	2970.56
505.83	2985.25
506.199	2988.41
506.567	3074.51
506.936	3057.11
507.304	3085.58
507.672	3093.49
508.041	3157.67
508.409	3092.81
508.777	3156.99
509.145	3187.95
509.514	3202.42
509.882	3210.1
510.25	3207.84
510.618	3226.82
510.986	3259.14
511.354	3286.03
511.722	3319.25
512.09	3341.17
512.458	3326.93
512.826	3356.99
513.193	3393.6
513.561	3422.3
513.929	3448.74
514.297	3446.7
514.664	3467.72
515.032	3498.45
515.4	3562.63
515.767	3582.07
516.135	3579.58
516.502	3578.45
516.869	3603.08
517.237	3685.57
517.604	3621.16
517.972	3704.32
518.339	3687.83
518.706	3716.3
519.073	3751.33
519.44	3808.5
519.808	3803.76
520.175	3848.5
520.542	3937.99
520.909	3902.28
521.276	3890.76
521.643	3998.33
522.009	4001.49
522.376	4032
522.743	4002.17
523.11	4059.79
523.477	4069.96
523.843	4132.56
524.21	4160.81
524.577	4240.13
524.943	4216.4
525.31	4282.84
525.676	4291.88
526.043	4385.21
526.409	4389.73
526.776	4451.42
527.142	4466.56
527.508	4476.96
527.874	4514.25
528.241	4574.13
528.607	4561.25
528.973	4633.79
529.339	4655.71
529.705	4655.71
530.071	4698.2
530.437	4732.55
530.803	4749.27
531.169	4782.04
531.535	4806.44
531.901	4845.08
532.267	4867.68
532.632	4950.39
532.998	4911.98
533.364	4942.94
533.73	4983.39
534.095	5059.77
534.461	5035.36
534.826	5070.39
535.192	5113.78
535.557	5146.77
535.923	5114.23
536.288	5213.66
536.653	5202.59
537.019	5234.23
537.384	5264.96
537.749	5277.39
538.114	5333.66
538.479	5347.44
538.845	5384.96
539.21	5394.67
539.575	5443.03
539.94	5431.51
540.305	5569.59
540.67	5489.14
541.034	5527.33
541.399	5603.48
541.764	5582.01
542.129	5657.04
542.494	5666.31
542.858	5674.44
543.223	5699.75
543.587	5772.52
543.952	5814.78
544.316	5786.3
544.681	5857.49
545.045	5893.19
545.41	5926.19
545.774	5974.09
546.138	5959.86
546.503	6003.02
546.867	6038.95
547.231	6124.82
547.595	6098.38
547.959	6138.84
548.324	6184.94
548.688	6192.17
549.052	6246.86
549.416	6327.31
549.779	6324.82
550.143	6349.45
550.507	6402.33
550.871	6465.83
551.235	6496.57
551.599	6548.32
551.962	6609.11
552.326	6614.53
552.689	6705.6
553.053	6733.85
553.417	6773.17
553.78	6850.23
554.143	6850.91
554.507	6830.34
554.87	6967.97
555.234	7040.06
555.597	7064.01
555.96	7106.95
556.323	7190.56
556.686	7172.71
557.05	7209.54
557.413	7379.48
557.776	7370.67
558.139	7480.72
558.502	7471.68
558.865	7557.56
559.228	7644.11
559.59	7694.5
559.953	7700.38
560.316	7818.34
560.679	7884.78
561.041	7986.47
561.404	8010.42
561.767	8173.13
562.129	8136.52
562.492	8268.72
562.854	8262.4
563.217	8350.98
563.579	8464.2
563.941	8518.66
564.304	8619.22
564.666	8705.32
565.028	8730.41
565.39	8749.39
565.753	8910.29
566.115	8897.18
566.477	9060.79
566.839	9133.79
567.201	9259.43
567.563	9229.83
567.925	9361.8
568.287	9364.74
568.648	9482.02
569.01	9595.02
569.372	9735.58
569.734	9712.08
570.095	9836.37
570.457	9890.83
570.819	9931.96
571.18	10071.61
571.542	10075.23
571.903	10131.95
572.265	10279.97
572.626	10272.29
572.987	10484.26
573.349	10478.61
573.71	10611.26
574.071	10684.25
574.432	10797.7
574.794	10841.31
575.155	10937.58
575.516	10902.55
575.877	11037.01
576.238	11067.07
576.599	11132.15
576.96	11312.94
577.32	11299.15
577.681	11366.72
578.042	11506.38
578.403	11477.68
578.763	11517.9
579.124	11623.66
579.485	11750.89
579.845	11760.61
580.206	11802.87
580.566	11878.8
580.927	11934.62
581.287	12078.34
581.648	12137.32
582.008	12214.38
582.368	12160.37
582.728	12300.48
583.089	12244.66
583.449	12338.9
583.809	12359.24
584.169	12442.62
584.529	12433.36
584.889	12526.69
585.249	12552.9
585.609	12588.38
585.969	12667.93
586.329	12760.58
586.688	12748.15
587.048	12830.86
587.408	12782.5
587.768	12876.29
588.127	12946.11
588.487	12910.18
588.846	13078.31
589.206	13042.38
589.565	13065.66
589.925	13194.02
590.284	13133.68
590.643	13182.72
591.003	13208.93
591.362	13277.18
591.721	13394.69
592.08	13405.09
592.44	13493.67
592.799	13459.55
593.158	13502.26
593.517	13527.12
593.876	13560.79
594.235	13602.82
594.593	13624.51
594.952	13656.15
595.311	13690.95
595.67	13716.72
596.029	13922.13
596.387	13866.77
596.746	13952.87
597.104	13888.69
597.463	13892.76
597.822	14073.99
598.18	13987.67
598.538	14036.03
598.897	14081.68
599.255	14011.4
599.613	14256.14
599.972	14212.75
600.33	14209.13
600.688	14232.86
601.046	14305.85
601.404	14360.99
601.762	14306.3
602.12	14442.57
602.478	14470.14
602.836	14521.89
603.194	14445.96
603.552	14502.01
603.91	14456.13
604.268	14584.26
604.625	14502.68
604.983	14657.48
605.341	14538.84
605.698	14666.97
606.056	14726.63
606.413	14800.3
606.771	14807.08
607.128	14847.08
607.485	14807.99
607.843	14818.83
608.2	14988.55
608.557	14943.8
608.914	14893.41
609.272	14975.67
609.629	15046.4
609.986	15133.18
610.343	15021.99
610.7	15091.37
611.057	15109.22
611.414	15174.3
611.771	15181.99
612.127	15191.71
612.484	15284.58
612.841	15236.68
613.198	15266.51
613.554	15375.88
613.911	15493.17
614.267	15407.52
614.624	15384.24
614.98	15398.48
615.337	15490.45
615.693	15523.45
616.05	15591.69
616.406	15548.53
616.762	15475.54
617.118	15587.4
617.475	15502.66
617.831	15593.73
618.187	15709.43
618.543	15654.74
618.899	15783.78
619.255	15751.69
619.611	15727.96
619.967	15899.26
620.323	15888.64
620.678	15802.31
621.034	15807.06
621.39	15751.24
621.746	15861.74
622.101	16026.94
622.457	15882.99
622.812	15863.55
623.168	15958.46
623.523	15926.15
623.879	16015.86
624.234	15915.98
624.589	16047.28
624.945	16012.25
625.3	15922.31
625.655	16004.11
626.01	15982.64
626.365	15963.89
626.72	16067.39
627.075	16035.75
627.43	16047.73
627.785	15968.86
628.14	16033.26
628.495	15987.39
628.85	16062.64
629.205	16031.01
629.559	16064.22
629.914	16056.99
630.269	15971.57
630.623	15995.75
630.978	16000.5
631.332	16052.47
631.687	16110.1
632.041	16026.94
632.396	16005.24
632.75	15966.83
633.104	16046.37
633.459	15915.98
633.813	15931.8
634.167	15829.88
634.521	15849.31
634.875	15907.39
635.229	15889.77
635.583	15846.6
635.937	15920.5
636.291	15848.64
636.645	15917.79
636.999	15793.72
637.352	15894.96
637.706	15810.67
638.06	15792.14
638.413	15845.02
638.767	15814.06
639.121	15822.2
639.474	15741.75
639.828	15692.26
640.181	15796.66
640.534	15681.18
640.888	15682.99
641.241	15623.56
641.594	15660.62
641.947	15652.71
642.301	15701.3
642.654	15679.83
643.007	15703.56
643.36	15656.33
643.713	15622.43
644.066	15676.21
644.419	15622.65
644.771	15468.99
645.124	15325.26
645.477	15367.07
645.83	15288.2
646.182	15235.32
646.535	15204.13
646.888	15223.57
647.24	15073.97
647.593	15127.75
647.945	15211.82
648.298	15171.37
648.65	15048.66
649.002	15074.19
649.355	15158.03
649.707	15013.63
650.059	15186.73
650.411	15332.04
650.763	15289.56
651.115	15512.37
651.467	15413.17
651.819	15450.46
652.171	15409.33
652.523	15500.17
652.875	15423.34
653.227	15398.93
653.578	15508.08
653.93	15375.66
654.282	15358.25
654.633	15359.84
654.985	15414.52
655.337	15308.31
655.688	15384.69
656.039	15407.97
656.391	15272.61
656.742	15297.69
657.094	15385.37
657.445	15447.74
657.796	15343.57
658.147	15363.9
658.498	15360.06
658.849	15362.77
659.2	15287.75
659.551	15410.91
659.902	15352.6
660.253	15380.4
660.604	15446.16
660.955	15263.57
661.306	15448.65
661.656	15359.16
662.007	15357.12
662.358	15348.99
662.708	15367.07
663.059	15372.72
663.409	15254.08
663.76	15406.16
664.11	15383.34
664.461	15518.25
664.811	15428.99
665.161	15412.49
665.511	15411.59
665.862	15388.99
666.212	15494.07
666.562	15428.76
666.912	15471.7
667.262	15427.86
667.612	15435.09
667.962	15405.48
668.312	15446.16
668.662	15482.32
669.011	15434.41
669.361	15402.1
669.711	15464.69
670.06	15372.27
670.41	15448.65
670.76	15379.95
671.109	15429.89
671.459	15414.75
671.808	15349.67
672.157	15371.81
672.507	15372.27
672.856	15345.6
673.205	15420.4
673.554	15423.34
673.904	15388.54
674.253	15560.96
674.602	15559.15
674.951	15307.18
675.3	15172.27
675.649	15434.64
675.998	15422.43
676.346	15364.58
676.695	15442.55
677.044	15363.23
677.393	15424.47
677.741	15421.53
678.09	15454.75
678.438	15344.24
678.787	15476.22
679.135	15457.46
679.484	15414.52
679.832	15445.03
680.181	15367.07
680.529	15376.11
680.877	15455.43
681.225	15330.46
681.573	15468.31
681.922	15330.46
682.27	15325.71
682.618	15310.57
682.966	15327.29
683.314	15311.7
683.661	15252.27
684.009	15239.84
684.357	15219.05
684.705	15227.41
685.053	15231.25
685.4	15174.76
685.748	15125.04
686.095	15192.38
686.443	15078.71
686.79	15119.39
687.138	15133.18
687.485	15157.81
687.832	15151.48
688.18	15167.3
688.527	15051.14
688.874	15089.56
689.221	15123.91
689.568	15003.01
689.915	14915.78
690.262	14962.11
690.609	14937.25
690.956	14986.06
691.303	15022.22
691.65	14866.06
691.997	14877.59
692.344	14793.98
692.69	14770.02
693.037	14823.35
693.383	14705.62
693.73	14818.83
694.077	14748.1
694.423	14690.7
694.769	14648.89
695.116	14624.04
695.462	14642.12
695.808	14652.74
696.155	14702.23
696.501	14559.86
696.847	14553.08
697.193	14455.68
697.539	14539.29
697.885	14491.16
698.231	14487.32
698.577	14485.06
698.923	14403.03
699.269	14394.66
699.614	14353.31
699.96	14293.2
700.306	14358.05
700.651	14220.88
700.997	14235.57
701.342	14220.88
701.688	14263.14
702.033	14187.89
702.379	14207.32
702.724	14096.37
703.069	14254.55
703.415	14022.24
703.76	14066.76
704.105	14172.97
704.45	14051.17
704.795	14023.15
705.14	13980.66
705.485	13902.25
705.83	13975.92
706.175	13975.01
706.52	13963.71
706.865	13893.66
707.209	13904.28
707.554	13899.54
707.899	13851.63
708.243	13810.05
708.588	13794.45
708.932	13683.72
709.277	13751.97
709.621	13811.63
709.966	13736.83
710.31	13727.34
710.654	13629.03
710.998	13639.43
711.342	13639.43
711.687	13643.5
712.031	13629.26
712.375	13563.05
712.719	13554.91
713.063	13574.8
713.407	13635.81
713.75	13488.47
714.094	13551.07
714.438	13467
714.782	13372.32
715.125	13489.15
715.469	13424.52
715.812	13423.84
716.156	13334.8
716.499	13423.84
716.843	13372.77
717.186	13312.88
717.53	13379.1
717.873	13391.75
718.216	13277.63
718.559	13279.21
718.902	13248.48
719.246	13231.08
719.589	13247.58
719.932	13228.37
720.275	13142.95
720.617	13240.34
720.96	13145.66
721.303	13144.3
721.646	13162.15
721.989	13154.92
722.331	13178.65
722.674	13143.85
723.016	13161.02
723.359	13070.63
723.701	13127.35
724.044	13124.19
724.386	13036.73
724.729	13091.2
725.071	13023.63
725.413	13040.35
725.755	13024.53
726.097	12987.02
726.439	12957.64
726.782	12993.34
727.124	13051.65
727.465	12965.55
727.807	12964.42
728.149	12915.61
728.491	12981.59
728.833	12941.37
729.175	12862.73
729.516	12850.75
729.858	12797.19
730.199	12866.57
730.541	12808.26
730.882	12838.77
731.224	12928.94
731.565	12809.62
731.906	12767.81
732.248	12777.31
732.589	12701.15
732.93	12720.36
733.271	12771.2
733.612	12771.43
733.953	12781.82
734.294	12715.84
734.635	12709.96
734.976	12690.75
735.317	12627.7
735.658	12620.93
735.999	12689.85
736.339	12626.35
736.68	12638.1
737.021	12534.83
737.361	12550.42
737.702	12622.51
738.042	12556.75
738.383	12509.29
738.723	12640.36
739.063	12497.54
739.404	12596.52
739.744	12528.5
740.084	12515.17
740.424	12489.86
740.764	12536.63
741.104	12483.75
741.444	12475.84
741.784	12423.64
742.124	12387.26
742.464	12351.33
742.804	12366.92
743.143	12350.2
743.483	12334.38
743.823	12289.18
744.162	12234.95
744.502	12318.56
744.841	12253.03
745.181	12349.97
745.52	12216.64
745.86	12263.42
746.199	12179.58
746.538	12200.15
746.877	12185.23
747.216	12337.77
747.556	12165.8
747.895	12163.54
748.234	12160.37
748.573	12133.48
748.911	12091.67
749.25	12147.72
749.589	12021.84
749.928	12055.74
750.267	12000.15
750.605	11953.82
750.944	12030.88
751.283	11913.15
751.621	11928.51
751.96	11872.02
752.298	11885.58
752.636	11882.64
752.975	11876.76
753.313	11748.63
753.651	11834.96
753.989	11758.8
754.327	11694.85
754.666	11604.91
755.004	11731.91
755.342	11643.78
755.679	11602.42
756.017	11571.69
756.355	11574.63
756.693	11503.67
757.031	11609.43
757.368	11469.54
757.706	11526.49
758.044	11394.97
758.381	11398.36
758.719	11403.56
759.056	11373.95
759.394	11346.61
759.731	11219.38
760.068	11211.02
760.405	11215.09
760.743	11143
761.08	11128.31
761.417	11115.88
761.754	11139.83
762.091	11072.94
762.428	10988.65
762.765	10996.11
763.102	10980.97
763.438	10919.95
763.775	10934.64
764.112	10880.18
764.449	10825.49
764.785	10871.14
765.122	10799.73
765.458	10628.89
765.795	10665.5
766.131	10638.15
766.467	10672.28
766.804	10552.96
767.14	10496.01
767.476	10551.15
767.812	10458.72
768.148	10451.94
768.485	10340.76
768.821	10423.24
769.157	10309.12
769.492	10344.15
769.828	10312.51
770.164	10172.63
770.5	10181.44
770.836	10137.37
771.171	10042.01
771.507	10067.77
771.842	9997.27
772.178	10030.94
772.513	10031.61
772.849	9924.95
773.184	9901.45
773.519	9847.44
773.855	9816.48
774.19	9800.21
774.525	9729.93
774.86	9736.48
775.195	9686.54
775.53	9677.5
775.865	9648.12
776.2	9521.12
776.535	9507.79
776.87	9464.62
777.205	9425.08
777.539	9457.17
777.874	9376.72
778.209	9339.88
778.543	9325.19
778.878	9227.79
779.212	9228.47
779.547	9199.32
779.881	9199.55
780.215	9152.99
780.55	9167.68
780.884	9047.01
781.218	9071.64
781.552	9068.93
781.886	8946.45
782.22	8891.31
782.554	8956.16
782.888	8805.43
783.222	8787.13
783.556	8745.77
783.889	8735.6
784.223	8650.41
784.557	8657.41
784.89	8647.7
785.224	8589.62
785.557	8543.07
785.891	8506.68
786.224	8519.11
786.558	8530.41
786.891	8466.23
787.224	8383.52
787.557	8353.01
787.891	8372
788.224	8351.43
788.557	8365.22
788.89	8285.45
789.223	8238.89
789.556	8259.46
789.888	8156.64
790.221	8175.84
790.554	8073.47
790.887	8048.62
791.219	8043.64
791.552	7991.67
791.884	7925.68
792.217	7949.64
792.549	7889.52
792.882	7857.21
793.214	7816.08
793.546	7873.93
793.879	7800.26
794.211	7764.33
794.543	7708.51
794.875	7706.93
795.207	7736.31
795.539	7659.7
795.871	7662.86
796.203	7594.84
796.535	7528.18
796.867	7494.73
797.198	7502.42
797.53	7485.92
797.862	7449.31
798.193	7427.39
798.525	7405.02
798.856	7410.21
799.188	7321.18
799.519	7313.49
799.85	7275.53
800.182	7284.34
800.513	7277.11
800.844	7171.8
801.175	7219.49
801.506	7208.41
801.837	7119.6
802.168	7129.77
802.499	7085.7
802.83	7059.04
803.161	7042.99
803.491	7003.9
803.822	7054.52
804.153	6941.53
804.483	7024.46
804.814	6905.6
805.145	6919.15
805.475	6927.06
805.805	6849.78
806.136	6791.25
806.466	6802.32
806.796	6825.6
807.126	6747.18
807.457	6759.16
807.787	6765.94
808.117	6709.44
808.447	6663.79
808.777	6655.88
809.107	6676.9
809.436	6617.24
809.766	6585.6
810.096	6575.43
810.426	6583.57
810.755	6579.05
811.085	6563.23
811.414	6493.85
811.744	6457.25
812.073	6421.54
812.403	6455.44
812.732	6362.33
813.061	6407.53
813.39	6340.41
813.719	6333.18
814.049	6372.28
814.378	6309.9
814.707	6298.15
815.036	6343.12
815.365	6273.75
815.693	6167.76
816.022	6245.73
816.351	6193.52
816.68	6191.72
817.008	6143.58
817.337	6080.76
817.665	6113.75
817.994	6066.75
818.322	6081.89
818.651	6057.71
818.979	6038.27
819.307	6118.72
819.636	6023.58
819.964	6028.56
820.292	6006.41
820.62	6022
820.948	5992.17
821.276	5981.1
821.604	5923.93
821.932	5979.52
822.259	5961.44
822.587	5995.56
822.915	5918.95
823.243	5918.5
823.57	5972.74
823.898	5953.53
824.225	5916.92
824.553	5875.57
824.88	5882.35
825.207	5931.84
825.535	5923.02
825.862	5876.24
826.189	5883.93
826.516	5956.47
826.843	5883.7
827.17	5902.68
827.497	5905.85
827.824	5929.35
828.151	5923.02
828.478	5872.18
828.805	5920.99
829.131	5897.94
829.458	5877.83
829.785	5834.89
830.111	5806.64
830.438	5897.94
830.764	5924.83
831.09	5833.08
831.417	5798.28
831.743	5794.89
832.069	5795.57
832.395	5803.03
832.722	5830.14
833.048	5821.78
833.374	5779.52
833.7	5753.31
834.026	5755.34
834.351	5747.21
834.677	5746.53
835.003	5764.16
835.329	5710.37
835.654	5770.71
835.98	5727.32
836.306	5725.06
836.631	5661.33
836.956	5700.2
837.282	5687.77
837.607	5603.48
837.932	5643.93
838.258	5618.85
838.583	5671.73
838.908	5557.83
839.233	5603.71
839.558	5658.62
839.883	5576.59
840.208	5596.03
840.533	5559.42
840.858	5533.65
841.182	5569.36
841.507	5559.64
841.832	5525.97
842.156	5517.16
842.481	5448.91
842.805	5452.98
843.13	5468.8
843.454	5456.14
843.778	5417.05
844.103	5447.78
844.427	5394.67
844.751	5357.84
845.075	5325.07
845.399	5354.45
845.723	5342.92
846.047	5295.69
846.371	5293.89
846.695	5266.09
847.019	5299.31
847.343	5224.96
847.666	5195.36
847.99	5197.39
848.313	5154.91
848.637	5123.04
848.96	5102.93
849.284	5100.44
849.607	5065.87
849.931	5044.85
850.254	5042.37
850.577	5001.69
850.9	4950.84
851.223	5021.35
851.546	4916.27
851.869	4940.68
852.192	4893.44
852.515	4872.43
852.838	4874.69
853.161	4835.37
853.483	4801.92
853.806	4799.66
854.129	4811.41
854.451	4794.46
854.774	4768.25
855.096	4728.48
855.419	4749.04
855.741	4734.58
856.063	4710.62
856.385	4698.65
856.708	4671.98
857.03	4651.19
857.352	4652.1
857.674	4655.94
857.996	4614.81
858.318	4594.7
858.64	4606.22
858.961	4532.32
859.283	4578.2
859.605	4569.61
859.926	4567.35
860.248	4517.86
860.57	4522.16
860.891	4469.73
861.212	4490.52
861.534	4502.49
861.855	4464.53
862.176	4503.85
862.498	4491.65
862.819	4465.89
863.14	4428.37
863.461	4393.57
863.782	4408.49
864.103	4391.31
864.424	4372.1
864.745	4396.73
865.065	4388.15
865.386	4339.56
865.707	4395.15
866.027	4366.9
866.348	4314.48
866.668	4328.26
866.989	4339.79
867.309	4276.51
867.63	4307.47
867.95	4302.5
868.27	4292.78
868.59	4242.16
868.91	4312.67
869.23	4225.44
869.55	4245.55
869.87	4271.77
870.19	4311.99
870.51	4261.37
870.83	4227.02
871.15	4216.63
871.469	4205.1
871.789	4236.06
872.109	4232.45
872.428	4161.03
872.748	4213.69
873.067	4153.35
873.386	4166.23
873.706	4199.45
874.025	4180.02
874.344	4132.56
874.663	4180.47
874.982	4115.16
875.301	4114.93
875.62	4099.79
875.939	4144.09
876.258	4096.4
876.577	4070.87
876.896	4093.47
877.214	4096.63
877.533	4096.86
877.852	4059.79
878.17	4078.32
878.489	4068.61
878.807	4079.68
879.125	4041.26
879.444	4045.11
879.762	4032
880.08	3966.24
880.398	4008.04
880.716	3992.23
881.034	4004.65
881.352	3984.54
881.67	3963.98
881.988	3951.1
882.306	3975.28
882.624	3960.59
882.941	3942.74
883.259	3924.66
883.577	3963.98
883.894	3931.44
884.212	3934.37
884.529	3898.67
884.846	3856.18
885.164	3888.73
885.481	3862.51
885.798	3851.89
886.115	3850.08
886.432	3836.98
886.75	3818.67
887.067	3817.99
887.383	3810.76
887.7	3824.32
888.017	3810.31
888.334	3803.08
888.651	3813.25
888.967	3786.13
889.284	3775.28
889.6	3761.72
889.917	3745
890.233	3742.51
890.55	3720.14
890.866	3741.61
891.182	3697.09
891.498	3706.58
891.815	3677.21
892.131	3681.95
892.447	3656.19
892.763	3626.13
893.079	3664.55
893.395	3644.66
893.71	3605.8
894.026	3620.94
894.342	3610.54
894.657	3573.71
894.973	3543.65
895.289	3557.66
895.604	3559.24
895.92	3531.67
896.235	3537.1
896.55	3519.24
896.865	3500.26
897.181	3483.31
897.496	3549.98
897.811	3467.95
898.126	3454.39
898.441	3466.82
898.756	3462.52
899.071	3442.18
899.386	3430.88
899.7	3436.08
900.015	3425.91
900.33	3414.61
900.644	3429.75
900.959	3404.67
901.273	3348.17
901.588	3339.81
901.902	3320.38
902.216	3347.95
902.531	3303.66
902.845	3340.49
903.159	3311.57
903.473	3293.94
903.787	3279.93
904.101	3242.64
904.415	3269.31
904.729	3211.23
905.042	3221.85
905.356	3186.15
905.67	3183.89
905.984	3183.43
906.297	3188.63
906.611	3205.81
906.924	3190.66
907.237	3118.8
907.551	3142.76
907.864	3134.17
908.177	3139.14
908.491	3138.69
908.804	3115.86
909.117	3075.64
909.43	3111.57
909.743	3068.41
910.056	3034.06
910.368	3055.75
910.681	3060.5
910.994	3030.89
911.307	3016.88
911.619	2993.61
911.932	2999.94
912.244	2966.49
912.557	2992.03
912.869	2977.34
913.181	2944.12
913.494	2945.93
913.806	2922.2
914.118	2912.48
914.43	2918.81
914.742	2883.33
915.054	2906.83
915.366	2898.24
915.678	2850.11
915.99	2875.42
916.302	2805.14
916.613	2828.19
916.925	2824.57
917.236	2824.35
917.548	2789.09
917.859	2826.38
918.171	2806.95
918.482	2756.33
918.794	2723.56
919.105	2738.93
919.416	2723.56
919.727	2702.09
920.038	2734.86
920.349	2695.76
920.66	2700.28
920.971	2685.37
921.282	2664.58
921.593	2703.9
921.903	2672.49
922.214	2650.34
922.525	2638.14
922.835	2626.39
923.146	2623.9
923.456	2628.19
923.767	2607.4
924.077	2573.51
924.387	2588.87
924.697	2541.19
925.008	2592.04
925.318	2523.34
925.628	2551.36
925.938	2518.37
926.248	2515.2
926.558	2519.27
926.867	2488.31
927.177	2495.77
927.487	2459.38
927.796	2420.29
928.106	2445.83
928.416	2461.19
928.725	2425.71
929.034	2419.39
929.344	2427.97
929.653	2422.78
929.962	2382.32
930.271	2375.77
930.581	2373.51
930.89	2381.42
931.199	2379.84
931.508	2362.44
931.817	2380.29
932.125	2357.69
932.434	2386.84
932.743	2335.09
933.051	2312.5
933.36	2338.71
933.669	2302.78
933.977	2284.93
934.286	2314.08
934.594	2282.89
934.902	2250.35
935.21	2266.4
935.519	2236.57
935.827	2227.3
936.135	2258.94
936.443	2164.03
936.751	2238.37
937.059	2200.63
937.367	2200.41
937.674	2209.45
937.982	2190.47
938.29	2194.31
938.597	2183.01
938.905	2158.38
939.213	2144.82
939.52	2138.94
939.827	2144.82
940.135	2138.71
940.442	2138.26
940.749	2133.52
941.056	2111.6
941.363	2120.41
941.67	2096.68
941.977	2068.66
942.284	2057.36
942.591	2059.85
942.898	2055.55
943.205	2038.83
943.511	2052.84
943.818	2047.64
944.125	2045.16
944.431	2018.72
944.738	2032.5
945.044	1994.54
945.35	1984.14
945.657	1998.83
945.963	1957.48
946.269	1947.08
946.575	1975.33
946.881	1960.19
947.187	1959.28
947.493	1936.91
947.799	1965.84
948.105	1950.25
948.41	1921.32
948.716	1914.31
949.022	1910.02
949.327	1895.56
949.633	1876.8
949.938	1913.86
950.244	1897.37
950.549	1885.16
950.854	1872.73
951.16	1871.6
951.465	1871.15
951.77	1826.18
952.075	1867.54
952.38	1864.82
952.685	1836.12
952.99	1822.57
953.294	1809.46
953.599	1825.73
953.904	1820.31
954.209	1783.24
954.513	1803.36
954.818	1794.09
955.122	1787.54
955.426	1770.14
955.731	1760.65
956.035	1752.51
956.339	1790.93
956.643	1741.44
956.948	1735.79
957.252	1730.14
957.556	1758.84
957.86	1670.25
958.163	1708.67
958.467	1698.27
958.771	1710.48
959.075	1668.9
959.378	1694.66
959.682	1675
959.985	1731.95
960.289	1673.87
960.592	1682.46
960.896	1659.86
961.199	1628.9
961.502	1648.11
961.805	1643.81
962.108	1637.94
962.411	1640.87
962.714	1618.95
963.017	1621.44
963.32	1594.1
963.623	1585.74
963.926	1616.24
964.228	1594.55
964.531	1606.53
964.833	1623.93
965.136	1592.06
965.438	1563.14
965.741	1562.68
966.043	1542.35
966.345	1561.1
966.648	1545.28
966.95	1559.97
967.252	1526.75
967.554	1536.24
967.856	1541.67
968.158	1513.87
968.46	1526.3
968.761	1515.68
969.063	1495.34
969.365	1499.41
969.666	1477.94
969.968	1499.64
970.269	1457.6
970.571	1475.23
970.872	1493.53
971.174	1482.69
971.475	1467.77
971.776	1479.3
972.077	1464.61
972.378	1462.12
972.679	1425.29
972.98	1439.98
973.281	1467.55
973.582	1435.68
973.883	1446.08
974.183	1386.87
974.484	1431.39
974.785	1430.94
975.085	1413.54
975.386	1433.65
975.686	1408.11
975.986	1381.67
976.287	1398.4
976.587	1388.45
976.887	1383.48
977.187	1375.12
977.487	1365.85
977.787	1336.93
978.087	1374.44
978.387	1339.64
978.687	1354.33
978.987	1345.06
979.286	1341.45
979.586	1330.6
979.885	1323.6
980.185	1305.52
980.484	1334.67
980.784	1325.18
981.083	1315.23
981.382	1336.02
981.682	1301.45
981.981	1312.3
982.28	1312.07
982.579	1285.4
982.878	1270.72
983.177	1275.01
983.475	1288.79
983.774	1277.72
984.073	1284.73
984.372	1252.64
984.67	1258.29
984.969	1254.44
985.267	1224.39
985.566	1225.07
985.864	1227.78
986.162	1230.72
986.461	1226.65
986.759	1212.64
987.057	1227.33
987.355	1223.94
987.653	1206.76
987.951	1207.89
988.249	1211.28
988.547	1204.05
988.844	1194.78
989.142	1198.63
989.44	1171.73
989.737	1159.53
990.035	1157.05
990.332	1178.74
990.63	1151.17
990.927	1168.57
991.224	1162.7
991.521	1124.73
991.819	1166.54
992.116	1112.3
992.413	1140.1
992.71	1157.27
993.006	1139.87
993.303	1110.95
993.6	1109.59
993.897	1125.63
994.193	1126.99
994.49	1091.28
994.787	1087.67
995.083	1108.91
995.379	1100.78
995.676	1120.66
995.972	1088.8
996.268	1086.31
996.565	1075.92
996.861	1053.09
997.157	1059.87
997.453	1044.51
997.749	1074.34
998.044	1088.8
998.34	1047.67
998.636	1045.41
998.932	1037.05
999.227	1059.42
999.523	1022.13
999.818	1021.46
1000.114	1021.91
1000.409	1021.46
1000.704	1018.74
1001	1016.94
1001.295	1013.55
1001.59	1016.26
1001.885	1014.9
1002.18	988.24
1002.475	988.91
1002.77	997.28
1003.065	1008.58
1003.359	1006.32
1003.654	974.9
1003.949	941.46
1004.243	974.68
1004.538	971.97
1004.832	962.47
1005.127	955.24
1005.421	925.64
1005.715	932.19
1006.009	940.1
1006.304	916.15
1006.598	953.89
1006.892	954.57
1007.186	929.03
1007.48	899.2
1007.773	903.04
1008.067	891.74
1008.361	892.65
1008.655	918.63
1008.948	907.56
1009.242	885.64
1009.535	894.68
1009.829	898.07
1010.122	874.12
1010.415	896.71
1010.708	857.62
1011.001	857.84
1011.295	865.08
1011.588	860.78
1011.881	865.53
1012.173	862.14
1012.466	874.12
1012.759	856.26
1013.052	841.8
1013.344	843.16
1013.637	847
1013.93	841.35
1014.222	862.14
1014.514	804.06
1014.807	822.14
1015.099	817.62
1015.391	825.53
1015.683	788.69
1015.976	816.04
1016.268	806.55
1016.56	785.53
1016.851	815.36
1017.143	801.8
1017.435	788.47
1017.727	777.62
1018.018	794.34
1018.31	772.65
1018.602	763.38
1018.893	762.48
1019.185	772.42
1019.476	789.82
1019.767	770.62
1020.058	762.93
1020.35	762.71
1020.641	762.25
1020.932	738.3
1021.223	750.28
1021.514	730.39
1021.804	741.69
1022.095	743.27
1022.386	723.61
1022.677	694.46
1022.967	710.28
1023.258	735.81
1023.548	706.89
1023.839	725.42
1024.129	715.02
1024.419	710.96
1024.709	697.62
1025	710.05
1025.29	666.66
1025.58	667.57
1025.87	684.74
1026.16	694.91
1026.449	682.26
1026.739	676.38
1027.029	628.7
1027.319	682.03
1027.608	689.26
1027.898	679.32
1028.187	648.58
1028.477	677.06
1028.766	680.45
1029.055	667.12
1029.344	672.31
1029.634	656.04
1029.923	649.04
1030.212	643.16
1030.501	634.35
1030.79	642.94
1031.078	620.56
1031.367	641.13
1031.656	611.3
1031.945	624.18
1032.233	612.65
1032.522	614.69
1032.81	614.69
1033.099	597.96
1033.387	621.01
1033.675	602.03
1033.963	606.55
1034.251	600.9
1034.54	606.33
1034.828	613.11
1035.116	607.46
1035.403	577.4
1035.691	584.41
1035.979	585.99
1036.267	590.06
1036.554	582.15
1036.842	578.3
1037.129	580.34
1037.417	550.28
1037.704	565.2
1037.992	568.36
1038.279	573.33
1038.566	558.42
1038.853	558.42
1039.14	558.42
