Data from brown_tile_FLMS001491_081.txt Node
Date: Tue Feb 07 10:38:06 GMT 2017
User: dcchb
Spectrometer: FLMS00149
Trigger mode: 0
Integration Time (sec): 2.000000E-2
Scans to average: 10
Electric dark correction enabled: true
Nonlinearity correction enabled: false
Boxcar width: 0
XAxis mode: Wavelengths
Number of Pixels in Spectrum: 2048
>>>>>Begin Spectral Data<<<<<
341.393	-9.08
341.776	-9.08
342.16	-9.08
342.543	-58.8
342.927	-62.64
343.31	-67.39
343.693	-68.29
344.077	-44.56
344.46	-48.4
344.843	-68.97
345.226	-38.69
345.61	-21.51
345.993	12.39
346.376	-20.83
346.759	-4.34
347.142	35.21
347.525	43.8
347.908	44.48
348.291	63.01
348.674	79.96
349.057	104.14
349.44	119.28
349.823	131.25
350.206	170.8
350.588	190.46
350.971	197.47
351.354	193.17
351.737	201.08
352.119	221.87
352.502	234.98
352.884	267.52
353.267	286.73
353.65	283.79
354.032	286.28
354.414	275.66
354.797	294.41
355.179	297.8
355.562	311.14
355.944	311.36
356.326	302.77
356.709	315.2
357.091	309.1
357.473	334.86
357.855	301.19
358.238	308.42
358.62	319.27
359.002	308.88
359.384	312.94
359.766	315.2
360.148	304.81
360.53	319.5
360.912	321.08
361.294	314.07
361.676	312.49
362.057	318.14
362.439	305.26
362.821	315.2
363.203	308.88
363.584	307.07
363.966	316.56
364.348	303
364.729	300.06
365.111	296
365.493	301.42
365.874	297.8
366.256	300.97
366.637	293.96
367.019	297.12
367.4	305.03
367.781	313.17
368.163	302.77
368.544	284.7
368.925	303
369.306	308.2
369.688	309.78
370.069	277.69
370.45	301.19
370.831	284.92
371.212	305.49
371.593	283.57
371.974	292.38
372.355	297.8
372.736	307.75
373.117	281.76
373.498	294.41
373.879	288.54
374.26	299.61
374.641	306.84
375.021	301.64
375.402	297.58
375.783	315.43
376.163	312.94
376.544	298.93
376.925	311.36
377.305	294.41
377.686	304.58
378.066	317.92
378.447	306.39
378.827	312.94
379.208	286.5
379.588	303.45
379.968	308.65
380.349	317.92
380.729	297.8
381.109	331.93
381.489	302.55
381.87	305.26
382.25	314.75
382.63	314.3
383.01	317.46
383.39	306.39
383.77	326.05
384.15	324.92
384.53	326.28
384.91	329.89
385.29	313.62
385.67	302.77
386.049	342.32
386.429	317.92
386.809	339.61
387.189	329.67
387.568	349.55
387.948	331.02
388.328	327.86
388.707	329.67
389.087	335.99
389.466	332.83
389.846	328.54
390.225	345.49
390.605	336.22
390.984	349.78
391.363	346.62
391.743	331.47
392.122	344.36
392.501	350.91
392.881	328.99
393.26	350.46
393.639	371.02
394.018	360.63
394.397	339.16
394.776	353.17
395.155	368.54
395.534	351.59
395.913	333.51
396.292	369.67
396.671	361.53
397.05	353.39
397.429	371.93
397.808	364.24
398.186	345.94
398.565	350.23
398.944	384.81
399.323	363.79
399.701	383
400.08	350.91
400.458	365.6
400.837	366.73
401.215	343.23
401.594	381.19
401.972	389.78
402.351	359.72
402.729	386.39
403.107	375.31
403.486	381.19
403.864	374.41
404.242	380.29
404.62	372.15
404.999	398.59
405.377	380.06
405.755	389.1
406.133	379.61
406.511	398.37
406.889	379.61
407.267	392.49
407.645	408.31
408.023	403.34
408.401	378.25
408.779	411.7
409.156	406.27
409.534	400.85
409.912	420.06
410.29	407.18
410.667	406.5
411.045	414.18
411.422	405.82
411.8	405.6
412.178	421.42
412.555	432.94
412.933	435.2
413.31	433.17
413.687	433.17
414.065	431.81
414.442	412.6
414.819	439.95
415.197	459.61
415.574	453.05
415.951	452.83
416.328	431.36
416.705	440.4
417.082	438.14
417.46	439.95
417.837	461.41
418.214	438.14
418.591	461.41
418.967	460.28
419.344	461.41
419.721	459.15
420.098	446.95
420.475	469.55
420.852	457.8
421.228	454.86
421.605	450.12
421.982	460.28
422.358	481.07
422.735	478.36
423.111	471.81
423.488	474.3
423.864	479.72
424.241	494.63
424.617	489.66
424.994	477.23
425.37	475.2
425.746	492.15
426.123	480.17
426.499	522.88
426.875	507.29
427.251	486.95
427.627	510
428.003	507.51
428.379	503.22
428.756	521.53
429.132	512.94
429.507	533.95
429.883	515.2
430.259	541.19
430.635	536.44
431.011	531.24
431.387	534.86
431.763	564.46
432.138	560.85
432.514	561.07
432.89	554.52
433.265	579.6
433.641	591.13
434.016	574.63
434.392	591.81
434.767	587.29
435.143	581.86
435.518	586.16
435.894	590.9
436.269	577.34
436.644	589.32
437.02	608.08
437.395	601.98
437.77	591.13
438.145	614.63
438.52	622.09
438.895	631.58
439.271	618.92
439.646	628.64
440.021	619.15
440.395	622.54
440.77	627.29
441.145	645.82
441.52	636.55
441.895	654.63
442.27	668.64
442.645	651.24
443.019	676.78
443.394	665.7
443.769	664.12
444.143	638.13
444.518	652.6
444.892	668.41
445.267	664.35
445.641	661.41
446.016	671.58
446.39	685.36
446.764	680.84
447.139	696.66
447.513	683.56
447.887	700.73
448.262	699.37
448.636	692.82
449.01	703.67
449.384	700.96
449.758	715.42
450.132	730.11
450.506	714.29
450.88	722.88
451.254	724.91
451.628	739.6
452.002	731.46
452.376	718.81
452.75	733.5
453.123	757.68
453.497	766.94
453.871	755.42
454.244	770.11
454.618	756.77
454.992	769.2
455.365	796.55
455.739	784.57
456.112	818.02
456.486	796.32
456.859	815.53
457.232	825.02
457.606	803.33
457.979	787.28
458.352	821.86
458.725	856.21
459.099	866.6
459.472	863.89
459.845	857.34
460.218	899.82
460.591	891.46
460.964	895.53
461.337	859.14
461.71	916.32
462.083	892.82
462.456	914.51
462.829	906.83
463.201	881.52
463.574	938.01
463.947	949.31
464.32	968.07
464.692	986.37
465.065	947.96
465.438	993.15
465.81	1002.19
466.183	994.51
466.555	1024.56
466.928	983.89
467.3	1017.56
467.672	1039.48
468.045	1056.88
468.417	1060.49
468.789	1066.14
469.161	1065.01
469.534	1094.17
469.906	1121.74
470.278	1112.7
470.65	1122.41
471.022	1146.14
471.394	1124.9
471.766	1160.15
472.138	1151.57
472.51	1166.25
472.882	1188.63
473.253	1195.86
473.625	1206.03
473.997	1232.92
474.369	1232.47
474.74	1258
475.112	1277.89
475.484	1298.45
475.855	1335.06
476.227	1323.99
476.598	1338.68
476.97	1370.32
477.341	1405.57
477.713	1406.25
478.084	1408.73
478.455	1446.02
478.827	1447.38
479.198	1481.95
479.569	1509.97
479.94	1513.82
480.311	1537.09
480.682	1554.04
481.053	1579.13
481.424	1569.18
481.795	1616.19
482.166	1641.04
482.537	1637.88
482.908	1649.18
483.279	1683.76
483.65	1725.11
484.021	1742.51
484.391	1749.52
484.762	1775.73
485.133	1795.62
485.503	1837.42
485.874	1855.05
486.244	1856.18
486.615	1887.59
486.985	1900.92
487.356	1938.89
487.726	1948.15
488.097	1998.55
488.467	2009.4
488.837	2024.99
489.207	2073.35
489.578	2085.33
489.948	2072.45
490.318	2099.34
490.688	2147.7
491.058	2139.11
491.428	2188.15
491.798	2187.47
492.168	2222.95
492.538	2256.85
492.908	2258.43
493.278	2291.65
493.648	2303.85
494.017	2340.91
494.387	2333.91
494.757	2391.76
495.126	2408.71
495.496	2398.09
495.866	2447.8
496.235	2447.35
496.605	2491.64
496.974	2489.84
497.344	2541.59
497.713	2497.07
498.082	2555.82
498.452	2549.27
498.821	2597.4
499.19	2579.1
499.559	2607.12
499.928	2616.39
500.298	2629.72
500.667	2640.79
501.036	2691.41
501.405	2677.4
501.774	2692.32
502.143	2716.04
502.512	2737.29
502.88	2765.76
503.249	2796.72
503.618	2807.12
503.987	2789.94
504.356	2859.32
504.724	2802.14
505.093	2866.32
505.462	2854.35
505.83	2869.49
506.199	2946.77
506.567	2959.43
506.936	2954.46
507.304	2956.94
507.672	2983.83
508.041	3029.93
508.409	3029.48
508.777	3035.13
509.145	3089.14
509.514	3113.77
509.882	3123.94
510.25	3110.61
510.618	3160.33
510.986	3158.97
511.354	3163.94
511.722	3202.81
512.09	3215.47
512.458	3272.41
512.826	3275.8
513.193	3315.12
513.561	3289.36
513.929	3332.75
514.297	3386.99
514.664	3382.69
515.032	3420.88
515.4	3417.95
515.767	3438.06
516.135	3495.46
516.502	3458.62
516.869	3516.02
517.237	3538.4
517.604	3533.65
517.972	3580.2
518.339	3614.55
518.706	3624.72
519.073	3650.71
519.44	3684.83
519.808	3642.35
520.175	3732.74
520.542	3748.56
520.909	3790.82
521.276	3771.38
521.643	3835.11
522.009	3901.78
522.376	3889.57
522.743	3904.71
523.11	3943.36
523.477	3971.15
523.843	4012.73
524.21	4032.85
524.577	4072.17
524.943	4080.98
525.31	4124.14
525.676	4167.98
526.043	4243.91
526.409	4222.45
526.776	4286.17
527.142	4309
527.508	4341.31
527.874	4358.26
528.241	4410.92
528.607	4430.12
528.973	4468.77
529.339	4474.64
529.705	4541.53
530.071	4558.26
530.437	4584.02
530.803	4617.69
531.169	4670.12
531.535	4640.97
531.901	4682.32
532.267	4738.36
532.632	4706.95
532.998	4797.12
533.364	4770.45
533.73	4827.85
534.095	4861.07
534.461	4878.25
534.826	4951.47
535.192	4923.22
535.557	4986.95
535.923	4983.56
536.288	5024.23
536.653	5069.43
537.019	5040.96
537.384	5052.03
537.749	5092.48
538.114	5162.76
538.479	5179.48
538.845	5162.53
539.21	5186.04
539.575	5247.73
539.94	5302.42
540.305	5285.24
540.67	5328.63
541.034	5367.05
541.399	5351.68
541.764	5422.87
542.129	5440.49
542.494	5464.9
542.858	5553.03
543.223	5514.16
543.587	5558.91
543.952	5564.56
544.316	5639.81
544.681	5617.21
545.045	5701.05
545.41	5738.34
545.774	5695.63
546.138	5772.24
546.503	5784.66
546.867	5825.79
547.231	5919.58
547.595	5904.44
547.959	5958.9
548.324	5925.45
548.688	6008.39
549.052	6059.46
549.416	6126.8
549.779	6143.3
550.143	6141.94
550.507	6181.26
550.871	6291.77
551.235	6273.69
551.599	6284.54
551.962	6335.38
552.326	6411.54
552.689	6494.7
553.053	6440.47
553.417	6526.79
553.78	6622.38
554.143	6585.32
554.507	6680.69
554.87	6727.92
555.234	6818.76
555.597	6847.24
555.96	6834.81
556.323	6921.81
556.686	6943.05
557.05	7073.9
557.413	7088.36
557.776	7148.47
558.139	7242.93
558.502	7309.37
558.865	7316.15
559.228	7407.45
559.59	7428.69
559.953	7539.42
560.316	7629.14
560.679	7595.24
561.041	7710.26
561.404	7786.87
561.767	7876.13
562.129	7923.59
562.492	7987.77
562.854	8026.64
563.217	8063.25
563.579	8146.86
563.941	8238.16
564.304	8339.63
564.666	8416.91
565.028	8479.28
565.39	8546.85
565.753	8611.93
566.115	8704.36
566.477	8717.47
566.839	8794.3
567.201	8903.23
567.563	8930.34
567.925	9061.41
568.287	9113.16
568.648	9237.45
569.01	9299.15
569.372	9367.39
569.734	9428.18
570.095	9502.98
570.457	9565.58
570.819	9640.38
571.18	9724.45
571.542	9818
571.903	9835.63
572.265	9967.83
572.626	9992.69
572.987	10079.47
573.349	10178.9
573.71	10225.45
574.071	10330.08
574.432	10445.56
574.794	10536.86
575.155	10548.38
575.516	10643.29
575.877	10676.74
576.238	10798.54
576.599	10879.45
576.96	10902.72
577.32	10982.04
577.681	11029.72
578.042	11149.04
578.403	11185.88
578.763	11281.24
579.124	11338.42
579.485	11364.4
579.845	11422.48
580.206	11543.83
580.566	11608.47
580.927	11605.3
581.287	11744.73
581.648	11733.89
582.008	11853.43
582.368	11912.86
582.728	11939.08
583.089	11977.04
583.449	12017.95
583.809	12168
584.169	12118.28
584.529	12122.35
584.889	12235.57
585.249	12312.85
585.609	12366.86
585.969	12406.86
586.329	12325.51
586.688	12471.72
587.048	12468.33
587.408	12477.37
587.768	12477.6
588.127	12617.7
588.487	12650.47
588.846	12701.32
589.206	12764.14
589.565	12629.91
589.925	12930.69
590.284	12843.91
590.643	12923.91
591.003	12935.44
591.362	12918.26
591.721	12997.36
592.08	13035.77
592.44	13142.21
592.799	13121.65
593.158	13235.99
593.517	13206.84
593.876	13284.58
594.235	13218.14
594.593	13310.34
594.952	13320.74
595.311	13332.04
595.67	13405.25
596.029	13525.7
596.387	13611.35
596.746	13532.71
597.104	13515.53
597.463	13576.78
597.822	13593.95
598.18	13581.3
598.538	13664.91
598.897	13780.61
599.255	13687.51
599.613	13885.47
599.972	13843.66
600.33	13865.58
600.688	13886.15
601.046	13924.56
601.404	13999.59
601.762	14008.4
602.12	14132.69
602.478	14108.06
602.836	14141.51
603.194	14058.35
603.552	14036.65
603.91	14157.1
604.268	14183.54
604.625	14207.95
604.983	14276.87
605.341	14321.16
605.698	14307.6
606.056	14395.29
606.413	14386.02
606.771	14408.62
607.128	14458.33
607.485	14481.84
607.843	14495.62
608.2	14606.13
608.557	14654.26
608.914	14564.55
609.272	14667.37
609.629	14685.45
609.986	14679.57
610.343	14717.76
610.7	14847.25
611.057	14858.1
611.414	14858.78
611.771	14891.09
612.127	14992.11
612.484	15006.12
612.841	15001.15
613.198	15048.38
613.554	15036.17
613.911	15129.96
614.267	15131.54
614.624	15109.84
614.98	15173.57
615.337	15175.15
615.693	15232.33
616.05	15242.95
616.406	15251.31
616.762	15259.44
617.118	15309.61
617.475	15327.01
617.831	15342.15
618.187	15399.1
618.543	15462.6
618.899	15476.61
619.255	15440.91
619.611	15450.85
619.967	15489.04
620.323	15559.77
620.678	15496.27
621.034	15515.26
621.39	15479.1
621.746	15462.15
622.101	15579.21
622.457	15461.25
622.812	15564.97
623.168	15625.08
623.523	15568.36
623.879	15640.9
624.234	15564.52
624.589	15663.73
624.945	15621.47
625.3	15725.87
625.655	15676.83
626.01	15688.13
626.365	15629.83
626.72	15710.5
627.075	15680.68
627.43	15597.74
627.785	15661.24
628.14	15697.17
628.495	15749.37
628.85	15708.02
629.205	15570.85
629.559	15755.7
629.914	15595.71
630.269	15628.25
630.623	15547.35
630.978	15556.38
631.332	15624.41
631.687	15651.52
632.041	15590.96
632.396	15582.37
632.75	15559.32
633.104	15582.37
633.459	15571.07
633.813	15636.38
634.167	15647.23
634.521	15553.22
634.875	15626.89
635.229	15570.17
635.583	15512.32
635.937	15601.13
636.291	15473.68
636.645	15490.4
636.999	15464.18
637.352	15511.41
637.706	15423.96
638.06	15440
638.413	15505.54
638.767	15419.67
639.121	15527.91
639.474	15289.27
639.828	15364.75
640.181	15413.34
640.534	15409.72
640.888	15420.57
641.241	15432.77
641.594	15334.92
641.947	15336.28
642.301	15338.09
642.654	15255.6
643.007	15315.49
643.36	15349.84
643.713	15354.13
644.066	15343.51
644.419	15377.86
644.771	15182.84
645.124	15080.92
645.477	15047.7
645.83	14955.72
646.182	14822.17
646.535	14834.6
646.888	14828.27
647.24	14817.42
647.593	14769.51
647.945	14890.19
648.298	14741.94
648.65	14681.83
649.002	14807.25
649.355	14817.42
649.707	14721.15
650.059	14849.51
650.411	15048.83
650.763	15047.7
651.115	15169.28
651.467	15106.91
651.819	15170.63
652.171	15091.54
652.523	15122.72
652.875	15173.34
653.227	15006.34
653.578	15242.27
653.93	15148.26
654.282	15056.06
654.633	14973.12
654.985	15061.03
655.337	15104.19
655.688	15097.41
656.039	15041.82
656.391	14988.04
656.742	15022.16
657.094	15030.52
657.445	15100.13
657.796	15017.19
658.147	15050.86
658.498	15055.15
658.849	15108.49
659.2	15014.03
659.551	14979.45
659.902	15101.93
660.253	15109.16
660.604	15118.66
660.955	15040.69
661.306	15054.25
661.656	15015.38
662.007	15126.34
662.358	15070.07
662.708	15141.71
663.059	15099
663.409	15045.89
663.76	15075.95
664.11	15062.61
664.461	15137.86
664.811	15020.13
665.161	15082.95
665.511	15044.08
665.862	15075.27
666.212	15219.22
666.562	15116.4
666.912	15095.38
667.262	15085.44
667.612	15100.8
667.962	15180.8
668.312	15156.62
668.662	15174.47
669.011	15196.17
669.361	15171.31
669.711	15155.04
670.06	15226.22
670.41	15138.32
670.76	15061.03
671.109	15125.21
671.459	15188.48
671.808	15095.83
672.157	15136.51
672.507	15090.86
672.856	15153.91
673.205	15113.46
673.554	15146.23
673.904	15175.83
674.253	15241.14
674.602	15159.11
674.951	14977.19
675.3	14874.82
675.649	15103.74
675.998	15168.6
676.346	15130.41
676.695	15201.82
677.044	15085.44
677.393	15200.01
677.741	15137.41
678.09	15148.94
678.438	15001.6
678.787	15155.04
679.135	15204.08
679.484	15055.83
679.832	15213.12
680.181	15079.34
680.529	15092.22
680.877	15122.27
681.225	15073.69
681.573	15259.9
681.922	15058.77
682.27	15083.63
682.618	15117.07
682.966	15064.19
683.314	15103.97
683.661	15044.76
684.009	15007.7
684.357	15017.42
684.705	14923.41
685.053	15048.15
685.4	14950.3
685.748	14934.48
686.095	14970.86
686.443	14974.93
686.79	14898.1
687.138	14910.3
687.485	14963.86
687.832	14893.13
688.18	14896.06
688.527	14825.78
688.874	14835.5
689.221	14710.53
689.568	14767.7
689.915	14724.09
690.262	14746.24
690.609	14731.32
690.956	14637.76
691.303	14645.45
691.65	14636.41
691.997	14577.88
692.344	14507.82
692.69	14525.45
693.037	14587.82
693.383	14388.96
693.73	14575.39
694.077	14425.12
694.423	14515.06
694.769	14434.83
695.116	14366.36
695.462	14466.02
695.808	14395.74
696.155	14348.73
696.501	14316.64
696.847	14421.05
697.193	14176.08
697.539	14339.69
697.885	14182.64
698.231	14252.92
698.577	14188.06
698.923	14174.05
699.269	14063.32
699.614	14118.68
699.96	14023.32
700.306	14040.49
700.651	14007.72
700.997	13952.13
701.342	13987.16
701.688	13925.47
702.033	13949.87
702.379	13899.25
702.724	13917.33
703.069	13954.17
703.415	13805.92
703.76	13878.01
704.105	13800.05
704.45	13773.15
704.795	13751.01
705.14	13695.42
705.485	13750.78
705.83	13672.82
706.175	13681.63
706.52	13723.89
706.865	13659.94
707.209	13588.98
707.554	13590.33
707.899	13572.26
708.243	13574.06
708.588	13540.62
708.932	13507.85
709.277	13567.96
709.621	13494.29
709.966	13446.61
710.31	13446.38
710.654	13347.63
710.998	13344.47
711.342	13431.92
711.687	13296.78
712.031	13232.83
712.375	13255.2
712.719	13351.24
713.063	13308.76
713.407	13283.68
713.75	13278.03
714.094	13273.05
714.438	13163.68
714.782	13205.49
715.125	13210.23
715.469	13191.48
715.812	13179.27
716.156	13129.56
716.499	13150.57
716.843	13151.93
717.186	13076.45
717.53	13110.8
717.873	13125.04
718.216	13110.35
718.559	13087.98
718.902	13002.55
719.246	12972.05
719.589	12990.35
719.932	12955.1
720.275	12899.73
720.617	12964.59
720.96	12962.33
721.303	12879.62
721.646	12914.87
721.989	12854.99
722.331	12921.43
722.674	12904.93
723.016	12875.33
723.359	12819.06
723.701	12803.01
724.044	12789.45
724.386	12850.47
724.729	12821.99
725.071	12779.73
725.413	12789
725.755	12709.68
726.097	12799.4
726.439	12653.18
726.782	12735.44
727.124	12763.46
727.465	12663.13
727.807	12649.12
728.149	12689.34
728.491	12692.96
728.833	12703.58
729.175	12674.88
729.516	12619.06
729.858	12565.73
730.199	12661.32
730.541	12664.03
730.882	12565.73
731.224	12732.5
731.565	12501.78
731.906	12559.85
732.248	12558.72
732.589	12568.44
732.93	12578.16
733.271	12586.07
733.612	12495.67
733.953	12515.56
734.294	12482.34
734.635	12486.63
734.976	12515.33
735.317	12375.68
735.658	12448.44
735.999	12450.7
736.339	12405.73
736.68	12371.61
737.021	12383.59
737.361	12320.99
737.702	12419.52
738.042	12424.26
738.383	12350.37
738.723	12380.88
739.063	12345.4
739.404	12353.08
739.744	12233.08
740.084	12320.76
740.424	12244.38
740.764	12217.72
741.104	12264.49
741.444	12208.22
741.784	12168
742.124	12167.77
742.464	12113.31
742.804	12175.91
743.143	12072.63
743.483	12127.55
743.823	12087.1
744.162	12106.76
744.502	12078.06
744.841	12108.34
745.181	12092.75
745.52	12086.42
745.86	12051.17
746.199	11991.28
746.538	11930.27
746.877	11986.08
747.216	11993.31
747.556	11934.33
747.895	11965.52
748.234	11917.84
748.573	11932.53
748.911	11918.29
749.25	11843.71
749.589	11886.65
749.928	11815.24
750.267	11785.18
750.605	11785.64
750.944	11723.72
751.283	11707.9
751.621	11739.08
751.96	11647.33
752.298	11753.32
752.636	11653.89
752.975	11647.79
753.313	11544.74
753.651	11594.91
753.989	11547.9
754.327	11542.25
754.666	11404.63
755.004	11472.2
755.342	11462.93
755.679	11470.84
756.017	11438.75
756.355	11386.1
756.693	11285.54
757.031	11365.31
757.368	11293.22
757.706	11270.85
758.044	11202.6
758.381	11084.64
758.719	11133.22
759.056	11123.73
759.394	11138.65
759.731	11052.1
760.068	11034.92
760.405	10951.53
760.743	11009.61
761.08	11010.52
761.417	10960.12
761.754	10922.83
762.091	10940.69
762.428	10829.73
762.765	10702.28
763.102	10787.7
763.438	10711.99
763.775	10671.77
764.112	10749.96
764.449	10686.91
764.785	10600.13
765.122	10512.45
765.458	10589.06
765.795	10490.3
766.131	10551.77
766.467	10478.1
766.804	10366.46
767.14	10400.81
767.476	10380.93
767.812	10289.86
768.148	10265
768.485	10190.42
768.821	10228.84
769.157	10095.96
769.492	10121.95
769.828	10106.13
770.164	9977.55
770.5	9962.86
770.836	10035.17
771.171	9994.95
771.507	9948.85
771.842	9838.57
772.178	9841.73
772.513	9813.71
772.849	9751.34
773.184	9748.4
773.519	9682.41
773.855	9633.83
774.19	9614.62
774.525	9552.7
774.86	9578.91
775.195	9521.29
775.53	9469.77
775.865	9508.18
776.2	9441.52
776.535	9323.55
776.87	9316.1
777.205	9303.89
777.539	9259.38
777.874	9246.27
778.209	9159.94
778.543	9189.09
778.878	9107.97
779.212	9161.75
779.547	8966.95
779.881	9024.35
780.215	8944.36
780.55	8991.59
780.884	8950.91
781.218	8846.28
781.552	8901.87
781.886	8863.45
782.22	8845.15
782.554	8708.2
782.888	8663.91
783.222	8612.84
783.556	8608.77
783.889	8601.09
784.223	8505.95
784.557	8486.29
784.89	8513.63
785.224	8490.36
785.557	8456.01
785.891	8354.31
786.224	8381.66
786.558	8310.25
786.891	8323.58
787.224	8277.71
787.557	8188.22
787.891	8190.25
788.224	8187.99
788.557	8181.89
788.89	8064.15
789.223	8108.9
789.556	8043.36
789.888	8078.62
790.221	7952.06
790.554	7937.83
790.887	7895.8
791.219	7915.23
791.552	7830.94
791.884	7856.02
792.217	7854.44
792.549	7768.57
792.882	7725.4
793.214	7713.88
793.546	7675.01
793.879	7637.04
794.211	7573.09
794.543	7650.38
794.875	7560.44
795.207	7593.88
795.539	7444.06
795.871	7428.01
796.203	7501.23
796.535	7377.39
796.867	7382.14
797.198	7378.29
797.53	7387.33
797.862	7324.74
798.193	7345.08
798.525	7270.95
798.856	7294
799.188	7236.38
799.519	7204.06
799.85	7127.45
800.182	7090.39
800.513	7131.52
800.844	7074.57
801.175	7103.27
801.506	7062.6
801.837	7027.34
802.168	6971.75
802.499	7040.68
802.83	6983.5
803.161	6887.46
803.491	6895.14
803.822	6878.19
804.153	6883.17
804.483	6805.65
804.814	6784.41
805.145	6794.36
805.475	6729.05
805.805	6702.38
806.136	6755.49
806.466	6702.83
806.796	6688.14
807.126	6674.81
807.457	6623.96
807.787	6638.2
808.117	6617.64
808.447	6569.5
808.777	6593
809.107	6555.49
809.436	6549.39
809.766	6514.36
810.096	6495.61
810.426	6419.45
810.755	6430.07
811.085	6388.49
811.414	6428.04
811.744	6373.58
812.073	6307.36
812.403	6313.24
812.732	6334.03
813.061	6250.87
813.39	6237.53
813.719	6219.46
814.049	6232.79
814.378	6270.75
814.707	6167.25
815.036	6210.64
815.365	6157.76
815.693	6082.74
816.022	6132.68
816.351	6076.41
816.68	6039.35
817.008	6085.67
817.337	6015.84
817.665	5978.33
817.994	5979.69
818.322	6033.25
818.651	5942.85
818.979	5959.12
819.307	5948.05
819.636	5946.92
819.964	5859.01
820.292	5982.63
820.62	5889.29
820.948	5930.42
821.276	5880.03
821.604	5858.11
821.932	5891.1
822.259	5865.11
822.587	5846.13
822.915	5872.35
823.243	5897.43
823.57	5762.97
823.898	5806.36
824.225	5820.37
824.553	5815.4
824.88	5805
825.207	5797.55
825.535	5789.41
825.862	5810.2
826.189	5774.04
826.516	5781.27
826.843	5811.33
827.17	5819.24
827.497	5840.93
827.824	5777.66
828.151	5806.36
828.478	5758.9
828.805	5775.62
829.131	5703.31
829.458	5785.12
829.785	5736.98
830.111	5754.16
830.438	5772.69
830.764	5769.75
831.09	5738.56
831.417	5731.11
831.743	5675.29
832.069	5711.45
832.395	5661.5
832.722	5699.47
833.048	5688.17
833.374	5711.9
833.7	5606.59
834.026	5643.88
834.351	5666.25
834.677	5720.49
835.003	5651.56
835.329	5665.57
835.654	5601.84
835.98	5595.52
836.306	5605.69
836.631	5574.95
836.956	5645.68
837.282	5613.6
837.607	5574.27
837.932	5578.79
838.258	5534.05
838.583	5575.4
838.908	5525.24
839.233	5537.44
839.558	5480.04
839.883	5466.25
840.208	5474.84
840.533	5478.46
840.858	5474.84
841.182	5470.1
841.507	5436.65
841.832	5395.97
842.156	5395.52
842.481	5410.66
842.805	5405.24
843.13	5345.35
843.454	5345.58
843.778	5354.17
844.103	5278.91
844.427	5311.23
844.751	5313.04
845.075	5312.36
845.399	5283.43
845.723	5217.22
846.047	5190.56
846.371	5186.49
846.695	5174.06
847.019	5173.83
847.343	5160.73
847.666	5101.07
847.99	5042.54
848.313	5035.08
848.637	5060.39
848.96	5040.05
849.284	5004.12
849.607	5001.18
849.931	4949.66
850.254	4947.62
850.577	4874.41
850.9	4893.84
851.223	4893.84
851.546	4910.56
851.869	4849.1
852.192	4796.22
852.515	4813.62
852.838	4812.03
853.161	4784.24
853.483	4760.74
853.806	4729.55
854.129	4668.76
854.451	4711.25
854.774	4662.66
855.096	4665.82
855.419	4659.27
855.741	4657.46
856.063	4615.2
856.385	4605.71
856.708	4579.72
857.03	4575.2
857.352	4580.63
857.674	4549.22
857.996	4528.43
858.318	4487.98
858.64	4534.08
858.961	4512.83
859.283	4453.17
859.605	4410.92
859.926	4438.71
860.248	4458.82
860.57	4412.95
860.891	4421.76
861.212	4363.01
861.534	4357.13
861.855	4346.96
862.176	4389.67
862.498	4384.48
862.819	4396
863.14	4341.99
863.461	4353.06
863.782	4293.63
864.103	4317.81
864.424	4290.24
864.745	4320.52
865.065	4260.86
865.386	4292.27
865.707	4254.54
866.027	4306.06
866.348	4243.46
866.668	4284.82
866.989	4217.25
867.309	4184.93
867.63	4164.59
867.95	4198.94
868.27	4166.63
868.59	4199.4
868.91	4249.11
869.23	4197.81
869.55	4206.63
869.87	4157.81
870.19	4179.96
870.51	4158.27
870.83	4159.62
871.15	4171.37
871.469	4120.08
871.789	4151.03
872.109	4189.68
872.428	4137.48
872.748	4082.11
873.067	4140.87
873.386	4094.31
873.706	4112.39
874.025	4072.84
874.344	4087.76
874.663	4053.64
874.982	4057.03
875.301	4085.05
875.62	4017.03
875.939	4003.47
876.258	4066.29
876.577	4022.45
876.896	4023.35
877.214	4004.6
877.533	4041.89
877.852	4009.34
878.17	4009.8
878.489	3974.77
878.807	4004.37
879.125	3972.06
879.444	3980.19
879.762	3947.2
880.08	3935.67
880.398	3956.69
880.716	3912.17
881.034	3916.92
881.352	3900.65
881.67	3911.27
881.988	3938.39
882.306	3892.74
882.624	3918.95
882.941	3859.97
883.259	3838.73
883.577	3881.44
883.894	3855.68
884.212	3861.78
884.529	3868.33
884.846	3832.63
885.164	3883.47
885.481	3774.1
885.798	3792.85
886.115	3789.91
886.432	3796.02
886.75	3782.23
887.067	3734.77
887.383	3727.77
887.7	3797.15
888.017	3779.97
888.334	3754.44
888.651	3745.85
888.967	3734.32
889.284	3733.87
889.6	3692.97
889.917	3663.36
890.233	3702.23
890.55	3679.41
890.866	3659.75
891.182	3625.63
891.498	3626.53
891.815	3630.6
892.131	3609.81
892.447	3610.48
892.763	3645.51
893.079	3591.73
893.395	3578.85
893.71	3596.93
894.026	3560.99
894.342	3572.29
894.657	3530.26
894.973	3567.32
895.289	3560.09
895.604	3524.61
895.92	3500.43
896.235	3446.87
896.55	3518.96
896.865	3495.01
897.181	3490.04
897.496	3509.02
897.811	3431.28
898.126	3469.92
898.441	3429.92
898.756	3422.01
899.071	3358.06
899.386	3393.99
899.7	3413.2
900.015	3368.46
900.33	3325.97
900.644	3350.6
900.959	3324.62
901.273	3353.32
901.588	3316.71
901.902	3294.79
902.216	3286.2
902.531	3276.03
902.845	3267.22
903.159	3248.91
903.473	3230.38
903.787	3203.04
904.101	3210.04
904.415	3182.25
904.729	3214.79
905.042	3202.36
905.356	3157.39
905.67	3159.42
905.984	3161.23
906.297	3152.19
906.611	3165.75
906.924	3138.41
907.237	3136.37
907.551	3115.13
907.864	3100.89
908.177	3089.37
908.491	3090.5
908.804	3043.04
909.117	3068.13
909.43	3045.3
909.743	3035.36
910.056	3024.28
910.368	3010.05
910.681	2978.41
910.994	2978.86
911.307	2970.95
911.619	2942.71
911.932	2968.02
912.244	2944.96
912.557	2908.13
912.869	2900.22
913.181	2896.83
913.494	2878.07
913.806	2883.27
914.118	2870.39
914.43	2890.28
914.742	2841.92
915.054	2800.79
915.366	2821.8
915.678	2831.52
915.99	2850.05
916.302	2777.74
916.613	2783.61
916.925	2748.36
917.236	2772.31
917.548	2758.3
917.859	2773.9
918.171	2731.86
918.482	2707.23
918.794	2716.27
919.105	2718.76
919.416	2701.58
919.727	2722.15
920.038	2649.61
920.349	2646.89
920.66	2656.38
920.971	2666.78
921.282	2614.13
921.593	2601.25
921.903	2577.52
922.214	2575.94
922.525	2640.79
922.835	2605.99
923.146	2582.26
923.456	2537.29
923.767	2587.91
924.077	2569.83
924.387	2558.08
924.697	2512.66
925.008	2524.41
925.318	2541.36
925.628	2520.8
925.938	2523.73
926.248	2495.94
926.558	2474.92
926.867	2474.92
927.177	2442.83
927.487	2458.42
927.796	2412.55
928.106	2382.04
928.416	2421.14
928.725	2402.83
929.034	2409.61
929.344	2379.78
929.653	2375.49
929.962	2359.22
930.271	2336.62
930.581	2385.88
930.89	2349.05
931.199	2304.08
931.508	2311.99
931.817	2324.64
932.125	2288.26
932.434	2313.12
932.743	2287.58
933.051	2268.15
933.36	2266.79
933.669	2271.99
933.977	2277.64
934.286	2254.59
934.594	2269.73
934.902	2227.47
935.21	2251.42
935.519	2223.4
935.827	2210.07
936.135	2206.23
936.443	2217.53
936.751	2175.04
937.059	2206.68
937.367	2187.92
937.674	2157.87
937.982	2162.61
938.29	2178.21
938.597	2152.67
938.905	2117.87
939.213	2159.67
939.52	2108.83
939.827	2123.07
940.135	2105.44
940.442	2092.33
940.749	2064.54
941.056	2074.48
941.363	2055.5
941.67	2042.39
941.977	2041.03
942.284	2037.64
942.591	2016.4
942.898	1994.93
943.205	2021.6
943.511	2011.43
943.818	2012.11
944.125	2004.65
944.431	2007.59
944.738	2012.79
945.044	1982.5
945.35	1973.92
945.657	1992.22
945.963	1952
946.269	1942.51
946.575	1920.59
946.881	1926.69
947.187	1936.4
947.493	1911.09
947.799	1921.49
948.105	1910.19
948.41	1899.57
948.716	1891.89
949.022	1895.28
949.327	1883.98
949.633	1852.56
949.938	1887.59
950.244	1881.94
950.549	1862.96
950.854	1853.24
951.16	1807.14
951.465	1859.57
951.77	1834.49
952.075	1816.18
952.38	1775.05
952.685	1805.33
952.99	1797.2
953.294	1775.5
953.599	1792.45
953.904	1800.36
954.209	1761.27
954.513	1762.85
954.818	1780.7
955.122	1750.65
955.426	1741.15
955.731	1744.54
956.035	1753.36
956.339	1722.85
956.643	1726.92
956.948	1717.2
957.252	1669.07
957.556	1701.61
957.86	1715.39
958.163	1683.3
958.467	1692.34
958.771	1698.44
959.075	1653.7
959.378	1645.79
959.682	1675.39
959.985	1663.64
960.289	1645.34
960.592	1637.43
960.896	1633.59
961.199	1662.96
961.502	1632.23
961.805	1625.45
962.108	1613.47
962.411	1603.98
962.714	1588.62
963.017	1601.95
963.32	1589.52
963.623	1590.88
963.926	1575.06
964.228	1552.46
964.531	1537.54
964.833	1522.86
965.136	1549.52
965.438	1528.73
965.741	1542.29
966.043	1527.15
966.345	1524.44
966.648	1532.12
966.95	1528.51
967.252	1512.69
967.554	1511.1
967.856	1508.62
968.158	1506.13
968.46	1519.92
968.761	1498.45
969.063	1483.53
969.365	1476.3
969.666	1496.19
969.968	1426.81
970.269	1458.45
970.571	1474.04
970.872	1471.56
971.174	1448.51
971.475	1418
971.776	1429.3
972.077	1422.52
972.378	1442.63
972.679	1413.03
972.98	1410.77
973.281	1394.95
973.582	1424.1
973.883	1383.42
974.183	1411.22
974.484	1409.64
974.785	1348.4
975.085	1374.16
975.386	1407.15
975.686	1376.19
975.986	1361.96
976.287	1365.8
976.587	1372.35
976.887	1338.91
977.187	1352.24
977.487	1367.15
977.787	1342.75
978.087	1312.47
978.387	1340.26
978.687	1338.45
978.987	1306.82
979.286	1329.19
979.586	1315.63
979.885	1314.05
980.185	1286.93
980.484	1276.08
980.784	1322.41
981.083	1295.29
981.382	1294.16
981.682	1305.23
981.981	1269.3
982.28	1237.21
982.579	1265.91
982.878	1271.11
983.177	1244.44
983.475	1254.61
983.774	1238.34
984.073	1240.83
984.372	1239.93
984.67	1246.03
984.969	1227.72
985.267	1225.46
985.566	1234.95
985.864	1225.46
986.162	1226.37
986.461	1212.58
986.759	1222.75
987.057	1182.53
987.355	1201.96
987.653	1201.06
987.951	1175.07
988.249	1184.56
988.547	1187.5
988.844	1177.33
989.142	1184.56
989.44	1172.36
989.737	1129.87
990.035	1160.15
990.332	1156.76
990.63	1160.15
990.927	1169.42
991.224	1146.59
991.521	1150.21
991.819	1133.94
992.116	1121.06
992.413	1108.18
992.71	1122.19
993.006	1129.65
993.303	1130.78
993.6	1095.52
993.897	1126.48
994.193	1119.48
994.49	1109.31
994.787	1098.01
995.083	1103.66
995.379	1056.65
995.676	1086.93
995.972	1088.97
996.268	1063.43
996.565	1061.17
996.861	1039.7
997.157	1084.67
997.453	1052.81
997.749	1035.18
998.044	1045.81
998.34	1053.26
998.636	1012.59
998.932	1037.22
999.227	1019.14
999.523	1043.55
999.818	984.34
1000.114	1004.23
1000.409	1014.17
1000.704	999.25
1001	980.04
1001.295	975.3
1001.59	982.08
1001.885	1007.61
1002.18	966.49
1002.475	993.15
1002.77	979.82
1003.065	977.56
1003.359	974.85
1003.654	977.11
1003.949	937.56
1004.243	965.36
1004.538	958.12
1004.832	952.7
1005.127	958.58
1005.421	942.31
1005.715	926.71
1006.009	947.05
1006.304	918.8
1006.598	903.44
1006.892	917
1007.186	890.78
1007.48	906.37
1007.773	921.97
1008.067	890.78
1008.361	907.96
1008.655	905.47
1008.948	870.22
1009.242	874.28
1009.535	878.8
1009.829	882.42
1010.122	863.21
1010.415	861.63
1010.708	869.09
1011.001	879.93
1011.295	869.31
1011.588	845.13
1011.881	859.6
1012.173	846.72
1012.466	822.76
1012.759	840.16
1013.052	840.39
1013.344	842.65
1013.637	814.85
1013.93	820.5
1014.222	843.78
1014.514	810.33
1014.807	829.54
1015.099	823.66
1015.391	790.67
1015.683	804.23
1015.976	818.02
1016.268	799.94
1016.56	816.43
1016.851	803.1
1017.143	795.64
1017.435	789.54
1017.727	771.91
1018.018	789.09
1018.31	782.31
1018.602	769.2
1018.893	774.4
1019.185	769.2
1019.476	753.38
1019.767	751.58
1020.058	751.58
1020.35	749.77
1020.641	728.75
1020.932	762.88
1021.223	747.06
1021.514	726.94
1021.804	721.97
1022.095	751.58
1022.386	731.92
1022.677	713.84
1022.967	732.59
1023.258	723.1
1023.548	711.13
1023.839	717.45
1024.129	728.53
1024.419	698.02
1024.709	669.77
1025	687.85
1025.29	690.33
1025.58	674.74
1025.87	708.64
1026.16	675.42
1026.449	664.8
1026.739	685.59
1027.029	658.25
1027.319	679.26
1027.608	660.73
1027.898	650.79
1028.187	655.99
1028.477	658.92
1028.766	660.28
1029.055	644.46
1029.344	646.27
1029.634	642.88
1029.923	643.1
1030.212	637
1030.501	637.68
1030.79	652.6
1031.078	670.9
1031.367	611.92
1031.656	620.96
1031.945	623.67
1032.233	614.63
1032.522	609.66
1032.81	623.67
1033.099	596.55
1033.387	611.47
1033.675	596.55
1033.963	595.65
1034.251	589.55
1034.54	595.87
1034.828	592.03
1035.116	584.35
1035.403	600.85
1035.691	579.83
1035.979	590
1036.267	568.98
1036.554	576.89
1036.842	572.37
1037.129	566.72
1037.417	555.42
1037.704	561.3
1037.992	567.63
1038.279	560.62
1038.566	573.05
1038.853	573.05
1039.14	573.05
