Data from brown_tile_FLMS001491_093.txt Node
Date: Tue Feb 07 10:38:16 GMT 2017
User: dcchb
Spectrometer: FLMS00149
Trigger mode: 0
Integration Time (sec): 2.000000E-2
Scans to average: 10
Electric dark correction enabled: true
Nonlinearity correction enabled: false
Boxcar width: 0
XAxis mode: Wavelengths
Number of Pixels in Spectrum: 2048
>>>>>Begin Spectral Data<<<<<
341.393	-12.94
341.776	-12.94
342.16	-12.94
342.543	-69.89
342.927	-64.01
343.31	-71.47
343.693	-77.12
344.077	-55.87
344.46	-76.89
344.843	-41.86
345.226	-45.71
345.61	-21.98
345.993	-16.1
346.376	9.66
346.759	26.38
347.142	18.7
347.525	40.39
347.908	55.99
348.291	76.78
348.674	89.66
349.057	89.43
349.44	139.37
349.823	158.36
350.206	135.99
350.588	191.8
350.971	197.9
351.354	206.94
351.737	205.81
352.119	243.1
352.502	247.62
352.884	238.58
353.267	252.14
353.65	292.14
354.032	279.03
354.414	284.23
354.797	292.14
355.179	302.76
355.562	314.51
355.944	302.76
356.326	331.46
356.709	330.56
357.091	325.36
357.473	302.76
357.855	285.81
358.238	316.77
358.62	329.88
359.002	321.29
359.384	310.22
359.766	315.87
360.148	319.94
360.53	309.54
360.912	305.47
361.294	322.42
361.676	310.9
362.057	309.77
362.439	311.12
362.821	333.04
363.203	307.28
363.584	312.48
363.966	298.69
364.348	283.55
364.729	309.77
365.111	308.86
365.493	321.74
365.874	316.09
366.256	318.13
366.637	302.31
367.019	307.73
367.4	307.05
367.781	293.04
368.163	277.9
368.544	294.17
368.925	300.27
369.306	305.92
369.688	305.7
370.069	308.18
370.45	317
370.831	291.01
371.212	288.3
371.593	284
371.974	298.24
372.355	306.38
372.736	303.89
373.117	274.74
373.498	308.86
373.879	290.33
374.26	284.23
374.641	277.68
375.021	294.17
375.402	302.08
375.783	305.25
376.163	291.69
376.544	305.47
376.925	293.95
377.305	312.7
377.686	298.24
378.066	311.12
378.447	324.23
378.827	332.36
379.208	303.89
379.588	317.22
379.968	330.33
380.349	326.26
380.729	318.58
381.109	314.51
381.489	319.94
381.87	330.1
382.25	281.52
382.63	317.22
383.01	319.48
383.39	325.13
383.77	323.78
384.15	309.09
384.53	323.32
384.91	325.13
385.29	311.35
385.67	327.39
386.049	338.47
386.429	315.42
386.809	336.88
387.189	337.79
387.568	321.29
387.948	343.21
388.328	331.46
388.707	363.1
389.087	340.27
389.466	338.92
389.846	337.11
390.225	340.05
390.605	322.19
390.984	339.37
391.363	337.79
391.743	345.92
392.122	340.5
392.501	340.73
392.881	361.52
393.26	331.69
393.639	338.47
394.018	352.48
394.397	338.24
394.776	343.89
395.155	338.01
395.534	384.34
395.913	370.1
396.292	358.35
396.671	351.12
397.05	366.26
397.429	354.96
397.808	382.53
398.186	352.7
398.565	393.38
398.944	364.68
399.323	360.16
399.701	393.15
400.08	371.69
400.458	378.92
400.837	377.56
401.215	383.89
401.594	369.88
401.972	375.53
402.351	394.06
402.729	403.32
403.107	396.32
403.486	380.05
403.864	395.41
404.242	378.69
404.62	387.28
404.999	387.05
405.377	378.46
405.755	371.69
406.133	399.71
406.511	394.06
406.889	396.77
407.267	393.83
407.645	407.39
408.023	382.08
408.401	404.68
408.779	417.33
409.156	424.57
409.534	426.6
409.912	418.01
410.29	418.24
410.667	405.13
411.045	417.56
411.422	430.21
411.8	435.19
412.178	437.67
412.555	444.23
412.933	451.46
413.31	440.38
413.687	448.52
414.065	439.48
414.442	438.8
414.819	447.16
415.197	455.75
415.574	452.81
415.951	433.15
416.328	454.85
416.705	444.23
417.082	443.77
417.46	478.12
417.837	451.68
418.214	454.39
418.591	461.4
418.967	464.79
419.344	459.59
419.721	474.73
420.098	458.91
420.475	481.96
420.852	470.89
421.228	479.48
421.605	465.92
421.982	489.65
422.358	499.14
422.735	481.96
423.111	513.38
423.488	485.35
423.864	493.94
424.241	514.28
424.617	494.39
424.994	511.57
425.37	514.05
425.746	462.98
426.123	547.95
426.499	530.33
426.875	537.33
427.251	536.43
427.627	532.13
428.003	548.86
428.379	553.15
428.756	546.6
429.132	551.12
429.507	539.82
429.883	562.41
430.259	566.48
430.635	575.97
431.011	550.66
431.387	561.06
431.763	585.92
432.138	594.96
432.514	588.4
432.89	601.06
433.265	591.11
433.641	589.53
434.016	609.87
434.392	620.27
434.767	615.07
435.143	598.57
435.518	613.49
435.894	638.57
436.269	666.82
436.644	646.25
437.02	633.15
437.395	629.98
437.77	652.36
438.145	632.7
438.52	653.03
438.895	639.93
439.271	629.08
439.646	668.85
440.021	675.18
440.395	653.94
440.77	661.85
441.145	670.89
441.52	691.68
441.895	703.88
442.27	695.74
442.645	683.09
443.019	707.5
443.394	687.84
443.769	691.45
444.143	695.07
444.518	717.21
444.892	690.77
445.267	734.84
445.641	713.37
446.016	714.73
446.39	757.44
446.764	726.7
447.139	744.1
447.513	727.61
447.887	724.44
448.262	738
448.636	732.13
449.01	752.24
449.384	753.6
449.758	738.68
450.132	744.78
450.506	752.01
450.88	756.99
451.254	771.9
451.628	788.85
452.002	784.33
452.376	794.27
452.75	802.18
453.123	791.11
453.497	819.36
453.871	832.24
454.244	818.45
454.618	813.03
454.992	836.76
455.365	825.68
455.739	857.32
456.112	860.49
456.486	870.66
456.859	858.68
457.232	887.38
457.606	880.6
457.979	887.83
458.352	899.58
458.725	889.19
459.099	874.72
459.472	928.73
459.845	929.86
460.218	952.01
460.591	939.35
460.964	934.83
461.337	948.62
461.71	973.7
462.083	992.69
462.456	988.17
462.829	980.71
463.201	989.75
463.574	996.08
463.947	997.88
464.32	1027.49
464.692	1001.73
465.065	1060.71
465.438	1044.66
465.81	1068.84
466.183	1063.19
466.555	1070.65
466.928	1084.21
467.3	1099.58
467.672	1121.04
468.045	1144.77
468.417	1123.08
468.789	1143.64
469.161	1140.7
469.534	1199.69
469.906	1200.36
470.278	1205.79
470.65	1212.79
471.022	1244.43
471.394	1223.64
471.766	1240.81
472.138	1266.35
472.51	1272.45
472.882	1280.59
473.253	1307.48
473.625	1332.34
473.997	1323.98
474.369	1373.69
474.74	1375.95
475.112	1363.98
475.484	1401.26
475.855	1426.57
476.227	1431.77
476.598	1476.51
476.97	1468.83
477.341	1473.35
477.713	1540.02
478.084	1546.8
478.455	1581.82
478.827	1568.26
479.198	1617.75
479.569	1623.18
479.94	1660.92
480.311	1687.36
480.682	1683.06
481.053	1682.61
481.424	1730.52
481.795	1771.42
482.166	1763.96
482.537	1801.7
482.908	1827.92
483.279	1844.19
483.65	1901.36
484.021	1914.47
484.391	1899.1
484.762	1949.95
485.133	1962.6
485.503	1976.39
485.874	2034.47
486.244	2037.63
486.615	2062.26
486.985	2109.04
487.356	2099.32
487.726	2105.42
488.097	2210.51
488.467	2189.72
488.837	2263.61
489.207	2297.28
489.578	2258.19
489.948	2296.61
490.318	2328.47
490.688	2346.77
491.058	2371.41
491.428	2381.58
491.798	2418.64
492.168	2454.79
492.538	2457.96
492.908	2515.81
493.278	2512.65
493.648	2512.87
494.017	2538.18
494.387	2571.63
494.757	2600.1
495.126	2626.32
495.496	2636.48
495.866	2683.49
496.235	2687.56
496.605	2707.22
496.974	2717.16
497.344	2775.46
497.713	2763.03
498.082	2819.3
498.452	2830.15
498.821	2845.07
499.19	2832.64
499.559	2841.22
499.928	2886.65
500.298	2926.19
500.667	2897.95
501.036	2928.23
501.405	2960.77
501.774	2971.84
502.143	2994.89
502.512	2989.47
502.88	3009.58
503.249	3038.96
503.618	3043.25
503.987	3098.85
504.356	3073.08
504.724	3105.17
505.093	3144.95
505.462	3160.31
505.83	3185.17
506.199	3230.59
506.567	3223.81
506.936	3233.08
507.304	3282.8
507.672	3270.59
508.041	3299.74
508.409	3299.29
508.777	3347.43
509.145	3368.89
509.514	3390.81
509.882	3433.75
510.25	3417.48
510.618	3489.8
510.986	3465.39
511.354	3529.12
511.722	3542.9
512.09	3576.57
512.458	3558.04
512.826	3594.88
513.193	3621.09
513.561	3666.74
513.929	3680.75
514.297	3714.42
514.664	3783.57
515.032	3695.67
515.4	3782.67
515.767	3753.74
516.135	3852.72
516.502	3824.25
516.869	3887.3
517.237	3866.51
517.604	3951.25
517.972	3954.19
518.339	3941.76
518.706	3970.91
519.073	4012.04
519.44	4031.02
519.808	4106.73
520.175	4054.53
520.542	4158.03
520.909	4228.53
521.276	4207.52
521.643	4243.67
522.009	4271.02
522.376	4275.76
522.743	4293.39
523.11	4347.4
523.477	4397.12
523.843	4416.1
524.21	4487.28
524.577	4525.02
524.943	4509.43
525.31	4562.76
525.676	4595.53
526.043	4654.28
526.409	4668.52
526.776	4696.09
527.142	4753.26
527.508	4768.86
527.874	4809.08
528.241	4845.01
528.607	4896.09
528.973	4932.92
529.339	4885.92
529.705	5017.44
530.071	5050.21
530.437	5037.1
530.803	5118
531.169	5148.28
531.535	5111.45
531.901	5167.94
532.267	5172.46
532.632	5237.32
532.998	5271.9
533.364	5302.4
533.73	5287.49
534.095	5374.49
534.461	5321.39
534.826	5419.69
535.192	5463.3
535.557	5467.82
535.923	5513.02
536.288	5509.4
536.653	5568.38
537.019	5556.41
537.384	5612.68
537.749	5622.17
538.114	5686.35
538.479	5702.17
538.845	5706.23
539.21	5725.44
539.575	5844.99
539.94	5834.59
540.305	5848.15
540.67	5852.22
541.034	5894.93
541.399	5950.75
541.764	5964.98
542.129	6012.89
542.494	5999.79
542.858	6100.8
543.223	6087.24
543.587	6113.68
543.952	6167.69
544.316	6199.55
544.681	6181.7
545.045	6224.41
545.41	6277.07
545.774	6332.43
546.138	6384.63
546.503	6397.97
546.867	6405.65
547.231	6469.15
547.595	6522.26
547.959	6510.05
548.324	6539.66
548.688	6644.74
549.052	6668.47
549.416	6693.55
549.779	6764.74
550.143	6808.8
550.507	6812.19
550.871	6896.71
551.235	6868.24
551.599	6986.43
551.962	7044.73
552.326	7045.86
552.689	7161.56
553.053	7125.86
553.417	7146.65
553.78	7275.01
554.143	7254.67
554.507	7326.98
554.87	7436.58
555.234	7497.6
555.597	7509.35
555.96	7565.39
556.323	7620.08
556.686	7675.67
557.05	7806.97
557.413	7760.42
557.776	7872.05
558.139	7971.94
558.502	7961.09
558.865	8078.83
559.228	8149.11
559.59	8152.72
559.953	8175.32
560.316	8298.48
560.679	8432.49
561.041	8520.62
561.404	8574.63
561.767	8615.31
562.129	8679.04
562.492	8764.01
562.854	8788.19
563.217	8898.01
563.579	8945.02
563.941	9060.95
564.304	9145.92
564.666	9238.57
565.028	9366.25
565.39	9354.95
565.753	9429.98
566.115	9513.37
566.477	9609.63
566.839	9644.21
567.201	9737.99
567.563	9753.81
567.925	9900.02
568.287	9991.77
568.648	9989.29
569.01	10152.9
569.372	10260.01
569.734	10286
570.095	10435.6
570.457	10467.01
570.819	10572.09
571.18	10618.65
571.542	10753.33
571.903	10878.08
572.265	10861.8
572.626	11020.9
572.987	10986.1
573.349	11104.96
573.71	11179.99
574.071	11316.93
574.432	11405.07
574.794	11468.12
575.155	11558.51
575.516	11527.78
575.877	11660.65
576.238	11810.93
576.599	11877.15
576.96	11929.35
577.32	11964.6
577.681	12076.24
578.042	12139.96
578.403	12198.94
578.763	12320.52
579.124	12276.68
579.485	12431.03
579.845	12515.32
580.206	12463.8
580.566	12518.03
580.927	12690.23
581.287	12718.25
581.648	12772.94
582.008	12791.47
582.368	12825.37
582.728	12922.32
583.089	12969.77
583.449	13028.53
583.809	13078.92
584.169	13139.71
584.529	13183.33
584.889	13342.64
585.249	13315.75
585.609	13309.65
585.969	13402.98
586.329	13374.73
586.688	13533.82
587.048	13539.25
587.408	13605.69
587.768	13670.09
588.127	13659.25
588.487	13742.18
588.846	13812.91
589.206	13766.36
589.565	13857.66
589.925	13917.77
590.284	14013.59
590.643	14041.83
591.003	14095.62
591.362	14176.52
591.721	14223.98
592.08	14184.43
592.44	14258.33
592.799	14298.55
593.158	14359.11
593.517	14310.3
593.876	14397.98
594.235	14418.77
594.593	14552.78
594.952	14473.91
595.311	14506.68
595.67	14635.26
596.029	14635.72
596.387	14767.46
596.746	14792.32
597.104	14729.95
597.463	14766.79
597.822	14780.57
598.18	14841.14
598.538	14832.77
598.897	14956.61
599.255	14835.94
599.613	15087
599.972	14995.93
600.33	15029.6
600.688	14974.47
601.046	15089.04
601.404	15178.3
601.762	15185.53
602.12	15283.16
602.478	15307.34
602.836	15345.08
603.194	15276.15
603.552	15372.42
603.91	15338.75
604.268	15457.62
604.625	15437.5
604.983	15515.69
605.341	15492.19
605.698	15599.08
606.056	15513.21
606.413	15651.51
606.771	15617.39
607.128	15750.72
607.485	15749.81
607.843	15718.85
608.2	15883.14
608.557	15951.61
608.914	15812.41
609.272	15903.71
609.629	15944.38
609.986	15986.19
610.343	15927.89
610.7	16110.25
611.057	16122.23
611.414	16093.08
611.771	16110.71
612.127	16267.76
612.484	16162.23
612.841	16291.27
613.198	16217.14
613.554	16262.79
613.911	16374.88
614.267	16359.97
614.624	16496.01
614.98	16388.44
615.337	16533.52
615.693	16522.22
616.05	16442.9
616.406	16510.92
616.762	16519.28
617.118	16494.65
617.475	16612.39
617.831	16557.02
618.187	16574.2
618.543	16599.28
618.899	16773.29
619.255	16723.8
619.611	16755.66
619.967	16805.38
620.323	16848.77
620.678	16769.9
621.034	16797.24
621.39	16750.01
621.746	16702.33
622.101	16914.75
622.457	16811.25
622.812	16803.57
623.168	16815.32
623.523	16918.37
623.879	16959.72
624.234	16903
624.589	16912.27
624.945	16941.19
625.3	17005.37
625.655	17023.45
626.01	17041.3
626.365	17099.61
626.72	16994.07
627.075	16998.82
627.43	16921.53
627.785	16903.91
628.14	16952.04
628.495	17018.48
628.85	16979.38
629.205	16942.55
629.559	17006.28
629.914	16960.85
630.269	16943.9
630.623	17038.59
630.978	16957.24
631.332	16987.52
631.687	16980.51
632.041	17004.69
632.396	16990.46
632.75	16934.19
633.104	16910.01
633.459	16843.79
633.813	16860.74
634.167	16935.77
634.521	16800.41
634.875	16967.18
635.229	16943.23
635.583	16853.51
635.937	16833.17
636.291	16884.7
636.645	16865.94
636.999	16747.98
637.352	16864.13
637.706	16702.33
638.06	16864.13
638.413	16771.71
638.767	16770.58
639.121	16785.26
639.474	16719.28
639.828	16752.05
640.181	16755.44
640.534	16780.29
640.888	16660.97
641.241	16591.37
641.594	16613.07
641.947	16671.14
642.301	16738.03
642.654	16681.31
643.007	16560.19
643.36	16594.54
643.713	16646.06
644.066	16604.48
644.419	16596.8
644.771	16398.83
645.124	16317.03
645.477	16270.7
645.83	16207.43
646.182	16059.41
646.535	16064.61
646.888	16184.15
647.24	16070.03
647.593	16184.38
647.945	16136.47
648.298	15977.38
648.65	15966.76
649.002	16003.14
649.355	16019.41
649.707	15969.47
650.059	16109.58
650.411	16287.42
650.763	16351.83
651.115	16423.69
651.467	16489
651.819	16511.6
652.171	16357.48
652.523	16426.18
652.875	16427.53
653.227	16409.68
653.578	16424.6
653.93	16403.13
654.282	16311.38
654.633	16354.54
654.985	16275
655.337	16409.46
655.688	16350.02
656.039	16392.73
656.391	16284.49
656.742	16310.02
657.094	16328.1
657.445	16344.37
657.796	16292.17
658.147	16393.18
658.498	16263.47
658.849	16456.46
659.2	16296.92
659.551	16279.52
659.902	16386.18
660.253	16357.03
660.604	16383.69
660.955	16292.62
661.306	16412.39
661.656	16328.55
662.007	16364.03
662.358	16306.41
662.708	16265.05
663.059	16233.19
663.409	16283.81
663.76	16340.98
664.11	16405.61
664.461	16395.22
664.811	16332.17
665.161	16344.15
665.511	16355.9
665.862	16450.58
666.212	16521.99
666.562	16438.61
666.912	16409
667.262	16324.71
667.612	16404.71
667.962	16422.56
668.312	16400.19
668.662	16458.72
669.011	16441.77
669.361	16424.82
669.711	16432.51
670.06	16450.81
670.41	16434.99
670.76	16337.82
671.109	16385.95
671.459	16493.07
671.808	16353.19
672.157	16374.88
672.507	16297.59
672.856	16419.4
673.205	16407.65
673.554	16482.67
673.904	16447.19
674.253	16472.28
674.602	16447.87
674.951	16228.9
675.3	16131.5
675.649	16340.3
675.998	16441.55
676.346	16438.16
676.695	16550.69
677.044	16325.16
677.393	16444.71
677.741	16405.39
678.09	16438.16
678.438	16302.57
678.787	16484.71
679.135	16401.09
679.484	16289.68
679.832	16410.59
680.181	16308.44
680.529	16388.89
680.877	16373.07
681.225	16293.53
681.573	16510.02
681.922	16364.71
682.27	16244.49
682.618	16380.08
682.966	16253.98
683.314	16350.25
683.661	16258.73
684.009	16250.14
684.357	16196.35
684.705	16183.25
685.053	16218.05
685.4	16196.35
685.748	16063.7
686.095	16152.51
686.443	16035
686.79	16071.84
687.138	16145.73
687.485	16129.69
687.832	15998.17
688.18	16080.2
688.527	16044.72
688.874	15945.29
689.221	15963.37
689.568	15945.96
689.915	15913.88
690.262	15845.18
690.609	15898.73
690.956	15814.67
691.303	15888.11
691.65	15915.23
691.997	15826.19
692.344	15678.63
692.69	15731.96
693.037	15714.33
693.383	15701.9
693.73	15804.73
694.077	15656.48
694.423	15647.44
694.769	15563.38
695.116	15604.28
695.462	15633.88
695.808	15580.1
696.155	15586.88
696.501	15521.34
696.847	15481.34
697.193	15347.56
697.539	15475.47
697.885	15368.35
698.231	15352.08
698.577	15369.26
698.923	15314.8
699.269	15320.44
699.614	15198.41
699.96	15264.4
700.306	15239.99
700.651	15121.13
700.997	15079.1
701.342	15133.1
701.688	15108.7
702.033	15055.14
702.379	15071.19
702.724	15102.6
703.069	15074.8
703.415	14888.59
703.76	14914.58
704.105	14880.91
704.45	14957.52
704.795	14874.81
705.14	14784.87
705.485	14881.81
705.83	14785.09
706.175	14820.8
706.52	14760.01
706.865	14738.54
707.209	14720.46
707.554	14712.55
707.899	14691.99
708.243	14677.98
708.588	14643.63
708.932	14540.8
709.277	14558.43
709.621	14597.98
709.966	14411.32
710.31	14481.6
710.654	14485.21
710.998	14487.7
711.342	14520.69
711.687	14451.99
712.031	14393.46
712.375	14400.02
712.719	14473.01
713.063	14349.17
713.407	14475.27
713.75	14372.67
714.094	14335.16
714.438	14294.71
714.782	14392.79
715.125	14264.43
715.469	14354.82
715.812	14199.34
716.156	14146.69
716.499	14198.67
716.843	14176.52
717.186	14138.78
717.53	14145.79
717.873	14189.4
718.216	14194.15
718.559	14127.03
718.902	14054.94
719.246	14008.84
719.589	14002.51
719.932	13967.94
720.275	14056.75
720.617	14021.72
720.96	13983.08
721.303	13915.96
721.646	13937.66
721.989	13919.8
722.331	13928.84
722.674	13986.24
723.016	13952.57
723.359	13945.79
723.701	13916.64
724.044	13828.05
724.386	13893.59
724.729	13837.55
725.071	13779.02
725.413	13862.4
725.755	13769.75
726.097	13736.31
726.439	13744.44
726.782	13827.38
727.124	13825.34
727.465	13719.58
727.807	13777.21
728.149	13619.25
728.491	13709.64
728.833	13790.09
729.175	13681.84
729.516	13617.21
729.858	13662.18
730.199	13646.36
730.541	13721.39
730.882	13651.79
731.224	13692.69
731.565	13597.1
731.906	13593.94
732.248	13591.9
732.589	13535.63
732.93	13492.02
733.271	13547.16
733.612	13559.14
733.953	13517.33
734.294	13464.22
734.635	13454.05
734.976	13525.92
735.317	13374.06
735.658	13468.06
735.999	13436.43
736.339	13287.5
736.68	13386.48
737.021	13424
737.361	13322.98
737.702	13414.51
738.042	13371.12
738.383	13339.71
738.723	13354.39
739.063	13403.43
739.404	13445.47
739.744	13275.98
740.084	13241.63
740.424	13240.5
740.764	13247.5
741.104	13228.52
741.444	13191.46
741.784	13223.32
742.124	13191.69
742.464	13207.73
742.804	13236.43
743.143	13052.71
743.483	13092.48
743.823	13062.42
744.162	13068.75
744.502	13038.02
744.841	13052.93
745.181	13029.66
745.52	12931.13
745.86	13030.11
746.199	12948.76
746.538	12978.36
746.877	13006.16
747.216	12971.58
747.556	12886.84
747.895	12995.53
748.234	12927.97
748.573	12824.47
748.911	12878.47
749.25	12782.66
749.589	12710.8
749.928	12794.18
750.267	12797.8
750.605	12713.96
750.944	12690.23
751.283	12723.22
751.621	12685.94
751.96	12672.83
752.298	12650.46
752.636	12587.41
752.975	12509.67
753.313	12549.44
753.651	12667.63
753.989	12585.15
754.327	12453.85
754.666	12457.24
755.004	12442.78
755.342	12351.48
755.679	12398.04
756.017	12381.99
756.355	12341.77
756.693	12337.02
757.031	12271.03
757.368	12194.2
757.706	12123.69
758.044	12147.42
758.381	12165.5
758.719	12104.48
759.056	12079.63
759.394	12049.57
759.731	11922.34
760.068	11993.75
760.405	11952.17
760.743	11864.26
761.08	11902.23
761.417	11779.52
761.754	11829.46
762.091	11727.77
762.428	11709.01
762.765	11669.92
763.102	11737.94
763.438	11668.56
763.775	11577.72
764.112	11638.96
764.449	11614.78
764.785	11491.39
765.122	11419.3
765.458	11426.76
765.795	11375.24
766.131	11345.41
766.467	11318.06
766.804	11269.48
767.14	11187.45
767.476	11231.29
767.812	11105.87
768.148	11168.69
768.485	11029.03
768.821	10991.74
769.157	11017.05
769.492	10977.73
769.828	10966.89
770.164	10864.29
770.5	10840.11
770.836	10874.46
771.171	10769.38
771.507	10710.62
771.842	10670.85
772.178	10594.92
772.513	10667.69
772.849	10593.56
773.184	10498.65
773.519	10507.92
773.855	10470.4
774.19	10438.54
774.525	10370.52
774.86	10354.93
775.195	10310.18
775.53	10294.14
775.865	10228.15
776.2	10164.42
776.535	10054.59
776.87	10120.13
777.205	10095.95
777.539	10060.24
777.874	10035.61
778.209	9991.77
778.543	9987.93
778.878	9882.85
779.212	9841.27
779.547	9774.15
779.881	9855.96
780.215	9686.92
780.55	9743.87
780.884	9706.13
781.218	9557.88
781.552	9685.56
781.886	9551.78
782.22	9491.9
782.554	9465.01
782.888	9366.93
783.222	9414.61
783.556	9351.79
783.889	9257.1
784.223	9207.84
784.557	9207.61
784.89	9226.59
785.224	9260.72
785.557	9138.01
785.891	9138.69
786.224	9068.63
786.558	9066.37
786.891	9004
787.224	8941.86
787.557	8952.7
787.891	8901.4
788.224	8830.22
788.557	8891.24
788.89	8866.15
789.223	8833.84
789.556	8724.23
789.888	8689.43
790.221	8665.93
790.554	8626.61
790.887	8596.1
791.219	8574.63
791.552	8571.24
791.884	8447.63
792.217	8473.17
792.549	8389.78
792.882	8336.45
793.214	8316.34
793.546	8343.68
793.879	8294.64
794.211	8222.55
794.543	8285.15
794.875	8214.64
795.207	8208.09
795.539	8166.06
795.871	8171.93
796.203	8081.99
796.535	8062.56
796.867	7985.04
797.198	8049.9
797.53	8014.42
797.862	7932.84
798.193	7926.29
798.525	7851.49
798.856	7849
799.188	7786.63
799.519	7772.17
799.85	7742.79
800.182	7755.22
800.513	7728.55
800.844	7577.6
801.175	7665.05
801.506	7637.93
801.837	7608.11
802.168	7651.27
802.499	7543.25
802.83	7533.08
803.161	7503.25
803.491	7527.88
803.822	7484.94
804.153	7467.54
804.483	7418.05
804.814	7389.81
805.145	7401.1
805.475	7306.19
805.805	7231.17
806.136	7285.4
806.466	7230.49
806.796	7241.56
807.126	7149.13
807.457	7195.46
807.787	7196.82
808.117	7138.51
808.447	7105.52
808.777	7156.14
809.107	7064.39
809.436	7098.29
809.766	7044.05
810.096	7010.38
810.426	7034.56
810.755	6987.33
811.085	6955.47
811.414	6890.16
811.744	6848.58
812.073	6895.36
812.403	6849.03
812.732	6806.77
813.061	6796.15
813.39	6757.73
813.719	6707.79
814.049	6783.04
814.378	6730.39
814.707	6673.44
815.036	6707.11
815.365	6610.62
815.693	6610.39
816.022	6603.61
816.351	6593.22
816.68	6535.36
817.008	6552.99
817.337	6500.79
817.665	6521.81
817.994	6508.47
818.322	6524.74
818.651	6430.73
818.979	6397.52
819.307	6429.6
819.636	6413.33
819.964	6360.68
820.292	6432.99
820.62	6390.28
820.948	6308.48
821.276	6333.79
821.604	6338.99
821.932	6336.05
822.259	6358.65
822.587	6272.32
822.915	6327.23
823.243	6307.12
823.57	6301.02
823.898	6336.05
824.225	6267.35
824.553	6267.12
824.88	6264.19
825.207	6298.31
825.535	6260.57
825.862	6287.91
826.189	6307.8
826.516	6246.78
826.843	6304.64
827.17	6235.94
827.497	6240.01
827.824	6243.4
828.151	6264.41
828.478	6227.8
828.805	6271.19
829.131	6230.74
829.458	6203.17
829.785	6199.33
830.111	6206.11
830.438	6213.57
830.764	6207.46
831.09	6231.87
831.417	6184.19
831.743	6225.77
832.069	6123.17
832.395	6134.7
832.722	6139.67
833.048	6160.01
833.374	6135.83
833.7	6121.59
834.026	6079.33
834.351	6143.96
834.677	6111.42
835.003	6162.27
835.329	6099.22
835.654	6047.69
835.98	6042.5
836.306	6037.98
836.631	6023.06
836.956	6078.43
837.282	6030.29
837.607	6000.24
837.932	6004.76
838.258	5997.98
838.583	5983.51
838.908	5958.43
839.233	5984.19
839.558	5923.63
839.883	5917.3
840.208	5957.08
840.533	5940.35
840.858	5902.16
841.182	5901.94
841.507	5881.37
841.832	5846.34
842.156	5804.31
842.481	5861.48
842.805	5768.83
843.13	5756.63
843.454	5707.14
843.778	5756.4
844.103	5743.3
844.427	5744.88
844.751	5712.11
845.075	5672.11
845.399	5650.19
845.723	5632.34
846.047	5648.38
846.371	5576.07
846.695	5621.72
847.019	5494.94
847.343	5550.53
847.666	5499.01
847.99	5478.9
848.313	5501.72
848.637	5410.65
848.96	5424.66
849.284	5410.87
849.607	5389.18
849.931	5417.88
850.254	5301.27
850.577	5242.52
850.9	5288.17
851.223	5282.29
851.546	5266.92
851.869	5207.04
852.192	5253.36
852.515	5182.41
852.838	5127.27
853.161	5107.83
853.483	5127.04
853.806	5102.41
854.129	5087.49
854.451	5070.32
854.774	5066.25
855.096	5004.78
855.419	5029.42
855.741	5030.55
856.063	4981.06
856.385	4991.45
856.708	4933.37
857.03	4951.68
857.352	4967.72
857.674	4946.93
857.996	4924.11
858.318	4853.15
858.64	4853.6
858.961	4840.27
859.283	4867.61
859.605	4834.62
859.926	4832.58
860.248	4778.57
860.57	4780.61
860.891	4804.34
861.212	4719.37
861.534	4757.56
861.855	4776.32
862.176	4749.65
862.498	4788.74
862.819	4759.14
863.14	4729.54
863.461	4701.74
863.782	4661.52
864.103	4686.83
864.424	4647.73
864.745	4683.21
865.065	4628.07
865.386	4641.86
865.707	4638.24
866.027	4621.97
866.348	4607.73
866.668	4622.19
866.989	4582.42
867.309	4600.95
867.63	4566.38
867.95	4590.78
868.27	4503.78
868.59	4540.84
868.91	4501.52
869.23	4532.71
869.55	4491.58
869.87	4525.47
870.19	4534.29
870.51	4513.05
870.83	4526.38
871.15	4484.57
871.469	4492.71
871.789	4467.62
872.109	4477.57
872.428	4457.23
872.748	4438.02
873.067	4421.75
873.386	4456.1
873.706	4476.89
874.025	4405.48
874.344	4403.9
874.663	4400.05
874.982	4369.77
875.301	4347.85
875.62	4387.4
875.939	4356.67
876.258	4350.11
876.577	4305.82
876.896	4318.47
877.214	4298.36
877.533	4296.1
877.852	4309.43
878.17	4342.88
878.489	4318.02
878.807	4309.43
879.125	4256.33
879.444	4297.01
879.762	4279.38
880.08	4294.75
880.398	4252.26
880.716	4235.31
881.034	4227.18
881.352	4226.5
881.67	4219.49
881.988	4227.63
882.306	4163
882.624	4175.65
882.941	4227.63
883.259	4200.96
883.577	4164.13
883.894	4135.2
884.212	4158.25
884.529	4115.77
884.846	4141.3
885.164	4141.08
885.481	4114.41
885.798	4129.55
886.115	4078.25
886.432	4060.63
886.75	4060.63
887.067	4056.33
887.383	4086.62
887.7	3991.93
888.017	4013.17
888.334	4054.53
888.651	4021.53
888.967	3987.18
889.284	4008.65
889.6	3948.77
889.917	3934.76
890.233	3964.59
890.55	3962.55
890.866	3969.78
891.182	3903.8
891.498	3908.09
891.815	3910.58
892.131	3888.2
892.447	3866.06
892.763	3880.07
893.079	3870.12
893.395	3849.79
893.71	3846.85
894.026	3850.92
894.342	3835.1
894.657	3796.91
894.973	3799.84
895.289	3833.97
895.604	3780.86
895.92	3772.73
896.235	3761.88
896.55	3755.32
896.865	3715.1
897.181	3721.65
897.496	3760.52
897.811	3737.92
898.126	3713.52
898.441	3672.84
898.756	3654.99
899.071	3642.56
899.386	3637.81
899.7	3650.24
900.015	3601.66
900.33	3561.88
900.644	3572.5
900.959	3574.76
901.273	3584.26
901.588	3542.68
901.902	3563.69
902.216	3563.01
902.531	3550.81
902.845	3537.48
903.159	3520.08
903.473	3493.41
903.787	3486.63
904.101	3429.91
904.415	3467.65
904.729	3454.54
905.042	3445.73
905.356	3435.79
905.67	3459.97
905.984	3391.49
906.297	3421.55
906.611	3342
906.924	3393.07
907.237	3369.35
907.551	3340.87
907.864	3329.8
908.177	3314.43
908.491	3331.38
908.804	3323.92
909.117	3280.76
909.43	3334.55
909.743	3236.02
910.056	3235.56
910.368	3273.08
910.681	3247.54
910.994	3228.56
911.307	3238.73
911.619	3172.74
911.932	3187.2
912.244	3146.75
912.557	3191.72
912.869	3139.3
913.181	3130.48
913.494	3143.82
913.806	3070.82
914.118	3114.66
914.43	3081.22
914.742	3086.42
915.054	3058.17
915.366	3083.25
915.678	3045.29
915.99	3011.16
916.302	3004.16
916.613	3032.86
916.925	3041.67
917.236	2996.47
917.548	2932.97
917.859	2960.54
918.171	2955.35
918.482	2953.31
918.794	2936.14
919.105	2910.38
919.416	2922.35
919.727	2886.2
920.038	2907.44
920.349	2922.35
920.66	2865.18
920.971	2851.85
921.282	2803.71
921.593	2815.91
921.903	2772.3
922.214	2809.59
922.525	2798.97
922.835	2796.25
923.146	2792.64
923.456	2753.54
923.767	2793.32
924.077	2764.16
924.387	2731.17
924.697	2721.91
925.008	2748.8
925.318	2701.79
925.628	2681.91
925.938	2683.94
926.248	2678.07
926.558	2646.43
926.867	2642.81
927.177	2643.04
927.487	2645.07
927.796	2602.81
928.106	2587.67
928.416	2559.42
928.725	2599.65
929.034	2563.49
929.344	2582.25
929.653	2584.28
929.962	2527.11
930.271	2515.81
930.581	2530.27
930.89	2525.07
931.199	2477.39
931.508	2521.91
931.817	2491.63
932.125	2506.54
932.434	2483.72
932.743	2450.27
933.051	2492.76
933.36	2457.05
933.669	2441.01
933.977	2408.69
934.286	2428.35
934.594	2418.19
934.902	2366.66
935.21	2393.78
935.519	2398.98
935.827	2363.05
936.135	2365.31
936.443	2353.33
936.751	2329.6
937.059	2325.31
937.367	2356.72
937.674	2306.1
937.982	2323.5
938.29	2287.57
938.597	2309.49
938.905	2264.52
939.213	2234.24
939.52	2251.86
939.827	2284.4
940.135	2234.46
940.442	2254.57
940.749	2224.07
941.056	2203.05
941.363	2256.83
941.67	2234.01
941.977	2178.64
942.284	2202.6
942.591	2168.47
942.898	2181.13
943.205	2167.12
943.511	2132.32
943.818	2174.12
944.125	2157.4
944.431	2131.41
944.738	2140.9
945.044	2148.14
945.35	2118.08
945.657	2127.12
945.963	2103.84
946.269	2071.08
946.575	2076.27
946.881	2099.1
947.187	2050.96
947.493	2040.79
947.799	2053.9
948.105	2029.27
948.41	2006.22
948.716	2041.47
949.022	1994.02
949.327	2025.2
949.633	2038.08
949.938	1992.43
950.244	1980.91
950.549	1968.48
950.854	1982.49
951.16	1982.26
951.465	1936.84
951.77	1943.17
952.075	1966.22
952.38	1921.02
952.685	1898.2
952.99	1886.9
953.294	1932.77
953.599	1943.17
953.904	1891.19
954.209	1893.91
954.513	1872.44
954.818	1849.39
955.122	1864.08
955.426	1872.21
955.731	1861.59
956.035	1849.84
956.339	1859.56
956.643	1841.48
956.948	1843.96
957.252	1810.07
957.556	1845.77
957.86	1806.45
958.163	1803.29
958.467	1793.34
958.771	1816.17
959.075	1811.42
959.378	1779.11
959.682	1807.13
959.985	1804.19
960.289	1764.19
960.592	1768.26
960.896	1753.12
961.199	1733.91
961.502	1712.67
961.805	1717.41
962.108	1707.7
962.411	1701.14
962.714	1711.76
963.017	1714.7
963.32	1682.84
963.623	1698.43
963.926	1653.01
964.228	1687.36
964.531	1661.82
964.833	1667.7
965.136	1667.24
965.438	1649.84
965.741	1643.74
966.043	1619.56
966.345	1645.55
966.648	1636.06
966.95	1644.65
967.252	1642.39
967.554	1583.63
967.856	1584.99
968.158	1578.21
968.46	1584.08
968.761	1589.96
969.063	1584.76
969.365	1589.73
969.666	1599.22
969.968	1537.76
970.269	1537.3
970.571	1532.33
970.872	1572.78
971.174	1522.62
971.475	1552.67
971.776	1537.3
972.077	1501.6
972.378	1516.74
972.679	1505.67
972.98	1507.47
973.281	1497.76
973.582	1510.19
973.883	1504.54
974.183	1500.92
974.484	1488.27
974.785	1463.41
975.085	1487.81
975.386	1481.94
975.686	1483.52
975.986	1482.16
976.287	1457.31
976.587	1438.1
976.887	1444.88
977.187	1448.94
977.487	1438.78
977.787	1409.4
978.087	1425.89
978.387	1411.21
978.687	1428.38
978.987	1420.25
979.286	1384.31
979.586	1382.51
979.885	1373.01
980.185	1387.03
980.484	1370.08
980.784	1347.25
981.083	1378.66
981.382	1395.16
981.682	1366.69
981.981	1344.09
982.28	1374.14
982.579	1337.08
982.878	1337.08
983.177	1346.57
983.475	1338.44
983.774	1361.49
984.073	1366.46
984.372	1300.47
984.67	1321.49
984.969	1282.62
985.267	1304.32
985.566	1307.71
985.864	1302.73
986.162	1280.59
986.461	1279.68
986.759	1262.74
987.057	1275.16
987.355	1301.15
987.653	1259.8
987.951	1229.52
988.249	1236.52
988.547	1241.72
988.844	1262.06
989.142	1239.91
989.44	1239.46
989.737	1211.66
990.035	1200.36
990.332	1225.22
990.63	1224.32
990.927	1207.6
991.224	1210.53
991.521	1200.59
991.819	1213.24
992.116	1209.63
992.413	1173.92
992.71	1170.31
993.006	1170.53
993.303	1173.02
993.6	1166.01
993.897	1143.19
994.193	1189.29
994.49	1171.89
994.787	1164.66
995.083	1156.52
995.379	1146.58
995.676	1163.53
995.972	1138.44
996.268	1110.2
996.565	1126.47
996.861	1124.21
997.157	1109.07
997.453	1113.13
997.749	1115.62
998.044	1109.74
998.34	1106.58
998.636	1085.56
998.932	1100.03
999.227	1096.86
999.523	1081.27
999.818	1060.71
1000.114	1050.54
1000.409	1071.33
1000.704	1067.94
1001	1061.61
1001.295	1048.73
1001.59	1044.21
1001.885	1031.33
1002.18	1052.35
1002.475	1037.2
1002.77	1038.79
1003.065	1022.29
1003.359	1017.54
1003.654	1006.24
1003.949	1025.23
1004.243	1002.4
1004.538	1007.6
1004.832	1016.64
1005.127	987.71
1005.421	999.47
1005.715	974.16
1006.009	981.84
1006.304	969.41
1006.598	975.51
1006.892	984.32
1007.186	953.14
1007.48	946.13
1007.773	955.4
1008.067	937.09
1008.361	969.41
1008.655	979.35
1008.948	949.3
1009.242	943.87
1009.535	923.99
1009.829	923.54
1010.122	930.99
1010.415	936.19
1010.708	925.34
1011.001	906.59
1011.295	904.78
1011.588	908.62
1011.881	872.24
1012.173	898
1012.466	888.06
1012.759	893.71
1013.052	907.49
1013.344	881.95
1013.637	848.73
1013.93	883.08
1014.222	835.18
1014.514	873.37
1014.807	877.43
1015.099	849.64
1015.391	836.98
1015.683	837.21
1015.976	848.06
1016.268	839.7
1016.56	823.2
1016.851	828.85
1017.143	826.14
1017.435	822.07
1017.727	800.15
1018.018	810.77
1018.31	816.19
1018.602	818.45
1018.893	794.27
1019.185	800.6
1019.476	783.2
1019.767	778.91
1020.058	795.18
1020.35	793.59
1020.641	789.75
1020.932	796.98
1021.223	774.39
1021.514	764.67
1021.804	797.89
1022.095	728.51
1022.386	759.02
1022.677	759.25
1022.967	739.36
1023.258	727.38
1023.548	740.26
1023.839	748.17
1024.129	717.89
1024.419	738
1024.709	712.69
1025	722.86
1025.29	728.74
1025.58	726.03
1025.87	725.8
1026.16	713.6
1026.449	735.74
1026.739	700.94
1027.029	703.65
1027.319	695.52
1027.608	723.77
1027.898	698.91
1028.187	692.81
1028.477	669.98
1028.766	688.51
1029.055	675.86
1029.344	695.97
1029.634	663.88
1029.923	663.43
1030.212	660.04
1030.501	655.75
1030.79	649.87
1031.078	646.93
1031.367	648.97
1031.656	642.41
1031.945	650.55
1032.233	632.47
1032.522	629.31
1032.81	614.39
1033.099	642.19
1033.387	643.09
1033.675	630.89
1033.963	613.03
1034.251	636.08
1034.54	650.77
1034.828	617.33
1035.116	597.44
1035.403	608.52
1035.691	600.83
1035.979	608.97
1036.267	616.2
1036.554	602.64
1036.842	598.8
1037.129	580.27
1037.417	585.69
1037.704	587.05
1037.992	586.82
1038.279	589.31
1038.566	585.92
1038.853	585.92
1039.14	585.92
