Data from brown_tile_FLMS001491_051.txt Node
Date: Tue Feb 07 10:37:41 GMT 2017
User: dcchb
Spectrometer: FLMS00149
Trigger mode: 0
Integration Time (sec): 2.000000E-2
Scans to average: 10
Electric dark correction enabled: true
Nonlinearity correction enabled: false
Boxcar width: 0
XAxis mode: Wavelengths
Number of Pixels in Spectrum: 2048
>>>>>Begin Spectral Data<<<<<
341.393	-15.41
341.776	-15.41
342.16	-15.41
342.543	-45.46
342.927	-48.4
343.31	-53.15
343.693	-69.87
344.077	-65.58
344.46	-75.07
344.843	-43.21
345.226	-61.28
345.61	-26.71
345.993	-28.29
346.376	6.51
346.759	-6.82
347.142	37.02
347.525	45.15
347.908	59.62
348.291	79.5
348.674	84.25
349.057	117.92
349.44	113.4
349.823	154.3
350.206	172.16
350.588	180.74
350.971	219.84
351.354	199.73
351.737	220.06
352.119	246.73
352.502	250.8
352.884	256.45
353.267	271.59
353.65	270.46
354.032	280.18
354.414	302.32
354.797	285.15
355.179	315.43
355.562	325.15
355.944	310.68
356.326	305.49
356.709	333.06
357.091	340.51
357.473	338.03
357.855	322.66
358.238	308.2
358.62	324.02
359.002	325.82
359.384	325.82
359.766	332.6
360.148	330.8
360.53	341.87
360.912	335.77
361.294	331.93
361.676	318.14
362.057	330.57
362.439	335.54
362.821	319.95
363.203	319.72
363.584	336.67
363.966	329.21
364.348	301.19
364.729	298.71
365.111	318.37
365.493	305.94
365.874	309.55
366.256	298.25
366.637	307.97
367.019	306.39
367.4	323.11
367.781	321.31
368.163	297.35
368.544	292.38
368.925	310.23
369.306	334.86
369.688	310.23
370.069	309.78
370.45	302.55
370.831	286.05
371.212	300.51
371.593	293.74
371.974	320.63
372.355	289.44
372.736	314.98
373.117	313.17
373.498	291.02
373.879	308.42
374.26	310.01
374.641	301.64
375.021	303
375.402	302.32
375.783	300.97
376.163	321.08
376.544	317.24
376.925	307.29
377.305	306.62
377.686	304.58
378.066	307.07
378.447	337.58
378.827	321.08
379.208	311.14
379.588	323.34
379.968	295.32
380.349	303.9
380.729	330.57
381.109	314.98
381.489	296.22
381.87	304.36
382.25	331.02
382.63	317.69
383.01	314.75
383.39	317.24
383.77	327.63
384.15	317.01
384.53	336.22
384.91	337.58
385.29	321.76
385.67	345.71
386.049	336.22
386.429	348.65
386.809	339.16
387.189	326.05
387.568	339.38
387.948	349.1
388.328	352.04
388.707	338.93
389.087	333.51
389.466	326.95
389.846	346.62
390.225	353.39
390.605	326.5
390.984	345.49
391.363	330.8
391.743	346.39
392.122	348.42
392.501	346.16
392.881	357.01
393.26	357.46
393.639	348.2
394.018	357.91
394.397	384.58
394.776	345.94
395.155	365.82
395.534	361.76
395.913	363.56
396.292	357.01
396.671	366.28
397.05	369.67
397.429	376.67
397.808	354.98
398.186	376.9
398.565	352.94
398.944	370.57
399.323	368.08
399.701	352.94
400.08	380.51
400.458	371.25
400.837	390
401.215	381.19
401.594	381.87
401.972	378.48
402.351	389.55
402.729	377.8
403.107	391.81
403.486	364.02
403.864	403.79
404.242	363.34
404.62	385.71
404.999	387.29
405.377	380.29
405.755	399.27
406.133	404.47
406.511	400.4
406.889	410.12
407.267	390.23
407.645	397.46
408.023	408.53
408.401	405.37
408.779	401.3
409.156	434.75
409.534	416.9
409.912	393.39
410.29	427.74
410.667	427.29
411.045	455.09
411.422	426.84
411.8	427.29
412.178	423.68
412.555	436.1
412.933	422.55
413.31	434.07
413.687	446.27
414.065	433.39
414.442	446.95
414.819	460.74
415.197	465.03
415.574	459.38
415.951	457.57
416.328	431.81
416.705	470.68
417.082	470.23
417.46	454.63
417.837	467.97
418.214	460.28
418.591	463.45
418.967	471.81
419.344	466.16
419.721	477.23
420.098	469.1
420.475	482.43
420.852	485.59
421.228	483.33
421.605	478.14
421.982	480.62
422.358	491.24
422.735	486.5
423.111	505.71
423.488	493.05
423.864	519.94
424.241	504.8
424.617	500.51
424.994	485.37
425.37	517.01
425.746	510
426.123	508.42
426.499	512.94
426.875	520.85
427.251	542.99
427.627	525.59
428.003	546.61
428.379	541.86
428.756	519.27
429.132	545.71
429.507	524.01
429.883	555.65
430.259	545.48
430.635	548.42
431.011	568.3
431.387	591.81
431.763	568.53
432.138	565.37
432.514	600.62
432.89	590.45
433.265	589.09
433.641	587.06
434.016	597.46
434.392	585.25
434.767	593.84
435.143	617.34
435.518	614.86
435.894	624.12
436.269	624.57
436.644	612.6
437.02	632.71
437.395	656.21
437.77	649.21
438.145	661.86
438.52	659.15
438.895	655.31
439.271	632.71
439.646	670.9
440.021	663.67
440.395	662.77
440.77	657.79
441.145	657.34
441.52	663.67
441.895	701.41
442.27	671.8
442.645	679.04
443.019	676.55
443.394	690.56
443.769	696.66
444.143	682.88
444.518	695.08
444.892	690.56
445.267	679.26
445.641	679.26
446.016	720.84
446.39	722.88
446.764	732.37
447.139	712.03
447.513	719.71
447.887	718.13
448.262	732.82
448.636	734.63
449.01	743.89
449.384	747.96
449.758	763.33
450.132	744.57
450.506	747.51
450.88	737.57
451.254	746.15
451.628	778.47
452.002	759.71
452.376	775.08
452.75	784.12
453.123	769.43
453.497	788.64
453.871	794.96
454.244	777.34
454.618	802.42
454.992	844.46
455.365	812.37
455.739	805.36
456.112	850.33
456.486	862.76
456.859	843.33
457.232	882.65
457.606	855.75
457.979	872.93
458.352	896.43
458.725	897.11
459.099	902.98
459.472	914.06
459.845	920.39
460.218	925.58
460.591	945.02
460.964	938.46
461.337	944.34
461.71	970.33
462.083	954.96
462.456	954.73
462.829	975.07
463.201	992.7
463.574	969.65
463.947	1004.45
464.32	1037.22
464.692	1027.5
465.065	992.02
465.438	1039.25
465.81	1041.06
466.183	1073.6
466.555	1074.05
466.928	1078.57
467.3	1068.63
467.672	1087.84
468.045	1111.57
468.417	1132.58
468.789	1119.7
469.161	1147.95
469.534	1168.06
469.906	1184.56
470.278	1179.81
470.65	1202.64
471.022	1187.05
471.394	1214.61
471.766	1220.72
472.138	1231.11
472.51	1266.59
472.882	1293.93
473.253	1299.13
473.625	1292.8
473.997	1340.94
474.369	1319.92
474.74	1352.69
475.112	1401.95
475.484	1371.22
475.855	1397.66
476.227	1417.32
476.598	1450.99
476.97	1435.63
477.341	1446.02
477.713	1481.27
478.084	1487.15
478.455	1538.22
478.827	1570.31
479.198	1588.84
479.569	1580.48
479.94	1636.07
480.311	1640.82
480.682	1660.03
481.053	1712
481.424	1701.38
481.795	1731.44
482.166	1726.92
482.537	1745
482.908	1844.2
483.279	1800.59
483.65	1841.49
484.021	1860.93
484.391	1892.79
484.762	1903.86
485.133	1945.22
485.503	1961.71
485.874	1992.22
486.244	2014.37
486.615	2026.12
486.985	2076.74
487.356	2062.73
487.726	2078.77
488.097	2136.17
488.467	2129.62
488.837	2177.08
489.207	2210.97
489.578	2221.82
489.948	2232.22
490.318	2263.4
490.688	2294.81
491.058	2326.9
491.428	2371.87
491.798	2360.35
492.168	2392.66
492.538	2410.74
492.908	2449.16
493.278	2472.89
493.648	2485.54
494.017	2529.83
494.387	2521.02
494.757	2556.05
495.126	2573.45
495.496	2609.61
495.866	2579.1
496.235	2640.11
496.605	2667.01
496.974	2671.75
497.344	2679.44
497.713	2714.46
498.082	2714.91
498.452	2756.04
498.821	2765.31
499.19	2748.59
499.559	2795.36
499.928	2850.96
500.298	2834.46
500.667	2857.28
501.036	2885.08
501.405	2918.98
501.774	2891.41
502.143	2929.82
502.512	2939.32
502.88	2965.76
503.249	2975.92
503.618	2993.78
503.987	3027.22
504.356	2998.52
504.724	3063.83
505.093	3069.26
505.462	3079.65
505.83	3098.63
506.199	3102.93
506.567	3131.4
506.936	3155.35
507.304	3199.65
507.672	3210.72
508.041	3296.37
508.409	3233.32
508.777	3292.07
509.145	3326.65
509.514	3312.86
509.882	3359.19
510.25	3349.93
510.618	3394.22
510.986	3394.9
511.354	3416.36
511.722	3471.73
512.09	3476.48
512.458	3496.81
512.826	3509.92
513.193	3562.35
513.561	3530.03
513.929	3579.07
514.297	3618.17
514.664	3655.68
515.032	3655.68
515.4	3662.69
515.767	3789.01
516.135	3720.54
516.502	3738.39
516.869	3808.67
517.237	3820.42
517.604	3807.32
517.972	3869.46
518.339	3880.31
518.706	3862
519.073	3921.66
519.44	3941.1
519.808	3949.91
520.175	4025.84
520.542	4069
520.909	4039.85
521.276	4098.83
521.643	4086.86
522.009	4191.49
522.376	4198.49
522.743	4248.89
523.11	4262.67
523.477	4313.29
523.843	4369.11
524.21	4423.12
524.577	4379.28
524.943	4431.71
525.31	4426.96
525.676	4497.24
526.043	4510.35
526.409	4579.95
526.776	4573.4
527.142	4622.89
527.508	4661.3
527.874	4688.87
528.241	4742.66
528.607	4785.37
528.973	4808.42
529.339	4800.06
529.705	4842.54
530.071	4923.9
530.437	4929.77
530.803	4931.58
531.169	4995.76
531.535	4974.29
531.901	5033.95
532.267	5054.74
532.632	5094.06
532.998	5113.72
533.364	5163.89
533.73	5163.66
534.095	5187.17
534.461	5229.88
534.826	5263.77
535.192	5273.04
535.557	5367.05
535.923	5350.1
536.288	5436.65
536.653	5422.41
537.019	5449.98
537.384	5432.58
537.749	5482.98
538.114	5555.29
538.479	5499.93
538.845	5578.12
539.21	5564.11
539.575	5565.69
539.94	5643.88
540.305	5691.79
540.67	5733.59
541.034	5765
541.399	5750.54
541.764	5834.83
542.129	5810.65
542.494	5881.84
542.858	5866.24
543.223	5984.89
543.587	5961.61
543.952	5971.78
544.316	6002.06
544.681	6022.62
545.045	6062.17
545.41	6120.93
545.774	6148.95
546.138	6154.37
546.503	6186.91
546.867	6234.6
547.231	6303.29
547.595	6381.48
547.959	6317.76
548.324	6370.19
548.688	6420.35
549.052	6435.49
549.416	6505.55
549.779	6542.61
550.143	6586.45
550.507	6671.19
550.871	6669.84
551.235	6680.69
551.599	6762.94
551.962	6800.46
552.326	6806.56
552.689	6910.51
553.053	6892.88
553.417	6919.55
553.78	7039.55
554.143	7013.56
554.507	7062.82
554.87	7151.63
555.234	7226.21
555.597	7284.51
555.96	7337.17
556.323	7420.78
556.686	7352.08
557.05	7557.95
557.413	7566.99
557.776	7597.72
558.139	7734.9
558.502	7749.58
558.865	7796.59
559.228	7878.39
559.59	7945.96
559.953	7923.37
560.316	8051.05
560.679	8113.87
561.041	8166.3
561.404	8213.08
561.767	8316.8
562.129	8374.43
562.492	8496.01
562.854	8539.85
563.217	8574.42
563.579	8705.49
563.941	8712.27
564.304	8802.66
564.666	8916.11
565.028	8977.12
565.39	9094.18
565.753	9139.38
566.115	9199.94
566.477	9326.27
566.839	9370.11
567.201	9448.97
567.563	9509.54
567.925	9636.99
568.287	9700.04
568.648	9710.21
569.01	9841.73
569.372	9978.23
569.734	9970.32
570.095	10074.04
570.457	10173.7
570.819	10239.01
571.18	10277.43
571.542	10454.15
571.903	10450.53
572.265	10547.93
572.626	10585.44
572.987	10697.53
573.349	10826.34
573.71	10828.6
574.071	10920.35
574.432	10926.45
574.794	11084.19
575.155	11149.49
575.516	11109.04
575.877	11331.86
576.238	11347.23
576.599	11440.56
576.96	11457.74
577.32	11590.84
577.681	11646.43
578.042	11764.62
578.403	11798.29
578.763	11719.65
579.124	11903.37
579.485	12009.81
579.845	12085.97
580.206	12097.49
580.566	12103.37
580.927	12230.82
581.287	12299.3
581.648	12316.02
582.008	12382
582.368	12487.54
582.728	12432.85
583.089	12574.99
583.449	12581.32
583.809	12674.88
584.169	12706.74
584.529	12726.63
584.889	12916.45
585.249	12852.5
585.609	12847.76
585.969	13006.17
586.329	12964.59
586.688	12988.99
587.048	13137.69
587.408	13107.41
587.768	13119.84
588.127	13229.21
588.487	13173.4
588.846	13324.58
589.206	13249.55
589.565	13294.75
589.925	13333.17
590.284	13452.94
590.643	13408.64
591.003	13567.96
591.362	13670.33
591.721	13599.83
592.08	13668.07
592.44	13703.33
592.799	13789.2
593.158	13749.88
593.517	13795.75
593.876	13814.51
594.235	13920.95
594.593	13889.54
594.952	13918.24
595.311	13975.64
595.67	14074.39
596.029	14177.44
596.387	14116.65
596.746	14210.21
597.104	14187.61
597.463	14177.89
597.822	14362.97
598.18	14279.81
598.538	14224.67
598.897	14377.66
599.255	14315.51
599.613	14472.8
599.972	14449.52
600.33	14473.25
600.688	14480.03
601.046	14584.88
601.404	14634.38
601.762	14679.8
602.12	14759.12
602.478	14774.48
602.836	14773.13
603.194	14727.71
603.552	14814.48
603.91	14688.61
604.268	14810.42
604.625	14877.08
604.983	14917.31
605.341	14930.86
605.698	14983.07
606.056	15058.09
606.413	15083.63
606.771	15068.26
607.128	15136.73
607.485	15091.99
607.843	15114.14
608.2	15162.5
608.557	15280.91
608.914	15138.77
609.272	15334.92
609.629	15310.29
609.986	15362.49
610.343	15346.45
610.7	15444.75
611.057	15450.62
611.414	15460.57
611.771	15499.21
612.127	15525.43
612.484	15556.84
612.841	15654.69
613.198	15574.92
613.554	15658.53
613.911	15758.87
614.267	15736.94
614.624	15762.48
614.98	15762.71
615.337	15854.23
615.693	15843.38
616.05	15788.02
616.406	15938.52
616.762	15851.97
617.118	15924.28
617.475	15868.01
617.831	16010.38
618.187	15878.18
618.543	16022.36
618.899	16087.67
619.255	16008.8
619.611	15940.1
619.967	16202.24
620.323	16147.78
620.678	16145.52
621.034	16144.39
621.39	16136.03
621.746	16177.39
622.101	16318.4
622.457	16115.24
622.812	16185.07
623.168	16280.43
623.523	16244.95
623.879	16328.12
624.234	16249.7
624.589	16223.26
624.945	16249.25
625.3	16289.7
625.655	16383.93
626.01	16314.1
626.365	16346.42
626.72	16336.7
627.075	16327.21
627.43	16343.03
627.785	16365.4
628.14	16286.31
628.495	16331.96
628.85	16311.39
629.205	16222.36
629.559	16375.35
629.914	16206.09
630.269	16267.55
630.623	16208.35
630.978	16125.64
631.332	16327.66
631.687	16307.1
632.041	16347.1
632.396	16311.39
632.75	16267.33
633.104	16270.94
633.459	16234.33
633.813	16207.67
634.167	16225.75
634.521	16177.39
634.875	16253.09
635.229	16131.74
635.583	16164.73
635.937	16138.52
636.291	16101.91
636.645	16085.64
636.999	16096.03
637.352	16171.74
637.706	16083.15
638.06	16107.56
638.413	16025.07
638.767	16111.17
639.121	16087.67
639.474	15996.6
639.828	16100.33
640.181	15969.26
640.534	15996.83
640.888	16021.91
641.241	15906.66
641.594	15949.82
641.947	15928.13
642.301	15967
642.654	15882.25
643.007	15962.02
643.36	15907.79
643.713	15828.92
644.066	16014.45
644.419	15826.89
644.771	15752.76
645.124	15642.26
645.477	15556.84
645.83	15552.32
646.182	15562.26
646.535	15422.83
646.888	15365.43
647.24	15281.36
647.593	15383.96
647.945	15315.26
648.298	15265.77
648.65	15301.48
649.002	15287.47
649.355	15407.46
649.707	15379.67
650.059	15422.6
650.411	15614.69
650.763	15563.84
651.115	15718.41
651.467	15665.08
651.819	15644.29
652.171	15656.95
652.523	15706.44
652.875	15630.51
653.227	15618.3
653.578	15743.5
653.93	15647.91
654.282	15537.4
654.633	15627.8
654.985	15636.83
655.337	15600
655.688	15592.77
656.039	15665.31
656.391	15539.21
656.742	15616.95
657.094	15474.58
657.445	15636.16
657.796	15556.16
658.147	15559.55
658.498	15494.01
658.849	15601.13
659.2	15552.32
659.551	15581.92
659.902	15663.27
660.253	15567.68
660.604	15667.12
660.955	15608.36
661.306	15645.2
661.656	15636.38
662.007	15593.22
662.358	15623.5
662.708	15640.45
663.059	15595.25
663.409	15507.12
663.76	15550.74
664.11	15522.04
664.461	15616.95
664.811	15698.98
665.161	15690.62
665.511	15561.81
665.862	15730.62
666.212	15703.27
666.562	15682.03
666.912	15740.56
667.262	15677.06
667.612	15600.68
667.962	15614.01
668.312	15668.92
668.662	15796.83
669.011	15722.71
669.361	15707.57
669.711	15594.35
670.06	15736.49
670.41	15606.78
670.76	15676.16
671.109	15742.59
671.459	15687
671.808	15719.77
672.157	15656.95
672.507	15567.91
672.856	15604.07
673.205	15714.35
673.554	15727.91
673.904	15649.72
674.253	15779.43
674.602	15708.92
674.951	15445.43
675.3	15473
675.649	15748.7
675.998	15637.96
676.346	15664.63
676.695	15677.96
677.044	15608.81
677.393	15675.03
677.741	15686.55
678.09	15712.54
678.438	15663.27
678.787	15705.08
679.135	15675.25
679.484	15599.77
679.832	15659.88
680.181	15607.46
680.529	15697.62
680.877	15626.21
681.225	15596.38
681.573	15734.23
681.922	15633.44
682.27	15506.44
682.618	15566.1
682.966	15581.92
683.314	15634.8
683.661	15631.19
684.009	15551.19
684.357	15427.57
684.705	15505.76
685.053	15545.31
685.4	15518.65
685.748	15391.42
686.095	15452.21
686.443	15449.95
686.79	15350.74
687.138	15431.19
687.485	15550.28
687.832	15333.79
688.18	15380.57
688.527	15291.98
688.874	15465.09
689.221	15302.61
689.568	15222.16
689.915	15197.3
690.262	15226.22
690.609	15226.68
690.956	15105.1
691.303	15164.3
691.65	15162.95
691.997	15131.09
692.344	15122.95
692.69	15004.76
693.037	15047.92
693.383	14996.17
693.73	15045.89
694.077	14934.71
694.423	15016.96
694.769	14875.72
695.116	14894.48
695.462	14807.93
695.808	14851.54
696.155	14853.13
696.501	14802.51
696.847	14747.82
697.193	14652.91
697.539	14751.43
697.885	14602.51
698.231	14604.32
698.577	14749.85
698.923	14713.24
699.269	14509.41
699.614	14595.05
699.96	14497.88
700.306	14555.51
700.651	14549.63
700.997	14429.63
701.342	14424.44
701.688	14440.48
702.033	14428.05
702.379	14388.96
702.724	14352.12
703.069	14395.29
703.415	14307.15
703.76	14238.45
704.105	14231.45
704.45	14313.03
704.795	14189.42
705.14	14168.62
705.485	14174.27
705.83	14137.21
706.175	14096.54
706.52	14093.6
706.865	14069.64
707.209	14012.92
707.554	14046.82
707.899	14043.88
708.243	13972.25
708.588	13980.61
708.932	13900.16
709.277	13940.16
709.621	13908.52
709.966	13883.66
710.31	13904.9
710.654	13799.14
710.998	13820.61
711.342	13781.06
711.687	13816.77
712.031	13713.95
712.375	13734.96
712.719	13734.29
713.063	13735.64
713.407	13747.17
713.75	13682.99
714.094	13664.01
714.438	13679.37
714.782	13704.46
715.125	13645.02
715.469	13593.72
715.812	13593.72
716.156	13458.36
716.499	13504.24
716.843	13505.59
717.186	13501.75
717.53	13592.59
717.873	13532.71
718.216	13578.81
718.559	13442.09
718.902	13481.64
719.246	13442.32
719.589	13380.85
719.932	13382.2
720.275	13380.17
720.617	13368.65
720.96	13355.54
721.303	13315.09
721.646	13409.1
721.989	13318.03
722.331	13349.44
722.674	13380.85
723.016	13406.84
723.359	13306.73
723.701	13334.3
724.044	13279.16
724.386	13197.8
724.729	13217.69
725.071	13258.59
725.413	13157.13
725.755	13166.39
726.097	13107.41
726.439	13163.45
726.782	13172.04
727.124	13169.55
727.465	13165.26
727.807	13119.39
728.149	13071.25
728.491	13009.79
728.833	13080.74
729.175	13073.74
729.516	12953.29
729.858	13024.25
730.199	13058.82
730.541	13033.06
730.882	12956.23
731.224	13059.5
731.565	12936.34
731.906	13003.91
732.248	12907.64
732.589	12926.4
732.93	12880.07
733.271	12869
733.612	12919.17
733.953	12970.92
734.294	12828.32
734.635	12853.63
734.976	12888.21
735.317	12821.54
735.658	12804.82
735.999	12742.67
736.339	12763.69
736.68	12803.91
737.021	12778.83
737.361	12775.21
737.702	12770.7
738.042	12707.65
738.383	12676.01
738.723	12655.67
739.063	12640.08
739.404	12675.1
739.744	12622.9
740.084	12526.63
740.424	12668.55
740.764	12626.74
741.104	12687.53
741.444	12518.05
741.784	12479.18
742.124	12506.75
742.464	12542.45
742.804	12522.57
743.143	12520.31
743.483	12473.3
743.823	12358.05
744.162	12418.61
744.502	12375.23
744.841	12372.29
745.181	12426.52
745.52	12294.1
745.86	12386.3
746.199	12393.98
746.538	12292.74
746.877	12306.53
747.216	12350.14
747.556	12189.47
747.895	12299.97
748.234	12204.61
748.573	12192.63
748.911	12219.75
749.25	12162.58
749.589	12177.26
749.928	12162.35
750.267	12172.74
750.605	12079.19
750.944	12098.62
751.283	12099.53
751.621	12057.95
751.96	11988.34
752.298	11961.9
752.636	11987.67
752.975	11916.71
753.313	11892.53
753.651	11976.59
753.989	11818.4
754.327	11952.41
754.666	11815.69
755.004	11796.94
755.342	11783.83
755.679	11862.24
756.017	11678.29
756.355	11719.2
756.693	11587
757.031	11718.07
757.368	11612.31
757.706	11527.56
758.044	11515.14
758.381	11537.28
758.719	11533.21
759.056	11492.99
759.394	11465.87
759.731	11318.3
760.068	11337.29
760.405	11315.14
760.743	11240.57
761.08	11232.88
761.417	11209.38
761.754	11206.22
762.091	11130.96
762.428	11063.85
762.765	11123.73
763.102	11045.54
763.438	11036.73
763.775	10994.92
764.112	10984.98
764.449	10973.68
764.785	10976.17
765.122	10850.07
765.458	10764.87
765.795	10859.79
766.131	10791.76
766.467	10711.09
766.804	10701.15
767.14	10601.49
767.476	10596.52
767.812	10506.12
768.148	10519.46
768.485	10509.51
768.821	10481.49
769.157	10457.99
769.492	10428.38
769.828	10381.61
770.164	10241.27
770.5	10239.24
770.836	10246.47
771.171	10196.75
771.507	10158.79
771.842	10140.48
772.178	10144.1
772.513	10079.01
772.849	9992.01
773.184	9986.81
773.519	10073.37
773.855	9942.75
774.19	9920.15
774.525	9904.78
774.86	9813.71
775.195	9827.72
775.53	9756.76
775.865	9760.38
776.2	9709.31
776.535	9568.97
776.87	9632.92
777.205	9487.17
777.539	9525.81
777.874	9476.09
778.209	9420.27
778.543	9429.54
778.878	9423.44
779.212	9341.86
779.547	9317.45
779.881	9323.33
780.215	9230.68
780.55	9235.87
780.884	9137.57
781.218	9176.67
781.552	9158.81
781.886	9048.76
782.22	9064.35
782.554	8920.18
782.888	8926.05
783.222	8896.9
783.556	8773.51
783.889	8791.82
784.223	8764.02
784.557	8761.08
784.89	8806.73
785.224	8679.96
785.557	8657.81
785.891	8612.61
786.224	8631.82
786.558	8574.42
786.891	8521.32
787.224	8521.99
787.557	8451.71
787.891	8466.4
788.224	8410.58
788.557	8377.36
788.89	8397.7
789.223	8390.47
789.556	8319.51
789.888	8312.51
790.221	8267.54
790.554	8185.28
790.887	8147.31
791.219	8147.99
791.552	8087.88
791.884	8047.43
792.217	8038.62
792.549	7995.23
792.882	7969.69
793.214	7931.27
793.546	7858.06
793.879	7937.6
794.211	7850.15
794.543	7888.11
794.875	7846.76
795.207	7854.89
795.539	7747.78
795.871	7783.48
796.203	7672.98
796.535	7665.97
796.867	7614.22
797.198	7667.78
797.53	7603.83
797.862	7489.48
798.193	7618.51
798.525	7488.35
798.856	7513.21
799.188	7371.97
799.519	7351.63
799.85	7379.65
800.182	7310.95
800.513	7340.1
800.844	7284.51
801.175	7260.33
801.506	7258.75
801.837	7228.47
802.168	7202.93
802.499	7177.85
802.83	7125.42
803.161	7044.29
803.491	7094.69
803.822	7084.52
804.153	7044.07
804.483	6988.93
804.814	7018.76
805.145	6970.62
805.475	6967.01
805.805	6896.27
806.136	6933.33
806.466	6888.14
806.796	6895.37
807.126	6809.04
807.457	6772.21
807.787	6818.08
808.117	6793.68
808.447	6771.31
808.777	6755.03
809.107	6709.84
809.436	6729.27
809.766	6695.83
810.096	6637.07
810.426	6653.34
810.755	6629.39
811.085	6577.19
811.414	6602.04
811.744	6493.35
812.073	6468.26
812.403	6487.7
812.732	6448.83
813.061	6482.5
813.39	6392.78
813.719	6377.42
814.049	6413.8
814.378	6416.06
814.707	6475.95
815.036	6338.32
815.365	6351.88
815.693	6257.42
816.022	6245.9
816.351	6306.46
816.68	6224.43
817.008	6209.06
817.337	6157.99
817.665	6166.12
817.994	6168.38
818.322	6161.83
818.651	6137.42
818.979	6137.2
819.307	6134.03
819.636	6051.78
819.964	6068.27
820.292	6091.32
820.62	6009.29
820.948	6049.52
821.276	6047.71
821.604	5996.41
821.932	6016.52
822.259	6022.4
822.587	5982.63
822.915	6023.53
823.243	6064.2
823.57	5992.34
823.898	6022.85
824.225	5942.63
824.553	5920.48
824.88	5981.72
825.207	5990.31
825.535	5966.13
825.862	5967.48
826.189	5942.85
826.516	5936.75
826.843	5954.38
827.17	5983.3
827.497	5975.62
827.824	5963.64
828.151	5891.55
828.478	5929.52
828.805	6005
829.131	5909.41
829.458	5929.75
829.785	5882.51
830.111	5867.6
830.438	5939.91
830.764	5946.24
831.09	5911.44
831.417	5900.37
831.743	5870.99
832.069	5906.24
832.395	5816.53
832.722	5883.19
833.048	5869.41
833.374	5875.06
833.7	5837.09
834.026	5891.33
834.351	5859.46
834.677	5748.51
835.003	5853.59
835.329	5833.93
835.654	5806.36
835.98	5782.63
836.306	5794.83
836.631	5807.94
836.956	5759.35
837.282	5765.91
837.607	5725.23
837.932	5713.25
838.258	5709.64
838.583	5737.89
838.908	5676.42
839.233	5637.1
839.558	5662.41
839.883	5649.53
840.208	5603.2
840.533	5559.81
840.858	5602.97
841.182	5637.1
841.507	5633.48
841.832	5613.82
842.156	5540.38
842.481	5541.28
842.805	5595.74
843.13	5523.43
843.454	5489.76
843.778	5527.27
844.103	5522.3
844.427	5425.8
844.751	5460.15
845.075	5475.07
845.399	5422.41
845.723	5409.98
846.047	5371.34
846.371	5369.99
846.695	5336.77
847.019	5289.99
847.343	5292.02
847.666	5268.52
847.99	5266.71
848.313	5174.06
848.637	5231.91
848.96	5202.08
849.284	5148.3
849.607	5105.36
849.931	5077.34
850.254	5118.24
850.577	5064.68
850.9	5028.3
851.223	5019.71
851.546	4988.98
851.869	4988.08
852.192	4992.59
852.515	4976.32
852.838	4918.7
853.161	4879.6
853.483	4919.15
853.806	4868.98
854.129	4867.63
854.451	4865.14
854.774	4806.61
855.096	4835.76
855.419	4845.03
855.741	4753.73
856.063	4782.66
856.385	4749.21
856.708	4720.29
857.03	4710.34
857.352	4706.5
857.674	4682.77
857.996	4683
858.318	4679.16
858.64	4662.66
858.961	4650.68
859.283	4609.55
859.605	4603.68
859.926	4577.24
860.248	4624.47
860.57	4548.31
860.891	4545.83
861.212	4546.5
861.534	4528.88
861.855	4514.19
862.176	4517.58
862.498	4504.47
862.819	4503.34
863.14	4488.65
863.461	4459.05
863.782	4465.38
864.103	4472.16
864.424	4420.41
864.745	4455.43
865.065	4436.23
865.386	4435.32
865.707	4396.9
866.027	4436.68
866.348	4407.53
866.668	4414.08
866.989	4377.47
867.309	4346.51
867.63	4369.33
867.95	4355.78
868.27	4323.23
868.59	4347.87
868.91	4307.64
869.23	4316.68
869.55	4295.44
869.87	4292.73
870.19	4248.89
870.51	4298.38
870.83	4258.83
871.15	4265.83
871.469	4271.71
871.789	4279.62
872.109	4313.74
872.428	4235.78
872.748	4254.99
873.067	4265.16
873.386	4258.6
873.706	4237.59
874.025	4150.81
874.344	4177.02
874.663	4189.23
874.982	4174.76
875.301	4171.83
875.62	4214.31
875.939	4106.74
876.258	4139.74
876.577	4172.05
876.896	4137.7
877.214	4095.67
877.533	4162.79
877.852	4140.87
878.17	4103.58
878.489	4110.58
878.807	4122.34
879.125	4115.56
879.444	4104.48
879.762	4092.73
880.08	4062.45
880.398	4032.62
880.716	4085.95
881.034	4014.32
881.352	4049.34
881.67	4078.04
881.988	4053.18
882.306	4013.19
882.624	4023.13
882.941	4005.05
883.259	4001.21
883.577	3955.33
883.894	3979.74
884.212	3975.67
884.529	3971.15
884.846	3947.42
885.164	3949.46
885.481	3935.9
885.798	3899.06
886.115	3897.93
886.432	3920.98
886.75	3863.58
887.067	3877.14
887.383	3889.57
887.7	3868.78
888.017	3856.81
888.334	3838.5
888.651	3862.68
888.967	3831.27
889.284	3788.78
889.6	3781.78
889.917	3779.97
890.233	3790.82
890.55	3762.57
890.866	3763.02
891.182	3776.81
891.498	3752.63
891.815	3815.22
892.131	3725.51
892.447	3726.41
892.763	3712.4
893.079	3672.18
893.395	3647.77
893.71	3654.32
894.026	3673.99
894.342	3621.33
894.657	3631.73
894.973	3605.29
895.289	3620.2
895.604	3653.87
895.92	3579.3
896.235	3602.57
896.55	3568.23
896.865	3564.38
897.181	3582.01
897.496	3563.93
897.811	3511.96
898.126	3534.78
898.441	3515.35
898.756	3525.51
899.071	3481.67
899.386	3518.06
899.7	3483.03
900.015	3436.7
900.33	3425.86
900.644	3421.56
900.959	3466.53
901.273	3388.57
901.588	3422.24
901.902	3359.87
902.216	3375.46
902.531	3372.52
902.845	3385.86
903.159	3355.8
903.473	3311.73
903.787	3339.53
904.101	3305.86
904.415	3296.82
904.729	3311.51
905.042	3274.22
905.356	3280.55
905.67	3254.11
905.984	3312.19
906.297	3283.94
906.611	3255.47
906.924	3222.25
907.237	3224.73
907.551	3250.95
907.864	3167.33
908.177	3159.87
908.491	3186.54
908.804	3124.85
909.117	3142.02
909.43	3132.98
909.743	3118.29
910.056	3136.82
910.368	3119.65
910.681	3079.88
910.994	3052.31
911.307	3062.48
911.619	3042.59
911.932	3023.61
912.244	3011.86
912.557	2982.93
912.869	3004.62
913.181	3008.47
913.494	3015.92
913.806	2959.43
914.118	2952.2
914.43	2943.16
914.742	2978.64
915.054	2938.86
915.366	2927.11
915.678	2916.94
915.99	2918.52
916.302	2883.72
916.613	2878.75
916.925	2895.02
917.236	2854.8
917.548	2865.87
917.859	2832.88
918.171	2823.16
918.482	2801.92
918.794	2791.52
919.105	2770.05
919.416	2750.62
919.727	2746.55
920.038	2754.01
920.349	2737.96
920.66	2712.2
920.971	2741.35
921.282	2694.12
921.593	2694.35
921.903	2681.7
922.214	2660.9
922.525	2687.57
922.835	2624.07
923.146	2681.92
923.456	2665.88
923.767	2619.1
924.077	2594.69
924.387	2600.79
924.697	2579.55
925.008	2600.57
925.318	2590.85
925.628	2608.48
925.938	2533.45
926.248	2549.27
926.558	2565.09
926.867	2548.37
927.177	2487.12
927.487	2492.1
927.796	2491.64
928.106	2490.74
928.416	2497.75
928.725	2470.4
929.034	2428.14
929.344	2472.66
929.653	2461.14
929.962	2432.66
930.271	2431.98
930.581	2407.13
930.89	2405.32
931.199	2356.05
931.508	2383.85
931.817	2368.26
932.125	2394.47
932.434	2384.98
932.743	2388.37
933.051	2354.25
933.36	2333
933.669	2316.73
933.977	2300.24
934.286	2293
934.594	2308.37
934.902	2270.18
935.21	2284.87
935.519	2266.11
935.827	2271.76
936.135	2275.83
936.443	2261.82
936.751	2241.25
937.059	2274.25
937.367	2215.27
937.674	2248.26
937.982	2253.46
938.29	2223.85
938.597	2234.93
938.905	2160.35
939.213	2158.32
939.52	2145.66
939.827	2197.41
940.135	2119.68
940.442	2145.66
940.749	2141.14
941.056	2173.23
941.363	2095.04
941.67	2112.67
941.977	2082.16
942.284	2071.99
942.591	2079.22
942.898	2102.05
943.205	2074.25
943.511	2069.73
943.818	2031.32
944.125	2066.34
944.431	2066.12
944.738	2060.47
945.044	1988.15
945.35	2001.94
945.657	2014.37
945.963	1985.89
946.269	1980.7
946.575	2021.6
946.881	1991.54
947.187	1966.91
947.493	1956.74
947.799	1973.01
948.105	1949.74
948.41	1943.41
948.716	1963.52
949.022	1939.79
949.327	1928.95
949.633	1904.99
949.938	1916.74
950.244	1942.51
950.549	1899.34
950.854	1889.4
951.16	1857.08
951.465	1868.16
951.77	1860.25
952.075	1891.43
952.38	1835.39
952.685	1842.62
952.99	1815.96
953.294	1882.85
953.599	1845.11
953.904	1833.36
954.209	1803.98
954.513	1821.38
954.818	1820.47
955.122	1779.12
955.426	1809.63
955.731	1797.88
956.035	1777.09
956.339	1761.49
956.643	1784.32
956.948	1755.84
957.252	1723.98
957.556	1762.85
957.86	1729.63
958.163	1737.31
958.467	1738.44
958.771	1745.45
959.075	1713.58
959.378	1745.45
959.682	1705.68
959.985	1707.94
960.289	1717.2
960.592	1673.36
960.896	1662.06
961.199	1690.99
961.502	1664.77
961.805	1650.54
962.108	1659.58
962.411	1650.08
962.714	1650.76
963.017	1647.15
963.32	1627.49
963.623	1640.59
963.926	1649.18
964.228	1615.96
964.531	1605.34
964.833	1592.01
965.136	1587.71
965.438	1584.1
965.741	1588.84
966.043	1572.57
966.345	1564.66
966.648	1576.19
966.95	1570.31
967.252	1567.15
967.554	1566.7
967.856	1545.23
968.158	1567.37
968.46	1535.06
968.761	1535.06
969.063	1534.15
969.365	1500.26
969.666	1516.08
969.968	1511.33
970.269	1485.79
970.571	1469.52
970.872	1522.86
971.174	1473.37
971.475	1497.09
971.776	1472.69
972.077	1478.34
972.378	1462.07
972.679	1467.72
972.98	1456.64
973.281	1483.31
973.582	1443.08
973.883	1440.6
974.183	1415.97
974.484	1408.96
974.785	1425.68
975.085	1424.55
975.386	1457.77
975.686	1420.26
975.986	1424.55
976.287	1420.49
976.587	1411.22
976.887	1395.63
977.187	1387.49
977.487	1396.76
977.787	1409.41
978.087	1354.05
978.387	1368.51
978.687	1376.64
978.987	1383.65
979.286	1343.65
979.586	1354.05
979.885	1331
980.185	1337.1
980.484	1314.95
980.784	1331.45
981.083	1323.09
981.382	1314.27
981.682	1311.56
981.981	1312.92
982.28	1311.11
982.579	1311.56
982.878	1292.8
983.177	1271.79
983.475	1287.16
983.774	1267.72
984.073	1273.14
984.372	1284.22
984.67	1251
984.969	1248.51
985.267	1213.26
985.566	1275.63
985.864	1254.61
986.162	1232.47
986.461	1232.69
986.759	1220.04
987.057	1214.16
987.355	1213.49
987.653	1235.63
987.951	1207.84
988.249	1199.93
988.547	1208.74
988.844	1182.75
989.142	1204.45
989.44	1183.43
989.737	1195.41
990.035	1170.55
990.332	1172.13
990.63	1197.67
990.927	1156.31
991.224	1191.34
991.521	1181.62
991.819	1153.37
992.116	1159.48
992.413	1165.8
992.71	1142.3
993.006	1141.17
993.303	1135.52
993.6	1128.74
993.897	1104.79
994.193	1112.92
994.49	1119.93
994.787	1105.92
995.083	1105.69
995.379	1094.84
995.676	1117.67
995.972	1103.66
996.268	1112.7
996.565	1090.55
996.861	1084.22
997.157	1086.03
997.453	1083.54
997.749	1049.2
998.044	1063.21
998.34	1053.72
998.636	1057.78
998.932	1049.87
999.227	1020.72
999.523	1072.7
999.818	1013.72
1000.114	1029.99
1000.409	1062.3
1000.704	1034.05
1001	1036.09
1001.295	1005.35
1001.59	1006.03
1001.885	1055.52
1002.18	1025.92
1002.475	1000.84
1002.77	991.8
1003.065	985.69
1003.359	974.4
1003.654	1001.97
1003.949	983.66
1004.243	965.58
1004.538	991.34
1004.832	975.3
1005.127	956.77
1005.421	963.32
1005.715	950.89
1006.009	965.36
1006.304	937.79
1006.598	922.65
1006.892	945.92
1007.186	944.11
1007.48	941.18
1007.773	912.93
1008.067	929.65
1008.361	902.08
1008.655	906.83
1008.948	867.51
1009.242	891.23
1009.535	917.9
1009.829	890.1
1010.122	881.06
1010.415	877.45
1010.708	845.81
1011.001	887.84
1011.295	891.46
1011.588	888.75
1011.881	863.21
1012.173	858.24
1012.466	872.7
1012.759	856.66
1013.052	871.57
1013.344	850.56
1013.637	835.19
1013.93	822.08
1014.222	861.4
1014.514	837
1014.807	840.39
1015.099	828.64
1015.391	843.1
1015.683	811.24
1015.976	812.37
1016.268	804.91
1016.56	811.01
1016.851	808.3
1017.143	806.72
1017.435	804
1017.727	811.24
1018.018	789.99
1018.31	789.77
1018.602	787.51
1018.893	791.58
1019.185	763.1
1019.476	761.29
1019.767	775.53
1020.058	758.58
1020.35	755.87
1020.641	758.81
1020.932	750.67
1021.223	778.02
1021.514	752.71
1021.804	742.31
1022.095	732.37
1022.386	737.57
1022.677	729.2
1022.967	727.85
1023.258	740.73
1023.548	726.72
1023.839	715.19
1024.129	734.63
1024.419	710
1024.709	708.41
1025	704.8
1025.29	712.03
1025.58	715.87
1025.87	698.7
1026.16	708.87
1026.449	706.38
1026.739	666.61
1027.029	702.31
1027.319	655.53
1027.608	684.23
1027.898	693.95
1028.187	663.67
1028.477	686.95
1028.766	666.38
1029.055	658.47
1029.344	653.05
1029.634	647.62
1029.923	675.42
1030.212	664.35
1030.501	668.19
1030.79	650.34
1031.078	640.84
1031.367	646.72
1031.656	639.71
1031.945	640.17
1032.233	646.04
1032.522	630
1032.81	639.49
1033.099	619.6
1033.387	630.68
1033.675	630.68
1033.963	602.88
1034.251	627.51
1034.54	611.02
1034.828	625.48
1035.116	620.05
1035.403	599.04
1035.691	616.44
1035.979	603.11
1036.267	586.38
1036.554	596.1
1036.842	587.74
1037.129	580.96
1037.417	596.1
1037.704	572.82
1037.992	585.48
1038.279	580.96
1038.566	585.48
1038.853	585.48
1039.14	585.48
