Data from brown_tile_FLMS001491_087.txt Node
Date: Tue Feb 07 10:38:07 GMT 2017
User: dcchb
Spectrometer: FLMS00149
Trigger mode: 0
Integration Time (sec): 2.000000E-2
Scans to average: 10
Electric dark correction enabled: true
Nonlinearity correction enabled: false
Boxcar width: 0
XAxis mode: Wavelengths
Number of Pixels in Spectrum: 2048
>>>>>Begin Spectral Data<<<<<
341.393	-20.85
341.776	-20.85
342.16	-20.85
342.543	-71.47
342.927	-61.07
343.31	-80.28
343.693	-62.88
344.077	-60.85
344.46	-63.56
344.843	-64.69
345.226	-30.34
345.61	-33.95
345.993	-22.65
346.376	-13.16
346.759	8.98
347.142	10.11
347.525	68.19
347.908	61.41
348.291	83.11
348.674	103.67
349.057	96.89
349.44	121.07
349.823	142.09
350.206	177.34
350.588	195.64
350.971	200.16
351.354	214.85
351.737	222.54
352.119	237.23
352.502	237
352.884	245.81
353.267	250.78
353.65	274.06
354.032	283.1
354.414	296.88
354.797	293.72
355.179	314.51
355.562	302.53
355.944	307.28
356.326	305.47
356.709	321.07
357.091	329.65
357.473	328.3
357.855	327.17
358.238	325.36
358.62	329.43
359.002	321.29
359.384	326.04
359.766	313.61
360.148	317.9
360.53	319.03
360.912	314.96
361.294	328.3
361.676	328.07
362.057	315.42
362.439	307.05
362.821	301.86
363.203	328.75
363.584	314.29
363.966	308.86
364.348	309.09
364.729	325.36
365.111	304.57
365.493	296.21
365.874	275.87
366.256	314.29
366.637	284.91
367.019	322.87
367.4	299.6
367.781	299.37
368.163	286.04
368.544	302.53
368.925	295.75
369.306	327.17
369.688	292.37
370.069	307.28
370.45	305.92
370.831	296.43
371.212	291.46
371.593	294.4
371.974	303.21
372.355	294.4
372.736	307.51
373.117	309.77
373.498	297.11
373.879	301.63
374.26	312.48
374.641	292.14
375.021	300.05
375.402	288.75
375.783	315.19
376.163	305.02
376.544	300.73
376.925	311.12
377.305	323.55
377.686	297.79
378.066	300.73
378.447	320.16
378.827	316.32
379.208	310.44
379.588	306.38
379.968	307.05
380.349	300.95
380.729	327.84
381.109	323.55
381.489	331.01
381.87	312.25
382.25	314.51
382.63	323.55
383.01	314.96
383.39	317.9
383.77	308.86
384.15	322.19
384.53	337.11
384.91	320.16
385.29	308.64
385.67	333.04
386.049	328.75
386.429	319.03
386.809	338.24
387.189	310.9
387.568	343.66
387.948	331.46
388.328	347.28
388.707	319.48
389.087	324.68
389.466	352.7
389.846	348.18
390.225	334.17
390.605	321.29
390.984	335.53
391.363	352.48
391.743	355.87
392.122	350.89
392.501	354.74
392.881	345.92
393.26	344.34
393.639	357
394.018	329.88
394.397	373.27
394.776	347.5
395.155	353.15
395.534	361.29
395.913	354.51
396.292	347.05
396.671	368.97
397.05	364.91
397.429	338.47
397.808	375.53
398.186	376.66
398.565	346.15
398.944	346.38
399.323	357.45
399.701	373.94
400.08	382.08
400.458	372.82
400.837	354.28
401.215	369.2
401.594	371.69
401.972	369.65
402.351	354.51
402.729	386.37
403.107	382.31
403.486	376.2
403.864	362.65
404.242	390.22
404.62	382.53
404.999	387.73
405.377	373.72
405.755	387.28
406.133	387.05
406.511	380.95
406.889	376.88
407.267	398.35
407.645	386.6
408.023	400.16
408.401	418.92
408.779	399.03
409.156	403.77
409.534	406.49
409.912	424.11
410.29	408.07
410.667	408.29
411.045	412.36
411.422	405.81
411.8	423.89
412.178	425.02
412.555	418.69
412.933	422.53
413.31	418.24
413.687	433.6
414.065	435.86
414.442	434.51
414.819	451.01
415.197	444.68
415.574	441.97
415.951	432.7
416.328	458.46
416.705	461.63
417.082	438.58
417.46	435.19
417.837	452.14
418.214	456.65
418.591	457.56
418.967	460.5
419.344	458.24
419.721	454.17
420.098	456.2
420.475	468.63
420.852	455.75
421.228	452.81
421.605	486.26
421.982	497.56
422.358	471.57
422.735	475.41
423.111	458.91
423.488	491.46
423.864	490.1
424.241	483.77
424.617	499.59
424.994	488.74
425.37	502.08
425.746	493.72
426.123	507.5
426.499	514.28
426.875	505.92
427.251	500.04
427.627	500.95
428.003	521.29
428.379	511.79
428.756	544.11
429.132	542.08
429.507	504.56
429.883	526.48
430.259	540.72
430.635	522.64
431.011	540.95
431.387	529.42
431.763	564.9
432.138	543.88
432.514	542.75
432.89	559.48
433.265	562.64
433.641	562.41
434.016	589.31
434.392	584.56
434.767	593.83
435.143	599.25
435.518	596.31
435.894	594.5
436.269	605.58
436.644	598.35
437.02	601.28
437.395	604.67
437.77	605.13
438.145	607.84
438.52	636.31
438.895	625.46
439.271	616.88
439.646	640.83
440.021	627.5
440.395	627.5
440.77	613.03
441.145	632.7
441.52	652.36
441.895	653.71
442.27	639.93
442.645	657.78
443.019	652.36
443.394	628.18
443.769	673.37
444.143	661.4
444.518	682.41
444.892	662.75
445.267	688.29
445.641	669.76
446.016	684.22
446.39	698
446.764	701.39
447.139	684.22
447.513	690.09
447.887	691
448.262	681.73
448.636	693.03
449.01	711.11
449.384	712.02
449.758	706.82
450.132	719.92
450.506	705.01
450.88	715.4
451.254	718.57
451.628	741.17
452.002	734.61
452.376	740.71
452.75	739.36
453.123	743.65
453.497	758.12
453.871	743.88
454.244	773.03
454.618	775.29
454.992	795.85
455.365	780.49
455.739	796.98
456.112	807.15
456.486	830.88
456.859	811
457.232	810.54
457.606	829.75
457.979	834.95
458.352	847.15
458.725	843.54
459.099	859.13
459.472	860.49
459.845	872.69
460.218	854.38
460.591	880.82
460.964	851.9
461.337	906.13
461.71	888.73
462.083	895.74
462.456	912.91
462.829	905.68
463.201	917.89
463.574	936.19
463.947	948.62
464.32	951.78
464.692	951.56
465.065	950.43
465.438	979.58
465.81	995.85
466.183	1015.51
466.555	1023.65
466.928	1015.28
467.3	1028.39
467.672	1026.13
468.045	1065
468.417	1069.97
468.789	1039.92
469.161	1052.57
469.534	1063.64
469.906	1088.05
470.278	1095.51
470.65	1109.97
471.022	1129.63
471.394	1136.18
471.766	1158.56
472.138	1131.67
472.51	1174.6
472.882	1202.17
473.253	1214.37
473.625	1214.15
473.997	1248.72
474.369	1265.45
474.74	1268.38
475.112	1261.38
475.484	1305.45
475.855	1322.62
476.227	1302.51
476.598	1358.1
476.97	1366.91
477.341	1389.06
477.713	1411.43
478.084	1413.01
478.455	1457.08
478.827	1446.91
479.198	1491.43
479.569	1457.08
479.94	1507.47
480.311	1535.95
480.682	1575.5
481.053	1575.72
481.424	1584.08
481.795	1622.73
482.166	1642.39
482.537	1669.96
482.908	1674.48
483.279	1692.55
483.65	1738.43
484.021	1751.76
484.391	1774.36
484.762	1797.64
485.133	1790.18
485.503	1821.14
485.874	1855.26
486.244	1867.01
486.615	1901.59
486.985	1893.45
487.356	1945.88
487.726	1969.16
488.097	1990.4
488.467	1977.07
488.837	2050.96
489.207	2064.52
489.578	2059.32
489.948	2095.93
490.318	2142.94
490.688	2139.55
491.058	2148.81
491.428	2198.3
491.798	2168.7
492.168	2255.25
492.538	2248.47
492.908	2263.84
493.278	2308.58
493.648	2304.29
494.017	2317.85
494.387	2375.02
494.757	2376.38
495.126	2412.31
495.496	2403.27
495.866	2415.47
496.235	2457.96
496.605	2469.03
496.974	2506.54
497.344	2501.57
497.713	2512.42
498.082	2526.2
498.452	2556.49
498.821	2570.95
499.19	2593.77
499.559	2619.31
499.928	2608.01
500.298	2616.6
500.667	2658.86
501.036	2655.01
501.405	2692.3
501.774	2662.25
502.143	2712.41
502.512	2741.11
502.88	2766.2
503.249	2771.85
503.618	2811.85
503.987	2786.08
504.356	2827.89
504.724	2840.77
505.093	2840.32
505.462	2882.81
505.83	2886.65
506.199	2908.12
506.567	2928.45
506.936	2928.45
507.304	3004.84
507.672	2975.68
508.041	2971.16
508.409	3083.48
508.777	3069.02
509.145	3102.23
509.514	3093.42
509.882	3097.49
510.25	3116.7
510.618	3189.92
510.986	3152.4
511.354	3224.49
511.722	3190.14
512.09	3264.49
512.458	3204.83
512.826	3264.04
513.193	3314.66
513.561	3306.3
513.929	3343.81
514.297	3393.75
514.664	3385.17
515.032	3422.45
515.4	3428.1
515.767	3479.4
516.135	3451.38
516.502	3485.5
516.869	3556.23
517.237	3529.34
517.604	3580.41
517.972	3598.04
518.339	3626.51
518.706	3636.68
519.073	3668.32
519.44	3700.86
519.808	3705.38
520.175	3721.88
520.542	3786.28
520.909	3782.67
521.276	3809.56
521.643	3841.42
522.009	3854.53
522.376	3935.66
522.743	3909.22
523.11	3996.67
523.477	3978.6
523.843	4064.24
524.21	4050.91
524.577	4110.12
524.943	4126.84
525.31	4120.29
525.676	4224.47
526.043	4218.36
526.409	4237.12
526.776	4330.9
527.142	4318.25
527.508	4340.85
527.874	4348.76
528.241	4367.06
528.607	4429.66
528.973	4430.56
529.339	4452.71
529.705	4489.32
530.071	4579.26
530.437	4553.5
530.803	4632.14
531.169	4654.06
531.535	4642.99
531.901	4669.2
532.267	4696.32
532.632	4732.93
532.998	4749.42
533.364	4773.38
533.73	4854.05
534.095	4857.89
534.461	4862.87
534.826	4896.31
535.192	4940.83
535.557	4957.33
535.923	4993.48
536.288	4989.19
536.653	5026.93
537.019	5070.54
537.384	5077.1
537.749	5166.36
538.114	5098.11
538.479	5178.56
538.845	5193.48
539.21	5198.68
539.575	5250.88
539.94	5232.8
540.305	5289.52
540.67	5299.24
541.034	5360.03
541.399	5405.68
541.764	5397.32
542.129	5422.63
542.494	5485
542.858	5507.82
543.223	5577.88
543.587	5582.17
543.952	5607.93
544.316	5601.6
544.681	5630.98
545.045	5680.92
545.41	5750.53
545.774	5712.11
546.138	5789.62
546.503	5778.1
546.867	5834.82
547.231	5896.51
547.595	5934.7
547.959	5917.98
548.324	6001.59
548.688	6024.19
549.052	6064.19
549.416	6041.37
549.779	6089.27
550.143	6154.13
550.507	6221.47
550.871	6261.25
551.235	6253.56
551.599	6351.87
551.962	6377.4
552.326	6448.36
552.689	6501.02
553.053	6478.64
553.417	6539.21
553.78	6580.79
554.143	6633.67
554.507	6644.74
554.87	6673.44
555.234	6831.63
555.597	6848.8
555.96	6816.04
556.323	6950.5
556.686	6968.8
557.05	7039.08
557.413	7123.82
557.776	7206.53
558.139	7238.17
558.502	7276.36
558.865	7305.29
559.228	7389.58
559.59	7468
559.953	7513.87
560.316	7645.84
560.679	7662.11
561.041	7748.89
561.404	7728.1
561.767	7925.38
562.129	7881.77
562.492	8023.91
562.854	8099.17
563.217	8113.63
563.579	8132.39
563.941	8267.97
564.304	8296.22
564.666	8346.62
565.028	8454.64
565.39	8503
565.753	8659.6
566.115	8658.47
566.477	8736.21
566.839	8812.14
567.201	8991.35
567.563	8942.53
567.925	9020.05
568.287	9117.44
568.648	9158.8
569.01	9261.17
569.372	9339.36
569.734	9382.52
570.095	9502.07
570.457	9567.83
570.819	9691.21
571.18	9743.42
571.542	9836.07
571.903	9855.73
572.265	9975.27
572.626	10035.84
572.987	10110.86
573.349	10126.46
573.71	10227.25
574.071	10320.12
574.432	10384.3
574.794	10542.27
575.155	10609.16
575.516	10578.87
575.877	10705.2
576.238	10787.91
576.599	10887.57
576.96	10956.72
577.32	10993.55
577.681	11099.31
578.042	11045.98
578.403	11171.4
578.763	11203.26
579.124	11329.36
579.485	11331.4
579.845	11501.56
580.206	11491.62
580.566	11565.29
580.927	11575.91
581.287	11703.36
581.648	11683.48
582.008	11790.37
582.368	11864.26
582.728	11929.12
583.089	11899.52
583.449	11992.17
583.809	12066.29
584.169	12119.62
584.529	12105.84
584.889	12253.86
585.249	12198.04
585.609	12191.94
585.969	12377.7
586.329	12412.95
586.688	12443.46
587.048	12442.1
587.408	12496.79
587.768	12526.62
588.127	12608.88
588.487	12616.33
588.846	12732.49
589.206	12720.74
589.565	12698.14
589.925	12829.66
590.284	12869.66
590.643	12883.45
591.003	12974.74
591.362	12913.95
591.721	12945.37
592.08	12996.66
592.44	13132.48
592.799	13112.82
593.158	13128.41
593.517	13255.41
593.876	13270.56
594.235	13170.9
594.593	13234.62
594.952	13363.43
595.311	13306.94
595.67	13423.77
596.029	13507.38
596.387	13569.08
596.746	13493.6
597.104	13532.47
597.463	13609.08
597.822	13608.17
598.18	13682.07
598.538	13647.04
598.897	13831.9
599.255	13638.45
599.613	13927.26
599.972	13800.03
600.33	13974.49
600.688	13878.67
601.046	13916.64
601.404	14051.1
601.762	13949.86
602.12	14087.26
602.478	14129.29
602.836	14132.68
603.194	14059.23
603.552	14041.38
603.91	14096.97
604.268	14218.78
604.625	14176.52
604.983	14296.29
605.341	14223.07
605.698	14345.56
606.056	14398.66
606.413	14335.84
606.771	14392.79
607.128	14474.82
607.485	14413.58
607.843	14479.79
608.2	14562.95
608.557	14702.16
608.914	14600.69
609.272	14627.58
609.629	14724.75
609.986	14697.18
610.343	14682.04
610.7	14843.17
611.057	14816.73
611.414	14827.35
611.771	14812.66
612.127	14980.34
612.484	14989.38
612.841	15050.85
613.198	14912.77
613.554	15013.33
613.911	15044.29
614.267	15077.29
614.624	15103.5
614.98	15146.89
615.337	15212.2
615.693	15210.17
616.05	15240.22
616.406	15259.43
616.762	15267.11
617.118	15273.21
617.475	15322.03
617.831	15404.06
618.187	15338.52
618.543	15287.68
618.899	15456.49
619.255	15535.13
619.611	15452.42
619.967	15520.44
620.323	15512.08
620.678	15555.24
621.034	15464.17
621.39	15522.25
621.746	15501.23
622.101	15601.34
622.457	15519.31
622.812	15484.73
623.168	15649.48
623.523	15658.29
623.879	15640.44
624.234	15560.44
624.589	15632.53
624.945	15651.96
625.3	15633.2
625.655	15595.92
626.01	15645.86
626.365	15652.41
626.72	15651.51
627.075	15708.46
627.43	15628.23
627.785	15567.22
628.14	15610.83
628.495	15671.62
628.85	15612.87
629.205	15543.26
629.559	15601.12
629.914	15583.49
630.269	15545.52
630.623	15657.61
630.978	15572.64
631.332	15659.42
631.687	15686.54
632.041	15576.94
632.396	15577.84
632.75	15536.48
633.104	15617.16
633.459	15558.86
633.813	15536.94
634.167	15613.32
634.521	15466.2
634.875	15498.07
635.229	15553.66
635.583	15443.38
635.937	15461.23
636.291	15567.9
636.645	15529.03
636.999	15479.08
637.352	15411.06
637.706	15397.96
638.06	15467.11
638.413	15487.9
638.767	15434.57
639.121	15420.55
639.474	15333.33
639.828	15381.01
640.181	15385.53
640.534	15363.16
640.888	15405.64
641.241	15332.87
641.594	15396.6
641.947	15305.98
642.301	15291.29
642.654	15312.54
643.007	15298.52
643.36	15280.67
643.713	15332.65
644.066	15376.49
644.419	15261.69
644.771	15108.02
645.124	15039.1
645.477	15010.17
645.83	14935.37
646.182	14911.19
646.535	14844.75
646.888	14904.86
647.24	14798.2
647.593	14807.92
647.945	14830.97
648.298	14833.9
648.65	14700.8
649.002	14701.25
649.355	14743.06
649.707	14736.51
650.059	14839.78
650.411	14990.28
650.763	15062.37
651.115	15154.57
651.467	15109.83
651.819	15100.34
652.171	15091.52
652.523	15101.47
652.875	15155.93
653.227	14969.72
653.578	15157.51
653.93	15069.38
654.282	15018.76
654.633	15024.86
654.985	15010.17
655.337	14999.1
655.688	15048.36
656.039	15148.92
656.391	15012.43
656.742	15003.84
657.094	14960.45
657.445	15138.53
657.796	15043.84
658.147	15032.32
658.498	14951.87
658.849	15042.94
659.2	15010.4
659.551	14957.74
659.902	14945.77
660.253	15064.18
660.604	15072.09
660.955	15066.89
661.306	15029.6
661.656	15065.54
662.007	15130.62
662.358	15037.06
662.708	15104.63
663.059	15047.46
663.409	15044.97
663.76	15090.62
664.11	15092.2
664.461	15080.9
664.811	15060.34
665.161	15138.53
665.511	14958.42
665.862	15072.54
666.212	15158.41
666.562	15080.68
666.912	15055.59
667.262	15227.57
667.612	15064.86
667.962	15288.13
668.312	15105.08
668.662	15197.28
669.011	15121.13
669.361	15072.32
669.711	15175.14
670.06	15092.65
670.41	15184.4
670.76	15057.17
671.109	15229.6
671.459	15138.53
671.808	15087
672.157	15177.62
672.507	15101.47
672.856	15090.39
673.205	15179.21
673.554	15193.67
673.904	15053.11
674.253	15198.87
674.602	15094.01
674.951	14952.32
675.3	14866.9
675.649	15171.3
675.998	15071.19
676.346	15185.98
676.695	15168.13
677.044	15071.41
677.393	15128.13
677.741	15129.04
678.09	15148.92
678.438	15097.85
678.787	15105.99
679.135	15129.26
679.484	15062.15
679.832	15148.02
680.181	15047.68
680.529	15140.56
680.877	15145.99
681.225	15037.74
681.573	15099.43
681.922	15063.28
682.27	15037.06
682.618	15068.47
682.966	15032.54
683.314	15125.42
683.661	14981.7
684.009	14934.24
684.357	14991.19
684.705	14993.67
685.053	15035.48
685.4	14918.2
685.748	14915.48
686.095	14947.8
686.443	14832.1
686.79	14923.62
687.138	14878.2
687.485	14921.59
687.832	14797.07
688.18	14857.63
688.527	14869.84
688.874	14799.55
689.221	14724.53
689.568	14778.31
689.915	14757.75
690.262	14783.06
690.609	14727.69
690.956	14599.56
691.303	14736.73
691.65	14623.51
691.997	14671.2
692.344	14524.99
692.69	14518.88
693.037	14539.45
693.383	14493.12
693.73	14527.92
694.077	14441.37
694.423	14476.4
694.769	14383.75
695.116	14412.22
695.462	14423.97
695.808	14324.76
696.155	14398.89
696.501	14348.27
696.847	14336.06
697.193	14259.23
697.539	14275.95
697.885	14197.76
698.231	14231.89
698.577	14158.67
698.923	14138.1
699.269	14032.34
699.614	14059.01
699.96	13995.28
700.306	14068.05
700.651	14068.5
700.997	13998.45
701.342	13993.25
701.688	14000.48
702.033	13923.19
702.379	13884.32
702.724	13966.81
703.069	13877.54
703.415	13839.81
703.76	13828.05
704.105	13848.39
704.45	13879.35
704.795	13780.37
705.14	13684.1
705.485	13707.15
705.83	13604.33
706.175	13705.12
706.52	13630.77
706.865	13593.94
707.209	13640.94
707.554	13541.73
707.899	13651.11
708.243	13485.24
708.588	13557.55
708.932	13491.34
709.277	13459.7
709.621	13448.4
709.966	13361.85
710.31	13427.16
710.654	13241.63
710.998	13378.35
711.342	13419.7
711.687	13365.69
712.031	13391
712.375	13237.34
712.719	13304.68
713.063	13273.27
713.407	13349.87
713.75	13292.48
714.094	13266.94
714.438	13244.34
714.782	13155.3
715.125	13123.21
715.469	13158.69
715.812	13139.26
716.156	13124.12
716.499	13129.32
716.843	13144.23
717.186	13070.56
717.53	13148.3
717.873	13083.44
718.216	13168.18
718.559	13084.57
718.902	12978.81
719.246	13089.09
719.589	12945.14
719.932	12927.74
720.275	12927.97
720.617	12989.66
720.96	12972.71
721.303	12923.45
721.646	12922.54
721.989	12805.71
722.331	12934.07
722.674	12839.83
723.016	12926.38
723.359	12809.78
723.701	12859.72
724.044	12698.37
724.386	12719.61
724.729	12847.29
725.071	12799.15
725.413	12771.36
725.755	12817.69
726.097	12757.57
726.439	12711.7
726.782	12716.45
727.124	12781.3
727.465	12673.96
727.807	12740.17
728.149	12645.26
728.491	12692.72
728.833	12733.62
729.175	12572.95
729.516	12627.63
729.858	12610.91
730.199	12693.4
730.541	12633.74
730.882	12586.73
731.224	12607.07
731.565	12553.51
731.906	12530.91
732.248	12565.26
732.589	12483.68
732.93	12432.38
733.271	12509.22
733.612	12543.34
733.953	12565.49
734.294	12449.79
734.635	12482.1
734.976	12506.06
735.317	12421.99
735.658	12367.53
735.999	12475.77
736.339	12449.11
736.68	12370.69
737.021	12393.29
737.361	12358.26
737.702	12379.05
738.042	12326.17
738.383	12278.26
738.723	12354.87
739.063	12223.58
739.404	12334.76
739.744	12249.79
740.084	12215.89
740.424	12294.76
740.764	12227.42
741.104	12338.15
741.444	12224.48
741.784	12158.95
742.124	12252.5
742.464	12215.44
742.804	12112.85
743.143	12156.69
743.483	12140.64
743.823	11999.18
744.162	12133.41
744.502	12068.1
744.841	12122.11
745.181	12067.2
745.52	12006.63
745.86	11985.17
746.199	11971.83
746.538	11972.51
746.877	12011.38
747.216	11958.73
747.556	11864.04
747.895	11904.49
748.234	11897.71
748.573	11925.28
748.911	11934.77
749.25	11872.4
749.589	11821.33
749.928	11853.64
750.267	11771.84
750.605	11794.89
750.944	11741.78
751.283	11742.69
751.621	11690.71
751.96	11715.57
752.298	11704.04
752.636	11657.72
752.975	11518.74
753.313	11521.45
753.651	11513.77
753.989	11543.37
754.327	11505.18
754.666	11403.94
755.004	11451.85
755.342	11490.04
755.679	11412.07
756.017	11353.09
756.355	11361.45
756.693	11403.94
757.031	11335.24
757.368	11277.61
757.706	11190.84
758.044	11181.8
758.381	11218.41
758.719	11170.95
759.056	11134.34
759.394	11082.14
759.731	11086.43
760.068	11016.15
760.405	11024.51
760.743	10981.8
761.08	11036.26
761.417	10904.74
761.754	10869.26
762.091	10806.44
762.428	10814.8
762.765	10756.95
763.102	10789.72
763.438	10724.86
763.775	10781.81
764.112	10667.69
764.449	10653.9
764.785	10573
765.122	10547.24
765.458	10458.2
765.795	10459.33
766.131	10472.44
766.467	10436.28
766.804	10388.14
767.14	10359.45
767.476	10271.99
767.812	10213.69
768.148	10303.63
768.485	10266.57
768.821	10208.49
769.157	10135.72
769.492	10106.57
769.828	10122.16
770.164	10003.07
770.5	10035.39
770.836	10050.75
771.171	9908.84
771.507	9869.51
771.842	9799.91
772.178	9772.79
772.513	9799.23
772.849	9834.26
773.184	9707.94
773.519	9667.71
773.855	9642.4
774.19	9646.92
774.525	9582.97
774.86	9625.23
775.195	9551.33
775.53	9486.02
775.865	9408.96
776.2	9348.62
776.535	9318.79
776.87	9313.6
777.205	9216.88
777.539	9247.84
777.874	9271.34
778.209	9116.54
778.543	9132.13
778.878	9086.71
779.212	9046.94
779.547	9048.29
779.881	9052.13
780.215	8991.35
780.55	8996.09
780.884	8973.72
781.218	8872.25
781.552	8906.38
781.886	8799.94
782.22	8744.57
782.554	8709.09
782.888	8652.6
783.222	8617.34
783.556	8564.92
783.889	8570.57
784.223	8482.88
784.557	8503.9
784.89	8409.21
785.224	8471.36
785.557	8383.45
785.891	8387.52
786.224	8371.02
786.558	8344.58
786.891	8258.48
787.224	8227.75
787.557	8216.68
787.891	8138.26
788.224	8178.94
788.557	8170.35
788.89	8110.24
789.223	8127.41
789.556	8050.58
789.888	8023.01
790.221	7989.34
790.554	7963.8
790.887	7896.69
791.219	7947.53
791.552	7885.16
791.884	7851.94
792.217	7815.78
792.549	7758.16
792.882	7695.33
793.214	7714.09
793.546	7705.05
793.879	7684.71
794.211	7605.39
794.543	7568.11
794.875	7552.29
795.207	7569.01
795.539	7545.51
795.871	7522.23
796.203	7463.25
796.535	7385.51
796.867	7390.94
797.198	7317.27
797.53	7414.21
797.862	7303.71
798.193	7295.8
798.525	7244.72
798.856	7299.19
799.188	7182.13
799.519	7185.97
799.85	7130.6
800.182	7132.19
800.513	7137.38
800.844	7059.87
801.175	7086.54
801.506	7079.31
801.837	7045.18
802.168	6985.52
802.499	6923.38
802.83	6974.68
803.161	6955.01
803.491	6928.57
803.822	6894.68
804.153	6852.42
804.483	6810.61
804.814	6790.5
805.145	6834.57
805.475	6722.7
805.805	6747.34
806.136	6721.57
806.466	6689.26
806.796	6698.52
807.126	6619.88
807.457	6616.94
807.787	6661.69
808.117	6544.18
808.447	6569.71
808.777	6582.14
809.107	6525.65
809.436	6498.08
809.766	6541.69
810.096	6377.63
810.426	6425.31
810.755	6427.57
811.085	6431.41
811.414	6376.27
811.744	6313.9
812.073	6300.12
812.403	6346.22
812.732	6222.83
813.061	6309.61
813.39	6228.48
813.719	6247.91
814.049	6228.48
814.378	6197.75
814.707	6221.7
815.036	6223.73
815.365	6166.79
815.693	6108.03
816.022	6086.11
816.351	6094.25
816.68	6042.5
817.008	6123.85
817.337	6047.92
817.665	6003.4
817.994	6008.6
818.322	5987.58
818.651	5959.33
818.979	5959.79
819.307	5945.32
819.636	5962.5
819.964	5887.47
820.292	5909.39
820.62	5859.9
820.948	5890.18
821.276	5882.95
821.604	5885.89
821.932	5834.82
822.259	5903.74
822.587	5852.22
822.915	5832.78
823.243	5861.26
823.57	5839.56
823.898	5788.72
824.225	5800.24
824.553	5769.06
824.88	5811.54
825.207	5761.15
825.535	5807.93
825.862	5783.97
826.189	5782.84
826.516	5786.68
826.843	5781.94
827.17	5785.55
827.497	5733.8
827.824	5773.8
828.151	5781.03
828.478	5763.63
828.805	5774.93
829.131	5745.1
829.458	5711.88
829.785	5739.68
830.111	5746.91
830.438	5751.2
830.764	5719.57
831.09	5717.53
831.417	5687.03
831.743	5676.63
832.069	5703.97
832.395	5638.89
832.722	5655.39
833.048	5700.13
833.374	5662.17
833.7	5655.84
834.026	5685.44
834.351	5665.78
834.677	5641.38
835.003	5644.54
835.329	5687.03
835.654	5622.85
835.98	5557.54
836.306	5584.66
836.631	5607.25
836.956	5559.57
837.282	5593.47
837.607	5598.89
837.932	5534.94
838.258	5573.58
838.583	5519.35
838.908	5467.82
839.233	5513.02
839.558	5510.53
839.883	5475.51
840.208	5455.39
840.533	5456.75
840.858	5505.79
841.182	5448.16
841.507	5480.48
841.832	5460.59
842.156	5391.67
842.481	5415.85
842.805	5353.48
843.13	5391.67
843.454	5337.88
843.778	5315.28
844.103	5304.44
844.427	5283.65
844.751	5325.68
845.075	5280.93
845.399	5290.2
845.723	5232.8
846.047	5234.38
846.371	5208.85
846.695	5169.3
847.019	5186.25
847.343	5143.54
847.666	5172.69
847.99	5061.51
848.313	5071
848.637	5076.19
848.96	5062.41
849.284	5043.43
849.607	4989.19
849.931	4953.94
850.254	4918.68
850.577	4908.52
850.9	4945.58
851.223	4865.8
851.546	4861.28
851.869	4827.39
852.192	4865.8
852.515	4745.81
852.838	4769.31
853.161	4752.81
853.483	4731.57
853.806	4747.62
854.129	4716.88
854.451	4711.91
854.774	4716.43
855.096	4629.88
855.419	4688.41
855.741	4653.61
856.063	4580.16
856.385	4579.26
856.708	4590.78
857.03	4564.34
857.352	4575.19
857.674	4557.34
857.996	4517.11
858.318	4540.39
858.64	4499.94
858.961	4511.24
859.283	4469.43
859.605	4453.84
859.926	4461.52
860.248	4453.61
860.57	4436.21
860.891	4451.35
861.212	4422.65
861.534	4406.83
861.855	4378.59
862.176	4400.05
862.498	4362.31
862.819	4368.64
863.14	4390.79
863.461	4331.36
863.782	4305.82
864.103	4292.26
864.424	4290.45
864.745	4292.71
865.065	4281.19
865.386	4308.53
865.707	4253.84
866.027	4283.67
866.348	4313.05
866.668	4260.62
866.989	4230.79
867.309	4193.73
867.63	4182.88
867.95	4224.24
868.27	4171.36
868.59	4216.78
868.91	4218.59
869.23	4169.33
869.55	4139.72
869.87	4168.42
870.19	4190.79
870.51	4174.52
870.83	4181.08
871.15	4123.68
871.469	4162.32
871.789	4127.74
872.109	4169.55
872.428	4110.57
872.748	4111.47
873.067	4106.28
873.386	4136.33
873.706	4131.36
874.025	4073.96
874.344	4080.74
874.663	4064.47
874.982	4071.47
875.301	4054.3
875.62	4075.77
875.939	4058.37
876.258	4028.54
876.577	4005.94
876.896	4017.46
877.214	4008.2
877.533	3994.41
877.852	4017.01
878.17	3996.45
878.489	4020.18
878.807	3994.87
879.125	3985.6
879.444	4001.42
879.762	3983.12
880.08	3960.97
880.398	3963.23
880.716	3929.33
881.034	3908.32
881.352	3921.2
881.67	3881.88
881.988	3908.32
882.306	3910.58
882.624	3895.89
882.941	3884.59
883.259	3852.95
883.577	3869.45
883.894	3832.39
884.212	3852.05
884.529	3777.7
884.846	3833.06
885.164	3834.87
885.481	3822.22
885.798	3852.5
886.115	3796.91
886.432	3774.08
886.75	3777.47
887.067	3767.3
887.383	3752.84
887.7	3753.52
888.017	3768.21
888.334	3777.02
888.651	3757.13
888.967	3730.01
889.284	3696.8
889.6	3693.86
889.917	3679.17
890.233	3689.56
890.55	3661.09
890.866	3680.07
891.182	3700.64
891.498	3662.67
891.815	3622.22
892.131	3600.3
892.447	3583.8
892.763	3580.87
893.079	3589.45
893.395	3559.4
893.71	3555.1
894.026	3587.87
894.342	3546.52
894.657	3527.99
894.973	3507.65
895.289	3572.96
895.604	3495.9
895.92	3500.19
896.235	3502.9
896.55	3504.48
896.865	3510.13
897.181	3452.06
897.496	3472.17
897.811	3441.66
898.126	3442.34
898.441	3430.14
898.756	3407.31
899.071	3377.48
899.386	3422
899.7	3372.74
900.015	3367.99
900.33	3340.87
900.644	3327.31
900.959	3327.54
901.273	3328.44
901.588	3353.98
901.902	3317.14
902.216	3293.19
902.531	3293.42
902.845	3266.07
903.159	3251.38
903.473	3271.27
903.787	3243.25
904.101	3207.77
904.415	3263.81
904.729	3219.07
905.042	3199.18
905.356	3152.85
905.67	3126.19
905.984	3192.85
906.297	3145.17
906.611	3165.74
906.924	3130.71
907.237	3111.05
907.551	3123.7
907.864	3110.6
908.177	3098.85
908.491	3113.99
908.804	3046.19
909.117	3099.97
909.43	3072.86
909.743	3034.89
910.056	3017.94
910.368	2996.47
910.681	2984.5
910.994	2982.69
911.307	2973.2
911.619	2944.72
911.932	2944.95
912.244	2909.02
912.557	2934.33
912.869	2936.36
913.181	2925.97
913.494	2897.27
913.806	2888.68
914.118	2843.03
914.43	2829.7
914.742	2870.6
915.054	2855.01
915.366	2814.56
915.678	2799.19
915.99	2833.99
916.302	2803.03
916.613	2773.66
916.925	2792.86
917.236	2815.24
917.548	2764.39
917.859	2748.8
918.171	2722.81
918.482	2755.13
918.794	2748.57
919.105	2704.05
919.416	2690.95
919.727	2668.8
920.038	2682.58
920.349	2688.23
920.66	2661.79
920.971	2648.24
921.282	2685.3
921.593	2634
921.903	2609.82
922.214	2603.49
922.525	2610.5
922.835	2597.62
923.146	2568.69
923.456	2571.4
923.767	2546.32
924.077	2563.04
924.387	2543.83
924.697	2544.74
925.008	2532.98
925.318	2490.95
925.628	2509.03
925.938	2506.77
926.248	2482.59
926.558	2467.9
926.867	2446.21
927.177	2443.72
927.487	2412.76
927.796	2423.38
928.106	2402.82
928.416	2435.81
928.725	2426.55
929.034	2389.94
929.344	2383.16
929.653	2386.77
929.962	2338.41
930.271	2322.37
930.581	2349.49
930.89	2326.44
931.199	2331.18
931.508	2310.62
931.817	2321.01
932.125	2335.25
932.434	2327.11
932.743	2276.49
933.051	2281.24
933.36	2269.71
933.669	2272.43
933.977	2242.14
934.286	2268.81
934.594	2249.6
934.902	2206.67
935.21	2230.85
935.519	2210.05
935.827	2219.77
936.135	2220.22
936.443	2171.64
936.751	2187.46
937.059	2226.1
937.367	2144.75
937.674	2159.66
937.982	2154.69
938.29	2152.66
938.597	2148.14
938.905	2131.86
939.213	2109.94
939.52	2112.2
939.827	2136.61
940.135	2105.2
940.442	2079.89
940.749	2087.8
941.056	2069.49
941.363	2065.2
941.67	2065.65
941.977	2088.02
942.284	2065.65
942.591	2015.71
942.898	2026.33
943.205	2008.03
943.511	1996.05
943.818	2018.87
944.125	1963.06
944.431	2006.9
944.738	1992.66
945.044	1980.68
945.35	1952.66
945.657	1960.34
945.963	1931.87
946.269	1962.6
946.575	1943.17
946.881	1944.53
947.187	1943.62
947.493	1903.62
947.799	1918.09
948.105	1885.32
948.41	1864.75
948.716	1905.88
949.022	1872.44
949.327	1892.1
949.633	1898.42
949.938	1872.21
950.244	1847.8
950.549	1839.22
950.854	1865.88
951.16	1825.88
951.465	1833.57
951.77	1817.3
952.075	1802.38
952.38	1801.25
952.685	1817.75
952.99	1790.63
953.294	1774.81
953.599	1783.4
953.904	1760.8
954.209	1764.64
954.513	1770.07
954.818	1747.24
955.122	1783.85
955.426	1754.93
955.731	1737.52
956.035	1736.17
956.339	1727.13
956.643	1753.34
956.948	1715.6
957.252	1708.83
957.556	1717.86
957.86	1723.51
958.163	1701.37
958.467	1688.71
958.771	1656.85
959.075	1665.66
959.378	1690.75
959.682	1636.96
959.985	1690.07
960.289	1652.78
960.592	1651.88
960.896	1615.04
961.199	1630.86
961.502	1638.32
961.805	1653.91
962.108	1624.99
962.411	1615.49
962.714	1591.99
963.017	1589.28
963.32	1598.09
963.623	1571.65
963.926	1593.8
964.228	1567.13
964.531	1566.68
964.833	1574.82
965.136	1555.38
965.438	1544.99
965.741	1559.22
966.043	1550.86
966.345	1524.88
966.648	1538.43
966.95	1529.39
967.252	1546.57
967.554	1499.11
967.856	1519.23
968.158	1544.31
968.46	1505.44
968.761	1501.37
969.063	1504.31
969.365	1463.41
969.666	1477.87
969.968	1483.07
970.269	1455.27
970.571	1481.49
970.872	1469.06
971.174	1444.88
971.475	1475.16
971.776	1415.95
972.077	1446.23
972.378	1449.62
972.679	1436.74
972.98	1423.41
973.281	1407.36
973.582	1407.14
973.883	1398.32
974.183	1420.47
974.484	1384.54
974.785	1393.81
975.085	1405.1
975.386	1375.95
975.686	1383.64
975.986	1359
976.287	1393.81
976.587	1344.54
976.887	1372.56
977.187	1355.84
977.487	1359.46
977.787	1354.48
978.087	1357.2
978.387	1354.26
978.687	1342.28
978.987	1316.29
979.286	1314.71
979.586	1292.34
979.885	1285.56
980.185	1278.33
980.484	1310.42
980.784	1266.8
981.083	1307.48
981.382	1286.69
981.682	1276.75
981.981	1235.62
982.28	1309.06
982.579	1271.77
982.878	1253.47
983.177	1256.18
983.475	1245.56
983.774	1250.98
984.073	1217.99
984.372	1243.75
984.67	1231.55
984.969	1227.26
985.267	1240.14
985.566	1234.49
985.864	1196.97
986.162	1204.21
986.461	1224.32
986.759	1220.02
987.057	1195.84
987.355	1202.4
987.653	1210.08
987.951	1178.44
988.249	1202.62
988.547	1191.78
988.844	1200.59
989.142	1188.16
989.44	1157.2
989.737	1150.2
990.035	1158.33
990.332	1158.56
990.63	1154.04
990.927	1142.51
991.224	1142.06
991.521	1121.04
991.819	1126.24
992.116	1119.24
992.413	1132.57
992.71	1122.4
993.006	1118.78
993.303	1123.98
993.6	1120.14
993.897	1116.07
994.193	1086.92
994.49	1096.64
994.787	1099.8
995.083	1093.47
995.379	1075.62
995.676	1103.19
995.972	1068.62
996.268	1066.81
996.565	1061.16
996.861	1082.85
997.157	1050.09
997.453	1044.44
997.749	1048.28
998.044	1027.71
998.34	1036.75
998.636	1054.15
998.932	1051.89
999.227	1012.57
999.523	1046.7
999.818	1016.41
1000.114	1036.3
1000.409	1010.09
1000.704	1001.5
1001	996.53
1001.295	1001.5
1001.59	1001.73
1001.885	1032.91
1002.18	994.49
1002.475	1005.11
1002.77	977.32
1003.065	944.1
1003.359	981.39
1003.654	961.27
1003.949	954.49
1004.243	939.81
1004.538	956.98
1004.832	946.81
1005.127	955.4
1005.421	921.28
1005.715	917.21
1006.009	903.65
1006.304	922.18
1006.598	928.96
1006.892	930.09
1007.186	891.22
1007.48	899.35
1007.773	911.56
1008.067	896.42
1008.361	885.12
1008.655	883.76
1008.948	884.21
1009.242	898.45
1009.535	910.88
1009.829	875.17
1010.122	876.08
1010.415	889.86
1010.708	886.7
1011.001	841.28
1011.295	851.9
1011.588	844.89
1011.881	847.83
1012.173	848.06
1012.466	835.85
1012.759	846.02
1013.052	813.03
1013.344	839.02
1013.637	852.58
1013.93	833.59
1014.222	817.55
1014.514	832.69
1014.807	855.74
1015.099	827.72
1015.391	788.17
1015.683	801.5
1015.976	804.44
1016.268	796.31
1016.56	785.23
1016.851	783.88
1017.143	798.34
1017.435	788.62
1017.727	785.46
1018.018	745.46
1018.31	769.41
1018.602	796.53
1018.893	767.83
1019.185	763.77
1019.476	759.47
1019.767	756.53
1020.058	751.79
1020.35	750.88
1020.641	767.15
1020.932	745.69
1021.223	740.71
1021.514	744.56
1021.804	707.04
1022.095	722.64
1022.386	719.25
1022.677	738.91
1022.967	716.76
1023.258	690.77
1023.548	716.99
1023.839	724.67
1024.129	692.13
1024.419	671.56
1024.709	689.42
1025	711.56
1025.29	683.09
1025.58	683.54
1025.87	694.16
1026.16	679.25
1026.449	679.02
1026.739	665.24
1027.029	673.6
1027.319	653.71
1027.608	682.64
1027.898	640.83
1028.187	665.91
1028.477	656.2
1028.766	647.61
1029.055	634.28
1029.344	648.06
1029.634	652.58
1029.923	651.9
1030.212	636.99
1030.501	626.82
1030.79	616.65
1031.078	631.34
1031.367	641.73
1031.656	631.57
1031.945	618.68
1032.233	609.42
1032.522	605.8
1032.81	600.15
1033.099	614.16
1033.387	616.2
1033.675	611
1033.963	577.33
1034.251	577.78
1034.54	584.79
1034.828	590.44
1035.116	591.11
1035.403	568.06
1035.691	605.58
1035.979	572.58
1036.267	601.96
1036.554	563.77
1036.842	611.9
1037.129	552.7
1037.417	552.02
1037.704	564
1037.992	573.04
1038.279	575.3
1038.566	564.67
1038.853	564.67
1039.14	564.67
