Data from brown_tile_FLMS001491_074.txt Node
Date: Tue Feb 07 10:37:58 GMT 2017
User: dcchb
Spectrometer: FLMS00149
Trigger mode: 0
Integration Time (sec): 2.000000E-2
Scans to average: 10
Electric dark correction enabled: true
Nonlinearity correction enabled: false
Boxcar width: 0
XAxis mode: Wavelengths
Number of Pixels in Spectrum: 2048
>>>>>Begin Spectral Data<<<<<
341.393	8.28
341.776	8.28
342.16	8.28
342.543	-60.87
342.927	-69.46
343.31	-85.51
343.693	-65.62
344.077	-51.38
344.46	-47.54
344.843	-56.13
345.226	-62.23
345.61	-26.75
345.993	-8.9
346.376	1.95
346.759	4.43
347.142	11.44
347.525	32.91
347.908	53.02
348.291	69.29
348.674	99.12
349.057	131.89
349.44	131.89
349.823	154.04
350.206	156.07
350.588	193.81
350.971	218.44
351.354	201.04
351.737	225.67
352.119	245.78
352.502	264.54
352.884	258.67
353.267	266.35
353.65	298.89
354.032	290.3
354.414	278.33
354.797	307.93
355.179	290.76
355.562	335.05
355.944	293.69
356.326	330.75
356.709	317.87
357.091	308.61
357.473	344.76
357.855	334.82
358.238	339.34
358.62	314.48
359.002	330.08
359.384	328.95
359.766	314.94
360.148	327.59
360.53	326.23
360.912	312.68
361.294	313.81
361.676	323.07
362.057	326.91
362.439	313.81
362.821	312.68
363.203	321.49
363.584	291.66
363.966	310.87
364.348	313.13
364.729	309.96
365.111	310.64
365.493	298.44
365.874	318.32
366.256	294.14
366.637	295.73
367.019	312
367.4	301.83
367.781	302.05
368.163	292.56
368.544	303.64
368.925	313.81
369.306	314.71
369.688	304.99
370.069	281.72
370.45	300.47
370.831	311.09
371.212	309.74
371.593	298.44
371.974	318.78
372.355	298.44
372.736	286.46
373.117	305.9
373.498	315.39
373.879	295.05
374.26	323.52
374.641	312.68
375.021	310.64
375.402	310.64
375.783	294.82
376.163	297.53
376.544	307.48
376.925	300.7
377.305	314.26
377.686	332.79
378.066	316.07
378.447	328.27
378.827	332.11
379.208	285.56
379.588	312.9
379.968	307.7
380.349	314.71
380.729	337.31
381.109	327.59
381.489	341.6
381.87	319
382.25	328.72
382.63	325.56
383.01	343.64
383.39	318.55
383.77	325.33
384.15	332.11
384.53	335.5
384.91	335.05
385.29	332.34
385.67	347.7
386.049	321.94
386.429	326.91
386.809	329.17
387.189	339.34
387.568	356.97
387.948	345.89
388.328	326.91
388.707	342.05
389.087	340.47
389.466	358.55
389.846	349.28
390.225	338.89
390.605	313.13
390.984	352.45
391.363	337.08
391.743	353.8
392.122	363.75
392.501	367.82
392.881	362.84
393.26	370.53
393.639	360.13
394.018	355.39
394.397	358.55
394.776	369.4
395.155	347.25
395.534	371.43
395.913	353.35
396.292	374.37
396.671	357.87
397.05	365.33
397.429	352.22
397.808	373.01
398.186	372.11
398.565	366.46
398.944	373.69
399.323	368.49
399.701	376.18
400.08	358.1
400.458	382.96
400.837	364.88
401.215	394.71
401.594	369.85
401.972	377.53
402.351	399.9
402.729	379.57
403.107	394.03
403.486	387.48
403.864	391.77
404.242	403.07
404.62	391.09
404.999	399.68
405.377	404.42
405.755	426.34
406.133	422.95
406.511	393.35
406.889	403.52
407.267	420.24
407.645	414.59
408.023	403.97
408.401	435.16
408.779	436.29
409.156	442.62
409.534	426.8
409.912	424.99
410.29	442.62
410.667	427.47
411.045	413.92
411.422	439.68
411.8	432.9
412.178	439.9
412.555	451.2
412.933	454.37
413.31	451.88
413.687	426.34
414.065	445.78
414.442	460.47
414.819	453.24
415.197	459.56
415.574	462.05
415.951	457.53
416.328	462.95
416.705	456.17
417.082	461.6
417.46	470.86
417.837	467.25
418.214	483.29
418.591	462.95
418.967	462.73
419.344	493.91
419.721	469.96
420.098	498.66
420.475	476.74
420.852	483.52
421.228	519.68
421.605	498.43
421.982	488.26
422.358	504.08
422.735	495.95
423.111	498.89
423.488	519.22
423.864	499.34
424.241	533.23
424.617	525.1
424.994	525.78
425.37	523.52
425.746	544.53
426.123	532.78
426.499	518.09
426.875	530.07
427.251	542.5
427.627	539.56
428.003	558.54
428.379	547.7
428.756	577.3
429.132	572.78
429.507	571.2
429.883	560.58
430.259	574.82
430.635	558.09
431.011	581.14
431.387	592.44
431.763	598.77
432.138	600.58
432.514	592.22
432.89	597.64
433.265	620.92
433.641	616.85
434.016	614.81
434.392	634.02
434.767	635.15
435.143	646.9
435.518	645.32
435.894	649.39
436.269	627.92
436.644	645.77
437.02	657.07
437.395	650.29
437.77	673.12
438.145	672.67
438.52	650.29
438.895	689.39
439.271	667.92
439.646	671.76
440.021	671.31
440.395	679.45
440.77	686.9
441.145	706.79
441.52	719.67
441.895	692.78
442.27	705.66
442.645	726.45
443.019	699.11
443.394	721.03
443.769	698.43
444.143	711.76
444.518	731.42
444.892	720.12
445.267	735.94
445.641	736.17
446.016	723.06
446.39	743.85
446.764	749.05
447.139	755.38
447.513	742.49
447.887	743.85
448.262	753.12
448.636	756.51
449.01	795.37
449.384	762.38
449.758	787.92
450.132	775.71
450.506	783.17
450.88	777.52
451.254	824.53
451.628	791.08
452.002	812.32
452.376	835.83
452.75	821.81
453.123	807.8
453.497	824.75
453.871	830.63
454.244	853.23
454.618	838.76
454.992	881.25
455.365	850.97
455.739	888.25
456.112	869.5
456.486	895.03
456.859	898.2
457.232	893.23
457.606	894.36
457.979	915.6
458.352	936.84
458.725	956.05
459.099	928.48
459.472	958.31
459.845	951.75
460.218	979.1
460.591	1001.24
460.964	954.24
461.337	991.3
461.71	986.56
462.083	1003.28
462.456	1001.47
462.829	1003.96
463.201	1022.49
463.574	1044.63
463.947	1063.39
464.32	1081.69
464.692	1067.01
465.065	1087.12
465.438	1070.17
465.81	1109.04
466.183	1137.96
466.555	1124.41
466.928	1106.33
467.3	1132.99
467.672	1166.89
468.045	1170.05
468.417	1176.16
468.789	1177.96
469.161	1192.65
469.534	1207.34
469.906	1234.69
470.278	1247.79
470.65	1240.56
471.022	1218.41
471.394	1298.41
471.766	1285.76
472.138	1307
472.51	1310.39
472.882	1335.02
473.253	1334.12
473.625	1370.27
473.997	1411.18
474.369	1386.55
474.74	1407.11
475.112	1420.67
475.484	1459.09
475.855	1464.51
476.227	1467.67
476.598	1522.59
476.97	1534.79
477.341	1577.05
477.713	1548.58
478.084	1574.11
478.455	1613.21
478.827	1565.98
479.198	1643.49
479.569	1682.36
479.94	1719.87
480.311	1733.43
480.682	1765.74
481.053	1757.38
481.424	1784.95
481.795	1828.57
482.166	1838.06
482.537	1861.79
482.908	1897.27
483.279	1916.48
483.65	1968.68
484.021	1997.38
484.391	1997.83
484.762	2028.34
485.133	2055.45
485.503	2049.35
485.874	2098.84
486.244	2119.41
486.615	2158.28
486.985	2186.52
487.356	2213.64
487.726	2202.12
488.097	2240.31
488.467	2263.13
488.837	2328.89
489.207	2315.56
489.578	2362.11
489.948	2349.46
490.318	2386.29
490.688	2431.26
491.058	2453.86
491.428	2475.78
491.798	2492.51
492.168	2548.1
492.538	2537.48
492.908	2588.1
493.278	2593.29
493.648	2614.76
494.017	2661.31
494.387	2651.6
494.757	2668.09
495.126	2723.23
495.496	2711.71
495.866	2744.48
496.235	2787.41
496.605	2806.62
496.974	2814.76
497.344	2890.23
497.713	2869.67
498.082	2898.82
498.452	2942.21
498.821	2916.67
499.19	2916.67
499.559	2956
499.928	3002.77
500.298	3006.84
500.667	2999.16
501.036	3026.28
501.405	3050
501.774	3057.24
502.143	3106.95
502.512	3142.21
502.88	3132.71
503.249	3156.22
503.618	3186.5
503.987	3199.15
504.356	3207.74
504.724	3192.37
505.093	3254.07
505.462	3230.11
505.83	3294.29
506.199	3319.83
506.567	3382.2
506.936	3327.51
507.304	3406.38
507.672	3410
508.041	3419.49
508.409	3477.34
508.777	3496.32
509.145	3539.94
509.514	3500.39
509.882	3516.21
510.25	3548.3
510.618	3562.99
510.986	3567.05
511.354	3595.53
511.722	3637.11
512.09	3677.33
512.458	3719.82
512.826	3704.45
513.193	3733.15
513.561	3765.69
513.929	3778.35
514.297	3838.91
514.664	3869.19
515.032	3855.18
515.4	3873.71
515.767	3934.28
516.135	3951.9
516.502	3947.61
516.869	4006.82
517.237	4018.34
517.604	4039.36
517.972	4086.36
518.339	4120.03
518.706	4102.86
519.073	4155.74
519.44	4178.79
519.808	4245.45
520.175	4257.2
520.542	4248.62
520.909	4267.15
521.276	4317.54
521.643	4315.28
522.009	4419.69
522.376	4442.96
522.743	4436.63
523.11	4496.75
523.477	4580.36
523.843	4604.77
524.21	4592.56
524.577	4681.83
524.943	4668.72
525.31	4675.72
525.676	4794.14
526.043	4762.5
526.409	4758.89
526.776	4860.8
527.142	4868.49
527.508	4938.32
527.874	4953.46
528.241	4995.04
528.607	4988.71
528.973	5014.7
529.339	5048.37
529.705	5118.88
530.071	5140.12
530.437	5143.73
530.803	5238.65
531.169	5247.23
531.535	5292.66
531.901	5312.09
532.267	5322.94
532.632	5410.39
532.998	5398.19
533.364	5430.05
533.73	5482.71
534.095	5484.06
534.461	5562.93
534.826	5601.12
535.192	5603.84
535.557	5679.54
535.923	5672.76
536.288	5654.23
536.653	5714.12
537.019	5709.6
537.384	5782.14
537.749	5822.36
538.114	5832.08
538.479	5847.67
538.845	5909.59
539.21	5881.12
539.575	5963.6
539.94	5975.35
540.305	6002.47
540.67	6031.85
541.034	6080.21
541.399	6098.51
541.764	6107.1
542.129	6149.58
542.494	6191.62
542.858	6199.75
543.223	6256.25
543.587	6333.53
543.952	6313.42
544.316	6334.21
544.681	6368.11
545.045	6390.26
545.41	6499.86
545.774	6522.68
546.138	6489.46
546.503	6518.39
546.867	6615.56
547.231	6580.99
547.595	6691.72
547.959	6735.11
548.324	6718.83
548.688	6780.08
549.052	6846.06
549.416	6885.61
549.779	6920.41
550.143	6999.96
550.507	6969.9
550.871	7113.17
551.235	7053.06
551.599	7157.47
551.962	7255.32
552.326	7231.82
552.689	7280.18
553.053	7321.08
553.417	7330.34
553.78	7416.9
554.143	7483.11
554.507	7529.89
554.87	7601.52
555.234	7681.52
555.597	7634.06
555.96	7722.65
556.323	7749.99
556.686	7819.37
557.05	7888.52
557.413	7956.09
557.776	7970.33
558.139	8085.58
558.502	8125.35
558.865	8220.26
559.228	8318.34
559.59	8385.01
559.953	8425.91
560.316	8515.85
560.679	8537.54
561.041	8647.37
561.404	8737.54
561.767	8823.19
562.129	8848.5
562.492	8973.24
562.854	9029.28
563.217	9025.44
563.579	9143.63
563.941	9239.22
564.304	9345.21
564.666	9369.39
565.028	9439.89
565.39	9507.24
565.753	9660
566.115	9636.05
566.477	9813.89
566.839	9857.51
567.201	9951.52
567.563	10049.82
567.925	10117.39
568.287	10183.83
568.648	10192.64
569.01	10350.15
569.372	10452.97
569.734	10396.7
570.095	10656.13
570.457	10721.44
570.819	10801.21
571.18	10833.53
571.542	10869.46
571.903	11068.55
572.265	11070.81
572.626	11109.23
572.987	11175.44
573.349	11352.84
573.71	11317.36
574.071	11426.28
574.432	11525.94
574.794	11609.78
575.155	11673.96
575.516	11693.39
575.877	11754.41
576.238	11926.61
576.599	12002.09
576.96	12047.73
577.32	12141.52
577.681	12230.55
578.042	12384
578.403	12328.4
578.763	12377.22
579.124	12488.63
579.485	12564.1
579.845	12634.16
580.206	12677.77
580.566	12776.53
580.927	12805.45
581.287	12908.73
581.648	12929.74
582.008	13061.04
582.368	12954.83
582.728	13033.92
583.089	13143.3
583.449	13147.59
583.809	13267.14
584.169	13318.21
584.529	13282.96
584.889	13426.23
585.249	13426
585.609	13488.37
585.969	13578.99
586.329	13613.57
586.688	13696.28
587.048	13654.25
587.408	13833.68
587.768	13815.15
588.127	13744.64
588.487	13813.56
588.846	13981.69
589.206	13914.8
589.565	13944.18
589.925	14085.42
590.284	14044.52
590.643	14136.04
591.003	14164.74
591.362	14212.42
591.721	14277.73
592.08	14294.91
592.44	14316.83
592.799	14409.71
593.158	14413.1
593.517	14494
593.876	14526.76
594.235	14554.79
594.593	14511.4
594.952	14601.11
595.311	14499.2
595.67	14675.46
596.029	14766.76
596.387	14704.16
596.746	14786.87
597.104	14781.45
597.463	14877.94
597.822	14903.93
598.18	14970.14
598.538	14907.09
598.897	15077.94
599.255	14954.55
599.613	15204.94
599.972	15115.68
600.33	15156.35
600.688	15122.46
601.046	15283.13
601.404	15284.26
601.762	15249.01
602.12	15406.06
602.478	15425.95
602.836	15430.92
603.194	15428.44
603.552	15483.58
603.91	15364.03
604.268	15571.03
604.625	15496.91
604.983	15618.04
605.341	15673.18
605.698	15639.96
606.056	15602.22
606.413	15620.75
606.771	15762.89
607.128	15797.01
607.485	15656.68
607.843	15830.01
608.2	15870.68
608.557	15886.05
608.914	15899.16
609.272	16021.41
609.629	16075.2
609.986	16092.37
610.343	16057.8
610.7	16247.62
611.057	16143.67
611.414	16148.64
611.771	16167.4
612.127	16230
612.484	16298.7
612.841	16342.76
613.198	16280.39
613.554	16345.7
613.911	16489.2
614.267	16432.25
614.624	16485.13
614.98	16461.63
615.337	16519.25
615.693	16494.85
616.05	16504.11
616.406	16557.67
616.762	16535.75
617.118	16578.46
617.475	16594.28
617.831	16632.25
618.187	16770.1
618.543	16767.38
618.899	16803.54
619.255	16817.78
619.611	16818.91
619.967	16886.02
620.323	16859.81
620.678	16884.22
621.034	16793.15
621.39	16834.05
621.746	16848.96
622.101	16967.38
622.457	16871.79
622.812	16931.22
623.168	16894.84
623.523	16930.09
623.879	16946.14
624.234	16842.18
624.589	16940.94
624.945	16981.62
625.3	17053.25
625.655	17011.9
626.01	16983.2
626.365	17058.22
626.72	17046.47
627.075	16992.91
627.43	17029.75
627.785	16955.4
628.14	17060.94
628.495	17005.57
628.85	17077.88
629.205	16964.21
629.559	17120.6
629.914	16967.15
630.269	16971.22
630.623	17009.41
630.978	16983.42
631.332	17114.27
631.687	17043.76
632.041	17043.08
632.396	16971.45
632.75	16903.43
633.104	16985.91
633.459	16930.32
633.813	16857.33
634.167	16960.15
634.521	16899.36
634.875	16935.06
635.229	16832.24
635.583	16778.23
635.937	16776.42
636.291	16772.36
636.645	16859.81
636.999	16755.41
637.352	16851
637.706	16740.94
638.06	16836.99
638.413	16767.61
638.767	16732.81
639.121	16761.51
639.474	16708.85
639.828	16734.16
640.181	16771.23
640.534	16676.54
640.888	16714.5
641.241	16644.68
641.594	16623.88
641.947	16571
642.301	16612.81
642.654	16665.47
643.007	16636.99
643.36	16643.32
643.713	16558.8
644.066	16585.24
644.419	16477.67
644.771	16454.17
645.124	16273.16
645.477	16258.24
645.83	16163.11
646.182	16051.47
646.535	16048.08
646.888	16041.75
647.24	16042.21
647.593	15999.27
647.945	16000.4
648.298	15944.81
648.65	15992.26
649.002	15951.36
649.355	16009.44
649.707	15989.55
650.059	16058.25
650.411	16221.64
650.763	16260.05
651.115	16471.35
651.467	16315.19
651.819	16370.56
652.171	16437.9
652.523	16265.25
652.875	16367.39
653.227	16226.38
653.578	16369.43
653.93	16365.59
654.282	16258.24
654.633	16214.63
654.985	16257.11
655.337	16269.09
655.688	16220.96
656.039	16314.06
656.391	16195.65
656.742	16136.44
657.094	16235.65
657.445	16300.73
657.796	16258.92
658.147	16250.79
658.498	16294.18
658.849	16251.47
659.2	16217.12
659.551	16174.41
659.902	16279.04
660.253	16164.46
660.604	16340.5
660.955	16225.7
661.306	16247.17
661.656	16292.14
662.007	16257.11
662.358	16227.74
662.708	16261.86
663.059	16233.39
663.409	16173.28
663.76	16335.08
664.11	16300.05
664.461	16402.42
664.811	16302.31
665.161	16446.94
665.511	16275.87
665.862	16400.39
666.212	16418.01
666.562	16513.83
666.912	16344.8
667.262	16347.28
667.612	16313.84
667.962	16490.78
668.312	16363.78
668.662	16475.64
669.011	16395.64
669.361	16351.8
669.711	16334.4
670.06	16430.9
670.41	16318.81
670.76	16392.7
671.109	16439.26
671.459	16329.66
671.808	16375.53
672.157	16456.66
672.507	16352.93
672.856	16353.16
673.205	16318.81
673.554	16404.23
673.904	16354.97
674.253	16418.47
674.602	16407.85
674.951	16225.03
675.3	16006.27
675.649	16391.57
675.998	16364.23
676.346	16342.76
676.695	16507.96
677.044	16320.84
677.393	16419.82
677.741	16450.78
678.09	16432.25
678.438	16353.61
678.787	16435.19
679.135	16380.28
679.484	16338.69
679.832	16408.52
680.181	16319.49
680.529	16399.48
680.877	16352.71
681.225	16306.38
681.573	16278.13
681.922	16299.6
682.27	16264.12
682.618	16347.96
682.966	16260.5
683.314	16295.31
683.661	16204.91
684.009	16152.71
684.357	16224.57
684.705	16147.06
685.053	16182.99
685.4	16058.25
685.748	16131.92
686.095	16152.26
686.443	16082.66
686.79	15985.26
687.138	16087.85
687.485	16081.07
687.832	16087.63
688.18	15992.26
688.527	16008.99
688.874	16000.17
689.221	15867.07
689.568	15943
689.915	15891.02
690.262	15876.56
690.609	15887.41
690.956	15827.52
691.303	15865.71
691.65	15732.38
691.997	15774.87
692.344	15662.1
692.69	15602.44
693.037	15722.67
693.383	15609.45
693.73	15641.76
694.077	15511.15
694.423	15620.75
694.769	15587.75
695.116	15581.43
695.462	15496.91
695.808	15481.54
696.155	15527.19
696.501	15364.03
696.847	15345.73
697.193	15335.33
697.539	15329.23
697.885	15259.85
698.231	15278.38
698.577	15202.68
698.923	15170.36
699.269	15110.7
699.614	15091.5
699.96	15118.61
700.306	15123.59
700.651	15005.17
700.997	15005.62
701.342	15054.66
701.688	14981.44
702.033	14980.09
702.379	14931.05
702.724	14931.95
703.069	14958.84
703.415	14737.83
703.76	14788.45
704.105	14866.64
704.45	14805.4
704.795	14622.81
705.14	14713.88
705.485	14772.18
705.83	14564.73
706.175	14670.94
706.52	14622.13
706.865	14618.97
707.209	14568.35
707.554	14538.74
707.899	14614.22
708.243	14510.49
708.588	14481.12
708.932	14437.05
709.277	14457.84
709.621	14465.07
709.966	14351.63
710.31	14407.22
710.654	14377.16
710.998	14363.38
711.342	14312.31
711.687	14290.84
712.031	14300.56
712.375	14260.33
712.719	14253.78
713.063	14202.93
713.407	14213.33
713.75	14257.85
714.094	14256.49
714.438	14216.26
714.782	14144.4
715.125	14152.76
715.469	14170.39
715.812	14088.36
716.156	14040.68
716.499	14003.84
716.843	14096.72
717.186	14023.5
717.53	14087.91
717.873	14084.74
718.216	14055.14
718.559	13995.71
718.902	13932.88
719.246	13976.72
719.589	13883.17
719.932	13952.32
720.275	13874.13
720.617	13864.64
720.96	13892.21
721.303	13903.05
721.646	13882.04
721.989	13858.08
722.331	13885.43
722.674	13803.85
723.016	13864.41
723.359	13874.58
723.701	13846.1
724.044	13714.36
724.386	13661.93
724.729	13775.15
725.071	13718.2
725.413	13804.3
725.755	13691.53
726.097	13701.02
726.439	13629.61
726.782	13657.86
727.124	13712.32
727.465	13659.44
727.807	13607.92
728.149	13591.65
728.491	13597.98
728.833	13630.52
729.175	13554.81
729.516	13595.94
729.858	13538.32
730.199	13548.71
730.541	13512.55
730.882	13502.61
731.224	13557.52
731.565	13376.96
731.906	13534.02
732.248	13469.17
732.589	13421.03
732.93	13381.03
733.271	13424.42
733.612	13446.57
733.953	13451.76
734.294	13400.24
734.635	13469.17
734.976	13442.05
735.317	13350.98
735.658	13380.58
735.999	13324.99
736.339	13330.86
736.68	13308.94
737.021	13251.54
737.361	13242.28
737.702	13334.71
738.042	13193.24
738.383	13209.29
738.723	13281.37
739.063	13165.44
739.404	13200.02
739.744	13258.32
740.084	13131.32
740.424	13210.42
740.764	13146.01
741.104	13167.03
741.444	13113.24
741.784	13049.06
742.124	13062.4
742.464	13033.24
742.804	13070.08
743.143	13056.07
743.483	13021.27
743.823	12979.46
744.162	12955.51
744.502	12929.74
744.841	12918.22
745.181	12985.56
745.52	12986.01
745.86	12868.05
746.199	12903.3
746.538	12853.36
746.877	12884.1
747.216	12899.69
747.556	12817.21
747.895	12811.1
748.234	12720.03
748.573	12750.54
748.911	12679.58
749.25	12732.69
749.589	12689.75
749.928	12700.37
750.267	12727.26
750.605	12562.52
750.944	12621.96
751.283	12455.63
751.621	12564.1
751.96	12525.24
752.298	12476.42
752.636	12480.04
752.975	12445.24
753.313	12345.58
753.651	12525.01
753.989	12321.85
754.327	12340.83
754.666	12250.67
755.004	12295.86
755.342	12344.9
755.679	12264
756.017	12246.82
756.355	12143.55
756.693	12127.73
757.031	12154.62
757.368	12091.57
757.706	12094.29
758.044	12033.05
758.381	12105.81
758.719	11983.1
759.056	12017.68
759.394	11989.43
759.731	11863.78
760.068	11868.3
760.405	11763
760.743	11763.22
761.08	11798.48
761.417	11738.14
761.754	11737.46
762.091	11639.16
762.428	11605.49
762.765	11517.58
763.102	11583.34
763.438	11506.51
763.775	11432.38
764.112	11432.83
764.449	11441.2
764.785	11346.28
765.122	11312.84
765.458	11240.98
765.795	11264.7
766.131	11164.14
766.467	11173.18
766.804	11129.57
767.14	11063.35
767.476	11081.66
767.812	11037.59
768.148	10995.33
768.485	10940.19
768.821	10929.12
769.157	10861.32
769.492	10816.35
769.828	10873.75
770.164	10743.59
770.5	10702.91
770.836	10684.61
771.171	10637.38
771.507	10601.44
771.842	10478.28
772.178	10499.07
772.513	10495.91
772.849	10393.54
773.184	10312.41
773.519	10350.6
773.855	10333.43
774.19	10296.82
774.525	10188.8
774.86	10265.86
775.195	10187.67
775.53	10172.76
775.865	10076.71
776.2	9975.92
776.535	9931.41
776.87	9894.57
777.205	9926.89
777.539	9915.13
777.874	9810.5
778.209	9820.22
778.543	9809.6
778.878	9753.78
779.212	9670.17
779.547	9660.45
779.881	9688.7
780.215	9544.52
780.55	9650.96
780.884	9490.29
781.218	9535.26
781.552	9500.23
781.886	9402.83
782.22	9336.17
782.554	9280.12
782.888	9233.12
783.222	9240.35
783.556	9183.85
783.889	9196.28
784.223	9107.7
784.557	9083.07
784.89	9081.48
785.224	9050.75
785.557	8976.63
785.891	8891.43
786.224	8941.6
786.558	8934.6
786.891	8934.6
787.224	8864.99
787.557	8860.47
787.891	8729.86
788.224	8728.05
788.557	8758.1
788.89	8747.26
789.223	8699.8
789.556	8604.89
789.888	8547.71
790.221	8528.96
790.554	8497.54
790.887	8509.75
791.219	8447.15
791.552	8464.78
791.884	8448.28
792.217	8357.44
792.549	8338.91
792.882	8282.18
793.214	8152.92
793.546	8252.81
793.879	8137.78
794.211	8087.84
794.543	8128.06
794.875	8059.59
795.207	8143.2
795.539	8081.28
795.871	8044
796.203	7986.15
796.535	7879.93
796.867	7915.87
797.198	7898.46
797.53	7892.36
797.862	7830.22
798.193	7841.74
798.525	7782.99
798.856	7801.29
799.188	7663.22
799.519	7707.74
799.85	7639.49
800.182	7648.53
800.513	7685.14
800.844	7601.07
801.175	7544.12
801.506	7544.35
801.837	7503.67
802.168	7489.21
802.499	7463.22
802.83	7422.54
803.161	7406.73
803.491	7428.42
803.822	7361.98
804.153	7361.53
804.483	7279.05
804.814	7220.06
805.145	7272.04
805.475	7261.19
805.805	7208.54
806.136	7187.3
806.466	7147.07
806.796	7164.02
807.126	7114.53
807.457	7074.98
807.787	7031.37
808.117	6964.48
808.447	6990.69
808.777	7004.48
809.107	6955.21
809.436	6961.09
809.766	6929
810.096	6930.81
810.426	6893.29
810.755	6931.94
811.085	6856.91
811.414	6782.79
811.744	6743.24
812.073	6821.66
812.403	6726.74
812.732	6697.14
813.061	6731.94
813.39	6659.18
813.719	6644.26
814.049	6727.87
814.378	6655.79
814.707	6639.29
815.036	6643.36
815.365	6603.36
815.693	6530.37
816.022	6524.49
816.351	6507.31
816.68	6475.23
817.008	6419.41
817.337	6471.38
817.665	6391.39
817.994	6423.7
818.322	6428.22
818.651	6397.94
818.979	6357.26
819.307	6356.13
819.636	6354.78
819.964	6285.63
820.292	6327.88
820.62	6360.43
820.948	6279.3
821.276	6230.49
821.604	6326.08
821.932	6299.64
822.259	6284.27
822.587	6284.27
822.915	6223.25
823.243	6304.61
823.57	6195.91
823.898	6213.31
824.225	6228
824.553	6182.8
824.88	6247.89
825.207	6211.73
825.535	6228
825.862	6202.69
826.189	6182.13
826.516	6193.65
826.843	6232.07
827.17	6236.14
827.497	6149.81
827.824	6216.25
828.151	6149.58
828.478	6126.76
828.805	6198.4
829.131	6161.79
829.458	6152.3
829.785	6057.16
830.111	6128.34
830.438	6152.3
830.764	6081.56
831.09	6106.2
831.417	6125.4
831.743	6101.68
832.069	6093.31
832.395	6044.73
832.722	6027.1
833.048	6072.75
833.374	6061.68
833.7	6059.19
834.026	6028.46
834.351	6060.77
834.677	6068.23
835.003	6042.02
835.329	6060.32
835.654	6045.63
835.98	5938.74
836.306	5980.55
836.631	5987.1
836.956	5905.3
837.282	5954.33
837.607	5953.88
837.932	5938.06
838.258	5946.2
838.583	5951.85
838.908	5879.53
839.233	5910.72
839.558	5869.14
839.883	5863.94
840.208	5790.95
840.533	5795.47
840.858	5813.32
841.182	5808.8
841.507	5812.42
841.832	5714.79
842.156	5729.71
842.481	5754.57
842.805	5776.26
843.13	5754.79
843.454	5725.87
843.778	5695.58
844.103	5689.48
844.427	5666.88
844.751	5678.41
845.075	5679.77
845.399	5611.75
845.723	5564.06
846.047	5589.37
846.371	5514.35
846.695	5484.74
847.019	5476.38
847.343	5514.12
847.666	5440.45
847.99	5416.04
848.313	5429.83
848.637	5400.9
848.96	5395.25
849.284	5353.22
849.607	5332.88
849.931	5293.56
850.254	5265.31
850.577	5255.37
850.9	5182.6
851.223	5154.58
851.546	5169.04
851.869	5124.53
852.192	5161.36
852.515	5108.71
852.838	5108.71
853.161	5106.9
853.483	5086.79
853.806	5042.49
854.129	5036.39
854.451	5005.43
854.774	5001.14
855.096	4971.54
855.419	4957.98
855.741	4964.76
856.063	4931.54
856.385	4885.21
856.708	4887.92
857.03	4816.29
857.352	4848.15
857.674	4840.01
857.996	4811.54
858.318	4796.4
858.64	4815.38
858.961	4793.01
859.283	4772.45
859.605	4707.59
859.926	4794.59
860.248	4739.68
860.57	4756.4
860.891	4746.01
861.212	4724.08
861.534	4656.74
861.855	4665.1
862.176	4639.79
862.498	4687.93
862.819	4669.17
863.14	4670.07
863.461	4623.3
863.782	4623.75
864.103	4591.66
864.424	4573.13
864.745	4596.63
865.065	4583.3
865.386	4600.47
865.707	4553.47
866.027	4574.48
866.348	4532.9
866.668	4505.56
866.989	4520.47
867.309	4527.25
867.63	4511.21
867.95	4520.47
868.27	4463.07
868.59	4515.95
868.91	4488.16
869.23	4456.75
869.55	4435.73
869.87	4475.05
870.19	4454.26
870.51	4439.8
870.83	4406.13
871.15	4432.79
871.469	4420.82
871.789	4404.55
872.109	4409.74
872.428	4421.04
872.748	4405.22
873.067	4414.26
873.386	4406.58
873.706	4419.01
874.025	4378.11
874.344	4378.56
874.663	4349.63
874.982	4307.82
875.301	4297.43
875.62	4311.21
875.939	4319.35
876.258	4326.36
876.577	4286.81
876.896	4307.37
877.214	4294.49
877.533	4247.26
877.852	4283.64
878.17	4286.36
878.489	4310.54
878.807	4212.69
879.125	4269.86
879.444	4232.57
879.762	4226.24
880.08	4194.38
880.398	4217.88
880.716	4236.19
881.034	4185.34
881.352	4205.23
881.67	4170.65
881.988	4164.33
882.306	4157.55
882.624	4132.91
882.941	4149.86
883.259	4097.21
883.577	4165
883.894	4110.09
884.212	4121.84
884.529	4083.88
884.846	4105.57
885.164	4085.46
885.481	4052.01
885.798	4081.84
886.115	4072.12
886.432	4029.19
886.75	4058.34
887.067	4020.83
887.383	4023.31
887.7	3998.68
888.017	3990.09
888.334	3947.61
888.651	4007.27
888.967	3998.45
889.284	3940.15
889.6	3939.7
889.917	3932.24
890.233	3934.28
890.55	3899.7
890.866	3914.61
891.182	3905.35
891.498	3933.37
891.815	3831
892.131	3847.95
892.447	3848.85
892.763	3841.17
893.079	3812.24
893.395	3834.84
893.71	3806.14
894.026	3810.44
894.342	3779.93
894.657	3731.12
894.973	3747.84
895.289	3782.41
895.604	3745.13
895.92	3737.67
896.235	3734.96
896.55	3703.77
896.865	3726.82
897.181	3709.42
897.496	3716.43
897.811	3721.17
898.126	3640.27
898.441	3655.86
898.756	3616.77
899.071	3609.99
899.386	3611.8
899.7	3558.69
900.015	3543.55
900.33	3539.48
900.644	3557.79
900.959	3589.2
901.273	3522.53
901.588	3525.02
901.902	3519.37
902.216	3510.78
902.531	3503.33
902.845	3468.75
903.159	3472.14
903.473	3439.37
903.787	3429.66
904.101	3419.49
904.415	3445.02
904.729	3381.97
905.042	3372.26
905.356	3400.73
905.67	3366.38
905.984	3353.27
906.297	3344.46
906.611	3326.83
906.924	3343.78
907.237	3330.68
907.551	3325.7
907.864	3340.62
908.177	3266.72
908.491	3313.27
908.804	3268.53
909.117	3222.2
909.43	3211.81
909.743	3207.29
910.056	3173.62
910.368	3244.58
910.681	3194.86
910.994	3193.05
911.307	3148.31
911.619	3151.02
911.932	3125.71
912.244	3113.28
912.557	3082.32
912.869	3082.09
913.181	3072.38
913.494	3091.36
913.806	3087.52
914.118	3040.29
914.43	3014.07
914.742	3033.73
915.054	3001.87
915.366	3019.95
915.678	3010.91
915.99	2985.6
916.302	2995.09
916.613	2992.38
916.925	2973.85
917.236	2925.94
917.548	2952.61
917.859	2932.95
918.171	2931.14
918.482	2875.09
918.794	2894.08
919.105	2911.48
919.416	2873.29
919.727	2897.92
920.038	2854.98
920.349	2814.98
920.66	2828.99
920.971	2816.79
921.282	2784.25
921.593	2772.05
921.903	2803.23
922.214	2784.25
922.525	2754.19
922.835	2763.91
923.146	2726.4
923.456	2745.38
923.767	2717.81
924.077	2699.28
924.387	2672.61
924.697	2653.4
925.008	2681.88
925.318	2664.7
925.628	2673.97
925.938	2634.87
926.248	2628.77
926.558	2608.66
926.867	2653.63
927.177	2587.64
927.487	2580.64
927.796	2540.41
928.106	2579.96
928.416	2548.32
928.725	2564.59
929.034	2518.49
929.344	2549.45
929.653	2557.81
929.962	2499.06
930.271	2497.02
930.581	2486.4
930.89	2460.64
931.199	2494.99
931.508	2436.01
931.817	2461.77
932.125	2423.35
932.434	2448.21
932.743	2411.83
933.051	2399.4
933.36	2402.56
933.669	2424.71
933.977	2394.65
934.286	2386.52
934.594	2353.75
934.902	2370.25
935.21	2319.85
935.519	2342.45
935.827	2330.48
936.135	2318.95
936.443	2316.46
936.751	2315.11
937.059	2342.23
937.367	2300.65
937.674	2316.46
937.982	2304.94
938.29	2270.59
938.597	2243.02
938.905	2262
939.213	2240.99
939.52	2211.38
939.827	2244.15
940.135	2213.87
940.442	2238.5
940.749	2200.54
941.056	2224.49
941.363	2187.65
941.67	2200.76
941.977	2140.88
942.284	2200.31
942.591	2133.87
942.898	2157.82
943.205	2144.04
943.511	2125.74
943.818	2138.62
944.125	2117.15
944.431	2099.07
944.738	2104.27
945.044	2116.47
945.35	2088.9
945.657	2083.25
945.963	2086.19
946.269	2089.58
946.575	2065.4
946.881	2052.06
947.187	2043.48
947.493	2029.69
947.799	2048.67
948.105	2017.04
948.41	2025.17
948.716	2007.77
949.022	1987.89
949.327	1976.59
949.633	1977.72
949.938	1979.07
950.244	1974.78
950.549	1952.41
950.854	1975
951.16	1911.5
951.465	1948.11
951.77	1925.29
952.075	1933.42
952.38	1934.78
952.685	1911.05
952.99	1876.02
953.294	1914.44
953.599	1877.83
953.904	1895.68
954.209	1855.01
954.513	1871.5
954.818	1867.89
955.122	1817.04
955.426	1862.92
955.731	1838.96
956.035	1830.83
956.339	1828.57
956.643	1826.31
956.948	1789.02
957.252	1798.96
957.556	1800.32
957.86	1804.39
958.163	1796.93
958.467	1757.38
958.771	1730.04
959.075	1773.43
959.378	1717.38
959.682	1770.04
959.985	1749.7
960.289	1733.65
960.592	1736.82
960.896	1750.38
961.199	1723.94
961.502	1725.97
961.805	1704.05
962.108	1696.37
962.411	1703.15
962.714	1667.22
963.017	1685.52
963.32	1681.9
963.623	1704.28
963.926	1677.16
964.228	1683.03
964.531	1672.87
964.833	1663.15
965.136	1653.88
965.438	1623.83
965.741	1630.38
966.043	1609.36
966.345	1624.73
966.648	1587.22
966.95	1630.83
967.252	1626.09
967.554	1605.3
967.856	1566.88
968.158	1558.97
968.46	1593.09
968.761	1578.4
969.063	1576.37
969.365	1589.48
969.666	1546.32
969.968	1533.21
970.269	1576.14
970.571	1532.53
970.872	1542.47
971.174	1515.81
971.475	1512.87
971.776	1523.94
972.077	1523.49
972.378	1502.25
972.679	1512.64
972.98	1472.64
973.281	1469.71
973.582	1495.47
973.883	1511.06
974.183	1468.13
974.484	1466.09
974.785	1452.98
975.085	1479.88
975.386	1480.55
975.686	1448.92
975.986	1435.13
976.287	1450.5
976.587	1426.77
976.887	1456.15
977.187	1448.01
977.487	1408.69
977.787	1437.17
978.087	1421.35
978.387	1403.04
978.687	1410.27
978.987	1368.92
979.286	1395.36
979.586	1405.08
979.885	1375.92
980.185	1350.61
980.484	1374.12
980.784	1353.55
981.083	1371.86
981.382	1350.39
981.682	1362.82
981.981	1354.23
982.28	1363.72
982.579	1330.28
982.878	1349.94
983.177	1349.26
983.475	1341.8
983.774	1335.02
984.073	1342.03
984.372	1279.66
984.67	1294.57
984.969	1288.47
985.267	1304.29
985.566	1313.1
985.864	1304.51
986.162	1257.28
986.461	1260.45
986.759	1273.33
987.057	1258.19
987.355	1246.44
987.653	1277.85
987.951	1261.8
988.249	1242.37
988.547	1242.14
988.844	1193.1
989.142	1243.05
989.44	1216.61
989.737	1218.64
990.035	1216.15
990.332	1212.31
990.63	1205.99
990.927	1204.4
991.224	1208.47
991.521	1194.01
991.819	1196.27
992.116	1203.27
992.413	1193.1
992.71	1187.91
993.006	1180
993.303	1174.35
993.6	1153.56
993.897	1151.75
994.193	1140
994.49	1131.41
994.787	1157.62
995.083	1149.04
995.379	1140.9
995.676	1138.87
995.972	1126.67
996.268	1128.93
996.565	1133.9
996.861	1109.94
997.157	1121.02
997.453	1107.46
997.749	1109.49
998.044	1103.16
998.34	1086.21
998.636	1073.33
998.932	1088.93
999.227	1076.05
999.523	1062.94
999.818	1093.67
1000.114	1065.42
1000.409	1072.43
1000.704	1069.49
1001	1069.49
1001.295	1056.38
1001.59	1042.37
1001.885	1055.03
1002.18	1024.52
1002.475	1024.97
1002.77	1028.14
1003.065	1009.83
1003.359	1006.22
1003.654	1031.75
1003.949	1005.99
1004.243	1012.09
1004.538	1000.11
1004.832	1021.58
1005.127	980.45
1005.421	976.61
1005.715	971.64
1006.009	994.92
1006.304	969.38
1006.598	978.87
1006.892	975.03
1007.186	954.01
1007.48	965.09
1007.773	967.57
1008.067	947.46
1008.361	950.62
1008.655	941.81
1008.948	928.25
1009.242	930.06
1009.535	923.28
1009.829	932.32
1010.122	923.96
1010.415	895.26
1010.708	881.93
1011.001	900.91
1011.295	903.39
1011.588	885.09
1011.881	876.05
1012.173	900.23
1012.466	894.58
1012.759	881.47
1013.052	891.42
1013.344	855.71
1013.637	908.14
1013.93	895.26
1014.222	864.98
1014.514	895.71
1014.807	860.23
1015.099	834.92
1015.391	838.31
1015.683	839.67
1015.976	816.84
1016.268	820.46
1016.56	817.07
1016.851	846.67
1017.143	834.24
1017.435	812.78
1017.727	807.8
1018.018	807.35
1018.31	813.68
1018.602	810.06
1018.893	827.69
1019.185	796.5
1019.476	795.37
1019.767	786.11
1020.058	772.1
1020.35	787.69
1020.641	774.58
1020.932	780.91
1021.223	794.92
1021.514	793.57
1021.804	764.41
1022.095	737.52
1022.386	758.09
1022.677	746.11
1022.967	739.56
1023.258	746.79
1023.548	721.7
1023.839	735.26
1024.129	714.25
1024.419	739.33
1024.709	727.35
1025	727.35
1025.29	713.79
1025.58	688.48
1025.87	708.6
1026.16	721.48
1026.449	688.03
1026.739	705.66
1027.029	711.31
1027.319	691.42
1027.608	680.8
1027.898	704.76
1028.187	679.67
1028.477	698.43
1028.766	687.35
1029.055	684.19
1029.344	681.03
1029.634	682.61
1029.923	661.82
1030.212	672.44
1030.501	662.27
1030.79	637.41
1031.078	662.04
1031.367	648.26
1031.656	668.82
1031.945	650.52
1032.233	632.22
1032.522	626.11
1032.81	636.06
1033.099	622.27
1033.387	640.8
1033.675	660.69
1033.963	610.29
1034.251	621.82
1034.54	613.46
1034.828	596.28
1035.116	601.48
1035.403	608.94
1035.691	598.77
1035.979	610.07
1036.267	601.03
1036.554	608.49
1036.842	604.87
1037.129	575.95
1037.417	596.74
1037.704	577.75
1037.992	609.16
1038.279	592.44
1038.566	603.29
1038.853	603.29
1039.14	603.29
