Data from brown_tile_FLMS001491_092.txt Node
Date: Tue Feb 07 10:38:15 GMT 2017
User: dcchb
Spectrometer: FLMS00149
Trigger mode: 0
Integration Time (sec): 2.000000E-2
Scans to average: 10
Electric dark correction enabled: true
Nonlinearity correction enabled: false
Boxcar width: 0
XAxis mode: Wavelengths
Number of Pixels in Spectrum: 2048
>>>>>Begin Spectral Data<<<<<
341.393	-14.77
341.776	-14.77
342.16	-14.77
342.543	-69.69
342.927	-60.65
343.31	-66.3
343.693	-65.85
344.077	-75.56
344.46	-58.39
344.843	-66.75
345.226	-51.16
345.61	-29.69
345.993	-7.77
346.376	-6.64
346.759	-1.89
347.142	17.09
347.525	43.53
347.908	59.57
348.291	93.02
348.674	103.87
349.057	112.91
349.44	126.47
349.823	140.93
350.206	154.49
350.588	185
350.971	209.4
351.354	240.13
351.737	226.12
352.119	229.74
352.502	249.4
352.884	253.69
353.267	275.16
353.65	298.66
354.032	276.29
354.414	284.88
354.797	297.08
355.179	328.27
355.562	339.34
355.944	309.51
356.326	324.88
356.709	322.17
357.091	322.84
357.473	324.88
357.855	316.29
358.238	335.73
358.62	316.74
359.002	315.61
359.384	325.56
359.766	336.4
360.148	315.39
360.53	330.75
360.912	330.98
361.294	343.41
361.676	328.72
362.057	323.07
362.439	316.74
362.821	311.55
363.203	313.35
363.584	305.9
363.966	307.03
364.348	300.7
364.729	295.73
365.111	273.35
365.493	297.08
365.874	306.8
366.256	304.99
366.637	305.67
367.019	288.27
367.4	299.79
367.781	321.94
368.163	310.19
368.544	282.62
368.925	295.73
369.306	305.44
369.688	300.02
370.069	301.15
370.45	285.78
370.831	287.82
371.212	309.51
371.593	283.98
371.974	296.86
372.355	284.2
372.736	305.44
373.117	301.15
373.498	310.64
373.879	306.35
374.26	290.3
374.641	313.13
375.021	306.35
375.402	303.64
375.783	311.09
376.163	326.69
376.544	321.49
376.925	323.97
377.305	328.95
377.686	313.35
378.066	323.3
378.447	326.23
378.827	305.22
379.208	316.74
379.588	330.98
379.968	326.69
380.349	305.9
380.729	320.36
381.109	318.32
381.489	327.82
381.87	301.15
382.25	306.8
382.63	337.08
383.01	320.58
383.39	339.34
383.77	334.6
384.15	311.55
384.53	322.17
384.91	340.92
385.29	332.79
385.67	338.89
386.049	321.71
386.429	327.82
386.809	327.14
387.189	336.18
387.568	330.53
387.948	362.17
388.328	330.53
388.707	345.22
389.087	337.31
389.466	357.19
389.846	337.31
390.225	303.41
390.605	353.13
390.984	344.54
391.363	352.45
391.743	348.38
392.122	363.52
392.501	352
392.881	355.61
393.26	368.27
393.639	375.95
394.018	369.62
394.397	355.84
394.776	372.33
395.155	342.05
395.534	371.43
395.913	373.24
396.292	368.49
396.671	354.93
397.05	356.29
397.429	365.56
397.808	380.92
398.186	380.24
398.565	380.47
398.944	364.2
399.323	380.47
399.701	359.91
400.08	381.6
400.458	378.66
400.837	392.67
401.215	358.78
401.594	373.46
401.972	383.63
402.351	376.4
402.729	375.27
403.107	392.67
403.486	375.95
403.864	410.07
404.242	398.1
404.62	402.84
404.999	375.72
405.377	409.17
405.755	399.23
406.133	394.71
406.511	399.9
406.889	407.59
407.267	415.72
407.645	421.83
408.023	399.68
408.401	409.62
408.779	412.56
409.156	434.48
409.534	407.81
409.912	414.59
410.29	439.23
410.667	430.64
411.045	449.62
411.422	431.09
411.8	435.61
412.178	444.65
412.555	439.68
412.933	443.52
413.31	444.2
413.687	434.03
414.065	432.9
414.442	445.55
414.819	451.65
415.197	464.76
415.574	456.63
415.951	457.53
416.328	464.76
416.705	466.57
417.082	458.89
417.46	470.86
417.837	457.76
418.214	475.16
418.591	495.5
418.967	464.76
419.344	488.26
419.721	478.09
420.098	479.9
420.475	455.5
420.852	482.61
421.228	499.56
421.605	489.39
421.982	492.33
422.358	509.05
422.735	502.95
423.111	485.78
423.488	517.19
423.864	503.18
424.241	504.31
424.617	492.11
424.994	542.73
425.37	509.28
425.746	523.07
426.123	513.57
426.499	504.31
426.875	533.91
427.251	530.75
427.627	508.83
428.003	561.48
428.379	526.68
428.756	556.51
429.132	552.67
429.507	556.51
429.883	544.99
430.259	571.88
430.635	574.36
431.011	555.83
431.387	588.6
431.763	570.75
432.138	583.63
432.514	597.87
432.89	591.76
433.265	577.3
433.641	591.99
434.016	587.24
434.392	595.38
434.767	618.66
435.143	615.04
435.518	639.45
435.894	626.79
436.269	623.63
436.644	627.24
437.02	636.96
437.395	647.36
437.77	656.17
438.145	682.16
438.52	650.07
438.895	665.89
439.271	654.36
439.646	666.11
440.021	677.41
440.395	668.6
440.77	665.89
441.145	661.82
441.52	671.99
441.895	675.15
442.27	708.6
442.645	711.76
443.019	705.43
443.394	688.48
443.769	707.92
444.143	711.31
444.518	718.09
444.892	688.71
445.267	708.82
445.641	705.21
446.016	710.41
446.39	727.58
446.764	719.44
447.139	744.53
447.513	738.2
447.887	762.16
448.262	746.79
448.636	746.79
449.01	735.94
449.384	746.79
449.758	741.82
450.132	773
450.506	771.65
450.88	774.13
451.254	780.46
451.628	782.49
452.002	793.79
452.376	784.53
452.75	796.5
453.123	801.48
453.497	794.24
453.871	823.17
454.244	808.48
454.618	831.76
454.992	828.14
455.365	842.15
455.739	837.63
456.112	869.72
456.486	866.33
456.859	879.44
457.232	897.97
457.606	872.21
457.979	894.36
458.352	882.6
458.725	901.13
459.099	920.34
459.472	937.97
459.845	920.57
460.218	933
460.591	950.85
460.964	941.81
461.337	959.89
461.71	951.98
462.083	985.65
462.456	1000.79
462.829	1003.73
463.201	998.76
463.574	1007.57
463.947	1021.36
464.32	1049.83
464.692	1038.31
465.065	1029.27
465.438	1076.27
465.81	1084.63
466.183	1067.01
466.555	1093.67
466.928	1129.38
467.3	1092.99
467.672	1116.5
468.045	1116.27
468.417	1168.7
468.789	1157.62
469.161	1192.65
469.534	1161.24
469.906	1210.05
470.278	1210.73
470.65	1205.99
471.022	1240.33
471.394	1235.14
471.766	1239.2
472.138	1290.73
472.51	1305.64
472.882	1298.41
473.253	1318.98
473.625	1341.57
473.997	1365.08
474.369	1345.19
474.74	1380.44
475.112	1385.19
475.484	1412.08
475.855	1416.15
476.227	1429.03
476.598	1469.48
476.97	1462.48
477.341	1495.47
477.713	1524.62
478.084	1547.9
478.455	1543.83
478.827	1589.03
479.198	1613.88
479.569	1617.5
479.94	1628.12
480.311	1659.31
480.682	1682.13
481.053	1731.85
481.424	1781.79
481.795	1763.71
482.166	1801.22
482.537	1792.41
482.908	1871.05
483.279	1890.26
483.65	1866.98
484.021	1890.04
484.391	1913.54
484.762	1957.38
485.133	1981.56
485.503	2001.22
485.874	2006.19
486.244	2079.41
486.615	2084.38
486.985	2126.19
487.356	2131.38
487.726	2140.88
488.097	2199.86
488.467	2208.9
488.837	2229.01
489.207	2246.86
489.578	2307.2
489.948	2261.78
490.318	2341.32
490.688	2361.66
491.058	2371.15
491.428	2392.62
491.798	2407.99
492.168	2488.44
492.538	2453.41
492.908	2484.82
493.278	2565.05
493.648	2552.62
494.017	2554.42
494.387	2577.25
494.757	2623.12
495.126	2632.84
495.496	2631.26
495.866	2619.51
496.235	2705.83
496.605	2731.37
496.974	2749.22
497.344	2755.55
497.713	2720.52
498.082	2786.96
498.452	2823.34
498.821	2850.69
499.19	2830.58
499.559	2869.22
499.928	2876
500.298	2909.9
500.667	2915.77
501.036	2924.13
501.405	2939.27
501.774	2969.1
502.143	3016.33
502.512	3042.55
502.88	3010.91
503.249	3058.14
503.618	3088.42
503.987	3094.52
504.356	3089.78
504.724	3139.04
505.093	3153.73
505.462	3171.36
505.83	3186.27
506.199	3236.67
506.567	3227.4
506.936	3242.77
507.304	3339.71
507.672	3299.04
508.041	3281.64
508.409	3358.7
508.777	3371.13
509.145	3440.5
509.514	3408.64
509.882	3460.62
510.25	3428.07
510.618	3487.96
510.986	3486.15
511.354	3497
511.722	3576.09
512.09	3553.27
512.458	3573.61
512.826	3623.77
513.193	3586.26
513.561	3624.45
513.929	3659.25
514.297	3725.24
514.664	3711.91
515.032	3756.2
515.4	3753.94
515.767	3787.61
516.135	3842.07
516.502	3819.93
516.869	3899.7
517.237	3905.58
517.604	3921.39
517.972	3964.1
518.339	3951.68
518.706	4014.5
519.073	4012.24
519.44	4068.28
519.808	4048.62
520.175	4116.19
520.542	4187.6
520.909	4205.23
521.276	4149.41
521.643	4234.61
522.009	4244.55
522.376	4286.58
522.743	4325
523.11	4396.41
523.477	4450.19
523.843	4458.33
524.21	4488.84
524.577	4510.53
524.943	4515.5
525.31	4556.86
525.676	4624.2
526.043	4606.57
526.409	4701.71
526.776	4733.8
527.142	4739.45
527.508	4831.88
527.874	4829.39
528.241	4841.37
528.607	4873.91
528.973	4916.62
529.339	4957.75
529.705	4988.71
530.071	5010.4
530.437	5058.09
530.803	5097.63
531.169	5104.87
531.535	5119.33
531.901	5131.98
532.267	5143.96
532.632	5223.96
532.998	5228.48
533.364	5295.37
533.73	5343.28
534.095	5342.83
534.461	5389.83
534.826	5421.02
535.192	5488.58
535.557	5518.41
535.923	5512.31
536.288	5529.04
536.653	5643.61
537.019	5587.11
537.384	5628.02
537.749	5674.34
538.114	5642.03
538.479	5667.11
538.845	5735.81
539.21	5718.18
539.575	5767.22
539.94	5797.73
540.305	5848.12
540.67	5875.69
541.034	5873.89
541.399	6012.86
541.764	6002.92
542.129	6034.56
542.494	6047.21
542.858	6089.7
543.223	6096.7
543.587	6076.37
543.952	6110.04
544.316	6234.1
544.681	6196.81
545.045	6249.02
545.41	6300.31
545.774	6323.36
546.138	6376.02
546.503	6352.06
546.867	6367.21
547.231	6457.37
547.595	6497.6
547.959	6552.96
548.324	6603.36
548.688	6648.33
549.052	6696.46
549.416	6682
549.779	6704.6
550.143	6780.98
550.507	6804.71
550.871	6908.21
551.235	6888.1
551.599	6976.68
551.962	6990.01
552.326	7114.76
552.689	7128.09
553.053	7113.17
553.417	7167.86
553.78	7293.73
554.143	7286.5
554.507	7368.54
554.87	7417.12
555.234	7475.88
555.597	7436.56
555.96	7521.98
556.323	7674.74
556.686	7668.19
557.05	7733.72
557.413	7771.01
557.776	7892.36
558.139	7972.14
558.502	7999.03
558.865	8033.38
559.228	8194.05
559.59	8199.25
559.953	8270.88
560.316	8333.93
560.679	8425.46
561.041	8473.59
561.404	8533.25
561.767	8594.72
562.129	8643.53
562.492	8777.99
562.854	8835.39
563.217	8904.99
563.579	8987.02
563.941	8992.22
564.304	9133.23
564.666	9230.63
565.028	9338.2
565.39	9329.39
565.753	9462.27
566.115	9505.88
566.477	9589.04
566.839	9718.98
567.201	9784.06
567.563	9824.29
567.925	9908.58
568.287	10008.47
568.648	10043.27
569.01	10179.31
569.372	10295.24
569.734	10279.19
570.095	10383.37
570.457	10490.71
570.819	10540.43
571.18	10622.69
571.542	10813.87
571.903	10828.11
572.265	10862.91
572.626	10952.85
572.987	11019.06
573.349	11137.25
573.71	11192.16
574.071	11247.98
574.432	11405.49
574.794	11522.32
575.155	11541.53
575.516	11506.28
575.877	11733.17
576.238	11691.13
576.599	11934.74
576.96	11887.96
577.32	11964.12
577.681	12079.6
578.042	12117.34
578.403	12210.44
578.763	12177.22
579.124	12402.98
579.485	12442.98
579.845	12570.21
580.206	12482.98
580.566	12585.12
580.927	12740.6
581.287	12726.36
581.648	12652.92
582.008	12853.14
582.368	12811.1
582.728	12954.83
583.089	12968.84
583.449	12979.46
583.809	13094.94
584.169	13199.57
584.529	13213.58
584.889	13293.8
585.249	13269.62
585.609	13386
585.969	13482.27
586.329	13479.79
586.688	13481.59
587.048	13587.35
587.408	13630.97
587.768	13698.31
588.127	13706.67
588.487	13724.53
588.846	13828.25
589.206	13781.93
589.565	13918.65
589.925	13949.38
590.284	13927.91
590.643	14009.49
591.003	14116.61
591.362	14132.2
591.721	14159.99
592.08	14212.2
592.44	14202.48
592.799	14334.45
593.158	14324.51
593.517	14341.91
593.876	14491.29
594.235	14452.87
594.593	14435.02
594.952	14508.69
595.311	14507.33
595.67	14557.5
596.029	14707.78
596.387	14701
596.746	14689.47
597.104	14755.91
597.463	14717.49
597.822	14877.72
598.18	14809.92
598.538	14847.89
598.897	14844.27
599.255	14882.69
599.613	15123.13
599.972	14983.7
600.33	15019.86
600.688	15037.71
601.046	15140.08
601.404	15217.82
601.762	15243.36
602.12	15315.22
602.478	15285.39
602.836	15352.96
603.194	15248.1
603.552	15331.49
603.91	15344.37
604.268	15442.9
604.625	15383.47
604.983	15594.31
605.341	15496.23
605.698	15614.65
606.056	15581.65
606.413	15584.82
606.771	15713.85
607.128	15700.29
607.485	15708.88
607.843	15827.07
608.2	15855.09
608.557	15919.95
608.914	15836.34
609.272	15956.11
609.629	16044.69
609.986	16094.18
610.343	16038.59
610.7	16131.24
611.057	16166.5
611.414	16041.98
611.771	16139.6
612.127	16206.95
612.484	16205.59
612.841	16265.25
613.198	16262.09
613.554	16231.13
613.911	16321.29
614.267	16373.72
614.624	16354.97
614.98	16411.91
615.337	16485.58
615.693	16422.31
616.05	16477.9
616.406	16590.21
616.762	16515.41
617.118	16612.13
617.475	16574.85
617.831	16569.65
618.187	16604.45
618.543	16678.57
618.899	16769.19
619.255	16841.73
619.611	16678.12
619.967	16773.03
620.323	16854.61
620.678	16728.97
621.034	16752.02
621.39	16771.68
621.746	16771.9
622.101	16950.43
622.457	16813.48
622.812	16838.12
623.168	16867.95
623.523	16955.85
623.879	16935.97
624.234	16881.96
624.589	16921.05
624.945	16932.35
625.3	16967.15
625.655	16975.29
626.01	17075.17
626.365	17040.15
626.72	16990.88
627.075	17042.63
627.43	16996.53
627.785	16930.32
628.14	17022.07
628.495	16951.11
628.85	16998.11
629.205	16982.75
629.559	17059.81
629.914	17076.53
630.269	17095.74
630.623	16958.34
630.978	16915.4
631.332	17009.19
631.687	17060.03
632.041	16963.54
632.396	17057.09
632.75	16943.65
633.104	17009.41
633.459	16900.71
633.813	16932.8
634.167	16886.48
634.521	16905.46
634.875	16946.36
635.229	16902.75
635.583	16867.27
635.937	16843.09
636.291	16816.87
636.645	16880.83
636.999	16731.23
637.352	16839.92
637.706	16815.97
638.06	16879.47
638.413	16713.83
638.767	16770.77
639.121	16825.91
639.474	16799.47
639.828	16682.64
640.181	16779.14
640.534	16779.81
640.888	16727.84
641.241	16698.23
641.594	16655.3
641.947	16693.71
642.301	16600.38
642.654	16664.34
643.007	16614.17
643.36	16631.57
643.713	16676.76
644.066	16658.01
644.419	16580.72
644.771	16442.65
645.124	16281.07
645.477	16309.77
645.83	16257.11
646.182	16090.34
646.535	16055.99
646.888	16130.79
647.24	15991.13
647.593	16190.22
647.945	16112.71
648.298	15998.36
648.65	16014.86
649.002	15941.19
649.355	16080.62
649.707	16015.09
650.059	16121.3
650.411	16309.09
650.763	16277
651.115	16491.69
651.467	16509.99
651.819	16485.81
652.171	16475.64
652.523	16432.93
652.875	16378.69
653.227	16358.58
653.578	16500.95
653.93	16352.48
654.282	16336.43
654.633	16336.43
654.985	16289.88
655.337	16357.45
655.688	16400.39
656.039	16419.82
656.391	16370.56
656.742	16383.89
657.094	16363.33
657.445	16394.74
657.796	16349.09
658.147	16244.69
658.498	16268.19
658.849	16351.35
659.2	16223.9
659.551	16264.35
659.902	16393.38
660.253	16336.43
660.604	16244.01
660.955	16294.63
661.306	16324.68
661.656	16265.7
662.007	16284.68
662.358	16401.29
662.708	16340.95
663.059	16338.69
663.409	16192.26
663.76	16303.89
664.11	16385.02
664.461	16375.76
664.811	16446.49
665.161	16395.64
665.511	16312.25
665.862	16398.81
666.212	16430.22
666.562	16443.78
666.912	16400.84
667.262	16444
667.612	16389.54
667.962	16508.41
668.312	16373.27
668.662	16478.35
669.011	16391.35
669.361	16460.05
669.711	16421.63
670.06	16430.44
670.41	16427.28
670.76	16378.02
671.109	16471.12
671.459	16444.23
671.808	16392.03
672.157	16431.12
672.507	16360.39
672.856	16325.59
673.205	16451.69
673.554	16492.36
673.904	16471.12
674.253	16559.93
674.602	16443.1
674.951	16234.74
675.3	16132.82
675.649	16404.91
675.998	16418.69
676.346	16469.31
676.695	16521.51
677.044	16380.95
677.393	16446.26
677.741	16504.57
678.09	16346.83
678.438	16296.21
678.787	16423.44
679.135	16403.33
679.484	16317.23
679.832	16390.22
680.181	16266.83
680.529	16289.2
680.877	16330.56
681.225	16277
681.573	16403.55
681.922	16269.54
682.27	16419.82
682.618	16330.79
682.966	16258.92
683.314	16273.16
683.661	16264.35
684.009	16196.33
684.357	16153.61
684.705	16088.76
685.053	16244.91
685.4	16156.55
685.748	16214.4
686.095	16188.42
686.443	16029.55
686.79	16064.58
687.138	16104.12
687.485	16124.01
687.832	16089.89
688.18	16014.41
688.527	15902.32
688.874	16035.43
689.221	15954.3
689.568	15948.42
689.915	15973.73
690.262	15889.67
690.609	15967.63
690.956	15843.79
691.303	15817.35
691.65	15773.29
691.997	15797.24
692.344	15766.05
692.69	15718.15
693.037	15738.03
693.383	15668.2
693.73	15696.23
694.077	15628.43
694.423	15655.32
694.769	15632.72
695.116	15540.75
695.462	15561.54
695.808	15476.8
696.155	15542.33
696.501	15451.03
696.847	15409.68
697.193	15450.81
697.539	15527.87
697.885	15383.01
698.231	15340.75
698.577	15339.85
698.923	15311.15
699.269	15262.79
699.614	15229.35
699.96	15283.36
700.306	15256.46
700.651	15215.33
700.997	15180.31
701.342	15185.73
701.688	15018.5
702.033	15052.4
702.379	15086.75
702.724	15062.12
703.069	15165.84
703.415	14845.63
703.76	14941.67
704.105	15009.01
704.45	14923.14
704.795	14823.25
705.14	14778.74
705.485	14808.57
705.83	14793.42
706.175	14809.02
706.52	14809.92
706.865	14751.39
707.209	14725.18
707.554	14698.06
707.899	14739.41
708.243	14645.86
708.588	14678.4
708.932	14644.73
709.277	14605.41
709.621	14665.29
709.966	14580.32
710.31	14538.52
710.654	14410.38
710.998	14502.36
711.342	14569.7
711.687	14488.12
712.031	14462.59
712.375	14321.35
712.719	14273.66
713.063	14419.2
713.407	14411.74
713.75	14398.63
714.094	14338.07
714.438	14307.34
714.782	14359.99
715.125	14256.49
715.469	14328.8
715.812	14266.88
716.156	14255.59
716.499	14195.02
716.843	14127.23
717.186	14151.86
717.53	14187.34
717.873	14234.12
718.216	14126.55
718.559	14091.52
718.902	14009.94
719.246	14110.73
719.589	14011.75
719.932	13990.28
720.275	13981.24
720.617	13990.96
720.96	14027.57
721.303	14016.04
721.646	13924.75
721.989	13939.44
722.331	13997.06
722.674	13882.26
723.016	13967.23
723.359	13913.22
723.701	13942.6
724.044	13870.74
724.386	13817.41
724.729	13869.16
725.071	13844.07
725.413	13910.28
725.755	13891.53
726.097	13815.15
726.439	13727.92
726.782	13773.11
727.124	13757.52
727.465	13688.37
727.807	13701.02
728.149	13691.76
728.491	13654.47
728.833	13708.93
729.175	13628.71
729.516	13666.45
729.858	13627.58
730.199	13612.21
730.541	13578.09
730.882	13588.03
731.224	13653.57
731.565	13462.84
731.906	13590.52
732.248	13585.77
732.589	13508.26
732.93	13494.48
733.271	13491.31
733.612	13492.44
733.953	13582.61
734.294	13502.39
734.635	13517.07
734.976	13553.68
735.317	13436.17
735.658	13505.32
735.999	13418.32
736.339	13465.1
736.68	13416.29
737.021	13352.56
737.361	13378.09
737.702	13408.15
738.042	13414.48
738.383	13390.07
738.723	13346.23
739.063	13250.19
739.404	13309.17
739.744	13381.71
740.084	13254.93
740.424	13271.2
740.764	13177.42
741.104	13280.47
741.444	13219.45
741.784	13210.64
742.124	13172.22
742.464	13263.3
742.804	13105.79
743.143	13182.85
743.483	13124.77
743.823	12969.97
744.162	13154.37
744.502	13111.21
744.841	12999.12
745.181	13025.56
745.52	13052.68
745.86	12974.26
746.199	13007.48
746.538	12950.31
746.877	12963.64
747.216	12972.91
747.556	12880.71
747.895	12918.45
748.234	12838.9
748.573	12849.52
748.911	12900.59
749.25	12862.63
749.589	12734.27
749.928	12862.4
750.267	12880.48
750.605	12785.79
750.944	12766.81
751.283	12737.89
751.621	12720.03
751.96	12641.84
752.298	12666.47
752.636	12649.53
752.975	12600.94
753.313	12560.49
753.651	12597.55
753.989	12493.82
754.327	12550.77
754.666	12470.77
755.004	12473.26
755.342	12489.98
755.679	12451.34
756.017	12340.83
756.355	12327.95
756.693	12296.32
757.031	12233.72
757.368	12142.19
757.706	12140.84
758.044	12170.44
758.381	12181.97
758.719	12177
759.056	12131.35
759.394	12081.63
759.731	12014.51
760.068	12003.22
760.405	11918.47
760.743	11854.74
761.08	11924.57
761.417	11863.56
761.754	11777.91
762.091	11724.13
762.428	11711.92
762.765	11677.57
763.102	11741.98
763.438	11636.22
763.775	11564.58
764.112	11544.47
764.449	11568.88
764.785	11512.38
765.122	11454.08
765.458	11372.27
765.795	11362.78
766.131	11369.56
766.467	11358.94
766.804	11252.05
767.14	11184.48
767.476	11162.79
767.812	11075.33
768.148	11150.58
768.485	11119.62
768.821	11036.69
769.157	10991.26
769.492	10998.72
769.828	10959.85
770.164	10866.52
770.5	10826.52
770.836	10807.54
771.171	10747.66
771.507	10718.28
771.842	10687.09
772.178	10624.04
772.513	10598.05
772.849	10588.56
773.184	10540.2
773.519	10568.22
773.855	10500.66
774.19	10402.81
774.525	10394.9
774.86	10429.02
775.195	10325.97
775.53	10305.63
775.865	10252.53
776.2	10122.36
776.535	10135.02
776.87	10080.33
777.205	10019.99
777.539	10038.52
777.874	10115.36
778.209	9930.95
778.543	9940.44
778.878	9962.82
779.212	9867
779.547	9824.97
779.881	9855.02
780.215	9740.68
780.55	9772.09
780.884	9718.08
781.218	9689.83
781.552	9654.35
781.886	9494.58
782.22	9566.44
782.554	9448.25
782.888	9389.72
783.222	9337.3
783.556	9345.88
783.889	9315.15
784.223	9276.06
784.557	9194.93
784.89	9196.28
785.224	9180.01
785.557	9140.92
785.891	9172.56
786.224	9103.63
786.558	9030.86
786.891	8966.23
787.224	8932.79
787.557	9001.49
787.891	8916.29
788.224	8847.14
788.557	8849.63
788.89	8846.01
789.223	8827.03
789.556	8801.04
789.888	8691.66
790.221	8719.69
790.554	8551.1
790.887	8654.38
791.219	8616.64
791.552	8575.73
791.884	8454.83
792.217	8459.81
792.549	8458.68
792.882	8330.77
793.214	8354.72
793.546	8383.42
793.879	8319.92
794.211	8244.44
794.543	8251.45
794.875	8231.11
795.207	8239.92
795.539	8107.05
795.871	8154.28
796.203	8078.57
796.535	8042.42
796.867	8012.13
797.198	7985.47
797.53	7965.13
797.862	7948.18
798.193	7945.24
798.525	7889.43
798.856	7880.61
799.188	7811.91
799.519	7817.11
799.85	7700.96
800.182	7735.08
800.513	7751.8
800.844	7715.64
801.175	7669.32
801.506	7713.16
801.837	7644.91
802.168	7539.83
802.499	7595.65
802.83	7582.31
803.161	7506.16
803.491	7502.99
803.822	7543.67
804.153	7463.45
804.483	7351.13
804.814	7359.72
805.145	7353.62
805.475	7389.1
805.805	7278.59
806.136	7332.83
806.466	7267.07
806.796	7282.44
807.126	7202.21
807.457	7161.31
807.787	7184.59
808.117	7157.02
808.447	7126.28
808.777	7138.94
809.107	7110.91
809.436	7052.16
809.766	7072.27
810.096	7016
810.426	6981.65
810.755	7024.36
811.085	6949.11
811.414	6975.33
811.744	6878.38
812.073	6899.17
812.403	6797.93
812.732	6839.96
813.061	6872.73
813.39	6802
813.719	6745.05
814.049	6753.41
814.378	6717.03
814.707	6696.69
815.036	6686.97
815.365	6683.13
815.693	6643.13
816.022	6632.06
816.351	6579.63
816.68	6561.55
817.008	6501.67
817.337	6506.41
817.665	6477.94
817.994	6502.34
818.322	6512.74
818.651	6454.89
818.979	6397.94
819.307	6441.55
819.636	6378.73
819.964	6361.33
820.292	6363.36
820.62	6353.65
820.948	6359.07
821.276	6382.57
821.604	6350.93
821.932	6312.07
822.259	6361.33
822.587	6275.46
822.915	6299.64
823.243	6285.63
823.57	6286.76
823.898	6339.41
824.225	6283.82
824.553	6332.86
824.88	6328.34
825.207	6364.27
825.535	6256.47
825.862	6324.27
826.189	6251.5
826.516	6278.39
826.843	6237.72
827.17	6286.76
827.497	6262.8
827.824	6274.78
828.151	6304.38
828.478	6251.28
828.805	6247.89
829.131	6204.95
829.458	6205.85
829.785	6204.95
830.111	6161.34
830.438	6286.53
830.764	6193.65
831.09	6202.24
831.417	6180.54
831.743	6157.04
832.069	6186.65
832.395	6124.05
832.722	6166.08
833.048	6146.65
833.374	6131.96
833.7	6096.25
834.026	6112.52
834.351	6138.51
834.677	6118.85
835.003	6102.81
835.329	6115.46
835.654	6060.09
835.98	6051.96
836.306	6061.22
836.631	6002.7
836.956	6048.57
837.282	6031.17
837.607	6023.94
837.932	5977.61
838.258	6025.29
838.583	5996.37
838.908	5966.76
839.233	5977.39
839.558	5982.13
839.883	5902.13
840.208	5920.44
840.533	5911.4
840.858	5873.89
841.182	5900.55
841.507	5931.74
841.832	5842.93
842.156	5835.92
842.481	5807.67
842.805	5799.99
843.13	5811.97
843.454	5776.94
843.778	5712.31
844.103	5746.88
844.427	5699.43
844.751	5691.97
845.075	5678.41
845.399	5667.11
845.723	5633.67
846.047	5654.91
846.371	5579.43
846.695	5594.12
847.019	5569.03
847.343	5549.6
847.666	5544.85
847.99	5496.95
848.313	5502.6
848.637	5437.96
848.96	5429.6
849.284	5382.82
849.607	5384.86
849.931	5391.86
850.254	5342.6
850.577	5312.32
850.9	5230.51
851.223	5247.69
851.546	5197.29
851.869	5238.65
852.192	5236.61
852.515	5146.67
852.838	5190.29
853.161	5169.04
853.483	5149.61
853.806	5114.13
854.129	5075.94
854.451	5098.09
854.774	5055.15
855.096	5024.64
855.419	5079.1
855.741	5064.41
856.063	4978.32
856.385	5018.09
856.708	4949.16
857.03	4956.4
857.352	4952.1
857.674	4894.02
857.996	4910.07
858.318	4911.42
858.64	4885.89
858.961	4857.64
859.283	4841.6
859.605	4843.18
859.926	4845.89
860.248	4797.76
860.57	4788.72
860.891	4799.11
861.212	4808.38
861.534	4747.81
861.855	4761.15
862.176	4800.02
862.498	4779.45
862.819	4733.12
863.14	4709.62
863.461	4736.51
863.782	4682.73
864.103	4702.84
864.424	4652.9
864.745	4639.79
865.065	4635.5
865.386	4633.92
865.707	4663.3
866.027	4647.48
866.348	4613.81
866.668	4602.05
866.989	4580.59
867.309	4577.42
867.63	4555.95
867.95	4567.7
868.27	4561.83
868.59	4570.87
868.91	4597.76
869.23	4487.25
869.55	4514.15
869.87	4539
870.19	4506.01
870.51	4477.54
870.83	4532
871.15	4463.98
871.469	4512.79
871.789	4508.72
872.109	4495.62
872.428	4468.95
872.748	4478.44
873.067	4447.03
873.386	4459.23
873.706	4426.69
874.025	4405.68
874.344	4423.53
874.663	4395.28
874.982	4351.67
875.301	4391.44
875.62	4396.18
875.939	4324.55
876.258	4340.59
876.577	4343.53
876.896	4332.91
877.214	4327.26
877.533	4362.74
877.852	4364.77
878.17	4328.39
878.489	4302.63
878.807	4343.08
879.125	4311.21
879.444	4264.66
879.762	4295.85
880.08	4272.12
880.398	4254.49
880.716	4294.72
881.034	4240.03
881.352	4239.8
881.67	4241.84
881.988	4200.26
882.306	4214.95
882.624	4158
882.941	4186.47
883.259	4189.86
883.577	4141.95
883.894	4135.63
884.212	4172.69
884.529	4125.68
884.846	4133.37
885.164	4162.74
885.481	4087.04
885.798	4093.82
886.115	4117.77
886.432	4093.82
886.75	4103.08
887.067	4080.03
887.383	4046.59
887.7	4028.96
888.017	4071.22
888.334	4057.44
888.651	4021.96
888.967	4012.47
889.284	3996.65
889.6	3963.88
889.917	3972.92
890.233	3928.17
890.55	3923.65
890.866	3972.01
891.182	3908.51
891.498	3932.92
891.815	3915.74
892.131	3883.65
892.447	3866.71
892.763	3900.6
893.079	3854.05
893.395	3855.18
893.71	3838.68
894.026	3874.84
894.342	3823.77
894.657	3791
894.973	3786.26
895.289	3800.95
895.604	3808.85
895.92	3745.35
896.235	3747.84
896.55	3763.21
896.865	3736.54
897.181	3740.16
897.496	3688.86
897.811	3716.88
898.126	3704.9
898.441	3671.91
898.756	3660.61
899.071	3631.46
899.386	3665.13
899.7	3636.2
900.015	3604.11
900.33	3576.54
900.644	3632.81
900.959	3610.22
901.273	3583.32
901.588	3573.83
901.902	3545.58
902.216	3515.53
902.531	3497.9
902.845	3564.79
903.159	3485.25
903.473	3511.69
903.787	3479.82
904.101	3476.89
904.415	3489.77
904.729	3439.15
905.042	3433.5
905.356	3405.25
905.67	3398.02
905.984	3401.18
906.297	3431.69
906.611	3377.45
906.924	3344.23
907.237	3356.21
907.551	3339.26
907.864	3354.63
908.177	3349.88
908.491	3324.35
908.804	3315.99
909.117	3282.54
909.43	3265.82
909.743	3271.02
910.056	3292.94
910.368	3271.92
910.681	3234.63
910.994	3224.46
911.307	3210.45
911.619	3186.72
911.932	3186.27
912.244	3133.84
912.557	3153.73
912.869	3160.74
913.181	3142.66
913.494	3130
913.806	3101.75
914.118	3108.99
914.43	3107.86
914.742	3098.14
915.054	3092.72
915.366	3051.13
915.678	3069.44
915.99	3013.62
916.302	3020.63
916.613	3020.63
916.925	3022.66
917.236	2994.86
917.548	2982.21
917.859	2935.21
918.171	2936.34
918.482	2946.73
918.794	2958.71
919.105	2925.71
919.416	2902.89
919.727	2937.47
920.038	2895.88
920.349	2880.52
920.66	2845.26
920.971	2855.66
921.282	2844.13
921.593	2821.99
921.903	2850.01
922.214	2820.86
922.525	2793.29
922.835	2799.84
923.146	2792.38
923.456	2774.53
923.767	2783.12
924.077	2709
924.387	2745.15
924.697	2705.61
925.008	2721.88
925.318	2733.18
925.628	2725.72
925.938	2653.63
926.248	2687.3
926.558	2648.43
926.867	2685.04
927.177	2649.11
927.487	2652.05
927.796	2625.38
928.106	2612.95
928.416	2616.57
928.725	2581.77
929.034	2554.65
929.344	2558.27
929.653	2590.13
929.962	2551.26
930.271	2536.12
930.581	2503.8
930.89	2509
931.199	2490.7
931.508	2498.15
931.817	2503.13
932.125	2486.4
932.434	2493.63
932.743	2440.08
933.051	2465.16
933.36	2446.86
933.669	2423.13
933.977	2431.72
934.286	2422
934.594	2419.74
934.902	2422
935.21	2406.41
935.519	2394.2
935.827	2359.18
936.135	2393.98
936.443	2393.75
936.751	2376.12
937.059	2315.79
937.367	2353.3
937.674	2319.18
937.982	2353.07
938.29	2320.53
938.597	2315.33
938.905	2269.91
939.213	2292.74
939.52	2282.57
939.827	2271.49
940.135	2273.98
940.442	2279.4
940.749	2272.4
941.056	2238.5
941.363	2189.01
941.67	2223.81
941.977	2182.23
942.284	2215.22
942.591	2189.69
942.898	2196.69
943.205	2182
943.511	2173.64
943.818	2150.82
944.125	2156.02
944.431	2133.64
944.738	2143.81
945.044	2139.75
945.35	2125.28
945.657	2120.09
945.963	2101.33
946.269	2077.37
946.575	2097.71
946.881	2063.82
947.187	2096.13
947.493	2071.73
947.799	2079.63
948.105	2042.8
948.41	2014.55
948.716	2027.66
949.022	2004.83
949.327	2036.25
949.633	2001.67
949.938	2017.72
950.244	2000.54
950.549	1960.77
950.854	1972.07
951.16	1977.49
951.465	2004.61
951.77	1970.94
952.075	1967.1
952.38	1912.41
952.685	1906.76
952.99	1909.02
953.294	1926.87
953.599	1917.15
953.904	1891.16
954.209	1911.05
954.513	1898.62
954.818	1936.59
955.122	1897.04
955.426	1876.02
955.731	1836.7
956.035	1862.01
956.339	1851.84
956.643	1842.35
956.948	1841.67
957.252	1815.69
957.556	1844.84
957.86	1819.53
958.163	1816.36
958.467	1808.91
958.771	1795.57
959.075	1789.25
959.378	1790.6
959.682	1799.42
959.985	1782.02
960.289	1754.45
960.592	1721.68
960.896	1760.32
961.199	1759.87
961.502	1771.39
961.805	1747.67
962.108	1721.45
962.411	1729.59
962.714	1717.61
963.017	1725.75
963.32	1724.84
963.623	1702.92
963.926	1683.94
964.228	1716.71
964.531	1686.65
964.833	1683.71
965.136	1667.44
965.438	1694.33
965.741	1674.45
966.043	1677.84
966.345	1653.88
966.648	1636.03
966.95	1649.59
967.252	1636.03
967.554	1601.68
967.856	1609.36
968.158	1583.15
968.46	1628.35
968.761	1619.31
969.063	1566.2
969.365	1602.81
969.666	1578.86
969.968	1562.13
970.269	1561.23
970.571	1568.91
970.872	1570.04
971.174	1541.57
971.475	1550.83
971.776	1531.63
972.077	1514
972.378	1511.97
972.679	1533.43
972.98	1528.69
973.281	1526.2
973.582	1496.15
973.883	1486.2
974.183	1504.06
974.484	1507.67
974.785	1465.64
975.085	1482.36
975.386	1467
975.686	1471.29
975.986	1452.31
976.287	1448.24
976.587	1429.93
976.887	1459.31
977.187	1442.14
977.487	1478.07
977.787	1420.67
978.087	1417.28
978.387	1436.71
978.687	1434.45
978.987	1430.84
979.286	1407.34
979.586	1405.75
979.885	1389.48
980.185	1409.37
980.484	1381.12
980.784	1377.96
981.083	1389.48
981.382	1371.86
981.682	1386.09
981.981	1333.21
982.28	1382.25
982.579	1355.59
982.878	1369.6
983.177	1344.74
983.475	1353.33
983.774	1308.58
984.073	1309.94
984.372	1306.32
984.67	1308.81
984.969	1324.4
985.267	1293.67
985.566	1306.1
985.864	1311.97
986.162	1293.21
986.461	1278.3
986.759	1297.73
987.057	1270.16
987.355	1267.9
987.653	1257.28
987.951	1278.75
988.249	1260.9
988.547	1262.93
988.844	1250.05
989.142	1250.28
989.44	1259.77
989.737	1215.7
990.035	1193.56
990.332	1215.7
990.63	1207.12
990.927	1230.62
991.224	1224.52
991.521	1237.85
991.819	1222.03
992.116	1204.86
992.413	1220.45
992.71	1170.05
993.006	1198.3
993.303	1202.37
993.6	1179.55
993.897	1177.74
994.193	1156.72
994.49	1170.05
994.787	1187.45
995.083	1132.31
995.379	1164.4
995.676	1140
995.972	1134.35
996.268	1121.24
996.565	1116.04
996.861	1124.63
997.157	1131.64
997.453	1130.73
997.749	1101.13
998.044	1116.27
998.34	1060.68
998.636	1073.11
998.932	1091.64
999.227	1095.03
999.523	1093.45
999.818	1076.95
1000.114	1090.06
1000.409	1070.85
1000.704	1058.42
1001	1052.54
1001.295	1073.56
1001.59	1057.51
1001.885	1045.54
1002.18	1079.21
1002.475	1059.55
1002.77	1020.23
1003.065	1042.6
1003.359	1039.21
1003.654	1007.35
1003.949	1051.86
1004.243	995.6
1004.538	1001.02
1004.832	983.39
1005.127	988.36
1005.421	984.97
1005.715	1002.37
1006.009	977.06
1006.304	978.65
1006.598	965.77
1006.892	973.45
1007.186	977.97
1007.48	944.98
1007.773	968.48
1008.067	975.26
1008.361	939.78
1008.655	948.82
1008.948	937.52
1009.242	949.49
1009.535	941.81
1009.829	940.91
1010.122	914.92
1010.415	932.09
1010.708	910.4
1011.001	923.73
1011.295	928.03
1011.588	921.92
1011.881	911.76
1012.173	893.45
1012.466	887.12
1012.759	895.26
1013.052	876.28
1013.344	892.1
1013.637	883.73
1013.93	883.06
1014.222	878.99
1014.514	871.3
1014.807	875.15
1015.099	856.62
1015.391	858.42
1015.683	863.4
1015.976	887.8
1016.268	859.78
1016.56	832.21
1016.851	832.66
1017.143	820.91
1017.435	819.55
1017.727	836.05
1018.018	826.79
1018.31	805.09
1018.602	803.74
1018.893	808.48
1019.185	828.59
1019.476	811.19
1019.767	816.62
1020.058	791.98
1020.35	792.21
1020.641	764.19
1020.932	770.29
1021.223	761.7
1021.514	764.87
1021.804	748.14
1022.095	781.82
1022.386	768.71
1022.677	753.79
1022.967	774.13
1023.258	779.56
1023.548	756.51
1023.839	744.3
1024.129	698.88
1024.419	743.85
1024.709	712.66
1025	735.49
1025.29	736.85
1025.58	733.46
1025.87	722.83
1026.16	731.65
1026.449	704.53
1026.739	719.9
1027.029	693.23
1027.319	676.06
1027.608	699.78
1027.898	693.46
1028.187	668.37
1028.477	683.06
1028.766	686.22
1029.055	701.14
1029.344	676.96
1029.634	676.51
1029.923	678.32
1030.212	674.7
1030.501	665.89
1030.79	660.24
1031.078	645.32
1031.367	662.04
1031.656	647.81
1031.945	659.33
1032.233	649.84
1032.522	651.88
1032.81	610.07
1033.099	658.2
1033.387	623.63
1033.675	633.57
1033.963	633.34
1034.251	650.97
1034.54	633.12
1034.828	630.41
1035.116	621.82
1035.403	616.62
1035.691	622.5
1035.979	597.19
1036.267	612.1
1036.554	595.15
1036.842	587.24
1037.129	609.16
1037.417	610.07
1037.704	594.02
1037.992	594.93
1038.279	582.05
1038.566	577.08
1038.853	577.08
1039.14	577.08
