Data from brown_tile_FLMS001491_004.txt Node
Date: Tue Feb 07 10:36:59 GMT 2017
User: dcchb
Spectrometer: FLMS00149
Trigger mode: 0
Integration Time (sec): 2.000000E-2
Scans to average: 10
Electric dark correction enabled: true
Nonlinearity correction enabled: false
Boxcar width: 0
XAxis mode: Wavelengths
Number of Pixels in Spectrum: 2048
>>>>>Begin Spectral Data<<<<<
341.393	-14.97
341.776	-14.97
342.16	-14.97
342.543	-36.89
342.927	-49.09
343.31	-62.2
343.693	-70.11
344.077	-61.3
344.46	-50.22
344.843	-54.07
345.226	-44.58
345.61	-32.15
345.993	-23.11
346.376	11.47
346.759	-0.06
347.142	25.03
347.525	45.14
347.908	53.95
348.291	64.12
348.674	93.73
349.057	104.35
349.44	138.02
349.823	138.92
350.206	170.56
350.588	185.25
350.971	186.38
351.354	198.58
351.737	238.13
352.119	237.9
352.502	258.47
352.884	261.41
353.267	287.62
353.65	275.19
354.032	302.31
354.414	311.57
354.797	315.87
355.179	309.54
355.562	321.07
355.944	322.42
356.326	306.15
356.709	326.94
357.091	325.58
357.473	343.66
357.855	334.62
358.238	337.56
358.62	333.72
359.002	319.26
359.384	341.63
359.766	314.96
360.148	343.44
360.53	289.65
360.912	329.2
361.294	314.74
361.676	337.11
362.057	324
362.439	326.49
362.821	325.81
363.203	302.31
363.584	324.91
363.966	308.64
364.348	318.81
364.729	325.13
365.111	319.94
365.493	312.7
365.874	317.22
366.256	307.28
366.637	319.71
367.019	317.22
367.4	304.12
367.781	309.09
368.163	315.64
368.544	295.75
368.925	301.86
369.306	299.37
369.688	308.86
370.069	311.35
370.45	296.66
370.831	299.6
371.212	320.84
371.593	296.88
371.974	312.03
372.355	306.38
372.736	327.39
373.117	302.99
373.498	311.8
373.879	291.24
374.26	294.4
374.641	306.83
375.021	309.77
375.402	328.07
375.783	306.83
376.163	328.75
376.544	320.61
376.925	320.61
377.305	342.53
377.686	311.8
378.066	319.94
378.447	315.42
378.827	316.77
379.208	326.94
379.588	315.87
379.968	331.01
380.349	337.34
380.729	335.75
381.109	325.13
381.489	346.6
381.87	347.5
382.25	324
382.63	341.18
383.01	335.75
383.39	350.22
383.77	326.04
384.15	347.96
384.53	328.97
384.91	340.05
385.29	331.46
385.67	322.42
386.049	335.98
386.429	345.47
386.809	348.41
387.189	317.68
387.568	351.35
387.948	335.3
388.328	353.15
388.707	342.08
389.087	334.85
389.466	349.76
389.846	345.47
390.225	357
390.605	357.67
390.984	367.39
391.363	379.14
391.743	365.58
392.122	368.52
392.501	366.04
392.881	366.04
393.26	366.94
393.639	358.13
394.018	369.43
394.397	381.85
394.776	372.36
395.155	383.89
395.534	369.43
395.913	361.97
396.292	363.78
396.671	371.23
397.05	374.4
397.429	368.3
397.808	350.89
398.186	388.41
398.565	387.73
398.944	363.55
399.323	369.88
399.701	365.13
400.08	397.45
400.458	376.2
400.837	389.54
401.215	394.96
401.594	392.93
401.972	395.19
402.351	419.14
402.729	388.63
403.107	394.28
403.486	421.63
403.864	401.97
404.242	397.22
404.62	415.07
404.999	394.06
405.377	406.49
405.755	405.36
406.133	413.94
406.511	432.47
406.889	429.76
407.267	416.66
407.645	422.98
408.023	436.99
408.401	426.15
408.779	415.75
409.156	447.84
409.534	445.81
409.912	436.99
410.29	430.44
410.667	430.44
411.045	444.9
411.422	458.24
411.8	444.45
412.178	448.52
412.555	483.32
412.933	448.97
413.31	465.24
413.687	454.85
414.065	437.67
414.442	455.98
414.819	471.57
415.197	453.26
415.574	474.51
415.951	486.26
416.328	484.9
416.705	487.16
417.082	484.45
417.46	491.68
417.837	468.86
418.214	499.82
418.591	511.79
418.967	503.43
419.344	491.46
419.721	516.77
420.098	489.42
420.475	527.39
420.852	513.15
421.228	477.67
421.605	531.45
421.982	534.17
422.358	526.03
422.735	506.37
423.111	530.55
423.488	528.97
423.864	554.05
424.241	546.6
424.617	548.18
424.994	545.01
425.37	535.52
425.746	556.77
426.123	559.25
426.499	538.69
426.875	576.88
427.251	556.09
427.627	578.69
428.003	570.78
428.379	568.06
428.756	585.01
429.132	610.55
429.507	573.94
429.883	597.44
430.259	591.79
430.635	606.48
431.011	608.06
431.387	615.97
431.763	620.72
432.138	614.84
432.514	627.95
432.89	626.59
433.265	659.36
433.641	639.7
434.016	638.57
434.392	653.26
434.767	672.47
435.143	661.4
435.518	704.11
435.894	674.5
436.269	670.89
436.644	689.87
437.02	684.22
437.395	695.97
437.77	679.25
438.145	706.59
438.52	694.84
438.895	712.24
439.271	708.85
439.646	724.67
440.021	736.87
440.395	715.4
440.77	712.92
441.145	726.25
441.52	734.16
441.895	744.33
442.27	746.36
442.645	745.46
443.019	756.31
443.394	763.99
443.769	779.36
444.143	756.31
444.518	778.68
444.892	773.48
445.267	777.1
445.641	788.85
446.016	778
446.39	790.21
446.764	771.67
447.139	783.2
447.513	787.27
447.887	802.18
448.262	790.66
448.636	816.42
449.01	825.23
449.384	831.33
449.758	818.23
450.132	839.02
450.506	834.95
450.88	860.03
451.254	853.48
451.628	840.6
452.002	871.33
452.376	853.71
452.75	855.29
453.123	890.77
453.497	880.82
453.871	879.24
454.244	888.96
454.618	888.96
454.992	906.59
455.365	916.3
455.739	919.92
456.112	939.81
456.486	964.21
456.859	950.65
457.232	968.51
457.606	961.73
457.979	996.08
458.352	990.43
458.725	1011.44
459.099	975.51
459.472	1018.22
459.845	1044.21
460.218	1012.35
460.591	1057.77
460.964	1067.71
461.337	1069.29
461.71	1046.7
462.083	1086.47
462.456	1080.59
462.829	1072.01
463.201	1089.41
463.574	1097.09
463.947	1122.85
464.32	1133.7
464.692	1123.53
465.065	1121.72
465.438	1168.95
465.81	1182.51
466.183	1188.84
466.555	1220.48
466.928	1208.5
467.3	1210.53
467.672	1240.36
468.045	1256.18
468.417	1242.62
468.789	1274.26
469.161	1270.87
469.534	1264.54
469.906	1341.6
470.278	1327.59
470.65	1326.46
471.022	1353.13
471.394	1394.94
471.766	1408.04
472.138	1397.65
472.51	1430.41
472.882	1457.76
473.253	1474.03
473.625	1480.58
473.997	1513.8
474.369	1501.15
474.74	1506.8
475.112	1553.57
475.484	1571.88
475.855	1580.92
476.227	1565.78
476.598	1645.1
476.97	1666.79
477.341	1694.59
477.713	1686
478.084	1719.22
478.455	1734.36
478.827	1761.71
479.198	1802.16
479.569	1802.38
479.94	1868.14
480.311	1846
480.682	1894.36
481.053	1928.93
481.424	1954.69
481.795	1964.64
482.166	2001.25
482.537	2032.43
482.908	2065.43
483.279	2096.16
483.65	2110.4
484.021	2157.63
484.391	2183.84
484.762	2194.24
485.133	2160.34
485.503	2253.9
485.874	2280.34
486.244	2326.21
486.615	2355.59
486.985	2369.37
487.356	2391.52
487.726	2430.84
488.097	2432.65
488.467	2475.36
488.837	2514
489.207	2499.99
489.578	2559.2
489.948	2566.43
490.318	2628.12
490.688	2642.59
491.058	2680.1
491.428	2699.99
491.798	2698.86
492.168	2794.45
492.538	2806.65
492.908	2794.22
493.278	2831.06
493.648	2864.05
494.017	2885.07
494.387	2912.86
494.757	3002.8
495.126	2990.6
495.496	2965.52
495.866	2987.21
496.235	3061.11
496.605	3074.89
496.974	3029.47
497.344	3106.75
497.713	3137.26
498.082	3125.29
498.452	3194.66
498.821	3176.58
499.19	3226.3
499.559	3243.25
499.928	3279.18
500.298	3249.12
500.667	3272.17
501.036	3299.29
501.405	3335.45
501.774	3330.48
502.143	3405.5
502.512	3419.51
502.88	3432.62
503.249	3481.21
503.618	3421.55
503.987	3486.18
504.356	3477.82
504.724	3504.94
505.093	3519.17
505.462	3542.9
505.83	3594.43
506.199	3619.28
506.567	3704.03
506.936	3692.05
507.304	3759.17
507.672	3745.61
508.041	3736.34
508.409	3767.75
508.777	3804.14
509.145	3833.29
509.514	3842.55
509.882	3874.64
510.25	3907.19
510.618	3915.32
510.986	3949.22
511.354	3955.77
511.722	3989.22
512.09	4045.26
512.458	4012.72
512.826	4098.59
513.193	4083.45
513.561	4106.95
513.929	4130.46
514.297	4188.08
514.664	4217.01
515.032	4209.55
515.4	4217.91
515.767	4280.51
516.135	4321.19
516.502	4285.03
516.869	4382.43
517.237	4387.4
517.604	4410.9
517.972	4440.5
518.339	4433.5
518.706	4484.35
519.073	4520.05
519.44	4586.26
519.808	4609.31
520.175	4618.35
520.542	4687.28
520.909	4682.31
521.276	4724.57
521.643	4766.15
522.009	4796.88
522.376	4872.81
522.743	4871.45
523.11	4948.06
523.477	4942.19
523.843	5009.3
524.21	5008.63
524.577	5106.02
524.943	5081.17
525.31	5162.97
525.676	5158.9
526.043	5191.45
526.409	5268.96
526.776	5379.01
527.142	5307.37
527.508	5406.36
527.874	5417.88
528.241	5432.8
528.607	5517.76
528.973	5538.1
529.339	5571.77
529.705	5643.86
530.071	5666.46
530.437	5682.05
530.803	5730.41
531.169	5751.88
531.535	5801.6
531.901	5800.47
532.267	5856.96
532.632	5879.79
532.998	5911.65
533.364	5996.85
533.73	5946.45
534.095	6064.87
534.461	6086.79
534.826	6113.23
535.192	6145.09
535.557	6153
535.923	6184.64
536.288	6246.33
536.653	6235.49
537.019	6255.6
537.384	6339.89
537.749	6414.24
538.114	6426.44
538.479	6416.95
538.845	6507.12
539.21	6394.35
539.575	6542.82
539.94	6526.78
540.305	6543.27
540.67	6584.18
541.034	6608.13
541.399	6653.1
541.764	6700.56
542.129	6729.26
542.494	6763.16
542.858	6837.73
543.223	6883.15
543.587	6844.74
543.952	6944.85
544.316	6967.44
544.681	6982.58
545.045	7043.83
545.41	7119.76
545.774	7115.46
546.138	7113.43
546.503	7146.65
546.867	7195.46
547.231	7333.54
547.595	7290.83
547.959	7338.28
548.324	7406.98
548.688	7431.84
549.052	7512.06
549.416	7466.41
549.779	7532.17
550.143	7617.37
550.507	7798.83
550.871	7754.99
551.235	7758.61
551.599	7828.66
551.962	7865.5
552.326	7905.95
552.689	7988.43
553.053	7993.41
553.417	8044.93
553.78	8153.4
554.143	8208.09
554.507	8236.34
554.87	8331.48
555.234	8415.54
555.597	8350.91
555.96	8496.9
556.323	8584.35
556.686	8554.75
557.05	8648.08
557.413	8729.88
557.776	8745.48
558.139	8886.49
558.502	8934.17
558.865	8986.37
559.228	9084.22
559.59	9129.65
559.953	9184.11
560.316	9295.52
560.679	9342.75
561.041	9479.47
561.404	9528.51
561.767	9619.13
562.129	9614.61
562.492	9697.09
562.854	9844.66
563.217	9907.03
563.579	10024.76
563.941	10061.15
564.304	10165.33
564.666	10227.92
565.028	10345.21
565.39	10438.99
565.753	10511.31
566.115	10551.76
566.477	10701.13
566.839	10698.87
567.201	10885.31
567.563	10873.56
567.925	11038.98
568.287	11196.26
568.648	11176.82
569.01	11274.45
569.372	11386.08
569.734	11421.34
570.095	11532.75
570.457	11600.54
570.819	11767.32
571.18	11778.16
571.542	11889.35
571.903	11935.45
572.265	12100.19
572.626	12176.57
572.987	12342.9
573.349	12315.78
573.71	12338.15
574.071	12502.21
574.432	12598.03
574.794	12744.47
575.155	12859.27
575.516	12843.22
575.877	12919.15
576.238	13045.48
576.599	13133.61
576.96	13253.38
577.32	13265.13
577.681	13385.81
578.042	13386.48
578.403	13414.96
578.763	13533.82
579.124	13601.39
579.485	13782.18
579.845	13852.69
580.206	13860.6
580.566	13908.05
580.927	13909.86
581.287	14117.09
581.648	14082.96
582.008	14147.59
582.368	14237.08
582.728	14287.93
583.089	14348.04
583.449	14369.96
583.809	14457.19
584.169	14524.31
584.529	14534.02
584.889	14732.44
585.249	14674.81
585.609	14719.56
585.969	14813.79
586.329	14751.42
586.688	14877.07
587.048	14873.9
587.408	14968.82
587.768	15044.29
588.127	15007.68
588.487	15089.04
588.846	15144.63
589.206	15169.04
589.565	15200.9
589.925	15323.38
590.284	15237.73
590.643	15405.87
591.003	15388.24
591.362	15478.86
591.721	15437.05
592.08	15460.33
592.44	15647.44
592.799	15632.98
593.158	15678.63
593.517	15798.62
593.876	15802.01
594.235	15807.66
594.593	15765.18
594.952	15815.12
595.311	15890.6
595.67	15907.77
596.029	16065.06
596.387	16075.9
596.746	16152.74
597.104	16093.98
597.463	16097.37
597.822	16294.43
598.18	16180.31
598.538	16257.82
598.897	16329.68
599.255	16295.33
599.613	16524.71
599.972	16472.96
600.33	16490.81
600.688	16544.82
601.046	16587.08
601.404	16557.93
601.762	16568.1
602.12	16729.67
602.478	16831.14
602.836	16730.8
603.194	16682.22
603.552	16741.88
603.91	16777.81
604.268	16874.08
604.625	16912.04
604.983	16936
605.341	16844.02
605.698	16984.58
606.056	17073.84
606.413	17058.03
606.771	17152.49
607.128	17140.06
607.485	17063.68
607.843	17213.95
608.2	17195.65
608.557	17325.82
608.914	17211.02
609.272	17362.42
609.629	17407.62
609.986	17418.02
610.343	17449.2
610.7	17536.21
611.057	17580.5
611.414	17590.22
611.771	17650.55
612.127	17653.94
612.484	17623.66
612.841	17669.54
613.198	17734.84
613.554	17703.66
613.911	17861.17
614.267	17795.86
614.624	17803.54
614.98	17931.9
615.337	18028.62
615.693	17923.54
616.05	17922.18
616.406	18029.3
616.762	17970.77
617.118	18035.63
617.475	17970.09
617.831	18147.26
618.187	18084.89
618.543	18113.14
618.899	18225.68
619.255	18192.91
619.611	18229.97
619.967	18235.62
620.323	18328.05
620.678	18285.56
621.034	18330.31
621.39	18270.2
621.746	18220.03
622.101	18473.13
622.457	18218.22
622.812	18338.67
623.168	18391.32
623.523	18377.99
623.879	18462.06
624.234	18312.91
624.589	18372.57
624.945	18424.77
625.3	18502.96
625.655	18440.81
626.01	18505.67
626.365	18438.1
626.72	18523.98
627.075	18481.72
627.43	18476.97
627.785	18352.91
628.14	18495.28
628.495	18516.07
628.85	18498.21
629.205	18434.26
629.559	18498.44
629.914	18437.42
630.269	18317.2
630.623	18472.9
630.978	18392.23
631.332	18376.64
631.687	18427.93
632.041	18431.78
632.396	18422.06
632.75	18462.51
633.104	18356.3
633.459	18243.98
633.813	18334.38
634.167	18336.86
634.521	18286.02
634.875	18324.43
635.229	18281.5
635.583	18217.09
635.937	18217.77
636.291	18221.61
636.645	18310.65
636.999	18180.26
637.352	18293.7
637.706	18080.6
638.06	18251.67
638.413	18179.13
638.767	18110.65
639.121	18112.69
639.474	18100.03
639.828	18111.33
640.181	18067.04
640.534	18137.55
640.888	18081.28
641.241	18049.19
641.594	18001.5
641.947	18088.06
642.301	18095.74
642.654	18109.3
643.007	18034.5
643.36	18035.85
643.713	18033.82
644.066	18030.43
644.419	17865.24
644.771	17813.71
645.124	17584.79
645.477	17586.83
645.83	17465.7
646.182	17453.27
646.535	17376.44
646.888	17497.56
647.24	17355.87
647.593	17517.45
647.945	17452.14
648.298	17360.84
648.65	17328.08
649.002	17281.97
649.355	17325.59
649.707	17390.67
650.059	17413.27
650.411	17686.94
650.763	17582.53
651.115	17803.09
651.467	17787.05
651.819	17843.54
652.171	17864.11
652.523	17765.35
652.875	17770.78
653.227	17555.19
653.578	17828.63
653.93	17771.23
654.282	17615.53
654.633	17595.19
654.985	17616.88
655.337	17746.82
655.688	17716.31
656.039	17781.17
656.391	17574.62
656.742	17572.59
657.094	17715.64
657.445	17657.11
657.796	17582.53
658.147	17639.93
658.498	17622.31
658.849	17677.44
659.2	17604.68
659.551	17596.54
659.902	17707.5
660.253	17639.71
660.604	17754.5
660.955	17560.39
661.306	17599.48
661.656	17662.3
662.007	17686.48
662.358	17646.26
662.708	17691.46
663.059	17686.03
663.409	17583.21
663.76	17693.72
664.11	17726.48
664.461	17632.47
664.811	17732.81
665.161	17734.39
665.511	17739.14
665.862	17700.95
666.212	17688.52
666.562	17768.52
666.912	17680.38
667.262	17637.45
667.612	17620.05
667.962	17724.9
668.312	17722.64
668.662	17829.76
669.011	17716.99
669.361	17704.79
669.711	17764
670.06	17726.26
670.41	17688.29
670.76	17698.01
671.109	17770.1
671.459	17800.15
671.808	17705.92
672.157	17663.21
672.507	17683.32
672.856	17736.65
673.205	17753.15
673.554	17764.22
673.904	17706.82
674.253	17764.9
674.602	17743.88
674.951	17423.67
675.3	17479.48
675.649	17757.44
675.998	17700.95
676.346	17623.89
676.695	17750.66
677.044	17563.1
677.393	17589.76
677.741	17761.51
678.09	17640.38
678.438	17661.85
678.787	17633.38
679.135	17693.26
679.484	17657.56
679.832	17657.11
680.181	17601.51
680.529	17688.97
680.877	17686.26
681.225	17621.63
681.573	17691.23
681.922	17641.06
682.27	17529.43
682.618	17622.76
682.966	17541.86
683.314	17510.9
683.661	17535.98
684.009	17450.56
684.357	17467.51
684.705	17559.26
685.053	17449.65
685.4	17481.97
685.748	17442.65
686.095	17393.61
686.443	17386.83
686.79	17350.45
687.138	17277
687.485	17369.66
687.832	17288.08
688.18	17384.57
688.527	17252.15
688.874	17215.08
689.221	17246.95
689.568	17138.93
689.915	17211.24
690.262	17254.41
690.609	17233.61
690.956	17107.74
691.303	17068.87
691.65	16972.15
691.997	17001.53
692.344	17001.3
692.69	16957.24
693.037	16911.14
693.383	16866.84
693.73	16894.41
694.077	16828.65
694.423	16863.68
694.769	16753.4
695.116	16703.23
695.462	16596.57
695.808	16633.63
696.155	16713.63
696.501	16614.87
696.847	16582.78
697.193	16561.54
697.539	16629.34
697.885	16387.99
698.231	16545.27
698.577	16451.49
698.923	16427.31
699.269	16374.88
699.614	16325.39
699.96	16256.47
700.306	16335.79
700.651	16245.84
700.997	16250.14
701.342	16272.96
701.688	16180.54
702.033	16217.82
702.379	16237.26
702.724	16168.78
703.069	16175.34
703.415	16068.67
703.76	16096.7
704.105	16034.1
704.45	16085.17
704.795	15920.65
705.14	15938.51
705.485	15945.74
705.83	15833.65
706.175	15835.23
706.52	15759.08
706.865	15807.44
707.209	15881.56
707.554	15730.15
707.899	15804.95
708.243	15729.25
708.588	15686.76
708.932	15642.47
709.277	15550.95
709.621	15682.47
709.966	15525.41
710.31	15690.38
710.654	15433.66
710.998	15468.92
711.342	15499.42
711.687	15574.45
712.031	15476.82
712.375	15487.67
712.719	15427.11
713.063	15432.98
713.407	15476.37
713.75	15394.57
714.094	15411.06
714.438	15249.71
714.782	15326.77
715.125	15268.69
715.469	15410.39
715.812	15247
716.156	15222.14
716.499	15214.68
716.843	15224.18
717.186	15104.41
717.53	15186.44
717.873	15285.19
718.216	15193.44
718.559	15133.1
718.902	15044.29
719.246	15038.87
719.589	15030.73
719.932	15004.29
720.275	15062.15
720.617	15021.92
720.96	14948.25
721.303	14975.82
721.646	15001.81
721.989	14907.8
722.331	14928.82
722.674	14867.8
723.016	14893.34
723.359	14910.96
723.701	14820.8
724.044	14814.02
724.386	14791.64
724.729	14834.58
725.071	14743.74
725.413	14753.91
725.755	14807.24
726.097	14711.42
726.439	14659.9
726.782	14746.22
727.124	14738.31
727.465	14706.22
727.807	14619.9
728.149	14636.17
728.491	14608.82
728.833	14644.53
729.175	14575.61
729.516	14661.93
729.858	14551.43
730.199	14581.93
730.541	14611.54
730.882	14541.26
731.224	14610.18
731.565	14505.55
731.906	14477.3
732.248	14625.77
732.589	14436.4
732.93	14411.99
733.271	14480.24
733.612	14431.43
733.953	14528.83
734.294	14393.24
734.635	14353.24
734.976	14449.96
735.317	14338.32
735.658	14317.31
735.999	14443.18
736.339	14329.28
736.68	14366.57
737.021	14317.08
737.361	14302.39
737.702	14341.71
738.042	14349.17
738.383	14291.77
738.723	14317.99
739.063	14198.21
739.404	14278.66
739.744	14165.67
740.084	14136.97
740.424	14181.04
740.764	14144.2
741.104	14217.42
741.444	14118.22
741.784	13992.57
742.124	14061.04
742.464	14045.9
742.804	13967.71
743.143	13965
743.483	14020.37
743.823	14034.38
744.162	13848.62
744.502	13846.36
744.841	13875.96
745.181	13894.72
745.52	13881.16
745.86	13928.84
746.199	13836.64
746.538	13884.32
746.877	13811.56
747.216	13803.42
747.556	13848.84
747.895	13747.38
748.234	13723.65
748.573	13798
748.911	13661.05
749.25	13701.96
749.589	13603.65
749.928	13671.45
750.267	13685.01
750.605	13624.67
750.944	13598.46
751.283	13557.78
751.621	13593.48
751.96	13529.53
752.298	13521.17
752.636	13424.22
752.975	13367.28
753.313	13330.21
753.651	13375.19
753.989	13317.11
754.327	13328.18
754.666	13260.84
755.004	13290.67
755.342	13257.9
755.679	13142.42
756.017	13148.75
756.355	13165.7
756.693	13072.14
757.031	13125.47
757.368	13064.91
757.706	13008.64
758.044	12872.6
758.381	12971.58
758.719	12911.02
759.056	12964.57
759.394	12901.98
759.731	12793.73
760.068	12675.54
760.405	12634.64
760.743	12776.33
761.08	12690.01
761.417	12593.96
761.754	12558.94
762.091	12598.48
762.428	12605.04
762.765	12385.38
763.102	12419.96
763.438	12447.53
763.775	12345.38
764.112	12405.72
764.449	12313.97
764.785	12259.96
765.122	12247.98
765.458	12167.08
765.795	12171.15
766.131	12174.54
766.467	12100.19
766.804	11973.87
767.14	11904.04
767.476	11898.61
767.812	11882.34
768.148	11868.33
768.485	11817.03
768.821	11684.61
769.157	11699.07
769.492	11696.13
769.828	11623.37
770.164	11593.31
770.5	11458.63
770.836	11523.93
771.171	11483.71
771.507	11450.72
771.842	11310.61
772.178	11390.83
772.513	11255.69
772.849	11287.78
773.184	11173.66
773.519	11219.31
773.855	11121.91
774.19	11114.91
774.525	11038.98
774.86	11050.05
775.195	11053.44
775.53	10983.61
775.865	10929.15
776.2	10811.64
776.535	10714.46
776.87	10711.3
777.205	10677.4
777.539	10699.78
777.874	10635.37
778.209	10571.42
778.543	10470.85
778.878	10514.7
779.212	10537.07
779.547	10473.11
779.881	10384.08
780.215	10341.14
780.55	10381.82
780.884	10288.26
781.218	10273.57
781.552	10273.12
781.886	10198.09
782.22	10058.89
782.554	10068.83
782.888	9931.21
783.222	9997.19
783.556	9940.47
783.889	9907.25
784.223	9836.07
784.557	9738.9
784.89	9849.85
785.224	9686.02
785.557	9710.2
785.891	9756.75
786.224	9612.8
786.558	9576.19
786.891	9510.65
787.224	9506.59
787.557	9504.1
787.891	9418.9
788.224	9383.2
788.557	9374.39
788.89	9409.64
789.223	9335.97
789.556	9300.94
789.888	9243.09
790.221	9226.59
790.554	9211.68
790.887	9158.57
791.219	9080.38
791.552	9086.94
791.884	9080.83
792.217	8961.52
792.549	8980.05
792.882	8917.9
793.214	8924
793.546	8880.61
793.879	8814.85
794.211	8770.11
794.543	8810.56
794.875	8756.55
795.207	8681.3
795.539	8717.45
795.871	8661.41
796.203	8642.2
796.535	8554.97
796.867	8556.78
797.198	8572.15
797.53	8517.23
797.862	8440.17
798.193	8404.69
798.525	8439.72
798.856	8401.98
799.188	8264.13
799.519	8337.8
799.85	8221.87
800.182	8236.79
800.513	8258.71
800.844	8124.02
801.175	8185.04
801.506	8167.19
801.837	8110.46
802.168	8101.43
802.499	8023.91
802.83	8018.26
803.161	8025.72
803.491	7958.38
803.822	7941.66
804.153	7917.25
804.483	7856.01
804.814	7836.35
805.145	7852.39
805.475	7762.23
805.805	7730.59
806.136	7729.23
806.466	7735.33
806.796	7737.37
807.126	7684.04
807.457	7582.79
807.787	7606.52
808.117	7593.19
808.447	7582.79
808.777	7578.28
809.107	7545.51
809.436	7481.78
809.766	7495.79
810.096	7489.92
810.426	7421.44
810.755	7443.36
811.085	7433.19
811.414	7354.78
811.744	7300.77
812.073	7305.97
812.403	7274.1
812.732	7258.28
813.061	7245.4
813.39	7204.95
813.719	7188.68
814.049	7212.41
814.378	7094.45
814.707	7132.64
815.036	7088.8
815.365	7064.16
815.693	6995.47
816.022	7002.02
816.351	7015.13
816.68	6899.88
817.008	6953.66
817.337	6844.96
817.665	6856.49
817.994	6881.57
818.322	6905.3
818.651	6853.32
818.979	6807.67
819.307	6863.72
819.636	6819.88
819.964	6716.15
820.292	6742.82
820.62	6805.64
820.948	6777.17
821.276	6792.53
821.604	6745.3
821.932	6772.65
822.259	6733.55
822.587	6743.72
822.915	6705.98
823.243	6701.69
823.57	6684.29
823.898	6686.1
824.225	6665.98
824.553	6691.97
824.88	6651.97
825.207	6657.17
825.535	6658.98
825.862	6659.66
826.189	6611.97
826.516	6658.3
826.843	6665.98
827.17	6668.47
827.497	6687.45
827.824	6654.91
828.151	6698.52
828.478	6658.75
828.805	6637.74
829.131	6624.4
829.458	6592.99
829.785	6614.68
830.111	6644.51
830.438	6607
830.764	6596.15
831.09	6614.46
831.417	6571.97
831.743	6603.16
832.069	6590.28
832.395	6494.01
832.722	6588.7
833.048	6529.49
833.374	6522.26
833.7	6545.08
834.026	6521.81
834.351	6504.63
834.677	6484.52
835.003	6535.14
835.329	6522.94
835.654	6461.92
835.98	6412.88
836.306	6494.69
836.631	6450.62
836.956	6470.28
837.282	6431.19
837.607	6399.78
837.932	6411.07
838.258	6377.85
838.583	6355.26
838.908	6317.29
839.233	6372.43
839.558	6362.94
839.883	6263.73
840.208	6318.65
840.533	6300.57
840.858	6234.13
841.182	6217.18
841.507	6274.13
841.832	6269.61
842.156	6236.39
842.481	6201.14
842.805	6179.67
843.13	6214.7
843.454	6174.92
843.778	6165.66
844.103	6101.93
844.427	6113.46
844.751	6123.4
845.075	6112.78
845.399	6104.64
845.723	6017.64
846.047	6062.83
846.371	6043.63
846.695	5957.3
847.019	5976.96
847.343	5904.42
847.666	5900.81
847.99	5906.91
848.313	5850.86
848.637	5828.72
848.96	5821.94
849.284	5788.04
849.607	5717.08
849.931	5698.78
850.254	5692.45
850.577	5735.84
850.9	5646.8
851.223	5617.2
851.546	5578.1
851.869	5587.82
852.192	5630.53
852.515	5518.22
852.838	5497.2
853.161	5541.27
853.483	5464.66
853.806	5468.95
854.129	5417.65
854.451	5440.7
854.774	5388.28
855.096	5413.59
855.419	5366.36
855.741	5325.68
856.063	5331.78
856.385	5347.6
856.708	5302.85
857.03	5256.98
857.352	5275.51
857.674	5233.48
857.996	5268.05
858.318	5252.91
858.64	5210.65
858.961	5210.88
859.283	5198.22
859.605	5145.8
859.926	5158
860.248	5122.29
860.57	5115.97
860.891	5139.47
861.212	5095.18
861.534	5027.16
861.855	5096.08
862.176	5031.22
862.498	5073.93
862.819	5044.56
863.14	5042.07
863.461	5030.09
863.782	4984.9
864.103	5004.78
864.424	5021.96
864.745	5019.25
865.065	4916.65
865.386	4952.58
865.707	4931.11
866.027	4926.59
866.348	4918.23
866.668	4897.67
866.989	4891.57
867.309	4864
867.63	4901.06
867.95	4888.85
868.27	4839.14
868.59	4830.78
868.91	4857.22
869.23	4801.85
869.55	4840.72
869.87	4854.96
870.19	4844.11
870.51	4794.85
870.83	4742.87
871.15	4822.64
871.469	4795.75
871.789	4813.83
872.109	4755.07
872.428	4757.56
872.748	4754.17
873.067	4721.63
873.386	4734.28
873.706	4696.77
874.025	4716.43
874.344	4667.39
874.663	4689.76
874.982	4689.54
875.301	4668.3
875.62	4635.08
875.939	4625.36
876.258	4682.98
876.577	4657
876.896	4614.96
877.214	4616.09
877.533	4601.18
877.852	4558.02
878.17	4625.58
878.489	4622.19
878.807	4557.56
879.125	4576.77
879.444	4606.6
879.762	4588.75
880.08	4527.73
880.398	4564.57
880.716	4578.81
881.034	4525.25
881.352	4521.86
881.67	4505.81
881.988	4508.53
882.306	4517.79
882.624	4482.54
882.941	4468.98
883.259	4451.13
883.577	4408.64
883.894	4384.01
884.212	4426.49
884.529	4391.92
884.846	4438.24
885.164	4416.55
885.481	4359.83
885.798	4332.48
886.115	4344.69
886.432	4376.1
886.75	4327.51
887.067	4310.56
887.383	4317.12
887.7	4318.02
888.017	4324.12
888.334	4334.97
888.651	4287.06
888.967	4278.25
889.284	4274.63
889.6	4247.29
889.917	4219.72
890.233	4207.97
890.55	4260.85
890.866	4242.09
891.182	4205.26
891.498	4170.68
891.815	4197.8
892.131	4191.92
892.447	4137.24
892.763	4093.85
893.079	4147.63
893.395	4087.52
893.71	4054.07
894.026	4059.27
894.342	4097.69
894.657	4068.99
894.973	4048.65
895.289	3991.93
895.604	4069.22
895.92	3980.18
896.235	3966.17
896.55	4015.21
896.865	4005.49
897.181	3928.65
897.496	3970.01
897.811	3948.54
898.126	3931.59
898.441	3887.98
898.756	3874.19
899.071	3869.45
899.386	3900.86
899.7	3849.33
900.015	3833.52
900.33	3829
900.644	3862.44
900.959	3828.32
901.273	3820.63
901.588	3781.09
901.902	3777.25
902.216	3749
902.531	3739.28
902.845	3727.08
903.159	3714.65
903.473	3741.99
903.787	3664.48
904.101	3663.58
904.415	3664.03
904.729	3635.55
905.042	3648.44
905.356	3604.59
905.67	3613.18
905.984	3604.14
906.297	3605.95
906.611	3551.49
906.924	3586.52
907.237	3542.9
907.551	3531.15
907.864	3514.2
908.177	3505.16
908.491	3529.34
908.804	3494.09
909.117	3511.04
909.43	3470.36
909.743	3452.06
910.056	3425.84
910.368	3443.02
910.681	3404.83
910.994	3369.8
911.307	3391.27
911.619	3377.03
911.932	3374.09
912.244	3362.34
912.557	3314.88
912.869	3346.3
913.181	3290.25
913.494	3286.41
913.806	3280.31
914.118	3308.56
914.43	3244.6
914.742	3242.8
915.054	3242.12
915.366	3260.42
915.678	3221.78
915.99	3217.94
916.302	3191.95
916.613	3193.53
916.925	3220.42
917.236	3178.39
917.548	3153.98
917.859	3146.08
918.171	3139.97
918.482	3089.81
918.794	3120.54
919.105	3094.1
919.416	3061.33
919.727	3072.18
920.038	3073.99
920.349	3014.1
920.66	3052.07
920.971	3043.71
921.282	3018.85
921.593	2987.44
921.903	2970.71
922.214	2976.59
922.525	2975.01
922.835	2895.91
923.146	2941.56
923.456	2924.39
923.767	2913.54
924.077	2925.97
924.387	2909.92
924.697	2880.09
925.008	2879.87
925.318	2834.67
925.628	2872.41
925.938	2851.17
926.248	2827.44
926.558	2793.09
926.867	2816.82
927.177	2848.91
927.487	2803.71
927.796	2778.18
928.106	2787.89
928.416	2752.41
928.725	2764.39
929.034	2706.09
929.344	2726.88
929.653	2731.4
929.962	2714.22
930.271	2680.1
930.581	2717.61
930.89	2677.61
931.199	2648.01
931.508	2671.96
931.817	2655.69
932.125	2633.77
932.434	2616.37
932.743	2599.88
933.051	2594.23
933.36	2584.96
933.669	2588.35
933.977	2565.07
934.286	2589.48
934.594	2552.87
934.902	2554.9
935.21	2527.56
935.519	2524.85
935.827	2513.32
936.135	2477.39
936.443	2514.68
936.751	2453.21
937.059	2470.61
937.367	2477.84
937.674	2470.84
937.982	2464.06
938.29	2436.49
938.597	2431.74
938.905	2415.47
939.213	2391.75
939.52	2416.38
939.827	2410.05
940.135	2399.65
940.442	2356.72
940.749	2391.97
941.056	2359.2
941.363	2380.22
941.67	2341.35
941.977	2305.42
942.284	2301.8
942.591	2315.36
942.898	2306.78
943.205	2286.66
943.511	2286.44
943.818	2288.7
944.125	2264.52
944.431	2252.54
944.738	2232.43
945.044	2241.01
945.35	2245.53
945.657	2255.93
945.963	2197.85
946.269	2214.57
946.575	2169.83
946.881	2194.46
947.187	2187.46
947.493	2198.76
947.799	2177.74
948.105	2137.29
948.41	2187.91
948.716	2151.75
949.022	2132.54
949.327	2105.42
949.633	2083.96
949.938	2132.54
950.244	2104.29
950.549	2108.81
950.854	2101.58
951.16	2103.84
951.465	2073.34
951.77	2078.08
952.075	2028.59
952.38	2048.7
952.685	2049.38
952.99	2015.94
953.294	2007.8
953.599	2026.78
953.904	2003.96
954.209	1970.97
954.513	1995.37
954.818	1981.36
955.122	2002.6
955.426	1995.15
955.731	1990.63
956.035	1949.95
956.339	1946.56
956.643	1937.52
956.948	1943.62
957.252	1906.79
957.556	1926.9
957.86	1922.15
958.163	1884.87
958.467	1886.45
958.771	1923.73
959.075	1882.61
959.378	1868.14
959.682	1871.53
959.985	1881.7
960.289	1847.13
960.592	1893.91
960.896	1841.03
961.199	1845.54
961.502	1801.48
961.805	1847.13
962.108	1819.78
962.411	1802.61
962.714	1761.93
963.017	1797.64
963.32	1772.78
963.623	1786.56
963.926	1782.04
964.228	1781.82
964.531	1761.48
964.833	1771.87
965.136	1754.7
965.438	1737.07
965.741	1711.99
966.043	1723.51
966.345	1718.99
966.648	1694.36
966.95	1699.56
967.252	1677.41
967.554	1697.98
967.856	1688.71
968.158	1678.32
968.46	1665.21
968.761	1691.65
969.063	1653.91
969.365	1664.31
969.666	1660.01
969.968	1644.65
970.269	1627.7
970.571	1665.21
970.872	1631.09
971.174	1591.54
971.475	1616.4
971.776	1600.35
972.077	1597.19
972.378	1602.84
972.679	1595.38
972.98	1595.38
973.281	1575.95
973.582	1569.62
973.883	1567.81
974.183	1559.68
974.484	1576.4
974.785	1524.88
975.085	1573.46
975.386	1543.18
975.686	1528.49
975.986	1519.45
976.287	1528.94
976.587	1498.89
976.887	1498.66
977.187	1511.99
977.487	1489.17
977.787	1511.32
978.087	1487.81
978.387	1483.75
978.687	1499.34
978.987	1478.32
979.286	1453.01
979.586	1438.1
979.885	1484.88
980.185	1468.38
980.484	1429.96
980.784	1443.52
981.083	1457.08
981.382	1393.35
981.682	1441.49
981.981	1438.78
982.28	1430.41
982.579	1455.95
982.878	1413.01
983.177	1412.11
983.475	1410.98
983.774	1396.29
984.073	1370.53
984.372	1380.7
984.67	1384.54
984.969	1376.18
985.267	1377.76
985.566	1366.24
985.864	1366.24
986.162	1364.65
986.461	1354.71
986.759	1312.45
987.057	1346.8
987.355	1319.46
987.653	1336.41
987.951	1335.5
988.249	1314.03
988.547	1309.06
988.844	1290.76
989.142	1291.21
989.44	1302.06
989.737	1319.91
990.035	1262.51
990.332	1299.34
990.63	1281.72
990.927	1307.93
991.224	1279.01
991.521	1277.42
991.819	1257.54
992.116	1276.07
992.413	1240.59
992.71	1264.09
993.006	1264.77
993.303	1222.06
993.6	1253.92
993.897	1227.93
994.193	1222.51
994.49	1215.28
994.787	1230.19
995.083	1195.62
995.379	1202.62
995.676	1209.18
995.972	1198.33
996.268	1177.54
996.565	1173.92
996.861	1178.67
997.157	1199.69
997.453	1157.2
997.749	1146.13
998.044	1158.11
998.34	1142.74
998.636	1118.78
998.932	1110.65
999.227	1139.12
999.523	1156.98
999.818	1138.44
1000.114	1115.17
1000.409	1100.25
1000.704	1134.83
1001	1100.25
1001.295	1105.45
1001.59	1109.74
1001.885	1090.08
1002.18	1081.72
1002.475	1096.86
1002.77	1075.85
1003.065	1086.02
1003.359	1093.93
1003.654	1054.38
1003.949	1072.01
1004.243	1047.6
1004.538	1051.67
1004.832	1031.78
1005.127	1059.12
1005.421	1045.34
1005.715	1015.96
1006.009	1030.65
1006.304	1021.61
1006.598	1009.63
1006.892	1007.6
1007.186	995.17
1007.48	1002.85
1007.773	991.78
1008.067	981.39
1008.361	977.77
1008.655	984.55
1008.948	985.45
1009.242	964.66
1009.535	981.84
1009.829	966.47
1010.122	966.47
1010.415	943.65
1010.708	959.24
1011.001	951.78
1011.295	928.73
1011.588	929.41
1011.881	918.34
1012.173	937.32
1012.466	934.61
1012.759	946.59
1013.052	931.9
1013.344	926.02
1013.637	933.03
1013.93	930.99
1014.222	910.2
1014.514	913.59
1014.807	911.78
1015.099	908.39
1015.391	875.4
1015.683	869.98
1015.976	873.14
1016.268	879.92
1016.56	851.45
1016.851	854.38
1017.143	860.03
1017.435	842.18
1017.727	850.09
1018.018	855.97
1018.31	832.46
1018.602	863.2
1018.893	832.24
1019.185	822.75
1019.476	837.89
1019.767	818.45
1020.058	816.19
1020.35	830.2
1020.641	818.45
1020.932	826.59
1021.223	807.83
1021.514	795.4
1021.804	806.48
1022.095	789.75
1022.386	780.94
1022.677	760.6
1022.967	783.65
1023.258	782.97
1023.548	754.73
1023.839	770.77
1024.129	765.8
1024.419	761.96
1024.709	751.79
1025	718.57
1025.29	731.45
1025.58	758.12
1025.87	729.42
1026.16	738.23
1026.449	723.77
1026.739	729.87
1027.029	727.61
1027.319	714.05
1027.608	733.26
1027.898	706.37
1028.187	704.33
1028.477	716.31
1028.766	705.01
1029.055	717.44
1029.344	690.32
1029.634	702.52
1029.923	674.73
1030.212	700.72
1030.501	691
1030.79	670.21
1031.078	678.8
1031.367	691.22
1031.656	702.98
1031.945	675.18
1032.233	665.24
1032.522	655.75
1032.81	655.75
1033.099	641.28
1033.387	663.2
1033.675	656.88
1033.963	647.84
1034.251	637.67
1034.54	636.54
1034.828	636.54
1035.116	633.15
1035.403	622.75
1035.691	644.22
1035.979	600.83
1036.267	616.2
1036.554	628.18
1036.842	609.42
1037.129	622.3
1037.417	615.29
1037.704	618.46
1037.992	618.46
1038.279	615.97
1038.566	612.13
1038.853	612.13
1039.14	612.13
