Data from brown_tile_FLMS001491_032.txt Node
Date: Tue Feb 07 10:37:25 GMT 2017
User: dcchb
Spectrometer: FLMS00149
Trigger mode: 0
Integration Time (sec): 2.000000E-2
Scans to average: 10
Electric dark correction enabled: true
Nonlinearity correction enabled: false
Boxcar width: 0
XAxis mode: Wavelengths
Number of Pixels in Spectrum: 2048
>>>>>Begin Spectral Data<<<<<
341.393	2.81
341.776	2.81
342.16	2.81
342.543	-43.52
342.927	-72.67
343.31	-62.05
343.693	-73.57
344.077	-61.82
344.46	-66.57
344.843	-66.57
345.226	-52.56
345.61	-35.83
345.993	-9.84
346.376	-3.29
346.759	14.56
347.142	45.52
347.525	55.46
347.908	46.2
348.291	67.44
348.674	92.3
349.057	110.6
349.44	117.38
349.823	131.85
350.206	159.19
350.588	167.55
350.971	194.9
351.354	212.3
351.737	242.35
352.119	226.08
352.502	244.84
352.884	253.88
353.267	272.18
353.65	287.55
354.032	285.97
354.414	293.88
354.797	300.43
355.179	300.2
355.562	316.93
355.944	316.25
356.326	311.28
356.709	338.17
357.091	329.58
357.473	311.5
357.855	327.32
358.238	348.11
358.62	335.46
359.002	303.59
359.384	325.06
359.766	336.81
360.148	334.1
360.53	329.81
360.912	348.79
361.294	324.61
361.676	331.16
362.057	310.6
362.439	318.51
362.821	313.08
363.203	318.73
363.584	313.76
363.966	308.11
364.348	319.86
364.729	294.78
365.111	314.89
365.493	292.97
365.874	312.86
366.256	296.81
366.637	297.72
367.019	311.73
367.4	287.1
367.781	319.41
368.163	313.99
368.544	317.38
368.925	292.07
369.306	308.34
369.688	292.75
370.069	295.91
370.45	297.49
370.831	295.23
371.212	319.41
371.593	272.86
371.974	293.42
372.355	306.76
372.736	292.97
373.117	290.49
373.498	308.57
373.879	292.07
374.26	297.72
374.641	303.59
375.021	325.51
375.402	298.4
375.783	293.88
376.163	281.45
376.544	324.38
376.925	307.21
377.305	304.27
377.686	305.63
378.066	314.21
378.447	315.12
378.827	322.12
379.208	317.38
379.588	296.81
379.968	305.63
380.349	324.84
380.729	310.83
381.109	336.81
381.489	322.35
381.87	342.46
382.25	323.93
382.63	329.36
383.01	331.16
383.39	322.12
383.77	335.46
384.15	331.84
384.53	328.68
384.91	335.01
385.29	325.97
385.67	339.52
386.049	316.02
386.429	348.56
386.809	320.32
387.189	341.78
387.568	326.64
387.948	322.35
388.328	331.39
388.707	331.84
389.087	332.97
389.466	336.14
389.846	347.66
390.225	355.12
390.605	362.58
390.984	345.4
391.363	355.57
391.743	339.3
392.122	332.75
392.501	346.76
392.881	349.02
393.26	342.01
393.639	350.15
394.018	346.98
394.397	343.82
394.776	335.23
395.155	349.02
395.534	345.17
395.913	391.05
396.292	371.61
396.671	371.84
397.05	354.89
397.429	376.59
397.808	352.63
398.186	362.35
398.565	380.88
398.944	388.34
399.323	366.42
399.701	355.12
400.08	372.97
400.458	375
400.837	378.85
401.215	392.4
401.594	363.93
401.972	379.75
402.351	372.07
402.729	384.5
403.107	392.63
403.486	375.68
403.864	370.03
404.242	384.27
404.62	381.78
404.999	400.31
405.377	433.76
405.755	400.77
406.133	396.02
406.511	408.22
406.889	396.92
407.267	403.03
407.645	395.34
408.023	409.81
408.401	426.08
408.779	404.83
409.156	401.44
409.534	431.95
409.912	423.59
410.29	429.69
410.667	439.18
411.045	415.46
411.422	412.74
411.8	428.79
412.178	439.18
412.555	441.22
412.933	435.34
413.31	457.26
413.687	439.41
414.065	431.05
414.442	437.15
414.819	450.26
415.197	445.74
415.574	465.62
415.951	470.59
416.328	446.64
416.705	449.58
417.082	450.03
417.46	465.17
417.837	444.61
418.214	462.91
418.591	449.8
418.967	464.49
419.344	460.88
419.721	460.65
420.098	463.14
420.475	494.55
420.852	444.61
421.228	469.69
421.605	488.9
421.982	505.62
422.358	480.09
422.735	483.7
423.111	528.22
423.488	479.63
423.864	527.32
424.241	506.07
424.617	503.36
424.994	511.27
425.37	533.42
425.746	506.07
426.123	486.64
426.499	535.68
426.875	520.09
427.251	521.89
427.627	543.81
428.003	519.63
428.379	535
428.756	510.37
429.132	557.82
429.507	549.24
429.883	553.76
430.259	553.98
430.635	549.91
431.011	546.07
431.387	573.87
431.763	560.76
432.138	576.35
432.514	580.65
432.89	577.71
433.265	588.56
433.641	585.39
434.016	590.14
434.392	589.46
434.767	581.1
435.143	605.05
435.518	606.41
435.894	627.65
436.269	611.38
436.644	609.57
437.02	623.59
437.395	615.22
437.77	646.86
438.145	636.24
438.52	624.26
438.895	629.69
439.271	660.19
439.646	641.66
440.021	647.99
440.395	661.55
440.77	665.62
441.145	646.86
441.52	681.44
441.895	681.66
442.27	671.27
442.645	676.47
443.019	665.39
443.394	664.26
443.769	695.22
444.143	696.8
444.518	690.48
444.892	689.57
445.267	710.36
445.641	694.32
446.016	678.95
446.39	710.81
446.764	718.5
447.139	690.93
447.513	719.4
447.887	720.98
448.262	728.22
448.636	718.95
449.01	737.03
449.384	735.9
449.758	728.89
450.132	719.63
450.506	747.42
450.88	740.64
451.254	734.32
451.628	747.65
452.002	755.79
452.376	782
452.75	777.25
453.123	768.89
453.497	802.56
453.871	797.82
454.244	803.24
454.618	786.74
454.992	782.45
455.365	803.69
455.739	809.34
456.112	846.63
456.486	838.49
456.859	836.91
457.232	861.55
457.606	855.44
457.979	840.08
458.352	866.06
458.725	880.98
459.099	866.74
459.472	894.99
459.845	893.63
460.218	893.63
460.591	904.93
460.964	907.65
461.337	930.02
461.71	932.96
462.083	954.65
462.456	986.06
462.829	975.21
463.201	983.35
463.574	979.73
463.947	1000.98
464.32	984.25
464.692	991.03
465.065	1017.25
465.438	1029
465.81	1037.36
466.183	1027.19
466.555	1049.34
466.928	1076.23
467.3	1068.77
467.672	1047.98
468.045	1094.99
468.417	1094.31
468.789	1094.53
469.161	1089.11
469.534	1138.6
469.906	1165.04
470.278	1152.84
470.65	1167.75
471.022	1179.28
471.394	1208.2
471.766	1201.65
472.138	1205.26
472.51	1238.71
472.882	1243.68
473.253	1264.47
473.625	1267.18
473.997	1272.83
474.369	1308.77
474.74	1314.19
475.112	1336.79
475.484	1358.03
475.855	1379.27
476.227	1384.02
476.598	1405.26
476.97	1416.33
477.341	1444.81
477.713	1441.64
478.084	1479.16
478.455	1497.69
478.827	1517.35
479.198	1549.89
479.569	1588.31
479.94	1579.04
480.311	1601.86
480.682	1648.42
481.053	1660.85
481.424	1703.78
481.795	1706.04
482.166	1708.98
482.537	1718.7
482.908	1762.99
483.279	1783.55
483.65	1764.8
484.021	1868.3
484.391	1849.99
484.762	1870.78
485.133	1924.79
485.503	1875.3
485.874	1956.21
486.244	1963.21
486.615	1999.37
486.985	2004.57
487.356	2034.85
487.726	2078.24
488.097	2096.31
488.467	2103.32
488.837	2161.17
489.207	2148.52
489.578	2178.12
489.948	2207.95
490.318	2224.67
490.688	2220.38
491.058	2259.7
491.428	2280.94
491.798	2375.86
492.168	2383.09
492.538	2379.92
492.908	2389.19
493.278	2450.43
493.648	2390.77
494.017	2480.26
494.387	2493.37
494.757	2523.87
495.126	2563.87
495.496	2514.84
495.866	2568.62
496.235	2608.62
496.605	2607.04
496.974	2644.1
497.344	2665.34
497.713	2675.28
498.082	2728.16
498.452	2704.21
498.821	2711.89
499.19	2722.74
499.559	2780.59
499.928	2760.03
500.298	2783.08
500.667	2793.92
501.036	2816.3
501.405	2858.1
501.774	2816.07
502.143	2848.39
502.512	2876.18
502.88	2871.89
503.249	2897.42
503.618	2951.43
503.987	2943.07
504.356	2967.48
504.724	2991.43
505.093	3010.42
505.462	3031.43
505.83	3058.32
506.199	3098.1
506.567	3111.66
506.936	3107.14
507.304	3153.24
507.672	3200.69
508.041	3173.35
508.409	3184.2
508.777	3217.19
509.145	3211.31
509.514	3250.41
509.882	3257.19
510.25	3254.48
510.618	3323.63
510.986	3321.14
511.354	3338.32
511.722	3383.06
512.09	3417.41
512.458	3446.56
512.826	3474.81
513.193	3448.82
513.561	3476.17
513.929	3512.55
514.297	3553.68
514.664	3593.22
515.032	3580.34
515.4	3599.33
515.767	3617.86
516.135	3676.39
516.502	3630.29
516.869	3729.72
517.237	3748.02
517.604	3787.12
517.972	3799.32
518.339	3824.18
518.706	3834.35
519.073	3860.79
519.44	3890.62
519.808	3890.17
520.175	3938.3
520.542	4018.52
520.909	4005.64
521.276	4002.25
521.643	4040.67
522.009	4084.06
522.376	4120.89
522.743	4153.89
523.11	4207.22
523.477	4239.31
523.843	4263.94
524.21	4258.97
524.577	4326.76
524.943	4333.09
525.31	4377.84
525.676	4430.04
526.043	4451.73
526.409	4470.94
526.776	4505.74
527.142	4551.62
527.508	4577.83
527.874	4555.91
528.241	4638.62
528.607	4653.76
528.973	4695.57
529.339	4687.43
529.705	4762.69
530.071	4796.81
530.437	4860.08
530.803	4885.85
531.169	4866.86
531.535	4874.32
531.901	4950.48
532.267	4963.58
532.632	4973.08
532.998	5021.66
533.364	5042.45
533.73	5053.53
534.095	5115.9
534.461	5116.57
534.826	5219.4
535.192	5188.44
535.557	5204.48
535.923	5253.07
536.288	5301.65
536.653	5315.89
537.019	5351.14
537.384	5347.98
537.749	5420.75
538.114	5404.93
538.479	5467.75
538.845	5455.32
539.21	5524.7
539.575	5524.02
539.94	5540.07
540.305	5565.83
540.67	5552.95
541.034	5642.89
541.399	5677.24
541.764	5705.03
542.129	5768.53
542.494	5764.24
542.858	5752.49
543.223	5792.49
543.587	5811.02
543.952	5886.95
544.316	5925.37
544.681	5877.01
545.045	6000.62
545.41	6018.92
545.774	6021.41
546.138	6053.05
546.503	6074.29
546.867	6109.32
547.231	6178.24
547.595	6229.99
547.959	6293.27
548.324	6269.54
548.688	6275.87
549.052	6343.89
549.416	6388.63
549.779	6466.82
550.143	6467.05
550.507	6508.85
550.871	6570.55
551.235	6618.91
551.599	6658.91
551.962	6676.53
552.326	6706.14
552.689	6781.62
553.053	6798.56
553.417	6875.62
553.78	6965.34
554.143	6963.76
554.507	7029.07
554.87	7037.65
555.234	7136.86
555.597	7199.91
555.96	7206.46
556.323	7300.47
556.686	7336.86
557.05	7422.05
557.413	7425.44
557.776	7478.32
558.139	7594.02
558.502	7637.19
558.865	7686.68
559.228	7732.55
559.59	7765.54
559.953	7895.03
560.316	7976.16
560.679	8021.58
561.041	8131.64
561.404	8155.59
561.767	8245.76
562.129	8302.25
562.492	8419.76
562.854	8434.45
563.217	8516.71
563.579	8597.61
563.941	8707.21
564.304	8697.5
564.666	8814.56
565.028	8902.69
565.39	8999.64
565.753	9066.3
566.115	9101.78
566.477	9239.18
566.839	9205.05
567.201	9398.72
567.563	9330.25
567.925	9535.44
568.287	9548.55
568.648	9624.7
569.01	9740.86
569.372	9798.94
569.734	9855.43
570.095	9969.1
570.457	9989.44
570.819	10097.01
571.18	10150.34
571.542	10266.95
571.903	10350.11
572.265	10462.87
572.626	10499.03
572.987	10531.35
573.349	10689.08
573.71	10744.9
574.071	10811.57
574.432	10948.29
574.794	10978.57
575.155	11080.26
575.516	11125.68
575.877	11174.72
576.238	11275.73
576.599	11456.97
576.96	11371.55
577.32	11479.8
577.681	11561.83
578.042	11731.99
578.403	11735.84
578.763	11740.81
579.124	11837.3
579.485	11940.8
579.845	12042.04
580.206	12036.84
580.566	12106.9
580.927	12119.33
581.287	12289.95
581.648	12228.7
582.008	12387.8
582.368	12417.85
582.728	12500.34
583.089	12566.1
583.449	12510.5
583.809	12701.46
584.169	12648.35
584.529	12718.18
584.889	12902.81
585.249	12820.1
585.609	12858.29
585.969	13014.45
586.329	13019.87
586.688	13002.02
587.048	13129.47
587.408	13096.25
587.768	13111.17
588.127	13213.31
588.487	13249.02
588.846	13313.42
589.206	13310.26
589.565	13315
589.925	13483.36
590.284	13464.83
590.643	13517.71
591.003	13559.97
591.362	13643.36
591.721	13667.76
592.08	13668.21
592.44	13766.52
592.799	13763.35
593.158	13817.81
593.517	13869.79
593.876	13901.88
594.235	13933.52
594.593	13953.4
594.952	13998.37
595.311	14046.06
595.67	13988.43
596.029	14178.26
596.387	14178.03
596.746	14239.72
597.104	14227.07
597.463	14240.4
597.822	14276.56
598.18	14336.67
598.538	14282.21
598.897	14429.1
599.255	14338.93
599.613	14616.89
599.972	14491.92
600.33	14566.95
600.688	14484.24
601.046	14615.99
601.404	14620.73
601.762	14660.5
602.12	14737.11
602.478	14735.3
602.836	14745.47
603.194	14800.84
603.552	14797.9
603.91	14764.68
604.268	14898.01
604.625	14872.25
604.983	14977.11
605.341	14819.37
605.698	14960.61
606.056	15058.23
606.413	15034.73
606.771	15115.18
607.128	15171.9
607.485	15173.49
607.843	15191.34
608.2	15274.27
608.557	15303.65
608.914	15215.97
609.272	15318.79
609.629	15370.32
609.986	15396.98
610.343	15444.66
610.7	15581.38
611.057	15481.05
611.414	15544.1
611.771	15518.33
612.127	15591.33
612.484	15682.85
612.841	15702.06
613.198	15589.52
613.554	15574.38
613.911	15709.06
614.267	15767.37
614.624	15765.33
614.98	15854.6
615.337	15862.51
615.693	15824.77
616.05	15770.53
616.406	15932.56
616.762	15923.3
617.118	15977.08
617.475	15907.48
617.831	15940.92
618.187	16010.98
618.543	15940.7
618.899	16070.86
619.255	16030.19
619.611	16160.58
619.967	16063.18
620.323	16155.38
620.678	16138.43
621.034	16086.68
621.39	16109.28
621.746	16107.7
622.101	16307.01
622.457	16289.39
622.812	16299.11
623.168	16330.06
623.523	16237.41
623.879	16389.05
624.234	16217.3
624.589	16273.34
624.945	16334.81
625.3	16352.66
625.655	16268.37
626.01	16409.38
626.365	16395.15
626.72	16368.93
627.075	16369.39
627.43	16430.4
627.785	16338.43
628.14	16375.94
628.495	16407.58
628.85	16307.69
629.205	16371.87
629.559	16421.59
629.914	16322.38
630.269	16320.57
630.623	16318.31
630.978	16312.66
631.332	16459.1
631.687	16351.08
632.041	16307.01
632.396	16326.9
632.75	16282.38
633.104	16299.33
633.459	16252.1
633.813	16318.54
634.167	16361.93
634.521	16269.05
634.875	16319.67
635.229	16264.76
635.583	16170.97
635.937	16227.92
636.291	16157.41
636.645	16206.45
636.999	16173.01
637.352	16191.09
637.706	16098.21
638.06	16197.64
638.413	16156.51
638.767	16057.53
639.121	16204.87
639.474	16127.58
639.828	16038.1
640.181	16121.71
640.534	16110.18
640.888	16080.35
641.241	15933.24
641.594	15934.37
641.947	16098.66
642.301	15982.5
642.654	15984.31
643.007	16017.98
643.36	16017.53
643.713	15993.12
644.066	15946.8
644.419	15969.4
644.771	15822.51
645.124	15724.43
645.477	15601.95
645.83	15521.05
646.182	15501.61
646.535	15438.11
646.888	15591.33
647.24	15489.18
647.593	15583.64
647.945	15461.16
648.298	15429.3
648.65	15383.2
649.002	15353.59
649.355	15450.77
649.707	15358.79
650.059	15477.43
650.411	15628.16
650.763	15660.7
651.115	15857.76
651.467	15760.14
651.819	15807.14
652.171	15790.87
652.523	15702.28
652.875	15726.01
653.227	15683.08
653.578	15779.8
653.93	15718.33
654.282	15752.91
654.633	15591.55
654.985	15784.54
655.337	15730.53
655.688	15722.4
656.039	15681.04
656.391	15653.02
656.742	15665.9
657.094	15708.16
657.445	15733.24
657.796	15725.56
658.147	15681.95
658.498	15639.24
658.849	15780.02
659.2	15694.83
659.551	15663.19
659.902	15743.19
660.253	15735.5
660.604	15709.52
660.955	15609.63
661.306	15819.8
661.656	15768.5
662.007	15726.69
662.358	15768.27
662.708	15786.8
663.059	15675.17
663.409	15625.9
663.76	15769.85
664.11	15804.88
664.461	15754.94
664.811	15829.97
665.161	15695.96
665.511	15682.62
665.862	15754.03
666.212	15853.02
666.562	15758.33
666.912	15751.55
667.262	15899.57
667.612	15755.62
667.962	15802.85
668.312	15791.32
668.662	15822.96
669.011	15808.95
669.361	15826.58
669.711	15844.88
670.06	15786.58
670.41	15815.73
670.76	15752.23
671.109	15895.05
671.459	15836.97
671.808	15853.02
672.157	15869.51
672.507	15754.94
672.856	15786.58
673.205	15859.34
673.554	15840.36
673.904	15819.34
674.253	15904.77
674.602	15895.27
674.951	15607.15
675.3	15585.45
675.649	15780.02
675.998	15867.25
676.346	15816.41
676.695	15853.69
677.044	15776.18
677.393	15740.25
677.741	15911.54
678.09	15859.79
678.438	15762.17
678.787	15796.07
679.135	15914.93
679.484	15769.85
679.832	15730.31
680.181	15663.42
680.529	15772.11
680.877	15711.78
681.225	15729.63
681.573	15816.63
681.922	15721.27
682.27	15757.42
682.618	15768.27
682.966	15696.86
683.314	15780.25
683.661	15726.69
684.009	15653.7
684.357	15647.82
684.705	15610.54
685.053	15661.16
685.4	15642.85
685.748	15579.12
686.095	15648.95
686.443	15558.56
686.79	15448.96
687.138	15585
687.485	15527.83
687.832	15533.25
688.18	15613.47
688.527	15450.77
688.874	15527.83
689.221	15512.91
689.568	15430.88
689.915	15257.1
690.262	15462.52
690.609	15363.08
690.956	15323.09
691.303	15264.56
691.65	15258.45
691.997	15247.83
692.344	15225.69
692.69	15127.84
693.037	15164.67
693.383	15125.58
693.73	15194.5
694.077	15139.14
694.423	15075.63
694.769	15060.04
695.116	15002.42
695.462	14994.51
695.808	15086.93
696.155	15013.04
696.501	14880.39
696.847	14883.32
697.193	14839.26
697.539	14865.02
697.885	14871.12
698.231	14832.93
698.577	14779.6
698.923	14807.17
699.269	14707.51
699.614	14655.08
699.96	14677.45
700.306	14633.61
700.651	14574.86
700.997	14568.3
701.342	14593.16
701.688	14561.98
702.033	14509.55
702.379	14550.68
702.724	14510.45
703.069	14515.88
703.415	14339.61
703.76	14359.5
704.105	14456.22
704.45	14391.13
704.795	14316.11
705.14	14175.77
705.485	14229.56
705.83	14302.32
706.175	14310.01
706.52	14188.65
706.865	14108.65
707.209	14133.06
707.554	14117.47
707.899	14183.23
708.243	14107.3
708.588	14066.17
708.932	14001.54
709.277	14043.12
709.621	14025.72
709.966	13959.73
710.31	14031.59
710.654	13932.61
710.998	13905.5
711.342	13957.47
711.687	13935.33
712.031	13917.25
712.375	13894.65
712.719	13814.42
713.063	13884.03
713.407	13894.42
713.75	13783.01
714.094	13779.62
714.438	13759.74
714.782	13800.87
715.125	13733.07
715.469	13748.66
715.812	13679.97
716.156	13678.84
716.499	13691.26
716.843	13707.54
717.186	13637.71
717.53	13741.21
717.873	13674.77
718.216	13648.33
718.559	13615.33
718.902	13493.3
719.246	13632.96
719.589	13505.96
719.932	13438.62
720.275	13508.9
720.617	13536.47
720.96	13530.59
721.303	13442.01
721.646	13461.67
721.989	13451.72
722.331	13524.26
722.674	13479.74
723.016	13452.4
723.359	13442.01
723.701	13428.67
724.044	13315.23
724.386	13256.47
724.729	13377.15
725.071	13318.62
725.413	13312.74
725.755	13285.63
726.097	13324.04
726.439	13253.54
726.782	13303.48
727.124	13279.52
727.465	13269.58
727.807	13211.5
728.149	13248.56
728.491	13211.5
728.833	13251.05
729.175	13230.94
729.516	13120.66
729.858	13213.54
730.199	13237.49
730.541	13184.38
730.882	13138.51
731.224	13235.68
731.565	13143.71
731.906	13142.35
732.248	13093.31
732.589	13107.55
732.93	13004.5
733.271	12992.75
733.612	13114.1
733.953	13118.62
734.294	12995.01
734.635	13017.16
734.976	12996.37
735.317	13015.35
735.658	12981.45
735.999	12920.89
736.339	12924.5
736.68	12999.31
737.021	12985.75
737.361	12856.03
737.702	12993.66
738.042	12896.71
738.383	12861
738.723	12872.3
739.063	12772.87
739.404	12888.35
739.744	12760.67
740.084	12772.42
740.424	12805.41
740.764	12727
741.104	12692.19
741.444	12676.38
741.784	12657.17
742.124	12663.27
742.464	12744.62
742.804	12696.94
743.143	12611.52
743.483	12618.75
743.823	12583.04
744.162	12607.68
744.502	12534.01
744.841	12530.39
745.181	12589.15
745.52	12452.88
745.86	12544.18
746.199	12489.71
746.538	12531.97
746.877	12543.05
747.216	12499.88
747.556	12415.37
747.895	12521.8
748.234	12414.24
748.573	12343.28
748.911	12399.32
749.25	12424.63
749.589	12269.83
749.928	12281.13
750.267	12366.55
750.605	12318.87
750.944	12179.21
751.283	12198.87
751.621	12307.12
751.96	12219.89
752.298	12191.87
752.636	12166.33
752.975	12040.01
753.313	12036.84
753.651	12140.57
753.989	12005.88
754.327	12105.54
754.666	11992.1
755.004	11924.08
755.342	11953.46
755.679	11980.8
756.017	11897.64
756.355	11911.88
756.693	11835.04
757.031	11833.91
757.368	11758.43
757.706	11712.79
758.044	11689.74
758.381	11746.68
758.719	11669.17
759.056	11695.38
759.394	11618.1
759.731	11535.61
760.068	11538.78
760.405	11505.11
760.743	11427.37
761.08	11522.28
761.417	11407.26
761.754	11326.13
762.091	11310.54
762.428	11369.52
762.765	11216.53
763.102	11299.46
763.438	11199.8
763.775	11165.23
764.112	11227.83
764.449	11223.53
764.785	11141.5
765.122	11108.51
765.458	11021.05
765.795	10948.29
766.131	10894.28
766.467	10887.5
766.804	10852.24
767.14	10794.84
767.476	10789.42
767.812	10727.27
768.148	10770.89
768.485	10636.2
768.821	10602.76
769.157	10619.71
769.492	10579.26
769.828	10544
770.164	10437.34
770.5	10484.79
770.836	10370.9
771.171	10321.18
771.507	10333.84
771.842	10251.58
772.178	10263.33
772.513	10264.01
772.849	10204.8
773.184	10195.09
773.519	10110.79
773.855	10142.66
774.19	10059.95
774.525	9973.85
774.86	10055.2
775.195	9899.95
775.53	9873.96
775.865	9943.11
776.2	9847.98
776.535	9744.02
776.87	9671.93
777.205	9739.73
777.539	9673.06
777.874	9694.99
778.209	9561.2
778.543	9590.58
778.878	9508.78
779.212	9479.85
779.547	9435.56
779.881	9366.18
780.215	9324.6
780.55	9346.97
780.884	9309.46
781.218	9301.55
781.552	9307.2
781.886	9221.33
782.22	9128.9
782.554	9162.57
782.888	9059.52
783.222	9020.65
783.556	8954.67
783.889	8989.69
784.223	8881.9
784.557	8845.06
784.89	8934.78
785.224	8819.98
785.557	8804.16
785.891	8722.13
786.224	8720.1
786.558	8709.7
786.891	8628.8
787.224	8622.7
787.557	8575.24
787.891	8621.12
788.224	8537.73
788.557	8518.52
788.89	8474.23
789.223	8460.22
789.556	8436.26
789.888	8321.91
790.221	8375.25
790.554	8266.55
790.887	8254.57
791.219	8285.53
791.552	8214.8
791.884	8187.91
792.217	8144.52
792.549	8107.23
792.882	8083.5
793.214	8102.94
793.546	8017.29
793.879	8026.33
794.211	7976.39
794.543	7959.21
794.875	7893.68
795.207	7987.91
795.539	7886.67
795.871	7829.95
796.203	7789.5
796.535	7790.63
796.867	7718.09
797.198	7677.86
797.53	7680.12
797.862	7683.51
798.193	7615.49
798.525	7628.37
798.856	7649.16
799.188	7495.5
799.519	7454.14
799.85	7493.91
800.182	7427.93
800.513	7446.91
800.844	7455.5
801.175	7399.23
801.506	7370.53
801.837	7366.23
802.168	7326.01
802.499	7269.51
802.83	7241.49
803.161	7140.48
803.491	7242.17
803.822	7195.39
804.153	7167.82
804.483	7137.31
804.814	7073.36
805.145	7067.94
805.475	7103.41
805.805	6994.27
806.136	7038.78
806.466	7011.44
806.796	7009.63
807.126	6877.66
807.457	6927.37
807.787	6883.31
808.117	6863.87
808.447	6839.24
808.777	6846.7
809.107	6850.99
809.436	6758.11
809.766	6807.15
810.096	6715.18
810.426	6651.68
810.755	6681.51
811.085	6731
811.414	6716.76
811.744	6577.78
812.073	6583.2
812.403	6593.6
812.732	6584.56
813.061	6563.32
813.39	6522.87
813.719	6496.2
814.049	6513.6
814.378	6496.65
814.707	6497.78
815.036	6465.92
815.365	6387.28
815.693	6355.86
816.022	6370.33
816.351	6316.32
816.68	6286.04
817.008	6326.26
817.337	6276.54
817.665	6269.31
817.994	6251.91
818.322	6245.58
818.651	6214.4
818.979	6203.78
819.307	6191.35
819.636	6188.41
819.964	6152.48
820.292	6142.08
820.62	6124.23
820.948	6161.74
821.276	6139.37
821.604	6102.31
821.932	6128.75
822.259	6105.25
822.587	6099.15
822.915	6102.76
823.243	6094.85
823.57	6047.62
823.898	6120.16
824.225	6084.01
824.553	6023.22
824.88	6077.45
825.207	6108.86
825.535	6041.52
825.862	6021.18
826.189	6054.63
826.516	6077
826.843	6093.05
827.17	6061.86
827.497	6033.16
827.824	6020.51
828.151	6019.38
828.478	6019.6
828.805	6075.87
829.131	6033.61
829.458	5957.46
829.785	5987.06
830.111	5992.26
830.438	6103.67
830.764	5967.17
831.09	5966.5
831.417	5932.82
831.743	5953.16
832.069	5954.29
832.395	5955.42
832.722	5922.66
833.048	5956.1
833.374	5906.61
833.7	5889.21
834.026	5851.92
834.351	5921.07
834.677	5880.85
835.003	5856.22
835.329	5882.2
835.654	5846.5
835.98	5821.41
836.306	5837.23
836.631	5816.9
836.956	5804.69
837.282	5777.57
837.607	5800.17
837.932	5772.83
838.258	5747.07
838.583	5788.2
838.908	5679.72
839.233	5735.77
839.558	5724.02
839.883	5715.65
840.208	5698.25
840.533	5704.13
840.858	5672.04
841.182	5680.4
841.507	5677.92
841.832	5615.77
842.156	5569.67
842.481	5667.52
842.805	5583
843.13	5562.21
843.454	5566.51
843.778	5537.58
844.103	5515.66
844.427	5497.13
844.751	5532.83
845.075	5522.67
845.399	5481.54
845.723	5478.37
846.047	5445.15
846.371	5394.99
846.695	5436.57
847.019	5381.65
847.343	5392.73
847.666	5320.41
847.99	5321.99
848.313	5334.2
848.637	5254.42
848.96	5253.75
849.284	5241.77
849.607	5139.17
849.931	5161.55
850.254	5129.46
850.577	5109.12
850.9	5102.79
851.223	5060.53
851.546	5030.93
851.869	4981.21
852.192	5014.66
852.515	5011.49
852.838	4973.08
853.161	4998.84
853.483	4942.34
853.806	4895.79
854.129	4911.16
854.451	4933.08
854.774	4886.07
855.096	4833.19
855.419	4891.72
855.741	4796.58
856.063	4775.34
856.385	4840.2
856.708	4774.44
857.03	4770.37
857.352	4810.82
857.674	4726.3
857.996	4730.6
858.318	4738.05
858.64	4740.09
858.961	4731.05
859.283	4680.65
859.605	4652.86
859.926	4662.8
860.248	4657.83
860.57	4628
860.891	4623.03
861.212	4632.97
861.534	4602.01
861.855	4568.57
862.176	4598.4
862.498	4585.74
862.819	4548.45
863.14	4560.66
863.461	4535.8
863.782	4482.47
864.103	4507.32
864.424	4482.92
864.745	4523.37
865.065	4448.57
865.386	4487.89
865.707	4486.31
866.027	4460.32
866.348	4435.01
866.668	4453.09
866.989	4401.57
867.309	4393.66
867.63	4406.99
867.95	4423.71
868.27	4389.36
868.59	4451.96
868.91	4367.44
869.23	4363.37
869.55	4356.37
869.87	4393.2
870.19	4336.26
870.51	4347.56
870.83	4349.14
871.15	4326.99
871.469	4368.12
871.789	4312.75
872.109	4318.86
872.428	4297.61
872.748	4324.28
873.067	4286.77
873.386	4304.39
873.706	4309.59
874.025	4246.99
874.344	4237.73
874.663	4238.41
874.982	4222.13
875.301	4238.18
875.62	4187.11
875.939	4235.02
876.258	4206.09
876.577	4223.26
876.896	4183.27
877.214	4198.18
877.533	4184.4
877.852	4206.54
878.17	4169.48
878.489	4165.87
878.807	4181.23
879.125	4146.2
879.444	4130.84
879.762	4126.54
880.08	4119.54
880.398	4042.25
880.716	4111.18
881.034	4083.38
881.352	4049.26
881.67	4102.14
881.988	4053.1
882.306	4048.13
882.624	4038.41
882.941	4011.74
883.259	4037.73
883.577	4039.99
883.894	3997.28
884.212	4025.76
884.529	3997.06
884.846	3990.95
885.164	4011.29
885.481	3951.41
885.798	3945.53
886.115	3952.54
886.432	3908.24
886.75	3947.79
887.067	3894.46
887.383	3905.76
887.7	3909.37
888.017	3898.08
888.334	3901.92
888.651	3864.63
888.967	3884.97
889.284	3883.39
889.6	3847.46
889.917	3816.95
890.233	3835.7
890.55	3812.88
890.866	3789.15
891.182	3807.46
891.498	3767.01
891.815	3764.29
892.131	3792.32
892.447	3747.12
892.763	3736.95
893.079	3744.86
893.395	3734.24
893.71	3709.15
894.026	3674.58
894.342	3677.29
894.657	3711.87
894.973	3677.52
895.289	3655.6
895.604	3655.82
895.92	3608.37
896.235	3663.05
896.55	3612.43
896.865	3632.09
897.181	3596.84
897.496	3576.5
897.811	3609.95
898.126	3584.64
898.441	3519.1
898.756	3553.23
899.071	3530.85
899.386	3549.16
899.7	3493.34
900.015	3480.01
900.33	3472.55
900.644	3503.28
900.959	3501.48
901.273	3494.47
901.588	3452.44
901.902	3422.38
902.216	3434.36
902.531	3413.12
902.845	3395.49
903.159	3391.2
903.473	3363.4
903.787	3350.07
904.101	3369.95
904.415	3321.14
904.729	3324.53
905.042	3315.94
905.356	3322.27
905.67	3301.26
905.984	3329.95
906.297	3261.93
906.611	3238.88
906.924	3246.12
907.237	3261.93
907.551	3245.44
907.864	3221.71
908.177	3256.96
908.491	3207.25
908.804	3226.91
909.117	3171.77
909.43	3175.83
909.743	3204.99
910.056	3157.53
910.368	3107.59
910.681	3111.43
910.994	3105.78
911.307	3085.22
911.619	3096.51
911.932	3054.48
912.244	3072.56
912.557	3084.76
912.869	3058.32
913.181	3030.53
913.494	2977.87
913.806	3041.37
914.118	2974.71
914.43	2970.42
914.742	3001.83
915.054	2944.43
915.366	2953.69
915.678	2930.64
915.99	2932.45
916.302	2928.84
916.613	2885.45
916.925	2902.62
917.236	2873.02
917.548	2865.79
917.859	2874.15
918.171	2857.88
918.482	2795.73
918.794	2823.53
919.105	2847.26
919.416	2791.66
919.727	2795.96
920.038	2774.49
920.349	2775.62
920.66	2748.95
920.971	2776.52
921.282	2759.8
921.593	2707.82
921.903	2717.99
922.214	2672.34
922.525	2703.3
922.835	2712.34
923.146	2685.45
923.456	2671.44
923.767	2661.05
924.077	2617.88
924.387	2630.99
924.697	2628.96
925.008	2613.82
925.318	2595.06
925.628	2589.64
925.938	2595.28
926.248	2590.09
926.558	2567.94
926.867	2575.17
927.177	2576.3
927.487	2556.19
927.796	2509.41
928.106	2520.03
928.416	2485.68
928.725	2522.97
929.034	2489.98
929.344	2518.22
929.653	2489.98
929.962	2476.64
930.271	2489.52
930.581	2462.86
930.89	2470.09
931.199	2420.37
931.508	2410.2
931.817	2429.64
932.125	2381.96
932.434	2416.98
932.743	2407.04
933.051	2398.45
933.36	2400.26
933.669	2379.25
933.977	2334.95
934.286	2352.35
934.594	2353.94
934.902	2305.57
935.21	2314.39
935.519	2321.17
935.827	2303.77
936.135	2253.82
936.443	2277.78
936.751	2227.38
937.059	2266.25
937.367	2266.93
937.674	2255.86
937.982	2221.28
938.29	2248.18
938.597	2235.97
938.905	2220.38
939.213	2222.64
939.52	2168.86
939.827	2195.75
940.135	2172.02
940.442	2193.04
940.749	2196.2
941.056	2171.12
941.363	2129.99
941.67	2157.1
941.977	2143.09
942.284	2126.6
942.591	2131.34
942.898	2125.01
943.205	2098.35
943.511	2064
943.818	2104.45
944.125	2068.07
944.431	2087.05
944.738	2063.32
945.044	2079.14
945.35	2028.29
945.657	2060.38
945.963	2047.5
946.269	2028.07
946.575	2013.15
946.881	1980.84
947.187	2001.85
947.493	2007.96
947.799	1974.96
948.105	1997.79
948.41	1963.44
948.716	1995.3
949.022	1940.84
949.327	1960.05
949.633	1910.33
949.938	1928.18
950.244	1941.06
950.549	1930.44
950.854	1939.71
951.16	1914.85
951.465	1888.18
951.77	1892.48
952.075	1909.88
952.38	1872.14
952.685	1901.29
952.99	1891.57
953.294	1875.76
953.599	1844.12
953.904	1847.06
954.209	1847.73
954.513	1856.55
954.818	1832.14
955.122	1834.17
955.426	1843.44
955.731	1772.48
956.035	1824.68
956.339	1794.18
956.643	1810.45
956.948	1801.86
957.252	1757.79
957.556	1781.75
957.86	1794.63
958.163	1777.68
958.467	1730.67
958.771	1726.83
959.075	1775.87
959.378	1736.55
959.682	1739.26
959.985	1723.22
960.289	1703.56
960.592	1696.78
960.896	1709.21
961.199	1673.28
961.502	1727.29
961.805	1677.57
962.108	1659.49
962.411	1667.63
962.714	1626.04
963.017	1642.77
963.32	1678.92
963.623	1635.31
963.926	1624.46
964.228	1625.37
964.531	1657.23
964.833	1620.17
965.136	1615.65
965.438	1639.6
965.741	1581.3
966.043	1618.81
966.345	1582.43
966.648	1575.2
966.95	1581.3
967.252	1576.33
967.554	1557.8
967.856	1552.37
968.158	1558.48
968.46	1570.91
968.761	1536.33
969.063	1550.11
969.365	1527.52
969.666	1540.62
969.968	1543.79
970.269	1498.36
970.571	1510.12
970.872	1523.67
971.174	1510.57
971.475	1479.83
971.776	1489.78
972.077	1480.96
972.378	1469.21
972.679	1439.38
972.98	1476.22
973.281	1455.88
973.582	1448.42
973.883	1444.58
974.183	1453.62
974.484	1439.84
974.785	1429.21
975.085	1448.42
975.386	1412.04
975.686	1417.46
975.986	1411.36
976.287	1420.63
976.587	1403.23
976.887	1377.69
977.187	1398.03
977.487	1399.84
977.787	1386.96
978.087	1373.85
978.387	1364.36
978.687	1368.65
978.987	1358.26
979.286	1374.07
979.586	1391.25
979.885	1347.41
980.185	1354.87
980.484	1341.76
980.784	1342.21
981.083	1334.08
981.382	1332.27
981.682	1337.46
981.981	1316.67
982.28	1322.32
982.579	1335.88
982.878	1318.26
983.177	1306.28
983.475	1294.53
983.774	1266.28
984.073	1290.91
984.372	1294.08
984.67	1252.95
984.969	1266.96
985.267	1269.22
985.566	1285.94
985.864	1275.55
986.162	1271.25
986.461	1234.64
986.759	1269.22
987.057	1262.89
987.355	1251.59
987.653	1235.09
987.951	1250.01
988.249	1250.24
988.547	1213.63
988.844	1246.85
989.142	1219.5
989.44	1172.5
989.737	1204.14
990.035	1182.44
990.332	1204.81
990.63	1198.49
990.927	1195.77
991.224	1184.25
991.521	1196.23
991.819	1171.37
992.116	1197.13
992.413	1178.15
992.71	1151.26
993.006	1152.61
993.303	1155.1
993.6	1149.45
993.897	1143.57
994.193	1122.33
994.49	1146.74
994.787	1137.47
995.083	1119.62
995.379	1131.14
995.676	1144.7
995.972	1123.01
996.268	1118.71
996.565	1094.99
996.861	1099.73
997.157	1073.97
997.453	1090.24
997.749	1085.72
998.044	1076.45
998.34	1064.25
998.636	1073.52
998.932	1069.68
999.227	1058.15
999.523	1061.77
999.818	1042.11
1000.114	1064.25
1000.409	1049.79
1000.704	1055.44
1001	1030.81
1001.295	1047.75
1001.59	1024.48
1001.885	1003.46
1002.18	1040.75
1002.475	997.13
1002.77	1025.16
1003.065	1005.95
1003.359	993.07
1003.654	988.77
1003.949	987.64
1004.243	959.4
1004.538	986.74
1004.832	990.36
1005.127	980.19
1005.421	1010.47
1005.715	972.73
1006.009	959.4
1006.304	979.28
1006.598	948.77
1006.892	952.39
1007.186	937.02
1007.48	962.11
1007.773	973.63
1008.067	955.55
1008.361	925.72
1008.655	916.23
1008.948	902.67
1009.242	923.24
1009.535	917.36
1009.829	912.39
1010.122	910.81
1010.415	897.7
1010.708	906.29
1011.001	913.07
1011.295	918.72
1011.588	881.66
1011.881	875.1
1012.173	890.7
1012.466	882.11
1012.759	872.17
1013.052	883.01
1013.344	871.04
1013.637	836.69
1013.93	847.99
1014.222	858.61
1014.514	877.14
1014.807	840.3
1015.099	838.27
1015.391	826.07
1015.683	835.78
1015.976	809.57
1016.268	836.69
1016.56	819.96
1016.851	814.99
1017.143	827.65
1017.435	796.69
1017.727	806.86
1018.018	822.68
1018.31	803.92
1018.602	778.16
1018.893	797.14
1019.185	796.46
1019.476	798.04
1019.767	767.54
1020.058	790.13
1020.35	771.6
1020.641	781.55
1020.932	772.96
1021.223	760.53
1021.514	775.45
1021.804	743.81
1022.095	742.9
1022.386	743.13
1022.677	758.05
1022.967	744.71
1023.258	754.2
1023.548	718.95
1023.839	724.6
1024.129	711.27
1024.419	714.43
1024.709	718.95
1025	749.01
1025.29	704.26
1025.58	720.98
1025.87	690.93
1026.16	736.35
1026.449	699.52
1026.739	709.68
1027.029	708.1
1027.319	680.08
1027.608	672.17
1027.898	702.45
1028.187	678.5
1028.477	666.07
1028.766	660.87
1029.055	656.8
1029.344	665.62
1029.634	673.98
1029.923	669.01
1030.212	632.4
1030.501	640.31
1030.79	647.09
1031.078	650.03
1031.367	650.48
1031.656	636.01
1031.945	639.63
1032.233	626.52
1032.522	665.62
1032.81	640.53
1033.099	622
1033.387	612.96
1033.675	611.83
1033.963	606.41
1034.251	630.59
1034.54	603.92
1034.828	591.72
1035.116	605.51
1035.403	592.4
1035.691	578.84
1035.979	624.49
1036.267	605.96
1036.554	603.47
1036.842	591.27
1037.129	590.37
1037.417	594.66
1037.704	595.34
1037.992	583.59
1038.279	570.25
1038.566	587.88
1038.853	587.88
1039.14	587.88
