Data from brown_tile_FLMS001491_007.txt Node
Date: Tue Feb 07 10:37:00 GMT 2017
User: dcchb
Spectrometer: FLMS00149
Trigger mode: 0
Integration Time (sec): 2.000000E-2
Scans to average: 10
Electric dark correction enabled: true
Nonlinearity correction enabled: false
Boxcar width: 0
XAxis mode: Wavelengths
Number of Pixels in Spectrum: 2048
>>>>>Begin Spectral Data<<<<<
341.393	0.92
341.776	0.92
342.16	0.92
342.543	-46.54
342.927	-67.55
343.31	-56.26
343.693	-71.62
344.077	-72.07
344.46	-56.71
344.843	-39.98
345.226	-49.93
345.61	-25.07
345.993	-21.45
346.376	-6.54
346.759	-1.12
347.142	29.62
347.525	39.11
347.908	58.77
348.291	66.45
348.674	93.12
349.057	113.68
349.44	127.69
349.823	153.23
350.206	148.71
350.588	180.57
350.971	204.08
351.354	218.09
351.737	222.38
352.119	235.94
352.502	264.19
352.884	263.28
353.267	264.64
353.65	282.27
354.032	292.21
354.414	284.53
354.797	299.89
355.179	323.85
355.562	302.61
355.944	299.44
356.326	324.98
356.709	311.42
357.091	320.91
357.473	335.82
357.855	330.85
358.238	332.89
358.62	324.07
359.002	342.38
359.384	323.62
359.766	322.72
360.148	295.15
360.53	323.62
360.912	324.3
361.294	323.62
361.676	324.07
362.057	319.78
362.439	303.96
362.821	321.14
363.203	311.19
363.584	294.47
363.966	320.23
364.348	297.63
364.729	315.94
365.111	315.03
365.493	311.87
365.874	301.25
366.256	310.74
366.637	309.61
367.019	299.89
367.4	326.33
367.781	292.89
368.163	317.07
368.544	304.64
368.925	308.03
369.306	295.15
369.688	320.68
370.069	289.95
370.45	316.16
370.831	302.38
371.212	306.45
371.593	303.96
371.974	306.67
372.355	312.55
372.736	316.16
373.117	315.94
373.498	310.06
373.879	328.14
374.26	323.17
374.641	293.79
375.021	281.81
375.402	306.67
375.783	330.4
376.163	320.68
376.544	299.89
376.925	320.68
377.305	318.65
377.686	331.3
378.066	308.25
378.447	317.97
378.827	296.05
379.208	331.76
379.588	324.53
379.968	319.33
380.349	323.62
380.729	345.32
381.109	328.82
381.489	322.72
381.87	336.28
382.25	321.36
382.63	319.33
383.01	322.94
383.39	332.66
383.77	329.05
384.15	348.71
384.53	333.79
384.91	332.89
385.29	351.19
385.67	351.64
386.049	362.49
386.429	324.98
386.809	353
387.189	344.64
387.568	341.02
387.948	344.86
388.328	331.3
388.707	333.79
389.087	345.09
389.466	344.19
389.846	339.67
390.225	368.14
390.605	360.68
390.984	349.38
391.363	345.32
391.743	339.67
392.122	369.27
392.501	355.03
392.881	380.12
393.26	370.63
393.639	389.61
394.018	382.83
394.397	365.65
394.776	357.74
395.155	382.15
395.534	398.65
395.913	358.87
396.292	396.16
396.671	393.68
397.05	375.82
397.429	395.48
397.808	374.24
398.186	384.86
398.565	389.38
398.944	380.57
399.323	393.22
399.701	390.51
400.08	399.55
400.458	404.3
400.837	395.03
401.215	403.62
401.594	402.94
401.972	400.46
402.351	388.93
402.729	389.38
403.107	412.21
403.486	388.7
403.864	404.3
404.242	377.41
404.62	393.9
404.999	388.03
405.377	398.65
405.755	419.44
406.133	407.01
406.511	422.83
406.889	409.49
407.267	422.83
407.645	420.79
408.023	418.53
408.401	428.7
408.779	450.17
409.156	409.27
409.534	424.18
409.912	422.38
410.29	439.1
410.667	458.76
411.045	452.21
411.422	440.91
411.8	432.09
412.178	457.18
412.555	463.5
412.933	485.43
413.31	447.69
413.687	460.79
414.065	457.86
414.442	468.48
414.819	478.19
415.197	458.53
415.574	484.3
415.951	480
416.328	494.24
416.705	489.72
417.082	468.48
417.46	487.23
417.837	477.06
418.214	466.89
418.591	481.58
418.967	493.11
419.344	498.76
419.721	508.25
420.098	487.91
420.475	530.4
420.852	501.47
421.228	513.22
421.605	524.97
421.982	516.38
422.358	520
422.735	525.42
423.111	532.88
423.488	521.13
423.864	539.89
424.241	544.41
424.617	531.3
424.994	534.01
425.37	534.24
425.746	538.76
426.123	562.94
426.499	557.74
426.875	562.71
427.251	591.19
427.627	583.05
428.003	589.15
428.379	569.04
428.756	591.86
429.132	580.56
429.507	591.41
429.883	591.86
430.259	586.44
430.635	598.64
431.011	590.51
431.387	607.91
431.763	614.69
432.138	651.52
432.514	626.89
432.89	613.33
433.265	629.38
433.641	640.9
434.016	632.77
434.392	672.31
434.767	666.89
435.143	648.36
435.518	652.2
435.894	659.66
436.269	696.04
436.644	674.12
437.02	680.67
437.395	675.93
437.77	710.96
438.145	693.1
438.52	708.02
438.895	706.21
439.271	702.14
439.646	709.15
440.021	724.06
440.395	741.92
440.77	728.36
441.145	721.13
441.52	731.97
441.895	741.46
442.27	763.16
442.645	748.7
443.019	730.84
443.394	750.73
443.769	772.88
444.143	780.33
444.518	775.59
444.892	773.33
445.267	771.07
445.641	783.72
446.016	794.12
446.39	778.3
446.764	788.02
447.139	803.61
447.513	803.38
447.887	800.45
448.262	809.94
448.636	802.03
449.01	817.62
449.384	830.73
449.758	828.24
450.132	810.16
450.506	820.56
450.88	840.44
451.254	824.4
451.628	865.98
452.002	850.16
452.376	871.4
452.75	875.7
453.123	873.44
453.497	881.8
453.871	893.32
454.244	894.68
454.618	934.9
454.992	908.46
455.365	917.73
455.739	927.9
456.112	946.43
456.486	948.46
456.859	939.88
457.232	952.53
457.606	953.89
457.979	975.13
458.352	983.94
458.725	1016.48
459.099	1000.44
459.472	1029.59
459.845	1018.29
460.218	1045.41
460.591	1048.8
460.964	1054.45
461.337	1046.77
461.71	1065.07
462.083	1098.97
462.456	1075.92
462.829	1092.87
463.201	1102.81
463.574	1110.27
463.947	1121.79
464.32	1166.76
464.692	1145.07
465.065	1154.79
465.438	1175.58
465.81	1194.33
466.183	1194.33
466.555	1228.46
466.928	1212.64
467.3	1227.33
467.672	1210.15
468.045	1231.85
468.417	1260.55
468.789	1268.68
469.161	1281.11
469.534	1286.53
469.906	1293.77
470.278	1314.78
470.65	1351.39
471.022	1357.27
471.394	1390.26
471.766	1409.92
472.138	1417.15
472.51	1428.23
472.882	1420.77
473.253	1435.23
473.625	1462.12
473.997	1500.77
474.369	1508.68
474.74	1520.65
475.112	1549.35
475.484	1571.72
475.855	1578.28
476.227	1593.64
476.598	1633.87
476.97	1647.43
477.341	1667.09
477.713	1703.02
478.084	1734.21
478.455	1743.25
478.827	1722.45
479.198	1795.67
479.569	1767.43
479.94	1829.12
480.311	1846.29
480.682	1875.45
481.053	1945.5
481.424	1990.7
481.795	1959.51
482.166	2014.2
482.537	2036.57
482.908	2027.53
483.279	2084.48
483.65	2085.83
484.021	2159.96
484.391	2182.78
484.762	2165.83
485.133	2175.1
485.503	2223.68
485.874	2292.61
486.244	2284.47
486.615	2328.09
486.985	2311.14
487.356	2356.79
487.726	2421.65
488.097	2444.47
488.467	2465.71
488.837	2553.85
489.207	2527.86
489.578	2558.14
489.948	2577.35
490.318	2591.81
490.688	2646.72
491.058	2648.53
491.428	2748.87
491.798	2688.53
492.168	2802.88
492.538	2768.3
492.908	2811.92
493.278	2860.05
493.648	2867.28
494.017	2878.58
494.387	2887.4
494.757	2920.39
495.126	2968.3
495.496	2956.55
495.866	2994.06
496.235	3022.08
496.605	3065.92
496.974	3085.58
497.344	3119.93
497.713	3106.83
498.082	3110.21
498.452	3210.78
498.821	3183.43
499.19	3171
499.559	3278.12
499.928	3261.85
500.298	3275.41
500.667	3313.6
501.036	3295.07
501.405	3327.84
501.774	3366.48
502.143	3379.81
502.512	3382.52
502.88	3417.78
503.249	3423.2
503.618	3450.54
503.987	3483.54
504.356	3498
504.724	3554.95
505.093	3522.63
505.462	3529.86
505.83	3573.71
506.199	3635.62
506.567	3676.53
506.936	3693.02
507.304	3714.72
507.672	3712.68
508.041	3780.25
508.409	3742.97
508.777	3760.37
509.145	3835.85
509.514	3811.21
509.882	3879.46
510.25	3820.48
510.618	3884.88
510.986	3917.65
511.354	3974.37
511.722	4002.62
512.09	4022.06
512.458	4027.03
512.826	4056.63
513.193	4112.9
513.561	4100.7
513.929	4138.66
514.297	4156.06
514.664	4200.58
515.032	4251.88
515.4	4275.83
515.767	4346.79
516.135	4308.83
516.502	4304.53
516.869	4413.01
517.237	4335.95
517.604	4404.19
517.972	4470.86
518.339	4512.66
518.706	4500.91
519.073	4521.03
519.44	4551.31
519.808	4624.07
520.175	4613.45
520.542	4672.43
520.909	4681.02
521.276	4715.6
521.643	4742.26
522.009	4824.29
522.376	4836.95
522.743	4929.38
523.11	4931.86
523.477	5026.1
523.843	4996.49
524.21	5074.91
524.577	5093.21
524.943	5142.93
525.31	5167.11
525.676	5201.23
526.043	5283.72
526.409	5327.56
526.776	5326.65
527.142	5354.68
527.508	5363.49
527.874	5408.23
528.241	5462.92
528.607	5460.44
528.973	5534.11
529.339	5522.35
529.705	5651.39
530.071	5683.71
530.437	5701.56
530.803	5723.93
531.169	5748.79
531.535	5754.89
531.901	5795.57
532.267	5866.07
532.632	5894.55
532.998	5917.37
533.364	5944.49
533.73	5972.51
534.095	6039.63
534.461	6058.39
534.826	6144.94
535.192	6177.25
535.557	6220.42
535.923	6237.59
536.288	6230.36
536.653	6287.76
537.019	6282.79
537.384	6291.37
537.749	6363.24
538.114	6358.49
538.479	6392.16
538.845	6390.81
539.21	6442.56
539.575	6489.11
539.94	6512.84
540.305	6567.53
540.67	6620.18
541.034	6634.87
541.399	6701.76
541.764	6696.34
542.129	6755.54
542.494	6747.18
542.858	6846.84
543.223	6821.53
543.587	6865.82
543.952	6871.02
544.316	6962.54
544.681	6941.53
545.045	7051.81
545.41	7101.97
545.774	7152.59
546.138	7089.55
546.503	7170.22
546.867	7241.18
547.231	7309.88
547.595	7301.52
547.959	7359.14
548.324	7456.09
548.688	7512.36
549.052	7502.87
549.416	7526.37
549.779	7601.62
550.143	7636.2
550.507	7686.14
550.871	7674.61
551.235	7731.11
551.599	7832.58
551.962	7898.56
552.326	7935.85
552.689	7970.88
553.053	7982.86
553.417	8060.37
553.78	8197.09
554.143	8157.99
554.507	8249.51
554.87	8255.39
555.234	8406.12
555.597	8401.15
555.96	8503.52
556.323	8493.35
556.686	8608.6
557.05	8607.92
557.413	8742.84
557.776	8806.11
558.139	8864.19
558.502	8880.23
558.865	8946.67
559.228	9073
559.59	9125.88
559.953	9159.55
560.316	9330.62
560.679	9351.86
561.041	9388.24
561.404	9485.87
561.767	9674.34
562.129	9642.7
562.492	9714.11
562.854	9790.72
563.217	9892.86
563.579	10007.43
563.941	10048.34
564.304	10186.64
564.666	10301.89
565.028	10286.98
565.39	10366.52
565.753	10541.88
566.115	10614.2
566.477	10597.93
566.839	10824.81
567.201	10845.15
567.563	10961.08
567.925	11094.19
568.287	11114.52
568.648	11184.58
569.01	11275.88
569.372	11414.86
569.734	11472.71
570.095	11548.41
570.457	11682.64
570.819	11686.94
571.18	11852.36
571.542	11952.47
571.903	12029.75
572.265	12047.38
572.626	12166.02
572.987	12241.27
573.349	12288.73
573.71	12428.84
574.071	12530.53
574.432	12592.9
574.794	12740.24
575.155	12775.05
575.516	12791.54
575.877	12968.94
576.238	13057.07
576.599	13094.36
576.96	13179.55
577.32	13254.81
577.681	13356.5
578.042	13401.02
578.403	13432.43
578.763	13556.95
579.124	13595.59
579.485	13751.74
579.845	13822.93
580.206	13823.38
580.566	13855.92
580.927	13950.16
581.287	14042.36
581.648	14052.53
582.008	14218.17
582.368	14200.54
582.728	14197.38
583.089	14223.14
583.449	14371.16
583.809	14529.58
584.169	14577.03
584.529	14592.4
584.889	14787.65
585.249	14655
585.609	14613.19
585.969	14750.59
586.329	14864.93
586.688	14937.47
587.048	14843.92
587.408	14956.46
587.768	14925.72
588.127	15047.08
588.487	15045.49
588.846	15131.82
589.206	15186.96
589.565	15159.62
589.925	15310.57
590.284	15258.6
590.643	15364.13
591.003	15410.46
591.362	15456.78
591.721	15497.69
592.08	15533.84
592.44	15619.94
592.799	15614.29
593.158	15643.44
593.517	15690.68
593.876	15707.4
594.235	15732.93
594.593	15822.87
594.952	15893.38
595.311	15855.87
595.67	15948.3
596.029	16102.64
596.387	16096.09
596.746	16140.83
597.104	16099.48
597.463	16224.67
597.822	16258.57
598.18	16230.55
598.538	16314.61
598.897	16457.21
599.255	16275.29
599.613	16568.17
599.972	16456.76
600.33	16479.81
600.688	16506.92
601.046	16549.18
601.404	16632.8
601.762	16604.1
602.12	16695.39
602.478	16795.05
602.836	16777.43
603.194	16766.8
603.552	16804.54
603.91	16801.15
604.268	16895.39
604.625	16863.98
604.983	16957.08
605.341	17004.76
605.698	16962.73
606.056	16975.16
606.413	16994.6
606.771	17135.83
607.128	17203.4
607.485	17071.88
607.843	17254.48
608.2	17211.31
608.557	17327.47
608.914	17324.76
609.272	17454.47
609.629	17302.84
609.986	17471.65
610.343	17390.97
610.7	17591.42
611.057	17550.97
611.414	17554.58
611.771	17678.19
612.127	17604.07
612.484	17716.61
612.841	17690.17
613.198	17588.48
613.554	17723.39
613.911	17842.93
614.267	17816.04
614.624	17886.32
614.98	17852.43
615.337	17901.69
615.693	17943.95
616.05	17973.33
616.406	18170.38
616.762	17993.67
617.118	18059.88
617.475	17961.58
617.831	18061.23
618.187	18139.65
618.543	18100.33
618.899	18260.32
619.255	18246.99
619.611	18136.71
619.967	18281.57
620.323	18370.15
620.678	18284.73
621.034	18241.34
621.39	18303.94
621.746	18197.28
622.101	18518.4
622.457	18247.22
622.812	18303.49
623.168	18301
623.523	18352.98
623.879	18536.02
624.234	18373.77
624.589	18371.73
624.945	18404.05
625.3	18533.09
625.655	18498.96
626.01	18433.88
626.365	18417.38
626.72	18450.6
627.075	18480.88
627.43	18440.21
627.785	18430.04
628.14	18421.22
628.495	18566.76
628.85	18479.3
629.205	18417.16
629.559	18490.38
629.914	18374.9
630.269	18437.5
630.623	18373.09
630.978	18411.96
631.332	18471.17
631.687	18469.13
632.041	18490.15
632.396	18366.54
632.75	18460.32
633.104	18397.27
633.459	18290.15
633.813	18336.48
634.167	18369.93
634.521	18252.87
634.875	18322.02
635.229	18301
635.583	18222.36
635.937	18278.18
636.291	18241.12
636.645	18263.26
636.999	18137.62
637.352	18318.4
637.706	18136.26
638.06	18208.12
638.413	18204.28
638.767	18055.36
639.121	18200.21
639.474	18116.15
639.828	18113.66
640.181	18102.14
640.534	18067.34
640.888	18089.03
641.241	18023.27
641.594	17938.3
641.947	18073.21
642.301	17996.83
642.654	18004.29
643.007	17976.04
643.36	17939.43
643.713	18017.85
644.066	18007.22
644.419	17885.65
644.771	17791.41
645.124	17607.46
645.477	17644.07
645.83	17594.35
646.182	17516.84
646.535	17328.15
646.888	17402.04
647.24	17385.09
647.593	17478.65
647.945	17392.78
648.298	17349.84
648.65	17321.14
649.002	17258.32
649.355	17390.29
649.707	17336.73
650.059	17429.61
650.411	17618.76
650.763	17657.63
651.115	17861.01
651.467	17705.99
651.819	17719.1
652.171	17771.07
652.523	17721.36
652.875	17715.25
653.227	17660.11
653.578	17806.78
653.93	17734.69
654.282	17791.86
654.633	17615.82
654.985	17706.22
655.337	17688.36
655.688	17674.58
656.039	17690.17
656.391	17632.09
656.742	17647.46
657.094	17564.3
657.445	17674.58
657.796	17679.78
658.147	17590.96
658.498	17634.13
658.849	17655.6
659.2	17653.56
659.551	17636.39
659.902	17812.2
660.253	17661.7
660.604	17768.13
660.955	17552.55
661.306	17691.07
661.656	17678.42
662.007	17635.71
662.358	17717.06
662.708	17588.03
663.059	17620.12
663.409	17563.62
663.76	17679.55
664.11	17685.42
664.461	17756.16
664.811	17721.13
665.161	17688.81
665.511	17733.79
665.862	17658.53
666.212	17830.96
666.562	17748.25
666.912	17750.06
667.262	17634.58
667.612	17719.32
667.962	17738.08
668.312	17827.79
668.662	17843.16
669.011	17719.55
669.361	17688.14
669.711	17674.8
670.06	17750.51
670.41	17755.25
670.76	17706.67
671.109	17796.16
671.459	17801.13
671.808	17694.92
672.157	17720.9
672.507	17597.52
672.856	17617.18
673.205	17641.58
673.554	17674.13
673.904	17635.71
674.253	17821.69
674.602	17770.85
674.951	17435.94
675.3	17402.27
675.649	17783.95
675.998	17666.89
676.346	17709.15
676.695	17833.9
677.044	17656.27
677.393	17689.04
677.741	17696.27
678.09	17671.41
678.438	17719.32
678.787	17717.74
679.135	17836.83
679.484	17579.89
679.832	17803.39
680.181	17598.2
680.529	17671.64
680.877	17612.21
681.225	17698.53
681.573	17781.02
681.922	17668.25
682.27	17560.91
682.618	17545.09
682.966	17616.05
683.314	17691.53
683.661	17642.71
684.009	17506.67
684.357	17434.13
684.705	17540.34
685.053	17482.49
685.4	17484.3
685.748	17325.66
686.095	17350.29
686.443	17379.9
686.79	17303.29
687.138	17264.64
687.485	17316.62
687.832	17306.45
688.18	17350.29
688.527	17222.39
688.874	17232.78
689.221	17216.06
689.568	17233.23
689.915	17148.04
690.262	17251.76
690.609	17119.56
690.956	17084.54
691.303	17075.05
691.65	17001.83
691.997	17056.29
692.344	16917.08
692.69	16956.86
693.037	16949.4
693.383	16880.7
693.73	16834.37
694.077	16806.13
694.423	16753.02
694.769	16743.98
695.116	16741.95
695.462	16802.06
695.808	16701.04
696.155	16667.15
696.501	16553.48
696.847	16623.08
697.193	16508.73
697.539	16632.35
697.885	16547.15
698.231	16465.12
698.577	16457.43
698.923	16475.29
699.269	16311
699.614	16254.05
699.96	16348.96
700.306	16304.67
700.651	16295.18
700.997	16233.26
701.342	16197.78
701.688	16253.37
702.033	16170.89
702.379	16228.97
702.724	16146.71
703.069	16249.08
703.415	16052.25
703.76	16066.48
704.105	16041.85
704.45	15976.09
704.795	16057.9
705.14	15907.84
705.485	15975.87
705.83	15901.52
706.175	15899.48
706.52	15870.56
706.865	15799.15
707.209	15828.52
707.554	15798.47
707.899	15804.57
708.243	15704.23
708.588	15647.74
708.932	15620.39
709.277	15671.47
709.621	15692.48
709.966	15553.73
710.31	15704.69
710.654	15514.41
710.998	15585.82
711.342	15597.8
711.687	15505.6
712.031	15398.48
712.375	15366.62
712.719	15439.61
713.063	15407.07
713.407	15501.3
713.75	15335.66
714.094	15359.38
714.438	15319.39
714.782	15341.76
715.125	15299.5
715.469	15369.33
715.812	15291.59
716.156	15136.34
716.499	15178.37
716.843	15202.78
717.186	15154.64
717.53	15255.21
717.873	15246.62
718.216	15188.09
718.559	15104.48
718.902	15040.07
719.246	15102.44
719.589	15086.17
719.932	15058.15
720.275	15019.96
720.617	14998.26
720.96	14986.51
721.303	14953.52
721.646	14953.75
721.989	14902.22
722.331	14932.95
722.674	14882.33
723.016	14978.6
723.359	14825.61
723.701	14886.63
724.044	14777.03
724.386	14829
724.729	14829.45
725.071	14878.94
725.413	14779.06
725.755	14831.04
726.097	14790.59
726.439	14679.63
726.782	14620.19
727.124	14788.33
727.465	14693.19
727.807	14664.94
728.149	14618.39
728.491	14669.46
728.833	14676.92
729.175	14566.86
729.516	14641.44
729.858	14547.88
730.199	14680.08
730.541	14596.92
730.882	14615.68
731.224	14592.62
731.565	14490.25
731.906	14543.36
732.248	14519.86
732.589	14499.07
732.93	14410.03
733.271	14483.25
733.612	14480.09
733.953	14547.2
734.294	14350.37
734.635	14422.91
734.976	14454.1
735.317	14326.19
735.658	14373.65
735.999	14489.58
736.339	14321.45
736.68	14417.49
737.021	14330.26
737.361	14241
737.702	14324.16
738.042	14303.37
738.383	14255.68
738.723	14288.45
739.063	14193.77
739.404	14258.4
739.744	14183.82
740.084	14187.66
740.424	14270.15
740.764	14160.77
741.104	14286.42
741.444	14175.46
741.784	14139.98
742.124	14220.66
742.464	14076.71
742.804	14093.65
743.143	14053.2
743.483	13974.79
743.823	13896.15
744.162	13954.22
744.502	13974.34
744.841	13871.97
745.181	13980.21
745.52	13911.51
745.86	13916.03
746.199	13768.01
746.538	13911.51
746.877	13824.51
747.216	13742.48
747.556	13828.8
747.895	13822.7
748.234	13742.25
748.573	13798.07
748.911	13630.39
749.25	13765.75
749.589	13625.42
749.928	13693.21
750.267	13689.15
750.605	13630.84
750.944	13620.45
751.283	13577.28
751.621	13568.7
751.96	13487.34
752.298	13506.1
752.636	13536.38
752.975	13424.52
753.313	13359.21
753.651	13341.58
753.989	13295.71
754.327	13315.82
754.666	13184.3
755.004	13306.56
755.342	13292.09
755.679	13266.56
756.017	13199.44
756.355	13141.36
756.693	13079.22
757.031	13096.84
757.368	13074.25
757.706	12987.24
758.044	12997.86
758.381	13028.6
758.719	12883.74
759.056	12857.08
759.394	12834.48
759.731	12724.2
760.068	12781.15
760.405	12846.91
760.743	12673.81
761.08	12667.93
761.417	12643.52
761.754	12647.59
762.091	12617.76
762.428	12524.66
762.765	12466.13
763.102	12468.16
763.438	12417.54
763.775	12418.22
764.112	12325.57
764.449	12392.23
764.785	12282.18
765.122	12191.78
765.458	12220.48
765.795	12118.79
766.131	12140.03
766.467	12053.03
766.804	11987.95
767.14	11935.75
767.476	11941.17
767.812	11906.14
768.148	11863.66
768.485	11796.31
768.821	11752.25
769.157	11742.3
769.492	11721.97
769.828	11657.79
770.164	11453.72
770.5	11520.84
770.836	11572.82
771.171	11496.89
771.507	11438.81
771.842	11319.26
772.178	11322.88
772.513	11312.49
772.849	11224.35
773.184	11168.53
773.519	11163.11
773.855	11121.08
774.19	11075.88
774.525	11034.53
774.86	11075.88
775.195	10990.23
775.53	11032.04
775.865	10893.29
776.2	10808.32
776.535	10745.04
776.87	10769
777.205	10670.69
777.539	10641.54
777.874	10651.71
778.209	10550.02
778.543	10560.64
778.878	10543.01
779.212	10478.61
779.547	10432.51
779.881	10449.46
780.215	10330.36
780.55	10388.44
780.884	10340.53
781.218	10253.76
781.552	10228.67
781.886	10174.21
782.22	10118.84
782.554	10057.15
782.888	10050.82
783.222	10009.92
783.556	9904.39
783.889	9873.43
784.223	9773.99
784.557	9771.51
784.89	9840.43
785.224	9715.92
785.557	9760.44
785.891	9680.89
786.224	9643.6
786.558	9686.77
786.891	9542.36
787.224	9558.86
787.557	9460.33
787.891	9452.42
788.224	9466.66
788.557	9427.56
788.89	9329.94
789.223	9351.41
789.556	9240
789.888	9226.44
790.221	9276.83
790.554	9172.88
790.887	9149.38
791.219	9104.41
791.552	9092.43
791.884	9091.07
792.217	8969.04
792.549	8927.24
792.882	8869.39
793.214	8872.78
793.546	8859.22
793.879	8812.66
794.211	8770.86
794.543	8822.38
794.875	8727.24
795.207	8720.46
795.539	8657.64
795.871	8640.69
796.203	8592.56
796.535	8604.31
796.867	8541.03
797.198	8460.58
797.53	8548.72
797.862	8476.18
798.193	8510.98
798.525	8356.4
798.856	8392.34
799.188	8297.88
799.519	8302.17
799.85	8230.31
800.182	8214.49
800.513	8259.91
800.844	8137.2
801.175	8205
801.506	8155.73
801.837	8077.99
802.168	8087.71
802.499	8026.92
802.83	8002.52
803.161	7984.89
803.491	7957.09
803.822	7990.54
804.153	7898.11
804.483	7854.04
804.814	7840.03
805.145	7814.5
805.475	7799.58
805.805	7776.08
806.136	7741.28
806.466	7814.05
806.796	7752.35
807.126	7642.3
807.457	7624.67
807.787	7632.81
808.117	7591.45
808.447	7522.3
808.777	7576.76
809.107	7522.3
809.436	7480.95
809.766	7425.58
810.096	7515.07
810.426	7369.76
810.755	7394.62
811.085	7387.84
811.414	7364.57
811.744	7259.71
812.073	7236.21
812.403	7263.78
812.732	7202.08
813.061	7213.84
813.39	7205.02
813.719	7136.78
814.049	7212.48
814.378	7136.32
814.707	7133.61
815.036	7151.01
815.365	7079.6
815.693	7017.23
816.022	7031.02
816.351	6987.63
816.68	6960.74
817.008	6948.53
817.337	6918.93
817.665	6865.14
817.994	6872.15
818.322	6911.47
818.651	6820.17
818.979	6768.2
819.307	6788.08
819.636	6801.42
819.964	6715.77
820.292	6751.02
820.62	6755.77
820.948	6738.37
821.276	6734.07
821.604	6757.12
821.932	6710.57
822.259	6741.31
822.587	6661.08
822.915	6695.88
823.243	6718.93
823.57	6703.11
823.898	6753.51
824.225	6698.14
824.553	6736.79
824.88	6723.91
825.207	6703.34
825.535	6694.08
825.862	6702.21
826.189	6687.07
826.516	6663.57
826.843	6687.3
827.17	6672.61
827.497	6711.48
827.824	6646.85
828.151	6708.76
828.478	6667.86
828.805	6667.64
829.131	6666.96
829.458	6589.9
829.785	6546.28
830.111	6612.27
830.438	6647.97
830.764	6562.78
831.09	6558.03
831.417	6588.09
831.743	6572.95
832.069	6598.71
832.395	6547.64
832.722	6572.95
833.048	6513.06
833.374	6541.54
833.7	6521.88
834.026	6492.72
834.351	6542.89
834.677	6491.82
835.003	6561.65
835.329	6516.23
835.654	6473.97
835.98	6484.59
836.306	6423.35
836.631	6442.33
836.956	6469.45
837.282	6429.45
837.607	6421.54
837.932	6349.23
838.258	6448.43
838.583	6402.56
838.908	6391.71
839.233	6363.01
839.558	6269.68
839.883	6262.22
840.208	6283.24
840.533	6282.79
840.858	6223.81
841.182	6253.18
841.507	6242.79
841.832	6274.2
842.156	6257.48
842.481	6246.86
842.805	6228.1
843.13	6195.11
843.454	6238.04
843.778	6165.5
844.103	6109.68
844.427	6111.49
844.751	6094.54
845.075	6098.61
845.399	6061.1
845.723	6034.43
846.047	6027.65
846.371	5943.13
846.695	6043.02
847.019	5939.29
847.343	5950.59
847.666	5916.92
847.99	5902.01
848.313	5824.49
848.637	5805.06
848.96	5837.6
849.284	5789.24
849.607	5757.38
849.931	5718.51
850.254	5739.3
850.577	5676.25
850.9	5645.97
851.223	5637.15
851.546	5609.13
851.869	5544.95
852.192	5569.13
852.515	5551.96
852.838	5518.74
853.161	5546.76
853.483	5464.5
853.806	5395.8
854.129	5442.58
854.451	5376.6
854.774	5444.62
855.096	5372.98
855.419	5384.96
855.741	5396.03
856.063	5321
856.385	5350.16
856.708	5352.19
857.03	5236.49
857.352	5259.99
857.674	5216.15
857.996	5215.24
858.318	5161.69
858.64	5214.79
858.961	5142.93
859.283	5156.49
859.605	5142.93
859.926	5147.68
860.248	5114
860.57	5105.87
860.891	5108.35
861.212	5062.48
861.534	5048.92
861.855	5068.13
862.176	5072.65
862.498	5060.22
862.819	5050.28
863.14	5036.04
863.461	5007.57
863.782	4994.01
864.103	4999.88
864.424	5026.32
864.745	4935.7
865.065	4956.04
865.386	4947.23
865.707	4979.54
866.027	4926.21
866.348	4931.41
866.668	4908.59
866.989	4864.52
867.309	4795.59
867.63	4858.87
867.95	4871.98
868.27	4877.85
868.59	4847.57
868.91	4821.36
869.23	4827.01
869.55	4814.12
869.87	4821.13
870.19	4809.15
870.51	4765.99
870.83	4817.97
871.15	4751.75
871.469	4781.36
871.789	4799.21
872.109	4764.41
872.428	4698.87
872.748	4716.05
873.067	4762.6
873.386	4711.08
873.706	4695.26
874.025	4677.86
874.344	4690.96
874.663	4713.34
874.982	4651.19
875.301	4721.47
875.62	4618.88
875.939	4654.13
876.258	4658.42
876.577	4588.14
876.896	4637.18
877.214	4629.95
877.533	4597.86
877.852	4611.19
878.17	4623.85
878.489	4587.24
878.807	4602.38
879.125	4549.27
879.444	4586.56
879.762	4574.13
880.08	4554.24
880.398	4510.86
880.716	4527.13
881.034	4523.29
881.352	4520.57
881.67	4481.93
881.988	4505.88
882.306	4531.87
882.624	4471.99
882.941	4469.95
883.259	4422.04
883.577	4441.25
883.894	4404.42
884.212	4416.85
884.529	4423.85
884.846	4366.9
885.164	4391.31
885.481	4385.44
885.798	4417.07
886.115	4326.45
886.432	4345.66
886.75	4335.72
887.067	4302.95
887.383	4318.09
887.7	4309.73
888.017	4280.58
888.334	4279.22
888.651	4272.67
888.967	4224.99
889.284	4250.98
889.6	4257.3
889.917	4244.87
890.233	4238.32
890.55	4198.1
890.866	4211.2
891.182	4178.44
891.498	4208.27
891.815	4150.19
892.131	4108.83
892.447	4128.49
892.763	4131.2
893.079	4138.21
893.395	4078.78
893.71	4060.25
894.026	4062.51
894.342	4064.77
894.657	4025.22
894.973	4011.21
895.289	4017.76
895.604	4006.01
895.92	3976.18
896.235	3981.83
896.55	3981.15
896.865	3974.82
897.181	3963.07
897.496	3954.49
897.811	3947.93
898.126	3898.67
898.441	3918.1
898.756	3893.02
899.071	3883.53
899.386	3850.76
899.7	3835.62
900.015	3857.31
900.33	3810.76
900.644	3802.63
900.959	3834.49
901.273	3768.73
901.588	3822.29
901.902	3760.37
902.216	3755.17
902.531	3758.11
902.845	3777.99
903.159	3726.02
903.473	3700.03
903.787	3716.3
904.101	3664.1
904.415	3669.75
904.729	3658.67
905.042	3581.39
905.356	3632.46
905.67	3610.31
905.984	3589.98
906.297	3592.46
906.611	3571.22
906.924	3568.51
907.237	3556.53
907.551	3541.84
907.864	3517.21
908.177	3504.78
908.491	3540.71
908.804	3501.17
909.117	3490.32
909.43	3519.24
909.743	3448.74
910.056	3465.23
910.368	3412.81
910.681	3415.07
910.994	3347.5
911.307	3360.15
911.619	3368.06
911.932	3397.66
912.244	3322.41
912.557	3342.53
912.869	3359.7
913.181	3347.72
913.494	3310.66
913.806	3273.15
914.118	3309.31
914.43	3240.83
914.742	3238.35
915.054	3238.35
915.366	3232.92
915.678	3209.87
915.99	3211.46
916.302	3213.49
916.613	3179.37
916.925	3207.16
917.236	3186.82
917.548	3194.51
917.859	3176.43
918.171	3135.3
918.482	3099.37
918.794	3134.62
919.105	3059.82
919.416	3077.45
919.727	3080.84
920.038	3061.85
920.349	3039.48
920.66	3031.35
920.971	3036.09
921.282	3016.43
921.593	2985.47
921.903	2987.28
922.214	3009.65
922.525	2961.52
922.835	2971.69
923.146	2962.87
923.456	2918.36
923.767	2921.07
924.077	2911.35
924.387	2937.34
924.697	2895.98
925.008	2865.7
925.318	2866.38
925.628	2858.7
925.938	2849.88
926.248	2800.39
926.558	2828.19
926.867	2800.84
927.177	2787.96
927.487	2756.1
927.796	2760.39
928.106	2782.99
928.416	2781.41
928.725	2722.88
929.034	2736.44
929.344	2718.36
929.653	2710.9
929.962	2721.3
930.271	2680.17
930.581	2707.97
930.89	2710.68
931.199	2682.2
931.508	2624.58
931.817	2652.37
932.125	2616.67
932.434	2630
932.743	2644.24
933.051	2642.43
933.36	2609.66
933.669	2571.7
933.977	2557.24
934.286	2557.24
934.594	2559.04
934.902	2573.73
935.21	2520.4
935.519	2522.21
935.827	2523.11
936.135	2498.03
936.443	2452.38
936.751	2496.67
937.059	2466.39
937.367	2469.1
937.674	2465.03
937.982	2485.82
938.29	2429.78
938.597	2491.02
938.905	2377.58
939.213	2401.98
939.52	2469.33
939.827	2411.48
940.135	2396.11
940.442	2390.46
940.749	2381.87
941.056	2393.4
941.363	2364.02
941.67	2325.83
941.977	2341.65
942.284	2332.16
942.591	2309.78
942.898	2312.27
943.205	2294.64
943.511	2289.67
943.818	2285.38
944.125	2265.04
944.431	2267.75
944.738	2251.48
945.044	2231.14
945.35	2264.81
945.657	2246.73
945.963	2227.3
946.269	2218.03
946.575	2201.31
946.881	2195.89
947.187	2184.82
947.493	2149.56
947.799	2194.98
948.105	2161.77
948.41	2114.53
948.716	2151.37
949.022	2147.75
949.327	2121.99
949.633	2093.74
949.938	2090.58
950.244	2109.79
950.549	2090.35
950.854	2060.98
951.16	2079.96
951.465	2093.74
951.77	2052.62
952.075	2067.76
952.38	2055.1
952.685	2049.68
952.99	2044.25
953.294	2003.58
953.599	2040.64
953.904	2027.98
954.209	2002.67
954.513	2001.54
954.818	1987.53
955.122	1996.8
955.426	1962.45
955.731	1964.93
956.035	1937.59
956.339	1952.96
956.643	1948.89
956.948	1940.08
957.252	1897.82
957.556	1963.8
957.86	1926.07
958.163	1923.58
958.467	1879.74
958.771	1878.16
959.075	1874.32
959.378	1877.93
959.682	1870.02
959.985	1866.41
960.289	1852.85
960.592	1855.56
960.896	1812.62
961.199	1861.66
961.502	1815.56
961.805	1830.25
962.108	1806.52
962.411	1798.16
962.714	1812.62
963.017	1790.02
963.32	1802
963.623	1772.62
963.926	1761.55
964.228	1764.71
964.531	1787.76
964.833	1775.11
965.136	1771.04
965.438	1744.38
965.741	1729.91
966.043	1728.56
966.345	1727.2
966.648	1732.4
966.95	1705.28
967.252	1700.53
967.554	1711.83
967.856	1673.19
968.158	1672.29
968.46	1669.8
968.761	1671.61
969.063	1667.31
969.365	1649.91
969.666	1694.88
969.968	1645.17
970.269	1644.26
970.571	1615.56
970.872	1647.88
971.174	1622.57
971.475	1607.43
971.776	1620.54
972.077	1596.13
972.378	1578.5
972.679	1608.33
972.98	1592.51
973.281	1593.64
973.582	1593.19
973.883	1561.33
974.183	1574.21
974.484	1571.27
974.785	1524.04
975.085	1559.97
975.386	1562.46
975.686	1510.26
975.986	1548.22
976.287	1529.01
976.587	1479.52
976.887	1510.48
977.187	1513.65
977.487	1502.12
977.787	1512.52
978.087	1517.94
978.387	1483.36
978.687	1460.31
978.987	1468.22
979.286	1480.88
979.586	1479.52
979.885	1465.74
980.185	1463.48
980.484	1437.94
980.784	1430.71
981.083	1439.52
981.382	1432.29
981.682	1441.78
981.981	1406.08
982.28	1440.43
982.579	1425.74
982.878	1421.22
983.177	1387.32
983.475	1392.07
983.774	1374.67
984.073	1392.29
984.372	1390.26
984.67	1351.39
984.969	1374.89
985.267	1371.28
985.566	1371.5
985.864	1348.23
986.162	1351.84
986.461	1326.08
986.759	1352.29
987.057	1338.96
987.355	1343.26
987.653	1357.49
987.951	1326.08
988.249	1307.55
988.547	1315.91
988.844	1309.13
989.142	1319.3
989.44	1279.08
989.737	1293.09
990.035	1263.26
990.332	1306.87
990.63	1291.51
990.927	1244.5
991.224	1248.79
991.521	1264.16
991.819	1298.29
992.116	1238.4
992.413	1235.91
992.71	1240.43
993.006	1239.3
993.303	1238.17
993.6	1227.1
993.897	1243.15
994.193	1206.31
994.49	1227.1
994.787	1225.07
995.083	1214.22
995.379	1213.54
995.676	1211.06
995.972	1178.29
996.268	1190.49
996.565	1179.87
996.861	1176.48
997.157	1177.84
997.453	1158.85
997.749	1170.6
998.044	1160.21
998.34	1176.71
998.636	1172.19
998.932	1150.27
999.227	1112.53
999.523	1129.25
999.818	1126.09
1000.114	1117.27
1000.409	1124.96
1000.704	1093.32
1001	1105.75
1001.295	1080.89
1001.59	1115.92
1001.885	1085.41
1002.18	1100.78
1002.475	1077.05
1002.77	1069.14
1003.065	1056.48
1003.359	1068.69
1003.654	1076.82
1003.949	1057.16
1004.243	1073.21
1004.538	1061.46
1004.832	1036.82
1005.127	1053.09
1005.421	1046.99
1005.715	1031.17
1006.009	1057.39
1006.304	1050.83
1006.598	1021
1006.892	993.43
1007.186	1020.1
1007.48	1024.62
1007.773	1009.25
1008.067	1012.64
1008.361	997.28
1008.655	959.31
1008.948	976.03
1009.242	971.06
1009.535	953.89
1009.829	948.69
1010.122	969.71
1010.415	956.83
1010.708	969.71
1011.001	957.5
1011.295	943.49
1011.588	942.36
1011.881	917.73
1012.173	948.24
1012.466	921.12
1012.759	890.39
1013.052	940.1
1013.344	911.63
1013.637	905.08
1013.93	918.63
1014.222	918.18
1014.514	903.04
1014.807	887.67
1015.099	913.44
1015.391	906.88
1015.683	885.64
1015.976	882.02
1016.268	872.76
1016.56	885.64
1016.851	856.49
1017.143	856.04
1017.435	864.85
1017.727	879.54
1018.018	861.01
1018.31	818.3
1018.602	855.58
1018.893	819.2
1019.185	812.65
1019.476	837.28
1019.767	813.33
1020.058	823.5
1020.35	806.32
1020.641	826.66
1020.932	802.25
1021.223	791.86
1021.514	815.36
1021.804	776.49
1022.095	792.31
1022.386	785.98
1022.677	775.59
1022.967	783.04
1023.258	778.3
1023.548	755.93
1023.839	752.31
1024.129	758.19
1024.419	737.4
1024.709	730.16
1025	767.23
1025.29	759.77
1025.58	738.53
1025.87	762.03
1026.16	736.49
1026.449	740.56
1026.739	740.33
1027.029	740.33
1027.319	733.78
1027.608	715.25
1027.898	737.85
1028.187	717.51
1028.477	695.82
1028.766	720.67
1029.055	695.82
1029.344	695.59
1029.634	696.72
1029.923	683.84
1030.212	707.11
1030.501	692.88
1030.79	691.75
1031.078	682.71
1031.367	647.91
1031.656	690.17
1031.945	678.87
1032.233	673.89
1032.522	644.06
1032.81	652.65
1033.099	647.45
1033.387	645.87
1033.675	666.89
1033.963	658.08
1034.251	649.94
1034.54	642.94
1034.828	640.68
1035.116	630.28
1035.403	622.6
1035.691	637.74
1035.979	652.43
1036.267	638.19
1036.554	624.63
1036.842	621.01
1037.129	614.24
1037.417	628.02
1037.704	613.78
1037.992	591.64
1038.279	604.29
1038.566	573.56
1038.853	573.56
1039.14	573.56
