Data from brown_tile_FLMS001491_055.txt Node
Date: Tue Feb 07 10:37:42 GMT 2017
User: dcchb
Spectrometer: FLMS00149
Trigger mode: 0
Integration Time (sec): 2.000000E-2
Scans to average: 10
Electric dark correction enabled: true
Nonlinearity correction enabled: false
Boxcar width: 0
XAxis mode: Wavelengths
Number of Pixels in Spectrum: 2048
>>>>>Begin Spectral Data<<<<<
341.393	-9.01
341.776	-9.01
342.16	-9.01
342.543	-46.98
342.927	-62.12
343.31	-54.43
343.693	-56.69
344.077	-73.87
344.46	-77.71
344.843	-58.28
345.226	-37.48
345.61	-34.32
345.993	-20.76
346.376	2.51
346.759	17.43
347.142	22.17
347.525	44.77
347.908	55.39
348.291	82.96
348.674	77.99
349.057	110.31
349.44	138.33
349.823	139.91
350.206	135.84
350.588	181.49
350.971	213.36
351.354	218.33
351.737	200.25
352.119	219.01
352.502	247.25
352.884	254.26
353.267	275.95
353.65	275.5
354.032	296.52
354.414	292.9
354.797	281.38
355.179	297.65
355.562	319.12
355.944	336.52
356.326	297.42
356.709	331.54
357.091	332.9
357.473	344.65
357.855	335.61
358.238	306.46
358.62	313.92
359.002	317.53
359.384	301.26
359.766	316.18
360.148	337.42
360.53	342.39
360.912	323.18
361.294	320.7
361.676	317.76
362.057	322.05
362.439	314.82
362.821	303.98
363.203	297.42
363.584	293.13
363.966	287.03
364.348	306.91
364.729	310.75
365.111	316.18
365.493	296.07
365.874	310.3
366.256	294.26
366.637	294.48
367.019	307.36
367.4	315.95
367.781	291.77
368.163	295.16
368.544	287.48
368.925	296.07
369.306	296.29
369.688	308.72
370.069	293.13
370.45	313.01
370.831	301.04
371.212	282.73
371.593	307.14
371.974	288.38
372.355	288.16
372.736	295.61
373.117	300.59
373.498	289.06
373.879	278.89
374.26	300.13
374.641	308.49
375.021	318.44
375.402	307.14
375.783	312.79
376.163	312.34
376.544	315.5
376.925	292.9
377.305	299.46
377.686	334.71
378.066	298.33
378.447	300.36
378.827	301.49
379.208	324.09
379.588	310.08
379.968	303.75
380.349	329.51
380.729	311.88
381.109	334.26
381.489	319.57
381.87	310.08
382.25	335.39
382.63	326.35
383.01	325.44
383.39	330.64
383.77	321.6
384.15	315.73
384.53	319.79
384.91	306.69
385.29	341.71
385.67	345.56
386.049	333.8
386.429	343.07
386.809	315.5
387.189	358.21
387.568	338.1
387.948	325.22
388.328	343.97
388.707	333.13
389.087	365.67
389.466	341.04
389.846	342.17
390.225	347.14
390.605	340.13
390.984	344.43
391.363	353.01
391.743	342.39
392.122	337.42
392.501	353.69
392.881	348.49
393.26	351.66
393.639	351.88
394.018	356.63
394.397	360.24
394.776	342.62
395.155	348.27
395.534	348.95
395.913	359.79
396.292	355.95
396.671	377.19
397.05	342.62
397.429	361.37
397.808	365.89
398.186	366.57
398.565	364.31
398.944	370.64
399.323	378.78
399.701	364.31
400.08	392.33
400.458	359.11
400.837	390.3
401.215	353.24
401.594	383.07
401.972	363.41
402.351	386.46
402.729	382.84
403.107	389.4
403.486	393.92
403.864	400.02
404.242	389.62
404.62	378.32
404.999	404.76
405.377	395.5
405.755	399.57
406.133	406.8
406.511	404.09
406.889	397.53
407.267	399.34
407.645	405.44
408.023	402.73
408.401	420.81
408.779	395.72
409.156	387.59
409.534	411.54
409.912	409.06
410.29	401.15
410.667	432.79
411.045	435.05
411.422	435.95
411.8	432.33
412.178	434.37
412.555	426.91
412.933	449.96
413.31	457.19
413.687	446.12
414.065	439.79
414.442	426.01
414.819	427.14
415.197	430.98
415.574	449.96
415.951	479.56
416.328	456.74
416.705	466.23
417.082	445.89
417.46	445.89
417.837	463.97
418.214	474.82
418.591	468.26
418.967	480.02
419.344	476.17
419.721	486.8
420.098	464.65
420.475	468.94
420.852	485.89
421.228	475.5
421.605	480.24
421.982	486.57
422.358	504.65
422.735	501.71
423.111	491.77
423.488	464.87
423.864	498.09
424.241	485.44
424.617	503.52
424.994	499.9
425.37	511.43
425.746	499
426.123	510.75
426.499	504.42
426.875	526.79
427.251	522.27
427.627	539.68
428.003	523.86
428.379	536.06
428.756	549.17
429.132	541.93
429.507	551.88
429.883	522.05
430.259	584.65
430.635	571.54
431.011	571.54
431.387	561.6
431.763	579
432.138	569.05
432.514	576.74
432.89	568.83
433.265	583.06
433.641	590.07
434.016	595.72
434.392	602.95
434.767	624.87
435.143	593.23
435.518	595.04
435.894	620.58
436.269	637.98
436.644	614.93
437.02	620.12
437.395	636.85
437.77	650.86
438.145	620.12
438.52	634.81
438.895	651.54
439.271	647.92
439.646	667.13
440.021	649.28
440.395	657.41
440.77	702.16
441.145	656.51
441.52	677.98
441.895	696.28
442.27	698.54
442.645	668.49
443.019	669.39
443.394	691.31
443.769	675.04
444.143	707.13
444.518	688.37
444.892	703.29
445.267	689.73
445.641	696.28
446.016	699.9
446.39	709.61
446.764	711.2
447.139	713.91
447.513	707.13
447.887	718.43
448.262	721.82
448.636	742.16
449.01	749.16
449.384	734.92
449.758	725.21
450.132	734.92
450.506	762.95
450.88	776.96
451.254	759.1
451.628	762.49
452.002	786.22
452.376	773.12
452.75	797.52
453.123	801.14
453.497	789.39
453.871	799.78
454.244	812.89
454.618	821.7
454.992	828.48
455.365	807.24
455.739	840.91
456.112	844.75
456.486	846.79
456.859	855.82
457.232	863.73
457.606	867.35
457.979	867.58
458.352	896.95
458.725	880.01
459.099	899.67
459.472	887.46
459.845	908.48
460.218	913.22
460.591	914.35
460.964	908.7
461.337	935.6
461.71	947.35
462.083	942.83
462.456	964.07
462.829	989.61
463.201	997.74
463.574	994.13
463.947	995.48
464.32	1006.1
464.692	1038.87
465.065	1013.79
465.438	1040.9
465.81	1041.13
466.183	1057.63
466.555	1070.06
466.928	1083.39
467.3	1092.43
467.672	1099.66
468.045	1120.45
468.417	1143.05
468.789	1124.74
469.161	1140.11
469.534	1176.72
469.906	1157.06
470.278	1163.61
470.65	1181.47
471.022	1195.7
471.394	1234.57
471.766	1222.82
472.138	1250.16
472.51	1237.28
472.882	1273.67
473.253	1287.9
473.625	1281.35
473.997	1350.95
474.369	1332.87
474.74	1353.44
475.112	1375.13
475.484	1391.63
475.855	1413.55
476.227	1421.46
476.598	1426.88
476.97	1437.05
477.341	1447.45
477.713	1474.57
478.084	1511.63
478.455	1540.78
478.827	1558.63
479.198	1571.74
479.569	1587.78
479.94	1636.37
480.311	1647.67
480.682	1635.69
481.053	1695.12
481.424	1725.86
481.795	1719.98
482.166	1706.65
482.537	1741.68
482.908	1809.92
483.279	1818.51
483.65	1843.6
484.021	1872.52
484.391	1885.4
484.762	1925.4
485.133	1926.31
485.503	1940.54
485.874	2025.06
486.244	2006.76
486.615	2022.8
486.985	2059.18
487.356	2087.66
487.726	2095.34
488.097	2136.92
488.467	2171.72
488.837	2198.39
489.207	2196.58
489.578	2245.39
489.948	2245.17
490.318	2267.31
490.688	2268.44
491.058	2322.23
491.428	2341.44
491.798	2357.25
492.168	2391.6
492.538	2403.58
492.908	2442.45
493.278	2442.9
493.648	2434.31
494.017	2512.28
494.387	2544.14
494.757	2537.36
495.126	2573.75
495.496	2568.1
495.866	2626.63
496.235	2621.43
496.605	2646.74
496.974	2722.22
497.344	2705.95
497.713	2680.18
498.082	2739.17
498.452	2764.48
498.821	2740.3
499.19	2763.12
499.559	2808.54
499.928	2802.89
500.298	2811.48
500.667	2896.45
501.036	2859.39
501.405	2871.59
501.774	2867.3
502.143	2923.57
502.512	2955.88
502.88	2961.76
503.249	2938.71
503.618	2999.72
503.987	3037.01
504.356	2996.33
504.724	3075.65
505.093	3072.72
505.462	3055.32
505.83	3104.58
506.199	3104.81
506.567	3172.6
506.936	3165.59
507.304	3193.62
507.672	3197.46
508.041	3230
508.409	3245.59
508.777	3287.4
509.145	3291.24
509.514	3307.96
509.882	3320.84
510.25	3326.95
510.618	3347.96
510.986	3409.66
511.354	3417.57
511.722	3432.25
512.09	3483.55
512.458	3469.54
512.826	3506.83
513.193	3528.52
513.561	3532.36
513.929	3572.36
514.297	3600.84
514.664	3673.83
515.032	3634.73
515.4	3680.61
515.767	3683.1
516.135	3747.95
516.502	3709.31
516.869	3770.78
517.237	3852.36
517.604	3811.91
517.972	3872.02
518.339	3909.53
518.706	3888.97
519.073	3926.93
519.44	3988.85
519.808	3994.27
520.175	4033.59
520.542	4064.1
520.909	4067.72
521.276	4118.11
521.643	4128.73
522.009	4155.4
522.376	4183.87
522.743	4218.67
523.11	4250.76
523.477	4262.74
523.843	4318.33
524.21	4407.37
524.577	4385.22
524.943	4423.41
525.31	4463.64
525.676	4499.8
526.043	4532.79
526.409	4542.06
526.776	4605.78
527.142	4630.64
527.508	4701.6
527.874	4695.5
528.241	4706.8
528.607	4766.68
528.973	4785.21
529.339	4770.52
529.705	4888.94
530.071	4847.81
530.437	4898.66
530.803	4940.46
531.169	4940.92
531.535	4992.67
531.901	5014.36
532.267	5129.16
532.632	5079.67
532.998	5100.69
533.364	5167.12
533.73	5151.31
534.095	5244.18
534.461	5250.74
534.826	5296.84
535.192	5291.87
535.557	5298.42
535.923	5353.33
536.288	5387.68
536.653	5455.7
537.019	5449.6
537.384	5419.55
537.749	5499.32
538.114	5573.44
538.479	5550.84
538.845	5554.68
539.21	5602.14
539.575	5685.75
539.94	5632.2
540.305	5710.84
540.67	5672.42
541.034	5772.08
541.399	5782.93
541.764	5783.15
542.129	5766.88
542.494	5866.09
542.858	5956.03
543.223	5893.43
543.587	5965.3
543.952	5960.1
544.316	6012.98
544.681	6018.4
545.045	6086.2
545.41	6085.97
545.774	6137.95
546.138	6097.5
546.503	6198.96
546.867	6234.21
547.231	6322.8
547.595	6322.8
547.959	6364.38
548.324	6358.51
548.688	6393.31
549.052	6444.83
549.416	6504.94
549.779	6491.61
550.143	6531.61
550.507	6594.66
550.871	6649.12
551.235	6703.13
551.599	6735.44
551.962	6758.27
552.326	6813.18
552.689	6919.85
553.053	6913.29
553.417	6908.1
553.78	7018.83
554.143	7051.59
554.507	7095.43
554.87	7161.42
555.234	7247.07
555.597	7255.88
555.96	7329.1
556.323	7354.86
556.686	7361.19
557.05	7518.47
557.413	7552.82
557.776	7634.4
558.139	7693.84
558.502	7716.21
558.865	7828.75
559.228	7841.86
559.59	7960.27
559.953	7957.56
560.316	8044.79
560.679	8115.52
561.041	8124.11
561.404	8299.02
561.767	8391.67
562.129	8391.67
562.492	8513.48
562.854	8497.66
563.217	8606.13
563.579	8655.17
563.941	8745.11
564.304	8853.81
564.666	8898.33
565.028	8969.74
565.39	9077.3
565.753	9118.21
566.115	9264.87
566.477	9291.31
566.839	9376.96
567.201	9488.37
567.563	9528.82
567.925	9692.43
568.287	9665.76
568.648	9706.21
569.01	9817.85
569.372	9967
569.734	9923.84
570.095	10096.03
570.457	10146.88
570.819	10234.11
571.18	10235.01
571.542	10398.62
571.903	10453.31
572.265	10514.1
572.626	10599.52
572.987	10720.2
573.349	10798.61
573.71	10901.21
574.071	10920.42
574.432	10981.21
574.794	11115.89
575.155	11167.87
575.516	11195.89
575.877	11276.57
576.238	11358.15
576.599	11489.67
576.96	11516.79
577.32	11561.08
577.681	11641.98
578.042	11711.13
578.403	11718.14
578.763	11824.58
579.124	11887.85
579.485	12059.37
579.845	12069.77
580.206	12048.3
580.566	12119.26
580.927	12242.64
581.287	12315.86
581.648	12329.42
582.008	12470.21
582.368	12428.63
582.728	12556.53
583.089	12506.14
583.449	12639.7
583.809	12627.27
584.169	12751.33
584.529	12698.9
584.889	12873.14
585.249	12864.32
585.609	12878.33
585.969	12933.93
586.329	13052.57
586.688	13046.46
587.048	13140.93
587.408	13106.58
587.768	13068.39
588.127	13246.23
588.487	13164.65
588.846	13311.54
589.206	13218.21
589.565	13269.74
589.925	13432.22
590.284	13410.52
590.643	13438.54
591.003	13508.15
591.362	13578.88
591.721	13593.12
592.08	13646
592.44	13679.67
592.799	13668.37
593.158	13795.37
593.517	13764.19
593.876	13821.36
594.235	13815.94
594.593	13905.65
594.952	13941.81
595.311	13964.18
595.67	13982.26
596.029	14115.82
596.387	14154.46
596.746	14161.01
597.104	14212.54
597.463	14218.19
597.822	14291.63
598.18	14215.47
598.538	14217.28
598.897	14391.97
599.255	14285.98
599.613	14528.91
599.972	14377.96
600.33	14486.88
600.688	14356.94
601.046	14592.86
601.404	14641
601.762	14602.81
602.12	14727.1
602.478	14677.61
602.836	14772.3
603.194	14653.2
603.552	14836.93
603.91	14718.29
604.268	14901.78
604.625	14864.95
604.983	14963.7
605.341	14874.67
605.698	15038.28
606.056	15011.84
606.413	15015.68
606.771	15044.15
607.128	15078.5
607.485	15120.31
607.843	15118.73
608.2	15191.27
608.557	15270.36
608.914	15287.99
609.272	15375.44
609.629	15220.87
609.986	15388.1
610.343	15241.66
610.7	15419.74
611.057	15455.67
611.414	15490.02
611.771	15527.08
612.127	15490.24
612.484	15554.42
612.841	15598.26
613.198	15617.7
613.554	15610.24
613.911	15728.65
614.267	15714.87
614.624	15758.71
614.98	15777.92
615.337	15828.99
615.693	15790.8
616.05	15806.39
616.406	15986.95
616.762	15904.92
617.118	15941.98
617.475	15888.65
617.831	15903.56
618.187	15988.31
618.543	16029.89
618.899	16071.24
619.255	16084.35
619.611	16060.4
619.967	16062.66
620.323	16224.91
620.678	16153.05
621.034	16125.25
621.39	16112.37
621.746	16131.36
622.101	16281.63
622.457	16183.78
622.812	16208.42
623.168	16304.01
623.523	16158.7
623.879	16283.44
624.234	16154.86
624.589	16245.25
624.945	16392.37
625.3	16295.87
625.655	16334.51
626.01	16326.6
626.365	16339.71
626.72	16340.84
627.075	16307.17
627.43	16322.99
627.785	16300.62
628.14	16419.94
628.495	16304.68
628.85	16362.31
629.205	16207.96
629.559	16334.06
629.914	16281.63
630.269	16317.79
630.623	16234.86
630.978	16240.28
631.332	16394.85
631.687	16346.27
632.041	16272.59
632.396	16337.9
632.75	16296.55
633.104	16274.85
633.459	16206.38
633.813	16177.46
634.167	16114.41
634.521	16214.29
634.875	16176.33
635.229	16203.9
635.583	16086.38
635.937	16130.9
636.291	16153.5
636.645	16159.38
636.999	16154.18
637.352	16120.73
637.706	16034.18
638.06	16149.66
638.413	16128.19
638.767	16020.62
639.121	16059.94
639.474	15981.75
639.828	15937.91
640.181	16058.36
640.534	16010
640.888	15957.57
641.241	15857.24
641.594	15961.42
641.947	15979.27
642.301	15972.72
642.654	15876.45
643.007	15975.65
643.36	15949.89
643.713	15939.72
644.066	15937.46
644.419	15815.88
644.771	15765.26
645.124	15653.63
645.477	15615.44
645.83	15509.68
646.182	15434.42
646.535	15337.48
646.888	15359.85
647.24	15297.71
647.593	15426.52
647.945	15346.74
648.298	15374.31
648.65	15290.25
649.002	15238.95
649.355	15318.72
649.707	15300.87
650.059	15358.04
650.411	15610.01
650.763	15643.46
651.115	15729.11
651.467	15697.24
651.819	15689.79
652.171	15658.6
652.523	15678.71
652.875	15620.86
653.227	15565.95
653.578	15706.51
653.93	15708.99
654.282	15568.43
654.633	15587.64
654.985	15630.13
655.337	15623.12
655.688	15479.85
656.039	15598.04
656.391	15513.07
656.742	15595.78
657.094	15586.51
657.445	15613.4
657.796	15612.95
658.147	15646.4
658.498	15553.52
658.849	15606.4
659.2	15604.59
659.551	15546.96
659.902	15668.77
660.253	15572.05
660.604	15636.45
660.955	15539.96
661.306	15578.6
661.656	15593.74
662.007	15630.58
662.358	15591.48
662.708	15571.37
663.059	15705.38
663.409	15579.51
663.76	15685.94
664.11	15616.57
664.461	15638.26
664.811	15661.76
665.161	15625.38
665.511	15541.31
665.862	15663.57
666.212	15689.33
666.562	15538.38
666.912	15632.39
667.262	15577.7
667.612	15704.02
667.962	15622.67
668.312	15595.1
668.662	15680.97
669.011	15634.65
669.361	15655.89
669.711	15761.65
670.06	15619.73
670.41	15717.36
670.76	15631.93
671.109	15682.55
671.459	15601.2
671.808	15636
672.157	15683.23
672.507	15630.58
672.856	15682.1
673.205	15615.21
673.554	15657.92
673.904	15663.57
674.253	15662.67
674.602	15757.35
674.951	15446.4
675.3	15397.82
675.649	15664.02
675.998	15663.12
676.346	15648.43
676.695	15826.28
677.044	15620.18
677.393	15699.28
677.741	15680.97
678.09	15629
678.438	15717.13
678.787	15651.59
679.135	15670.12
679.484	15558.04
679.832	15742.67
680.181	15563.91
680.529	15634.87
680.877	15631.03
681.225	15626.96
681.573	15735.21
681.922	15704.47
682.27	15562.56
682.618	15489.11
682.966	15524.14
683.314	15633.74
683.661	15462.9
684.009	15533.86
684.357	15536.79
684.705	15473.97
685.053	15575.89
685.4	15541.54
685.748	15428.55
686.095	15491.37
686.443	15399.85
686.79	15383.58
687.138	15399.85
687.485	15326.86
687.832	15395.78
688.18	15354.65
688.527	15356.46
688.874	15250.93
689.221	15304.48
689.568	15213.41
689.915	15268.55
690.262	15253.64
690.609	15238.05
690.956	15198.5
691.303	15167.09
691.65	15050.71
691.997	15124.38
692.344	15019.07
692.69	15101.1
693.037	15063.36
693.383	14989.24
693.73	14986.3
694.077	14935.45
694.423	14963.48
694.769	14897.04
695.116	14914.66
695.462	14973.19
695.808	14833.08
696.155	14878.06
696.501	14783.14
696.847	14804.61
697.193	14670.6
697.539	14764.84
697.885	14585.63
698.231	14681
698.577	14661.34
698.923	14538.18
699.269	14581.57
699.614	14424.51
699.96	14512.42
700.306	14605.07
700.651	14391.06
700.997	14419.99
701.342	14446.2
701.688	14455.69
702.033	14316.04
702.379	14432.42
702.724	14347.67
703.069	14407.11
703.415	14258.41
703.76	14277.62
704.105	14217.73
704.45	14218.41
704.795	14161.01
705.14	14144.52
705.485	14158.53
705.83	14160.56
706.175	14148.36
706.52	14165.53
706.865	14041.69
707.209	14102.26
707.554	14002.37
707.899	14096.38
708.243	13994.69
708.588	13922.15
708.932	13868.82
709.277	13984.75
709.621	14010.96
709.966	13845.77
710.31	13938.19
710.654	13765.77
710.998	13772.32
711.342	13837.86
711.687	13862.26
712.031	13784.75
712.375	13732.1
712.719	13776.84
713.063	13758.08
713.407	13747.92
713.75	13726
714.094	13723.74
714.438	13659.78
714.782	13761.47
715.125	13562.61
715.469	13584.3
715.812	13537.3
716.156	13467.92
716.499	13549.28
716.843	13589.28
717.186	13443.06
717.53	13497.98
717.873	13522.84
718.216	13561.93
718.559	13354.03
718.902	13396.74
719.246	13437.64
719.589	13407.36
719.932	13411.2
720.275	13339.34
720.617	13331.2
720.96	13346.57
721.303	13298.89
721.646	13297.76
721.989	13243.97
722.331	13300.24
722.674	13327.81
723.016	13238.55
723.359	13285.55
723.701	13360.81
724.044	13219.79
724.386	13179.79
724.729	13256.63
725.071	13269.51
725.413	13232.22
725.755	13150.87
726.097	13129.4
726.439	13114.26
726.782	13201.49
727.124	13175.28
727.465	13150.87
727.807	13127.59
728.149	13143.86
728.491	13022.06
728.833	13152.9
729.175	13037.88
729.516	13017.09
729.858	13057.76
730.199	13058.44
730.541	12960.59
730.882	13005.11
731.224	13013.92
731.565	12927.37
731.906	13125.11
732.248	12939.58
732.589	12934.38
732.93	12866.58
733.271	12969.63
733.612	12884.21
733.953	12963.3
734.294	12841.27
734.635	12803.99
734.976	12867.49
735.317	12810.76
735.658	12759.24
735.999	12886.02
736.339	12790.2
736.68	12775.51
737.021	12768.96
737.361	12771.9
737.702	12794.04
738.042	12679.47
738.383	12718.11
738.723	12686.02
739.063	12635.4
739.404	12657.55
739.744	12604.67
740.084	12596.53
740.424	12704.33
740.764	12605.57
741.104	12653.71
741.444	12490.55
741.784	12514.5
742.124	12521.05
742.464	12569.64
742.804	12492.13
743.143	12477.89
743.483	12542.07
743.823	12332.13
744.162	12416.88
744.502	12532.58
744.841	12291.46
745.181	12428.63
745.52	12393.83
745.86	12352.25
746.199	12344.11
746.538	12303.21
746.877	12316.54
747.216	12377.1
747.556	12255.53
747.895	12380.95
748.234	12207.16
748.573	12214.17
748.911	12206.26
749.25	12094.85
749.589	12148.64
749.928	12149.31
750.267	12173.95
750.605	12110.67
750.944	12045.36
751.283	12006.94
751.621	12043.55
751.96	11959.04
752.298	11990.22
752.636	11962.2
752.975	11909.77
753.313	11880.62
753.651	11940.05
753.989	11849.89
754.327	11884.01
754.666	11790.45
755.004	11745.93
755.342	11777.12
755.679	11733.05
756.017	11726.95
756.355	11727.86
756.693	11620.29
757.031	11580.29
757.368	11557.24
757.706	11533.74
758.044	11510.69
758.381	11564.92
758.719	11505.04
759.056	11537.13
759.394	11429.78
759.731	11336.23
760.068	11374.19
760.405	11269.34
760.743	11220.3
761.08	11296.45
761.417	11213.52
761.754	11213.07
762.091	11187.53
762.428	11220.07
762.765	11020.53
763.102	11145.95
763.438	10944.37
763.775	10968.78
764.112	11022.79
764.449	10990.7
764.785	10872.74
765.122	10811.72
765.458	10729.69
765.795	10738.73
766.131	10738.5
766.467	10722.68
766.804	10660.09
767.14	10573.99
767.476	10579.86
767.812	10541.67
768.148	10554.55
768.485	10498.74
768.821	10465.97
769.157	10473.43
769.492	10386.65
769.828	10363.37
770.164	10350.04
770.5	10315.24
770.836	10305.75
771.171	10177.16
771.507	10204.28
771.842	10132.87
772.178	10116.15
772.513	10136.71
772.849	10120.67
773.184	10022.59
773.519	10022.82
773.855	9962.03
774.19	9905.76
774.525	9899.43
774.86	9805.87
775.195	9826.66
775.53	9733.11
775.865	9706.21
776.2	9697.63
776.535	9586.89
776.87	9608.36
777.205	9515.71
777.539	9478.65
777.874	9559.55
778.209	9468.03
778.543	9429.16
778.878	9405.66
779.212	9323.4
779.547	9282.95
779.881	9387.58
780.215	9226.9
780.55	9237.75
780.884	9101.71
781.218	9132.44
781.552	9124.99
781.886	9098.55
782.22	8988.04
782.554	8985.55
782.888	8913.69
783.222	8844.32
783.556	8819.91
783.889	8878.66
784.223	8708.73
784.557	8738.56
784.89	8783.75
785.224	8700.36
785.557	8694.26
785.891	8561.39
786.224	8559.58
786.558	8580.59
786.891	8479.13
787.224	8493.36
787.557	8485.45
787.891	8434.16
788.224	8401.39
788.557	8390.77
788.89	8357.55
789.223	8301.73
789.556	8285.69
789.888	8230.09
790.221	8225.8
790.554	8147.61
790.887	8205.69
791.219	8119.81
791.552	8084.34
791.884	8032.36
792.217	8040.49
792.549	8006.82
792.882	7956.88
793.214	7933.83
793.546	7975.64
793.879	7836.43
794.211	7814.06
794.543	7864.91
794.875	7871.69
795.207	7828.75
795.539	7795.3
795.871	7692.26
796.203	7675.53
796.535	7610.45
796.867	7622.65
797.198	7603.44
797.53	7575.87
797.862	7571.13
798.193	7516.67
798.525	7473.5
798.856	7395.09
799.188	7370.91
799.519	7373.17
799.85	7296.33
800.182	7327.29
800.513	7286.62
800.844	7245.94
801.175	7338.82
801.506	7228.31
801.837	7243.23
802.168	7224.25
802.499	7180.63
802.83	7177.69
803.161	7132.95
803.491	7090.46
803.822	7094.08
804.153	6982.9
804.483	7028.77
804.814	6970.47
805.145	7006.4
805.475	6942.22
805.805	6910.36
806.136	6880.53
806.466	6897.25
806.796	6888.43
807.126	6805.5
807.457	6863.8
807.787	6798.27
808.117	6783.8
808.447	6739.51
808.777	6719.4
809.107	6726.63
809.436	6702.45
809.766	6658.16
810.096	6655.22
810.426	6645.73
810.755	6631.49
811.085	6562.12
811.414	6530.48
811.744	6506.3
812.073	6520.31
812.403	6452.74
812.732	6451.61
813.061	6473.53
813.39	6430.82
813.719	6376.58
814.049	6462.91
814.378	6404.38
814.707	6322.12
815.036	6387.88
815.365	6319.41
815.693	6264.72
816.022	6251.39
816.351	6304.27
816.68	6234.44
817.008	6290.26
817.337	6205.06
817.665	6150.15
817.994	6205.51
818.322	6204.61
818.651	6140.43
818.979	6106.53
819.307	6119.42
819.636	6116.48
819.964	6025.18
820.292	6043.94
820.62	6059.3
820.948	6041
821.276	6053.88
821.604	6076.03
821.932	6021.79
822.259	5999.87
822.587	5994.45
822.915	5980.89
823.243	6003.03
823.57	6005.07
823.898	6006.2
824.225	6010.72
824.553	5935.92
824.88	5990.15
825.207	6005.52
825.535	5962.36
825.862	5967.1
826.189	5961.91
826.516	6013.2
826.843	6001.68
827.17	6040.1
827.497	5973.66
827.824	6006.88
828.151	5942.92
828.478	5956.03
828.805	5949.7
829.131	5974.79
829.458	5899.31
829.785	5876.26
830.111	5911.06
830.438	5899.08
830.764	5922.36
831.09	5903.15
831.417	5889.59
831.743	5878.29
832.069	5891.62
832.395	5877.61
832.722	5890.72
833.048	5864.73
833.374	5829.25
833.7	5788.12
834.026	5779.99
834.351	5842.13
834.677	5817.5
835.003	5789.48
835.329	5815.02
835.654	5818.18
835.98	5773.66
836.306	5762.81
836.631	5716.71
836.956	5747.9
837.282	5738.63
837.607	5741.12
837.932	5707
838.258	5729.37
838.583	5736.83
838.908	5651.18
839.233	5664.74
839.558	5648.47
839.883	5628.13
840.208	5598.75
840.533	5620.22
840.858	5617.06
841.182	5600.11
841.507	5582.03
841.832	5578.19
842.156	5600.33
842.481	5514.01
842.805	5542.26
843.13	5545.19
843.454	5496.15
843.778	5463.16
844.103	5462.94
844.427	5485.76
844.751	5391.98
845.075	5406.21
845.399	5381.36
845.723	5395.37
846.047	5393.56
846.371	5375.25
846.695	5310.4
847.019	5307.01
847.343	5270.85
847.666	5244.41
847.99	5248.03
848.313	5222.49
848.637	5191.98
848.96	5193.56
849.284	5152.21
849.607	5145.88
849.931	5129.61
850.254	5137.52
850.577	5063.17
850.9	5037.64
851.223	5013.23
851.546	5004.19
851.869	4929.84
852.192	5027.01
852.515	4980.69
852.838	4943.85
853.161	4911.54
853.483	4857.53
853.806	4869.5
854.129	4864.76
854.451	4836.96
854.774	4801.71
855.096	4820.01
855.419	4801.26
855.741	4801.71
856.063	4749.96
856.385	4746.8
856.708	4729.4
857.03	4677.19
857.352	4717.42
857.674	4700.92
857.996	4688.49
858.318	4600.59
858.64	4633.35
858.961	4639.23
859.283	4619.34
859.605	4581.6
859.926	4605.56
860.248	4584.54
860.57	4566.46
860.891	4616.63
861.212	4521.27
861.534	4513.13
861.855	4542.28
862.176	4502.96
862.498	4513.36
862.819	4504.32
863.14	4526.91
863.461	4478.78
863.782	4456.86
864.103	4439.69
864.424	4464.09
864.745	4467.71
865.065	4399.01
865.386	4372.12
865.707	4468.84
866.027	4422.51
866.348	4370.31
866.668	4371.21
866.989	4331.44
867.309	4370.99
867.63	4323.3
867.95	4368.05
868.27	4347.94
868.59	4307.71
868.91	4344.09
869.23	4341.83
869.55	4293.47
869.87	4312.23
870.19	4309.52
870.51	4295.28
870.83	4266.13
871.15	4257.09
871.469	4275.4
871.789	4239.01
872.109	4235.4
872.428	4244.66
872.748	4249.63
873.067	4187.49
873.386	4218.67
873.706	4191.56
874.025	4216.19
874.344	4168.73
874.663	4199.24
874.982	4153.14
875.301	4192.01
875.62	4164.21
875.939	4166.7
876.258	4153.37
876.577	4173.7
876.896	4142.97
877.214	4135.29
877.533	4102.97
877.852	4101.16
878.17	4124.21
878.489	4112.01
878.807	4112.91
879.125	4128.28
879.444	4097.1
879.762	4068.85
880.08	4087.6
880.398	4048.06
880.716	4058.45
881.034	4017.78
881.352	4062.52
881.67	4001.28
881.988	4010.09
882.306	4024.56
882.624	4001.05
882.941	3961.05
883.259	3988.4
883.577	4009.41
883.894	3943.2
884.212	3961.96
884.529	3958.57
884.846	3931.45
885.164	3961.28
885.481	3914.05
885.798	3915.86
886.115	3876.08
886.432	3903.2
886.75	3875.41
887.067	3928.06
887.383	3916.54
887.7	3864.33
888.017	3865.01
888.334	3858.91
888.651	3879.47
888.967	3831.34
889.284	3831.34
889.6	3803.09
889.917	3764.68
890.233	3799.7
890.55	3733.94
890.866	3778.69
891.182	3786.37
891.498	3768.29
891.815	3732.36
892.131	3694.17
892.447	3706.82
892.763	3712.25
893.079	3682.87
893.395	3695.75
893.71	3662.98
894.026	3623.44
894.342	3626.37
894.657	3679.25
894.973	3602.42
895.289	3645.36
895.604	3585.7
895.92	3576.66
896.235	3576.43
896.55	3574.17
896.865	3559.48
897.181	3549.31
897.496	3525.81
897.811	3547.96
898.126	3520.61
898.441	3477.9
898.756	3439.71
899.071	3448.98
899.386	3481.07
899.7	3468.19
900.015	3488.75
900.33	3399.03
900.644	3411.92
900.959	3396.78
901.273	3421.18
901.588	3411.92
901.902	3375.53
902.216	3363.1
902.531	3323.33
902.845	3357.68
903.159	3373.72
903.473	3319.49
903.787	3324.23
904.101	3276.78
904.415	3301.18
904.729	3282.88
905.042	3283.78
905.356	3271.35
905.67	3251.69
905.984	3267.51
906.297	3253.73
906.611	3235.2
906.924	3249.66
907.237	3225.93
907.551	3224.12
907.864	3200.62
908.177	3196.33
908.491	3185.48
908.804	3164.24
909.117	3116.1
909.43	3123.56
909.743	3097.12
910.056	3126.5
910.368	3101.19
910.681	3102.32
910.994	3055.09
911.307	3036.11
911.619	3042.89
911.932	3066.39
912.244	2985.26
912.557	3006.5
912.869	3037.69
913.181	2979.38
913.494	3009.89
913.806	2963.34
914.118	2986.84
914.43	2928.09
914.742	2962.44
915.054	2909.56
915.366	2877.47
915.678	2892.83
915.99	2893.74
916.302	2880.4
916.613	2857.58
916.925	2884.02
917.236	2814.64
917.548	2823.68
917.859	2851.93
918.171	2813.51
918.482	2829.56
918.794	2782.78
919.105	2806.06
919.416	2768.54
919.727	2782.55
920.038	2771.03
920.349	2742.33
920.66	2702.56
920.971	2692.16
921.282	2706.4
921.593	2686.51
921.903	2678.83
922.214	2668.88
922.525	2647.19
922.835	2660.3
923.146	2649.22
923.456	2633.63
923.767	2654.65
924.077	2606.74
924.387	2591.6
924.697	2602.45
925.008	2560.64
925.318	2571.71
925.628	2581.66
925.938	2566.51
926.248	2574.42
926.558	2540.3
926.867	2528.1
927.177	2535.55
927.487	2510.7
927.796	2496.46
928.106	2495.1
928.416	2469.34
928.725	2475.22
929.034	2488.55
929.344	2470.02
929.653	2453.75
929.962	2429.57
930.271	2430.7
930.581	2425.05
930.89	2411.72
931.199	2385.95
931.508	2377.59
931.817	2358.38
932.125	2373.3
932.434	2373.3
932.743	2354.77
933.051	2363.81
933.36	2356.35
933.669	2329.46
933.977	2322.68
934.286	2314.77
934.594	2286.52
934.902	2300.31
935.21	2272.74
935.519	2297.37
935.827	2245.17
936.135	2267.77
936.443	2244.26
936.751	2206.75
937.059	2233.64
937.367	2224.83
937.674	2218.05
937.982	2210.59
938.29	2194.32
938.597	2179.86
938.905	2184.38
939.213	2190.48
939.52	2154.1
939.827	2155
940.135	2166.98
940.442	2157.26
940.749	2171.72
941.056	2123.36
941.363	2114.32
941.67	2115
941.977	2121.1
942.284	2100.31
942.591	2093.98
942.898	2090.82
943.205	2069.8
943.511	2074.1
943.818	2089.24
944.125	2024.83
944.431	2053.31
944.738	2043.82
945.044	2020.99
945.35	2038.62
945.657	2012.63
945.963	1997.04
946.269	2005.4
946.575	1980.09
946.881	1999.07
947.187	1990.03
947.493	1968.34
947.799	1949.13
948.105	1963.37
948.41	1922.46
948.716	1940.32
949.022	1959.75
949.327	1934.21
949.633	1875.23
949.938	1925.63
950.244	1921.79
950.549	1874.1
950.854	1894.44
951.16	1902.35
951.465	1893.99
951.77	1852.86
952.075	1876.82
952.38	1884.27
952.685	1853.99
952.99	1837.49
953.294	1843.6
953.599	1844.27
953.904	1844.5
954.209	1816.93
954.513	1837.95
954.818	1775.8
955.122	1798.17
955.426	1798.17
955.731	1773.99
956.035	1778.51
956.339	1774.9
956.643	1766.54
956.948	1751.62
957.252	1755.24
957.556	1742.81
957.86	1750.94
958.163	1748.23
958.467	1742.36
958.771	1738.06
959.075	1717.27
959.378	1668.46
959.682	1698.06
959.985	1681.79
960.289	1703.26
960.592	1703.26
960.896	1670.49
961.199	1673.66
961.502	1666.88
961.805	1634.11
962.108	1641.57
962.411	1640.66
962.714	1646.31
963.017	1641.79
963.32	1622.81
963.623	1625.52
963.926	1608.35
964.228	1633.21
964.531	1604.73
964.833	1639.08
965.136	1596.82
965.438	1578.07
965.741	1587.11
966.043	1552.3
966.345	1581.68
966.648	1590.27
966.95	1550.72
967.252	1579.42
967.554	1534.9
967.856	1539.65
968.158	1565.41
968.46	1550.95
968.761	1536.26
969.063	1534.45
969.365	1530.38
969.666	1511.17
969.968	1494.45
970.269	1476.6
970.571	1506.88
970.872	1489.71
971.174	1500.1
971.475	1478.41
971.776	1490.84
972.077	1461.68
972.378	1457.17
972.679	1488.12
972.98	1478.86
973.281	1464.85
973.582	1450.61
973.883	1424.17
974.183	1423.95
974.484	1430.27
974.785	1415.13
975.085	1426.21
975.386	1444.74
975.686	1408.13
975.986	1425.3
976.287	1399.09
976.587	1383.27
976.887	1406.09
977.187	1368.81
977.487	1392.31
977.787	1394.34
978.087	1382.59
978.387	1389.14
978.687	1365.87
978.987	1338.75
979.286	1368.13
979.586	1341.01
979.885	1360.9
980.185	1355.92
980.484	1304.85
980.784	1329.48
981.083	1321.58
981.382	1317.96
981.682	1325.64
981.981	1304.85
982.28	1301.91
982.579	1302.59
982.878	1303.04
983.177	1299.43
983.475	1289.26
983.774	1255.59
984.073	1293.1
984.372	1262.82
984.67	1284.29
984.969	1287.23
985.267	1261.01
985.566	1280.45
985.864	1255.36
986.162	1244.74
986.461	1256.94
986.759	1244.29
987.057	1241.58
987.355	1221.92
987.653	1217.17
987.951	1219.88
988.249	1212.43
988.547	1205.87
988.844	1222.37
989.142	1207.68
989.44	1181.47
989.737	1189.83
990.035	1203.84
990.332	1202.71
990.63	1162.48
990.927	1178.53
991.224	1160.45
991.521	1161.13
991.819	1167.46
992.116	1182.14
992.413	1145.99
992.71	1132.65
993.006	1148.47
993.303	1131.07
993.6	1143.5
993.897	1144.18
994.193	1120.9
994.49	1118.19
994.787	1111.41
995.083	1113.67
995.379	1093.11
995.676	1106.21
995.972	1104.18
996.268	1064.86
996.565	1083.16
996.861	1068.02
997.157	1062.83
997.453	1069.83
997.749	1051.98
998.044	1065.31
998.34	1078.64
998.636	1048.59
998.932	1055.59
999.227	1030.06
999.523	1053.33
999.818	1034.58
1000.114	1040.9
1000.409	1023.96
1000.704	1012.21
1001	1037.29
1001.295	1029.83
1001.59	994.35
1001.885	1018.98
1002.18	1003.62
1002.475	1011.08
1002.77	1012.21
1003.065	990.28
1003.359	983.05
1003.654	961.13
1003.949	1008.59
1004.243	975.14
1004.538	953.45
1004.832	944.86
1005.127	960.23
1005.421	970.62
1005.715	952.09
1006.009	944.41
1006.304	939.89
1006.598	936.05
1006.892	957.29
1007.186	952.55
1007.48	937.4
1007.773	923.85
1008.067	928.14
1008.361	908.25
1008.655	945.09
1008.948	900.8
1009.242	921.59
1009.535	915.94
1009.829	901.7
1010.122	894.47
1010.415	882.49
1010.708	866.67
1011.001	863.73
1011.295	870.06
1011.588	861.47
1011.881	879.55
1012.173	852.89
1012.466	862.83
1012.759	839.78
1013.052	856.28
1013.344	854.92
1013.637	853.79
1013.93	833
1014.222	828.03
1014.514	847.92
1014.807	821.48
1015.099	816.73
1015.391	805.2
1015.683	830.06
1015.976	834.13
1016.268	817.18
1016.56	801.36
1016.851	789.16
1017.143	807.92
1017.435	795.94
1017.727	803.4
1018.018	807.92
1018.31	789.61
1018.602	795.04
1018.893	791.42
1019.185	784.19
1019.476	773.12
1019.767	789.84
1020.058	767.92
1020.35	769.5
1020.641	736.05
1020.932	757.52
1021.223	747.81
1021.514	742.16
1021.804	740.12
1022.095	745.32
1022.386	764.08
1022.677	739.67
1022.967	719.78
1023.258	731.53
1023.548	712.1
1023.839	723.63
1024.129	702.61
1024.419	707.81
1024.709	697.41
1025	711.2
1025.29	680.01
1025.58	714.59
1025.87	690.86
1026.16	696.28
1026.449	696.06
1026.739	693.8
1027.029	688.82
1027.319	678.88
1027.608	687.02
1027.898	661.48
1028.187	640.24
1028.477	640.24
1028.766	667.36
1029.055	672.1
1029.344	666.45
1029.634	636.85
1029.923	669.84
1030.212	660.12
1030.501	658.54
1030.79	645.21
1031.078	656.73
1031.367	645.44
1031.656	630.29
1031.945	631.42
1032.233	627.81
1032.522	623.29
1032.81	591.2
1033.099	601.37
1033.387	619.9
1033.675	594.36
1033.963	631.42
1034.251	619.45
1034.54	582.39
1034.828	600.01
1035.116	585.32
1035.403	612.67
1035.691	592.1
1035.979	594.14
1036.267	601.59
1036.554	588.49
1036.842	597.53
1037.129	597.3
1037.417	576.96
1037.704	602.05
1037.992	575.83
1038.279	584.87
1038.566	573.12
1038.853	573.12
1039.14	573.12
