Data from cardboard_FLMS001491_014.txt Node
Date: Tue Feb 07 11:39:01 GMT 2017
User: dcchb
Spectrometer: FLMS00149
Trigger mode: 0
Integration Time (sec): 2.000000E-2
Scans to average: 10
Electric dark correction enabled: true
Nonlinearity correction enabled: false
Boxcar width: 0
XAxis mode: Wavelengths
Number of Pixels in Spectrum: 2048
>>>>>Begin Spectral Data<<<<<
341.393	-18.97
341.776	-18.97
342.16	-18.97
342.543	-56.71
342.927	-58.06
343.31	-68.23
343.693	-66.42
344.077	-63.49
344.46	-78.85
344.843	-40.21
345.226	-53.09
345.61	-26.43
345.993	-12.87
346.376	3.63
346.759	3.18
347.142	27.81
347.525	39.56
347.908	56.28
348.291	66.23
348.674	102.38
349.057	110.52
349.44	125.43
349.823	150.97
350.206	169.95
350.588	188.94
350.971	184.64
351.354	199.1
351.737	229.84
352.119	255.15
352.502	262.61
352.884	268.71
353.267	291.08
353.65	287.92
354.032	292.89
354.414	307.12
354.797	329.27
355.179	312.1
355.562	322.72
355.944	299.89
356.326	296.28
356.709	324.07
357.091	315.94
357.473	332.21
357.855	323.62
358.238	327.92
358.62	348.25
359.002	318.88
359.384	364.07
359.766	334.24
360.148	313.45
360.53	345.32
360.912	323.4
361.294	315.49
361.676	331.98
362.057	322.72
362.439	330.17
362.821	303.96
363.203	320.68
363.584	310.29
363.966	302.61
364.348	324.98
364.729	313.68
365.111	298.31
365.493	313.9
365.874	286.33
366.256	321.36
366.637	306.22
367.019	313
367.4	308.93
367.781	317.75
368.163	319.1
368.544	288.37
368.925	303.51
369.306	301.93
369.688	303.51
370.069	299.44
370.45	294.47
370.831	284.07
371.212	291.98
371.593	306.67
371.974	317.29
372.355	298.76
372.736	317.52
373.117	307.58
373.498	313.9
373.879	330.63
374.26	323.4
374.641	315.49
375.021	306.9
375.402	326.79
375.783	308.48
376.163	309.84
376.544	289.95
376.925	336.95
377.305	324.75
377.686	324.07
378.066	322.04
378.447	335.82
378.827	330.17
379.208	329.5
379.588	332.43
379.968	322.72
380.349	338.76
380.729	311.42
381.109	328.59
381.489	330.63
381.87	317.07
382.25	335.37
382.63	348.93
383.01	338.76
383.39	336.5
383.77	305.32
384.15	331.53
384.53	334.24
384.91	364.52
385.29	336.73
385.67	355.71
386.049	335.6
386.429	338.99
386.809	336.05
387.189	332.89
387.568	339.21
387.948	355.03
388.328	359.1
388.707	359.1
389.087	351.87
389.466	359.33
389.846	357.97
390.225	349.16
390.605	358.42
390.984	352.32
391.363	394.58
391.743	382.15
392.122	352.77
392.501	377.41
392.881	390.96
393.26	368.82
393.639	357.29
394.018	386.22
394.397	381.47
394.776	367.46
395.155	373.56
395.534	373.34
395.913	379.89
396.292	368.37
396.671	377.41
397.05	405.43
397.429	387.8
397.808	403.85
398.186	389.38
398.565	386.44
398.944	400
399.323	389.38
399.701	403.85
400.08	389.38
400.458	400.46
400.837	406.78
401.215	399.33
401.594	416.05
401.972	409.72
402.351	400.68
402.729	413.11
403.107	421.47
403.486	401.36
403.864	404.98
404.242	426.9
404.62	435.48
404.999	423.05
405.377	424.64
405.755	423.96
406.133	431.87
406.511	448.59
406.889	437.52
407.267	464.41
407.645	440.23
408.023	448.14
408.401	446.33
408.779	469.38
409.156	463.96
409.534	452.43
409.912	454.92
410.29	477.06
410.667	453.34
411.045	462.6
411.422	491.3
411.8	480.68
412.178	483.62
412.555	489.49
412.933	491.98
413.31	488.59
413.687	484.52
414.065	505.09
414.442	519.1
414.819	520.68
415.197	525.2
415.574	522.03
415.951	520.45
416.328	516.38
416.705	529.72
417.082	528.14
417.46	563.16
417.837	557.51
418.214	536.05
418.591	522.94
418.967	540.56
419.344	535.14
419.721	545.76
420.098	562.03
420.475	542.6
420.852	560.45
421.228	568.59
421.605	561.36
421.982	562.71
422.358	602.48
422.735	585.99
423.111	605.2
423.488	593.22
423.864	575.59
424.241	597.29
424.617	601.81
424.994	612.88
425.37	610.62
425.746	604.52
426.123	612.2
426.499	615.82
426.875	631.86
427.251	623.95
427.627	632.77
428.003	647
428.379	632.54
428.756	644.29
429.132	644.29
429.507	665.08
429.883	651.97
430.259	670.28
430.635	679.32
431.011	689.49
431.387	680.22
431.763	696.72
432.138	696.94
432.514	733.33
432.89	707.34
433.265	741.01
433.641	727.45
434.016	741.69
434.392	751.86
434.767	740.11
435.143	774.46
435.518	753.44
435.894	755.47
436.269	773.1
436.644	803.16
437.02	782.14
437.395	784.63
437.77	807.68
438.145	815.36
438.52	823.27
438.895	834.57
439.271	845.19
439.646	842.93
440.021	844.51
440.395	826.43
440.77	817.39
441.145	850.84
441.52	863.04
441.895	841.57
442.27	875.47
442.645	877.28
443.019	888.13
443.394	873.89
443.769	885.64
444.143	856.49
444.518	886.77
444.892	899.88
445.267	911.63
445.641	901.46
446.016	919.31
446.39	907.33
446.764	934.45
447.139	914.57
447.513	928.35
447.887	942.14
448.262	937.84
448.636	952.08
449.01	964.28
449.384	979.42
449.758	964.51
450.132	1004.06
450.506	967.45
450.88	978.75
451.254	998.41
451.628	1013.55
452.002	1012.19
452.376	1040.89
452.75	1016.71
453.123	1048.8
453.497	1059.87
453.871	1054.68
454.244	1082.02
454.618	1104.84
454.992	1109.14
455.365	1100.32
455.739	1147.78
456.112	1123.15
456.486	1133.77
456.859	1146.88
457.232	1160.66
457.606	1161.57
457.979	1184.39
458.352	1174.22
458.725	1212.41
459.099	1237.27
459.472	1220.1
459.845	1272.3
460.218	1252.86
460.591	1264.61
460.964	1280.88
461.337	1299.41
461.71	1314.78
462.083	1354.1
462.456	1329.02
462.829	1329.02
463.201	1364.72
463.574	1348.91
463.947	1369.02
464.32	1402.92
464.692	1410.15
465.065	1425.51
465.438	1464.38
465.81	1447.43
466.183	1500.54
466.555	1503.7
466.928	1513.42
467.3	1511.39
467.672	1547.77
468.045	1575.34
468.417	1561.33
468.789	1578.5
469.161	1610.82
469.534	1636.13
469.906	1643.81
470.278	1666.86
470.65	1671.16
471.022	1702.79
471.394	1749.8
471.766	1765.39
472.138	1772.4
472.51	1787.76
472.882	1841.55
473.253	1836.8
473.625	1867.08
473.997	1938.27
474.369	1910.47
474.74	1953.41
475.112	1992.28
475.484	2018.94
475.855	2053.97
476.227	2050.58
476.598	2156.12
476.97	2117.92
477.341	2193.63
477.713	2203.57
478.084	2213.97
478.455	2259.84
478.827	2293.51
479.198	2371.25
479.569	2357.69
479.94	2432.27
480.311	2418.03
480.682	2502.55
481.053	2565.6
481.424	2600.4
481.795	2609.89
482.166	2643.56
482.537	2707.74
482.908	2757.91
483.279	2785.7
483.65	2815.76
484.021	2894.18
484.391	2946.38
484.762	2927.62
485.133	2978.69
485.503	3013.95
485.874	3067.05
486.244	3110.67
486.615	3156.32
486.985	3199.93
487.356	3250.55
487.726	3323.09
488.097	3359.47
488.467	3394.5
488.837	3459.58
489.207	3473.37
489.578	3519.7
489.948	3613.7
490.318	3621.84
490.688	3649.86
491.058	3697.32
491.428	3737.09
491.798	3830.87
492.168	3880.36
492.538	3895.73
492.908	3921.94
493.278	4014.82
493.648	4049.4
494.017	4078.78
494.387	4133.24
494.757	4173.01
495.126	4215.5
495.496	4248.26
495.866	4327.58
496.235	4359.67
496.605	4390.63
496.974	4383.18
497.344	4524.64
497.713	4470.86
498.082	4560.35
498.452	4627.92
498.821	4666.56
499.19	4642.15
499.559	4745.65
499.928	4750.85
500.298	4781.36
500.667	4863.16
501.036	4898.64
501.405	4869.26
501.774	4970.73
502.143	5043.5
502.512	5008.24
502.88	5105.64
503.249	5149.94
503.618	5134.12
503.987	5232.42
504.356	5250.5
504.724	5319.65
505.093	5348.12
505.462	5360.33
505.83	5387.67
506.199	5422.24
506.567	5582.47
506.936	5569.13
507.304	5663.14
507.672	5668.79
508.041	5785.4
508.409	5784.72
508.777	5842.57
509.145	5915.79
509.514	5916.47
509.882	5952.85
510.25	5976.58
510.618	6103.13
510.986	6147.42
511.354	6184.48
511.722	6216.57
512.09	6280.75
512.458	6329.57
512.826	6428.09
513.193	6487.08
513.561	6505.61
513.929	6587.64
514.297	6614.53
514.664	6669.44
515.032	6693.4
515.4	6793.06
515.767	6835.54
516.135	6940.17
516.502	6939.94
516.869	7078.47
517.237	7128.19
517.604	7078.47
517.972	7197.56
518.339	7255.64
518.706	7320.05
519.073	7350.1
519.44	7446.15
519.808	7539.7
520.175	7577.67
520.542	7645.46
520.909	7715.07
521.276	7819.7
521.643	7887.04
522.009	7871.9
522.376	8041.84
522.743	8045.23
523.11	8159.35
523.477	8297.2
523.843	8343.98
524.21	8458.55
524.577	8497.42
524.943	8567.25
525.31	8590.97
525.676	8776.05
526.043	8709.16
526.409	8932.66
526.776	9000.68
527.142	9000.23
527.508	9138.08
527.874	9207
528.241	9349.6
528.607	9363.84
528.973	9497.62
529.339	9423.72
529.705	9635.69
530.071	9729.93
530.437	9783.94
530.803	9889.02
531.169	9869.13
531.535	9986.64
531.901	10035.46
532.267	10074.78
532.632	10135.34
532.998	10264.6
533.364	10376.24
533.73	10333.98
534.095	10449.91
534.461	10557.93
534.826	10600.87
535.192	10670.02
535.557	10809.9
535.923	10828.88
536.288	10853.97
536.653	10919.28
537.019	10946.62
537.384	11024.36
537.749	11055.77
538.114	11171.25
538.479	11230.45
538.845	11298.47
539.21	11329.89
539.575	11385.25
539.94	11500.28
540.305	11597.45
540.67	11619.14
541.034	11676.09
541.399	11712.7
541.764	11836.31
542.129	11786.82
542.494	11918.34
542.858	12071.34
543.223	12053.03
543.587	12094.84
543.952	12100.71
544.316	12309.75
544.681	12272.69
545.045	12348.39
545.41	12440.36
545.774	12462.06
546.138	12496.41
546.503	12556.07
546.867	12698.44
547.231	12843.97
547.595	12816.17
547.959	12887.13
548.324	12942.5
548.688	12969.84
549.052	13107.47
549.416	13147.69
549.779	13248.71
550.143	13279.66
550.507	13372.77
550.871	13368.25
551.235	13406.22
551.599	13611.63
551.962	13655.25
552.326	13714.91
552.689	13787
553.053	13784.96
553.417	13886.65
553.78	14085.52
554.143	14066.76
554.507	14156.48
554.87	14283.93
555.234	14354.44
555.597	14316.7
555.96	14485.28
556.323	14511.72
556.686	14543.81
557.05	14743.81
557.413	14789.68
557.776	14829
558.139	14891.37
558.502	15027.87
558.865	15064.25
559.228	15267.86
559.59	15244.13
559.953	15421.08
560.316	15515.09
560.679	15528.65
561.041	15624.46
561.404	15803.89
561.767	15885.02
562.129	15978.13
562.492	16059.25
562.854	16091.79
563.217	16090.66
563.579	16201.85
563.941	16431.9
564.304	16491.78
564.666	16576.08
565.028	16594.83
565.39	16661.27
565.753	16817.65
566.115	16921.83
566.477	16980.81
566.839	17157.3
567.201	17211.31
567.563	17230.52
567.925	17342.61
568.287	17457.63
568.648	17430.29
569.01	17593.68
569.372	17827.34
569.734	17762.48
570.095	17910.73
570.457	17935.81
570.819	17980.78
571.18	18103.04
571.542	18122.25
571.903	18215.81
572.265	18304.84
572.626	18446.53
572.987	18444.05
573.349	18578.96
573.71	18692.63
574.071	18786.19
574.432	18831.16
574.794	19070.47
575.155	19039.74
575.516	19133.75
575.877	19098.72
576.238	19129.45
576.599	19269.56
576.96	19299.17
577.32	19358.15
577.681	19543
578.042	19445.15
578.403	19520.86
578.763	19651.02
579.124	19666.16
579.485	19775.99
579.845	19892.37
580.206	19896.67
580.566	19927.85
580.927	19934.86
581.287	20018.24
581.648	20080.16
582.008	20243.55
582.368	20154.51
582.728	20231.35
583.089	20295.07
583.449	20166.04
583.809	20337.78
584.169	20467.5
584.529	20431.79
584.889	20516.76
585.249	20432.02
585.609	20378.69
585.969	20674.72
586.329	20629.98
586.688	20557.67
587.048	20592.47
587.408	20730.54
587.768	20705.46
588.127	20726.7
588.487	20682.86
588.846	20903.87
589.206	20875.85
589.565	20819.81
589.925	20937.32
590.284	20902.29
590.643	21011.21
591.003	21049.4
591.362	21079.01
591.721	21043.3
592.08	21076.3
592.44	21222.05
592.799	21208.95
593.158	21192.9
593.517	21299.57
593.876	21347.02
594.235	21311.54
594.593	21371.2
594.952	21497.3
595.311	21430.19
595.67	21544.76
596.029	21616.17
596.387	21696.39
596.746	21624.3
597.104	21571.42
597.463	21685.32
597.822	21798.76
598.18	21702.72
598.538	21667.92
598.897	21901.81
599.255	21679.9
599.613	22049.6
599.972	21864.07
600.33	21973
600.688	21844.19
601.046	21968.7
601.404	22007.35
601.762	22110.39
602.12	22215.7
602.478	22265.42
602.836	22271.74
603.194	22079.21
603.552	22264.74
603.91	22196.49
604.268	22289.15
604.625	22243.5
604.983	22380.44
605.341	22292.54
605.698	22516.94
606.056	22464.28
606.413	22469.71
606.771	22657.95
607.128	22639.64
607.485	22563.26
607.843	22569.14
608.2	22756.7
608.557	22800.54
608.914	22739.98
609.272	22928.22
609.629	22891.16
609.986	23113.76
610.343	23001.9
610.7	23078.28
611.057	23108.11
611.414	23150.82
611.771	23299.06
612.127	23207.77
612.484	23132.06
612.841	23390.59
613.198	23299.51
613.554	23278.95
613.911	23522.33
614.267	23404.14
614.624	23488.66
614.98	23595.78
615.337	23606.17
615.693	23685.49
616.05	23664.48
616.406	23775.21
616.762	23747.64
617.118	23661.99
617.475	23800.74
617.831	23922.1
618.187	23909.44
618.543	24013.85
618.899	24119.38
619.255	24034.41
619.611	24000.06
619.967	24104.01
620.323	24129.78
620.678	24153.28
621.034	24097.01
621.39	24206.84
621.746	24190.34
622.101	24412.71
622.457	24293.16
622.812	24355.76
623.168	24304.46
623.523	24441.18
623.879	24441.41
624.234	24290.9
624.589	24506.26
624.945	24428.98
625.3	24459.26
625.655	24447.73
626.01	24477.79
626.365	24584.45
626.72	24481.86
627.075	24496.32
627.43	24503.55
627.785	24571.12
628.14	24584.23
628.495	24616.32
628.85	24606.15
629.205	24519.82
629.559	24591.91
629.914	24589.42
630.269	24542.19
630.623	24535.41
630.978	24474.17
631.332	24614.28
631.687	24732.25
632.041	24559.82
632.396	24626.71
632.75	24534.28
633.104	24563.66
633.459	24399.6
633.813	24489.77
634.167	24431.91
634.521	24506.26
634.875	24467.17
635.229	24501.97
635.583	24448.41
635.937	24532.48
636.291	24521.63
636.645	24480.5
636.999	24381.52
637.352	24557.11
637.706	24434.17
638.06	24456.55
638.413	24428.3
638.767	24359.6
639.121	24372.93
639.474	24254.97
639.828	24278.92
640.181	24431.69
640.534	24363.67
640.888	24248.19
641.241	24334.97
641.594	24315.98
641.947	24296.55
642.301	24164.35
642.654	24401.63
643.007	24362.76
643.36	24336.55
643.713	24234.63
644.066	24327.28
644.419	24166.16
644.771	24028.31
645.124	23838.26
645.477	23901.98
645.83	23633.74
646.182	23669
646.535	23592.61
646.888	23618.38
647.24	23427.87
647.593	23579.28
647.945	23570.92
648.298	23538.6
648.65	23381.09
649.002	23444.37
649.355	23513.75
649.707	23512.62
650.059	23625.83
650.411	23827.41
650.763	23864.47
651.115	24172.94
651.467	24076.9
651.819	24172.71
652.171	24061.3
652.523	24023.56
652.875	24090.68
653.227	23887.07
653.578	24148.53
653.93	24073.73
654.282	23936.79
654.633	23991.25
654.985	24038.48
655.337	23987.86
655.688	24001.64
656.039	24195.54
656.391	23846.84
656.742	24040.06
657.094	23988.08
657.445	24003
657.796	23992.83
658.147	24024.24
658.498	23906.05
658.849	24012.72
659.2	23980.4
659.551	23902.21
659.902	24068.99
660.253	24000.29
660.604	23998.71
660.955	23997.8
661.306	24121.64
661.656	24093.17
662.007	24035.99
662.358	24125.48
662.708	23996.67
663.059	24012.04
663.409	23945.15
663.76	24094.97
664.11	24023.79
664.461	24045.48
664.811	24107.85
665.161	24137.01
665.511	24038.03
665.862	24179.72
666.212	24184.91
666.562	24120.96
666.912	24172.49
667.262	23994.64
667.612	24022.66
667.962	24123.67
668.312	24013.17
668.662	24201.64
669.011	24114.86
669.361	24001.19
669.711	24188.08
670.06	24102.21
670.41	24003.22
670.76	24112.83
671.109	24174.75
671.459	24106.72
671.808	24118.7
672.157	24169.77
672.507	24020.4
672.856	24120.28
673.205	24051.13
673.554	24110.11
673.904	24059.49
674.253	24188.53
674.602	24187.85
674.951	23804.59
675.3	23599.62
675.649	24036.44
675.998	24018.82
676.346	24054.52
676.695	24102.66
677.044	23901.08
677.393	24009.78
677.741	23996.22
678.09	23891.14
678.438	23935.43
678.787	23985.6
679.135	23876.9
679.484	23904.92
679.832	23989.44
680.181	23752.16
680.529	23911.02
680.877	23698.6
681.225	23808.88
681.573	23983.34
681.922	23886.39
682.27	23688.88
682.618	23872.38
682.966	23761.65
683.314	23877.35
683.661	23755.32
684.009	23581.54
684.357	23558.49
684.705	23507.87
685.053	23610.24
685.4	23582.44
685.748	23439.4
686.095	23483.46
686.443	23371.83
686.79	23302.68
687.138	23370.02
687.485	23429.23
687.832	23308.33
688.18	23282.34
688.527	23247.09
688.874	23154.43
689.221	23145.17
689.568	23120.99
689.915	23033.76
690.262	23183.36
690.609	23125.28
690.956	22986.98
691.303	22965.29
691.65	22899.07
691.997	22839.41
692.344	22782.92
692.69	22713.77
693.037	22710.83
693.383	22466.54
693.73	22579.99
694.077	22487.11
694.423	22533.43
694.769	22468.12
695.116	22378.63
695.462	22382.48
695.808	22339.31
696.155	22241.69
696.501	22176.83
696.847	22188.58
697.193	22037.85
697.539	22228.58
697.885	22021.81
698.231	21860.46
698.577	21960.79
698.923	21917.86
699.269	21779.1
699.614	21698.65
699.96	21690.07
700.306	21740.01
700.651	21549.96
700.997	21575.49
701.342	21509.51
701.688	21473.8
702.033	21499.56
702.379	21477.19
702.724	21342.73
703.069	21335.05
703.415	21089.63
703.76	21146.58
704.105	21240.13
704.45	21168.05
704.795	21021.38
705.14	20956.98
705.485	20950.42
705.83	20884.66
706.175	20883.31
706.52	20820.71
706.865	20739.36
707.209	20787.72
707.554	20600.6
707.899	20599.02
708.243	20696.42
708.588	20614.39
708.932	20476.31
709.277	20461.62
709.621	20600.6
709.966	20465.69
710.31	20447.84
710.654	20305.92
710.998	20295.75
711.342	20402.64
711.687	20299.59
712.031	20144.34
712.375	20214.17
712.719	20294.85
713.063	20132.14
713.407	20245.13
713.75	20083.1
714.094	20138.24
714.438	20001.07
714.782	20010.11
715.125	19895.54
715.469	19915.65
715.812	19890.56
716.156	19783.22
716.499	19828.87
716.843	19838.81
717.186	19688.76
717.53	19836.1
717.873	19765.6
718.216	19722.43
718.559	19650.12
718.902	19533.06
719.246	19658.71
719.589	19533.96
719.932	19546.62
720.275	19418.49
720.617	19545.71
720.96	19393.63
721.303	19373.74
721.646	19427.53
721.989	19377.13
722.331	19503.46
722.674	19424.59
723.016	19388.88
723.359	19319.96
723.701	19353.4
724.044	19313.4
724.386	19204.71
724.729	19303.91
725.071	19144.82
725.413	19284.93
725.755	19175.78
726.097	19123.35
726.439	19084.03
726.782	19120.87
727.124	19105.5
727.465	19092.85
727.807	19135.1
728.149	19008.33
728.491	19029.34
728.833	19120.42
729.175	19002.23
729.516	19043.81
729.858	18961.78
730.199	19025.28
730.541	18896.69
730.882	18978.95
731.224	18958.39
731.565	18834.32
731.906	18906.18
732.248	18922.23
732.589	18784.15
732.93	18789.35
733.271	18801.1
733.612	18815.11
733.953	18834.1
734.294	18762.23
734.635	18618.96
734.976	18820.54
735.317	18614.89
735.658	18622.35
735.999	18676.81
736.339	18607.66
736.68	18721.1
737.021	18587.1
737.361	18563.59
737.702	18668
738.042	18617.6
738.383	18520.21
738.723	18584.38
739.063	18535.12
739.404	18584.38
739.744	18482.24
740.084	18444.73
740.424	18533.54
740.764	18484.05
741.104	18578.73
741.444	18491.73
741.784	18546.42
742.124	18398.17
742.464	18495.35
742.804	18416.25
743.143	18331.96
743.483	18366.54
743.823	18322.24
744.162	18280.89
744.502	18336.03
744.841	18376.25
745.181	18361.34
745.52	18350.94
745.86	18393.65
746.199	18388.23
746.538	18256.48
746.877	18410.38
747.216	18280.66
747.556	18271.17
747.895	18226.65
748.234	18215.58
748.573	18234.34
748.911	18138.07
749.25	18238.63
749.589	18166.54
749.928	18213.32
750.267	18145.53
750.605	18146.66
750.944	18106.66
751.283	18065.98
751.621	18150.5
751.96	18079.31
752.298	17997.06
752.636	18092.65
752.975	18006.77
753.313	17953.67
753.651	18097.84
753.989	18004.06
754.327	17934.01
754.666	17879.32
755.004	17943.72
755.342	17983.95
755.679	17855.36
756.017	17845.65
756.355	17870.28
756.693	17777.63
757.031	17852.65
757.368	17792.77
757.706	17748.25
758.044	17709.83
758.381	17778.08
758.719	17607.23
759.056	17695.59
759.394	17497.63
759.731	17545.99
760.068	17505.09
760.405	17490.4
760.743	17446.34
761.08	17456.05
761.417	17284.98
761.754	17321.82
762.091	17301.93
762.428	17263.52
762.765	17159.56
763.102	17253.35
763.438	17094.71
763.775	17046.12
764.112	17063.07
764.449	17051.54
764.785	16954.37
765.122	16979.91
765.458	16923.41
765.795	16915.95
766.131	16764.77
766.467	16859.46
766.804	16786.69
767.14	16727.03
767.476	16724.32
767.812	16624.66
768.148	16664.66
768.485	16535.4
768.821	16436.42
769.157	16338.34
769.492	16358.91
769.828	16374.05
770.164	16307.83
770.5	16271
770.836	16259.25
771.171	16117.1
771.507	16108.97
771.842	15974.06
772.178	15986.94
772.513	15926.38
772.849	15949.2
773.184	15919.6
773.519	15911.91
773.855	15739.94
774.19	15738.36
774.525	15691.13
774.86	15654.29
775.195	15606.16
775.53	15566.16
775.865	15393.51
776.2	15484.58
776.535	15349.67
776.87	15335.43
777.205	15200.52
777.539	15202.55
777.874	15218.37
778.209	15151.71
778.543	15097.02
778.878	14993.29
779.212	15013.86
779.547	14871.49
779.881	14959.17
780.215	14785.16
780.55	14875.56
780.884	14795.56
781.218	14746.29
781.552	14702.9
781.886	14671.94
782.22	14573.87
782.554	14494.77
782.888	14419.75
783.222	14344.95
783.556	14323.71
783.889	14264.95
784.223	14186.53
784.557	14129.59
784.89	14259.75
785.224	14134.78
785.557	14064.73
785.891	14102.02
786.224	14064.73
786.558	13996.93
786.891	13911.96
787.224	13826.77
787.557	13841.01
787.891	13776.83
788.224	13760.56
788.557	13816.15
788.89	13733.44
789.223	13699.77
789.556	13602.14
789.888	13534.35
790.221	13514.69
790.554	13408.7
790.887	13349.49
791.219	13344.97
791.552	13335.48
791.884	13226.11
792.217	13248.71
792.549	13185.88
792.882	13098.2
793.214	13023.85
793.546	13085.77
793.879	13041.93
794.211	12966.68
794.543	12949.5
794.875	12892.33
795.207	12895.95
795.539	12862.73
795.871	12865.21
796.203	12804.65
796.535	12658.44
796.867	12650.3
797.198	12607.82
797.53	12650.3
797.862	12636.07
798.193	12585.9
798.525	12458.67
798.856	12544.77
799.188	12426.81
799.519	12425.9
799.85	12386.13
800.182	12422.74
800.513	12337.99
800.844	12196.53
801.175	12300.03
801.506	12309.97
801.837	12120.15
802.168	12152.01
802.499	12154.5
802.83	12058.45
803.161	12010.55
803.491	11978
803.822	11987.04
804.153	11908.18
804.483	11837.67
804.814	11866.37
805.145	11858.01
805.475	11817.78
805.805	11820.72
806.136	11776.88
806.466	11722.19
806.796	11736.43
807.126	11693.27
807.457	11672.93
807.787	11627.96
808.117	11525.36
808.447	11535.3
808.777	11533.72
809.107	11436.1
809.436	11510.9
809.766	11464.57
810.096	11438.13
810.426	11428.41
810.755	11440.39
811.085	11353.84
811.414	11308.42
811.744	11228.87
812.073	11259.83
812.403	11271.58
812.732	11191.13
813.061	11217.8
813.39	11145.71
813.719	11192.71
814.049	11109.55
814.378	11121.98
814.707	11120.63
815.036	11051.02
815.365	11022.78
815.693	10910.24
816.022	10925.6
816.351	10936.9
816.68	10907.3
817.008	10869.33
817.337	10805.83
817.665	10766.51
817.994	10820.75
818.322	10743.91
818.651	10760.64
818.979	10653.75
819.307	10694.87
819.636	10649
819.964	10577.14
820.292	10707.98
820.62	10653.52
820.948	10622.33
821.276	10641.77
821.604	10666.63
821.932	10660.3
822.259	10638.15
822.587	10576.23
822.915	10597.93
823.243	10615.55
823.57	10618.49
823.898	10635.89
824.225	10604.26
824.553	10623.46
824.88	10597.02
825.207	10630.92
825.535	10609.9
825.862	10698.94
826.189	10588.89
826.516	10648.55
826.843	10673.18
827.17	10623.24
827.497	10631.15
827.824	10602.67
828.151	10656.91
828.478	10647.19
828.805	10638.83
829.131	10625.72
829.458	10650.58
829.785	10526.29
830.111	10604.48
830.438	10623.01
830.764	10639.06
831.09	10589.57
831.417	10560.64
831.743	10553.41
832.069	10606.74
832.395	10515.44
832.722	10546.63
833.048	10488.55
833.374	10559.74
833.7	10508.89
834.026	10543.92
834.351	10574.65
834.677	10529.23
835.003	10598.15
835.329	10489.91
835.654	10499.85
835.98	10514.09
836.306	10487.87
836.631	10432.96
836.956	10472.96
837.282	10444.49
837.607	10432.73
837.932	10479.51
838.258	10384.37
838.583	10381.21
838.908	10320.42
839.233	10390.25
839.558	10292.62
839.883	10288.56
840.208	10316.81
840.533	10226.19
840.858	10266.18
841.182	10346.63
841.507	10258.73
841.832	10238.84
842.156	10224.38
842.481	10179.41
842.805	10149.8
843.13	10104.61
843.454	10110.26
843.778	10025.51
844.103	10084.72
844.427	9998.4
844.751	10103.48
845.075	10004.04
845.399	10035
845.723	9997.04
846.047	9952.75
846.371	9874.1
846.695	9896.25
847.019	9822.35
847.343	9797.5
847.666	9648.12
847.99	9654.22
848.313	9684.28
848.637	9646.31
848.96	9595.47
849.284	9564.28
849.607	9534
849.931	9506.66
850.254	9382.82
850.577	9376.04
850.9	9323.61
851.223	9356.6
851.546	9279.54
851.869	9205.87
852.192	9253.33
852.515	9077.74
852.838	9106.89
853.161	9128.14
853.483	9000.91
853.806	9094.01
854.129	9060.79
854.451	8960
854.774	8949.38
855.096	8947.12
855.419	8951.42
855.741	8893.79
856.063	8896.05
856.385	8833.91
856.708	8804.53
857.03	8774.7
857.352	8798.65
857.674	8758.88
857.996	8697.19
858.318	8681.82
858.64	8689.73
858.961	8682.95
859.283	8599.79
859.605	8629.17
859.926	8615.83
860.248	8608.6
860.57	8552.11
860.891	8553.24
861.212	8489.28
861.534	8550.07
861.855	8467.59
862.176	8469.17
862.498	8472.56
862.819	8559.34
863.14	8484.76
863.461	8393.92
863.782	8429.85
864.103	8441.6
864.424	8350.08
864.745	8308.04
865.065	8364.31
865.386	8274.37
865.707	8271.89
866.027	8311.89
866.348	8288.38
866.668	8294.03
866.989	8286.12
867.309	8185.34
867.63	8259.46
867.95	8199.8
868.27	8168.84
868.59	8190.31
868.91	8161.38
869.23	8230.98
869.55	8146.01
869.87	8178.78
870.19	8131.1
870.51	8084.77
870.83	8174.94
871.15	8093.59
871.469	8046.36
871.789	8105.79
872.109	8129.52
872.428	7952.12
872.748	8073.02
873.067	8008.39
873.386	8041.84
873.706	7997.09
874.025	7979.92
874.344	7989.41
874.663	8018.56
874.982	7913.03
875.301	7993.25
875.62	7923.42
875.939	7941.05
876.258	7984.66
876.577	7958.67
876.896	7911.44
877.214	7867.83
877.533	7925
877.852	7893.82
878.17	7871.9
878.489	7866.02
878.807	7831.22
879.125	7872.58
879.444	7785.8
879.762	7785.35
880.08	7725.46
880.398	7741.05
880.716	7731.34
881.034	7704.67
881.352	7690.21
881.67	7714.84
881.988	7686.59
882.306	7719.81
882.624	7632.58
882.941	7623.32
883.259	7625.12
883.577	7567.27
883.894	7606.37
884.212	7553.49
884.529	7547.16
884.846	7536.54
885.164	7428.97
885.481	7430.55
885.798	7487.5
886.115	7468.07
886.432	7455.41
886.75	7451.34
887.067	7515.07
887.383	7409.99
887.7	7388.07
888.017	7348.52
888.334	7398.46
888.651	7250.67
888.967	7321.86
889.284	7269.2
889.6	7282.08
889.917	7211.58
890.233	7239.82
890.55	7239.82
890.866	7227.62
891.182	7178.81
891.498	7136.78
891.815	7114.18
892.131	7064.91
892.447	7049.77
892.763	7101.52
893.079	7049.09
893.395	7005.03
893.71	6999.15
894.026	7014.07
894.342	7016.55
894.657	6948.53
894.973	6968.19
895.289	6943.79
895.604	6953.96
895.92	6828.76
896.235	6906.95
896.55	6893.17
896.865	6807.07
897.181	6779.95
897.496	6772.94
897.811	6776.11
898.126	6730.68
898.441	6707.18
898.756	6703.11
899.071	6706.73
899.386	6720.06
899.7	6603.68
900.015	6564.36
900.33	6525.94
900.644	6541.09
900.959	6510.35
901.273	6495.89
901.588	6496.11
901.902	6448.43
902.216	6449.56
902.531	6375.44
902.845	6364.82
903.159	6317.36
903.473	6339.96
903.787	6286.4
904.101	6268.78
904.415	6241.21
904.729	6225.61
905.042	6230.81
905.356	6197.14
905.67	6193.98
905.984	6189.23
906.297	6143.81
906.611	6125.5
906.924	6159.4
907.237	6090.48
907.551	6037.6
907.864	6028.56
908.177	5982.46
908.491	6053.87
908.804	6003.02
909.117	5920.99
909.43	5959.18
909.743	5890.03
910.056	5853.19
910.368	5847.32
910.681	5870.82
910.994	5789.01
911.307	5772.29
911.619	5736.59
911.932	5732.29
912.244	5721.22
912.557	5744.5
912.869	5707.43
913.181	5747.66
913.494	5722.12
913.806	5579.08
914.118	5598.51
914.43	5568.91
914.742	5532.3
915.054	5555.57
915.366	5511.28
915.678	5471.73
915.99	5459.31
916.302	5394.45
916.613	5443.03
916.925	5427.22
917.236	5348.8
917.548	5369.59
917.859	5386.54
918.171	5328.24
918.482	5335.02
918.794	5244.4
919.105	5270.84
919.416	5229.03
919.727	5251.85
920.038	5185.64
920.349	5156.26
920.66	5184.96
920.971	5094.57
921.282	5128.01
921.593	5087.56
921.903	5048.92
922.214	5056.83
922.525	5051.18
922.835	5008.7
923.146	5025.19
923.456	4919.88
923.767	4944.06
924.077	4952.65
924.387	4896.83
924.697	4920.11
925.008	4876.5
925.318	4868.81
925.628	4841.69
925.938	4804.86
926.248	4768.48
926.558	4761.24
926.867	4777.97
927.177	4734.8
927.487	4685.54
927.796	4710.17
928.106	4682.6
928.416	4666.33
928.725	4634.92
929.034	4622.94
929.344	4576.84
929.653	4563.06
929.962	4585.2
930.271	4550.18
930.581	4508.82
930.89	4492.33
931.199	4465.89
931.508	4458.2
931.817	4472.89
932.125	4445.09
932.434	4441.25
932.743	4401.93
933.051	4353.8
933.36	4351.09
933.669	4323.74
933.977	4294.82
934.286	4259.11
934.594	4303.18
934.902	4264.99
935.21	4239.68
935.519	4253.24
935.827	4230.41
936.135	4196.51
936.443	4110.19
936.751	4203.07
937.059	4191.09
937.367	4138.21
937.674	4166.46
937.982	4109.96
938.29	4092.11
938.597	4065.44
938.905	4050.98
939.213	4025.9
939.52	4040.13
939.827	4007.14
940.135	3972.57
940.442	3963.3
940.749	3959.46
941.056	3986.12
941.363	3926.46
941.67	3942.51
941.977	3868.39
942.284	3848.73
942.591	3874.94
942.898	3829.74
943.205	3817.54
943.511	3808.5
943.818	3834.94
944.125	3799.24
944.431	3769.41
944.738	3747.03
945.044	3749.52
945.35	3693.7
945.657	3709.07
945.963	3700.03
946.269	3659.13
946.575	3653.7
946.881	3617.09
947.187	3651.9
947.493	3630.88
947.799	3616.19
948.105	3580.26
948.41	3559.92
948.716	3545.01
949.022	3522.63
949.327	3530.09
949.633	3496.65
949.938	3509.53
950.244	3501.84
950.549	3481.28
950.854	3434.27
951.16	3440.15
951.465	3418.91
951.77	3383.88
952.075	3398.57
952.38	3364.9
952.685	3343.43
952.99	3348.4
953.294	3323.54
953.599	3309.53
953.904	3275.86
954.209	3238.12
954.513	3278.57
954.818	3250.32
955.122	3241.96
955.426	3255.75
955.731	3215.52
956.035	3204.45
956.339	3208.07
956.643	3210.78
956.948	3172.59
957.252	3139.82
957.556	3156.32
957.86	3111.57
958.163	3148.86
958.467	3082.64
958.771	3122.19
959.075	3092.59
959.378	3060.5
959.682	3079.71
959.985	3066.83
960.289	3025.47
960.592	3022.08
960.896	2973.95
961.199	3014.85
961.502	2985.47
961.805	2961.97
962.108	2966.94
962.411	2946.38
962.714	2908.41
963.017	2944.34
963.32	2919.03
963.623	2891.92
963.926	2886.27
964.228	2890.56
964.531	2856.44
964.833	2798.58
965.136	2840.62
965.438	2803.78
965.741	2786.61
966.043	2790
966.345	2799.49
966.648	2784.57
966.95	2768.08
967.252	2752.71
967.554	2749.55
967.856	2715.2
968.158	2709.55
968.46	2701.19
968.761	2734.86
969.063	2708.42
969.365	2671.36
969.666	2671.58
969.968	2638.36
970.269	2632.94
970.571	2608.99
970.872	2619.15
971.174	2643.33
971.475	2605.6
971.776	2615.76
972.077	2563.34
972.378	2580.96
972.679	2556.33
972.98	2528.54
973.281	2577.8
973.582	2511.36
973.883	2503.68
974.183	2491.02
974.484	2475.88
974.785	2484.69
975.085	2462.77
975.386	2481.53
975.686	2431.36
975.986	2434.75
976.287	2431.59
976.587	2427.07
976.887	2455.99
977.187	2421.87
977.487	2374.41
977.787	2413.06
978.087	2366.28
978.387	2367.18
978.687	2374.64
978.987	2345.04
979.286	2336.45
979.586	2355.21
979.885	2296.9
980.185	2308.43
980.484	2286.06
980.784	2260.29
981.083	2251.93
981.382	2252.16
981.682	2241.09
981.981	2230.24
982.28	2248.09
982.579	2232.27
982.878	2263.68
983.177	2227.53
983.475	2200.63
983.774	2231.59
984.073	2192.27
984.372	2192.95
984.67	2198.37
984.969	2139.17
985.267	2141.88
985.566	2139.17
985.864	2131.48
986.162	2141.88
986.461	2119.05
986.759	2120.18
987.057	2054.65
987.355	2062.33
987.653	2058.27
987.951	2035.67
988.249	2046.74
988.547	2077.25
988.844	2043.35
989.142	2020.07
989.44	2025.27
989.737	2020.07
990.035	2004.48
990.332	2010.36
990.63	1991.83
990.927	2013.07
991.224	1947.76
991.521	1959.96
991.819	1951.6
992.116	1951.6
992.413	1932.17
992.71	1947.08
993.006	1933.75
993.303	1937.14
993.6	1914.54
993.897	1899.4
994.193	1889.68
994.49	1885.16
994.787	1879.51
995.083	1852.17
995.379	1878.38
995.676	1838.16
995.972	1826.86
996.268	1818.05
996.565	1827.54
996.861	1802
997.157	1768.33
997.453	1803.36
997.749	1788.67
998.044	1747.09
998.34	1780.76
998.636	1757.93
998.932	1765.62
999.227	1744.15
999.523	1752.96
999.818	1745.5
1000.114	1720.19
1000.409	1721.1
1000.704	1697.14
1001	1692.17
1001.295	1669.57
1001.59	1678.16
1001.885	1657.37
1002.18	1675.68
1002.475	1675.9
1002.77	1623.25
1003.065	1616.47
1003.359	1622.57
1003.654	1614.89
1003.949	1592.51
1004.243	1598.84
1004.538	1576.02
1004.832	1590.93
1005.127	1585.51
1005.421	1556.13
1005.715	1566.53
1006.009	1578.73
1006.304	1553.65
1006.598	1525.85
1006.892	1519.3
1007.186	1479.3
1007.48	1526.3
1007.773	1482.01
1008.067	1491.95
1008.361	1487.88
1008.655	1475.91
1008.948	1464.83
1009.242	1475
1009.535	1460.31
1009.829	1442.24
1010.122	1431.61
1010.415	1455.8
1010.708	1394.1
1011.001	1422.35
1011.295	1406.76
1011.588	1382.35
1011.881	1379.86
1012.173	1388.9
1012.466	1379.41
1012.759	1355.23
1013.052	1381.22
1013.344	1376.02
1013.637	1364.72
1013.93	1352.29
1014.222	1310.94
1014.514	1291.73
1014.807	1326.53
1015.099	1309.13
1015.391	1283.6
1015.683	1297.38
1015.976	1292.86
1016.268	1274.1
1016.56	1266.42
1016.851	1268.68
1017.143	1263.03
1017.435	1295.12
1017.727	1253.54
1018.018	1258.29
1018.31	1211.73
1018.602	1218.74
1018.893	1213.32
1019.185	1214.22
1019.476	1215.8
1019.767	1207.89
1020.058	1185.97
1020.35	1171.06
1020.641	1174.67
1020.932	1158.63
1021.223	1162.92
1021.514	1157.05
1021.804	1138.06
1022.095	1118.85
1022.386	1118.63
1022.677	1129.02
1022.967	1123.37
1023.258	1108.46
1023.548	1095.8
1023.839	1072.3
1024.129	1075.92
1024.419	1059.2
1024.709	1087.22
1025	1083.83
1025.29	1048.8
1025.58	1062.81
1025.87	1050.16
1026.16	1049.48
1026.449	1076.82
1026.739	1037.73
1027.029	1048.8
1027.319	1020.78
1027.608	999.76
1027.898	1009.71
1028.187	987.33
1028.477	1005.86
1028.766	1016.48
1029.055	983.49
1029.344	977.62
1029.634	946.2
1029.923	966.09
1030.212	955.47
1030.501	937.39
1030.79	964.51
1031.078	941.91
1031.367	933.55
1031.656	945.07
1031.945	940.55
1032.233	928.13
1032.522	923.15
1032.81	905.3
1033.099	928.58
1033.387	896.94
1033.675	889.03
1033.963	874.12
1034.251	894.68
1034.54	881.35
1034.828	856.26
1035.116	882.7
1035.403	869.82
1035.691	882.02
1035.979	855.36
1036.267	826.89
1036.554	843.83
1036.842	835.47
1037.129	846.77
1037.417	830.73
1037.704	829.6
1037.992	823.5
1038.279	788.24
1038.566	795.93
1038.853	795.93
1039.14	795.93
