Data from cardboard_FLMS001491_080.txt Node
Date: Tue Feb 07 11:40:08 GMT 2017
User: dcchb
Spectrometer: FLMS00149
Trigger mode: 0
Integration Time (sec): 2.000000E-2
Scans to average: 10
Electric dark correction enabled: true
Nonlinearity correction enabled: false
Boxcar width: 0
XAxis mode: Wavelengths
Number of Pixels in Spectrum: 2048
>>>>>Begin Spectral Data<<<<<
341.393	15.45
341.776	15.45
342.16	15.45
342.543	-64.09
342.927	-39.91
343.31	-83.08
343.693	-77.2
344.077	-60.03
344.46	-76.75
344.843	-50.31
345.226	-42.17
345.61	-38.78
345.993	1.67
346.376	-4.21
346.759	19.75
347.142	34.66
347.525	66.3
347.908	55.22
348.291	72.4
348.674	82.12
349.057	100.42
349.44	131.61
349.823	127.99
350.206	169.8
350.588	197.59
350.971	210.25
351.354	225.39
351.737	204.83
352.119	251.38
352.502	258.84
352.884	273.07
353.267	273.75
353.65	280.53
354.032	292.51
354.414	295.67
354.797	307.42
355.179	301.32
355.562	321.88
355.944	330.02
356.326	328.89
356.709	327.08
357.091	330.47
357.473	339.06
357.855	333.64
358.238	323.47
358.62	323.47
359.002	334.54
359.384	340.41
359.766	336.8
360.148	346.74
360.53	348.1
360.912	331.83
361.294	330.47
361.676	313.97
362.057	342.67
362.439	338.15
362.821	310.36
363.203	328.44
363.584	305.39
363.966	324.14
364.348	311.04
364.729	317.82
365.111	299.96
365.493	304.26
365.874	304.48
366.256	305.84
366.637	329.79
367.019	313.07
367.4	311.49
367.781	313.97
368.163	327.08
368.544	296.57
368.925	305.16
369.306	322.34
369.688	308.33
370.069	297.25
370.45	304.26
370.831	297.03
371.212	321.88
371.593	295.44
371.974	305.84
372.355	300.42
372.736	322.11
373.117	312.62
373.498	311.26
373.879	313.75
374.26	325.27
374.641	314.2
375.021	308.55
375.402	312.84
375.783	292.73
376.163	321.88
376.544	306.97
376.925	328.21
377.305	334.31
377.686	316.23
378.066	333.18
378.447	321.21
378.827	319.62
379.208	316.91
379.588	319.4
379.968	322.11
380.349	325.27
380.729	327.53
381.109	352.17
381.489	346.29
381.87	362.11
382.25	299.96
382.63	348.1
383.01	355.1
383.39	339.28
383.77	344.71
384.15	338.38
384.53	338.38
384.91	344.03
385.29	356.91
385.67	351.94
386.049	351.49
386.429	335.44
386.809	348.1
387.189	349.23
387.568	344.03
387.948	338.61
388.328	342
388.707	350.13
389.087	354.43
389.466	365.05
389.846	350.58
390.225	365.5
390.605	346.06
390.984	363.92
391.363	324.82
391.743	353.97
392.122	360.08
392.501	347.65
392.881	363.47
393.26	370.92
393.639	372.96
394.018	358.04
394.397	368.21
394.776	376.35
395.155	383.13
395.534	376.57
395.913	384.26
396.292	391.03
396.671	361.21
397.05	391.26
397.429	378.38
397.808	379.74
398.186	382.9
398.565	389.45
398.944	388.32
399.323	383.58
399.701	405.05
400.08	406.18
400.458	393.07
400.837	398.04
401.215	399.17
401.594	391.94
401.972	410.02
402.351	402.33
402.729	394.65
403.107	416.57
403.486	412.5
403.864	411.15
404.242	426.97
404.62	407.53
404.999	424.48
405.377	417.47
405.755	422.22
406.133	422.67
406.511	427.42
406.889	436.91
407.267	443.91
407.645	431.03
408.023	454.08
408.401	436.01
408.779	466.06
409.156	467.19
409.534	440.53
409.912	450.47
410.29	464.93
410.667	448.89
411.045	480.98
411.422	473.07
411.8	462.67
412.178	466.74
412.555	485.95
412.933	491.82
413.31	491.15
413.687	480.98
414.065	499.28
414.442	502.67
414.819	485.95
415.197	500.64
415.574	509.9
415.951	494.99
416.328	506.29
416.705	492.5
417.082	523.23
417.46	539.28
417.837	528.43
418.214	533.63
418.591	519.39
418.967	527.75
419.344	541.77
419.721	523.46
420.098	529.56
420.475	549.45
420.852	537.7
421.228	552.16
421.605	537.02
421.982	550.58
422.358	560.3
422.735	573.4
423.111	572.73
423.488	572.73
423.864	563.23
424.241	611.14
424.617	565.27
424.994	602.78
425.37	594.65
425.746	594.87
426.123	592.39
426.499	587.19
426.875	625.15
427.251	630.35
427.627	607.53
428.003	630.12
428.379	650.92
428.756	617.02
429.132	637.58
429.507	646.4
429.883	638.94
430.259	658.37
430.635	673.06
431.011	656.56
431.387	649.11
431.763	685.49
432.138	656.56
432.514	680.29
432.89	675.1
433.265	710.35
433.641	711.25
434.016	695.89
434.392	728.65
434.767	715.77
435.143	734.98
435.518	727.3
435.894	707.86
436.269	746.73
436.644	756.9
437.02	777.47
437.395	753.29
437.77	752.61
438.145	767.3
438.52	763.91
438.895	791.48
439.271	796.45
439.646	815.2
440.021	817.01
440.395	828.54
440.77	823.11
441.145	824.02
441.52	831.7
441.895	828.31
442.27	836.67
442.645	835.54
443.019	809.1
443.394	823.79
443.769	857.01
444.143	832.38
444.518	837.12
444.892	850.91
445.267	847.97
445.641	852.27
446.016	863.11
446.39	895.2
446.764	882.1
447.139	870.12
447.513	882.1
447.887	893.85
448.262	873.51
448.636	888.2
449.01	911.93
449.384	897.01
449.758	940.62
450.132	965.71
450.506	929.78
450.88	941.75
451.254	955.77
451.628	955.77
452.002	944.01
452.376	957.12
452.75	955.77
453.123	990.12
453.497	991.02
453.871	1000.96
454.244	1015.65
454.618	1039.38
454.992	1031.47
455.365	1041.19
455.739	1056.33
456.112	1038.7
456.486	1055.65
456.859	1061.98
457.232	1090.68
457.606	1110.11
457.979	1111.47
458.352	1122.77
458.725	1155.08
459.099	1116.67
459.472	1182.43
459.845	1164.57
460.218	1187.85
460.591	1206.38
460.964	1194.18
461.337	1218.58
461.71	1242.99
462.083	1255.19
462.456	1272.14
462.829	1257
463.201	1267.17
463.574	1269.43
463.947	1319.15
464.32	1344.23
464.692	1347.39
465.065	1343.1
465.438	1348.75
465.81	1362.08
466.183	1386.94
466.555	1400.27
466.928	1431.69
467.3	1407.73
467.672	1427.84
468.045	1491.57
468.417	1494.06
468.789	1519.59
469.161	1512.14
469.534	1523.66
469.906	1561.17
470.278	1564.34
470.65	1578.57
471.022	1609.08
471.394	1616.54
471.766	1657.89
472.138	1643.21
472.51	1706.93
472.882	1728.63
473.253	1715.75
473.625	1747.38
473.997	1807.27
474.369	1788.51
474.74	1806.59
475.112	1851.79
475.484	1894.27
475.855	1901.96
476.227	1928.85
476.598	1971.56
476.97	1979.24
477.341	2027.38
477.713	2039.58
478.084	2084.1
478.455	2113.7
478.827	2125.9
479.198	2187.15
479.569	2190.54
479.94	2282.74
480.311	2279.12
480.682	2316.41
481.053	2366.35
481.424	2434.6
481.795	2390.3
482.166	2433.47
482.537	2512.11
482.908	2470.08
483.279	2576.51
483.65	2614.71
484.021	2662.61
484.391	2698.54
484.762	2728.6
485.133	2749.84
485.503	2782.84
485.874	2849.95
486.244	2865.09
486.615	2897.64
486.985	2983.51
487.356	3016.05
487.726	3051.3
488.097	3099.66
488.467	3112.09
488.837	3188.48
489.207	3213.56
489.578	3251.52
489.948	3327.23
490.318	3368.36
490.688	3394.57
491.058	3451.97
491.428	3498.52
491.798	3511.86
492.168	3582.82
492.538	3624.85
492.908	3669.59
493.278	3712.53
493.648	3672.98
494.017	3804.05
494.387	3854.45
494.757	3881.11
495.126	3903.48
495.496	3948.91
495.866	3933.99
496.235	4063.25
496.605	4024.16
496.974	4100.54
497.344	4162.24
497.713	4128.56
498.082	4163.14
498.452	4226.64
498.821	4280.88
499.19	4309.12
499.559	4361.55
499.928	4397.48
500.298	4444.49
500.667	4442.68
501.036	4509.8
501.405	4543.69
501.774	4583.24
502.143	4623.01
502.512	4671.6
502.88	4679.51
503.249	4700.07
503.618	4742.56
503.987	4774.2
504.356	4849.9
504.724	4869.34
505.093	4912.72
505.462	4940.97
505.83	4990.24
506.199	5051.48
506.567	5117.46
506.936	5123.57
507.304	5176.9
507.672	5271.13
508.041	5292.6
508.409	5298.7
508.777	5385.93
509.145	5457.79
509.514	5447.85
509.882	5531.24
510.25	5543.67
510.618	5554.29
510.986	5625.25
511.354	5686.94
511.722	5671.35
512.09	5841.51
512.458	5824.34
512.826	5918.35
513.193	5950.44
513.561	5952.24
513.929	5998.35
514.297	6124.67
514.664	6109.98
515.032	6217.32
515.4	6299.81
515.767	6286.47
516.135	6369.63
516.502	6362.18
516.869	6514.72
517.237	6495.06
517.604	6550.87
517.972	6633.81
518.339	6717.65
518.706	6719.23
519.073	6790.87
519.44	6864.54
519.808	6940.02
520.175	6938.43
520.542	7058.88
520.909	7050.97
521.276	7104.08
521.643	7239.22
522.009	7294.36
522.376	7415.71
522.743	7470.62
523.11	7506.55
523.477	7615.03
523.843	7620.9
524.21	7791.07
524.577	7861.12
524.943	7904.96
525.31	7958.52
525.676	8076.93
526.043	8114
526.409	8166.42
526.776	8237.83
527.142	8289.81
527.508	8353.31
527.874	8499.52
528.241	8570.03
528.607	8604.15
528.973	8722.34
529.339	8824.03
529.705	8798.5
530.071	8971.83
530.437	8933.86
530.803	9100.86
531.169	9194.65
531.535	9140.18
531.901	9216.34
532.267	9298.15
532.632	9419.72
532.998	9403.45
533.364	9484.81
533.73	9571.13
534.095	9708.98
534.461	9760.28
534.826	9795.53
535.192	9875.53
535.557	9846.83
535.923	9998.47
536.288	10017.45
536.653	10106.03
537.019	10115.52
537.384	10172.02
537.749	10283.66
538.114	10313.94
538.479	10351
538.845	10477.55
539.21	10400.26
539.575	10494.05
539.94	10541.95
540.305	10615.4
540.67	10641.39
541.034	10807.94
541.399	10812.46
541.764	10852.23
542.129	10999.57
542.494	10976.75
542.858	11016.52
543.223	11093.8
543.587	11176.97
543.952	11202.95
544.316	11259.9
544.681	11255.61
545.045	11433.46
545.41	11494.92
545.774	11571.31
546.138	11555.49
546.503	11615.6
546.867	11716.84
547.231	11767.46
547.595	11852.65
547.959	11931.3
548.324	11940.56
548.688	11990.73
549.052	12070.95
549.416	12143.95
549.779	12200.67
550.143	12238.41
550.507	12348.46
550.871	12407.67
551.235	12411.28
551.599	12407.89
551.962	12537.38
552.326	12640.88
552.689	12717.94
553.053	12786.19
553.417	12729.69
553.78	12940.99
554.143	12962
554.507	13031.61
554.87	13053.3
555.234	13170.81
555.597	13166.07
555.96	13337.81
556.323	13423.46
556.686	13455.32
557.05	13536
557.413	13644.02
557.776	13710.68
558.139	13820.96
558.502	13830.46
558.865	13926.95
559.228	14010.34
559.59	14067.29
559.953	14086.49
560.316	14308.41
560.679	14385.24
561.041	14435.64
561.404	14540.04
561.767	14655.29
562.129	14609.42
562.492	14703.88
562.854	14882.63
563.217	14974.61
563.579	14978.45
563.941	15160.14
564.304	15164.43
564.666	15352
565.028	15340.02
565.39	15402.62
565.753	15560.81
566.115	15569.62
566.477	15714.7
566.839	15721.93
567.201	15834.24
567.563	15935.48
567.925	16192.65
568.287	16071.3
568.648	16074.46
569.01	16266.55
569.372	16421.12
569.734	16356.04
570.095	16572.98
570.457	16632.64
570.819	16656.37
571.18	16610.72
571.542	16774.56
571.903	16829.92
572.265	17016.59
572.626	16977.04
572.987	17038.73
573.349	17158.5
573.71	17285.96
574.071	17272.85
574.432	17434.43
574.794	17553.75
575.155	17621.54
575.516	17584.48
575.877	17571.37
576.238	17703.35
576.599	17753.52
576.96	17804.14
577.32	17839.16
577.681	17897.47
578.042	18100.4
578.403	18032.15
578.763	18090.68
579.124	18182.88
579.485	18209.32
579.845	18331.81
580.206	18281.19
580.566	18283.45
580.927	18470.11
581.287	18486.83
581.648	18465.81
582.008	18621.97
582.368	18529.09
582.728	18538.13
583.089	18685.47
583.449	18666.71
583.809	18687.5
584.169	18700.16
584.529	18753.04
584.889	18915.75
585.249	18790.33
585.609	18884.79
585.969	18972.02
586.329	18901.28
586.688	19029.41
587.048	19011.79
587.408	19002.52
587.768	18940.83
588.127	19048.4
588.487	19019.7
588.846	19287.71
589.206	19176.98
589.565	19161.39
589.925	19340.59
590.284	19259.01
590.643	19341.95
591.003	19415.39
591.362	19481.38
591.721	19396.86
592.08	19458.33
592.44	19491.1
592.799	19609.51
593.158	19472.79
593.517	19551.89
593.876	19615.16
594.235	19604.32
594.593	19653.81
594.952	19702.17
595.311	19658.78
595.67	19714.82
596.029	19796.63
596.387	19904.19
596.746	19925.66
597.104	19795.5
597.463	19849.28
597.822	19928.6
598.18	19949.16
598.538	19927.47
598.897	20074.36
599.255	19985.55
599.613	20256.5
599.972	20097.18
600.33	20179.67
600.688	20137.63
601.046	20203.85
601.404	20340.11
601.762	20268.25
602.12	20364.3
602.478	20344.18
602.836	20290.4
603.194	20390.74
603.552	20385.54
603.91	20391.86
604.268	20561.35
604.625	20488.36
604.983	20562.03
605.341	20563.39
605.698	20628.02
606.056	20767.9
606.413	20681.12
606.771	20786.2
607.128	20810.16
607.485	20764.74
607.843	20716.15
608.2	20861.23
608.557	20957.27
608.914	20878.18
609.272	21019.19
609.629	21027.78
609.986	21103.71
610.343	21096.03
610.7	21250.6
611.057	21226.87
611.414	21193.43
611.771	21273.88
612.127	21333.54
612.484	21381.44
612.841	21423.48
613.198	21401.78
613.554	21412.4
613.911	21531.95
614.267	21517.94
614.624	21564.72
614.98	21644.04
615.337	21725.62
615.693	21655.11
616.05	21659.63
616.406	21818.27
616.762	21752.51
617.118	21815.78
617.475	21715.22
617.831	21865.72
618.187	21910.02
618.543	21988.66
618.899	22013.74
619.255	22010.58
619.611	22064.36
619.967	22136.9
620.323	22180.74
620.678	22076.34
621.034	22153.17
621.39	22161.54
621.746	22123.8
622.101	22400.85
622.457	22245.38
622.812	22272.04
623.168	22251.48
623.523	22403.56
623.879	22428.2
624.234	22365.15
624.589	22424.13
624.945	22395.65
625.3	22488.98
625.655	22483.34
626.01	22500.51
626.365	22554.97
626.72	22401.98
627.075	22409.21
627.43	22396.56
627.785	22571.02
628.14	22389.78
628.495	22477.91
628.85	22615.08
629.205	22466.16
629.559	22570.79
629.914	22520.62
630.269	22445.37
630.623	22443.34
630.978	22434.98
631.332	22534.63
631.687	22709.77
632.041	22520.85
632.396	22547.97
632.75	22512.94
633.104	22532.83
633.459	22422.09
633.813	22412.6
634.167	22434.3
634.521	22498.93
634.875	22412.15
635.229	22420.51
635.583	22265.71
635.937	22465.93
636.291	22285.6
636.645	22349.55
636.999	22314.53
637.352	22350.46
637.706	22267.52
638.06	22415.77
638.413	22389.1
638.767	22308.42
639.121	22409.67
639.474	22218.48
639.828	22280.63
640.181	22241.08
640.534	22303.45
640.888	22199.5
641.241	22120.41
641.594	22233.17
641.947	22271.14
642.301	22130.58
642.654	22241.76
643.007	22239.73
643.36	22271.59
643.713	22248.99
644.066	22254.19
644.419	22097.81
644.771	21980.98
645.124	21806.74
645.477	21892.16
645.83	21786.18
646.182	21561.78
646.535	21592.96
646.888	21565.85
647.24	21451.05
647.593	21663.47
647.945	21616.24
648.298	21385.29
648.65	21491.72
649.002	21389.35
649.355	21527.43
649.707	21379.18
650.059	21613.3
650.411	21830.02
650.763	21932.39
651.115	22025.27
651.467	22028.88
651.819	22086.28
652.171	22102.33
652.523	21955.21
652.875	21943.91
653.227	21972.84
653.578	22013.07
653.93	22059.62
654.282	21987.76
654.633	21955.89
654.985	21914.99
655.337	21907.76
655.688	21976.23
656.039	22053.06
656.391	21818.27
656.742	21842.22
657.094	21874.09
657.445	21947.08
657.796	22020.97
658.147	21850.13
658.498	21878.83
658.849	21926.06
659.2	21924.03
659.551	21857.36
659.902	21989.79
660.253	21885.16
660.604	22011.26
660.955	21976.68
661.306	21991.37
661.656	21919.06
662.007	22006.29
662.358	21910.24
662.708	22000.86
663.059	22009.9
663.409	21752.28
663.76	21966.29
664.11	22078.15
664.461	21955.44
664.811	22052.39
665.161	21898.72
665.511	21940.52
665.862	22036.12
666.212	22070.46
666.562	22093.97
666.912	22082.89
667.262	21907.53
667.612	22049.22
667.962	22025.72
668.312	22030.92
668.662	22054.19
669.011	22020.3
669.361	22104.36
669.711	22082.89
670.06	21998.83
670.41	22037.47
670.76	22017.13
671.109	22142.1
671.459	22059.39
671.808	21893.75
672.157	22080.63
672.507	21985.27
672.856	21979.17
673.205	21944.37
673.554	22043.8
673.904	21955.21
674.253	22062.56
674.602	21943.24
674.951	21620.53
675.3	21653.3
675.649	21927.87
675.998	21819.17
676.346	21885.16
676.695	21905.05
677.044	21768.33
677.393	21924.25
677.741	21927.87
678.09	21891.49
678.438	21817.59
678.787	21923.12
679.135	22034.99
679.484	21735.56
679.832	21868.89
680.181	21706.63
680.529	21677.25
680.877	21661.21
681.225	21680.19
681.573	21843.58
681.922	21643.13
682.27	21615.56
682.618	21712.28
682.966	21700.98
683.314	21738.27
683.661	21519.29
684.009	21449.92
684.357	21427.54
684.705	21389.58
685.053	21437.04
685.4	21469.58
685.748	21383.25
686.095	21383.93
686.443	21280.2
686.79	21233.2
687.138	21267.55
687.485	21291.28
687.832	21273.42
688.18	21320.65
688.527	21241.79
688.874	21203.82
689.221	21143.03
689.568	21063.49
689.915	21022.81
690.262	21081.34
690.609	20986.2
690.956	20945.75
691.303	20904.85
691.65	20875.24
691.997	20815.58
692.344	20726.32
692.69	20715.25
693.037	20785.07
693.383	20602.48
693.73	20660.11
694.077	20467.8
694.423	20396.38
694.769	20456.72
695.116	20412.88
695.462	20397.74
695.808	20303.05
696.155	20334.69
696.501	20223.28
696.847	20208.82
697.193	20023.29
697.539	20118.2
697.885	19951.88
698.231	19902.39
698.577	20036.39
698.923	19946.9
699.269	19894.93
699.614	19823.74
699.96	19746.01
700.306	19726.12
700.651	19669.4
700.997	19633.92
701.342	19694.48
701.688	19574.26
702.033	19526.35
702.379	19489.74
702.724	19476.86
703.069	19548.5
703.415	19308.96
703.76	19285
704.105	19351.89
704.45	19352.57
704.795	19276.41
705.14	19082.75
705.485	19098.57
705.83	19022.18
706.175	19035.97
706.52	18994.39
706.865	18915.97
707.209	18892.92
707.554	18919.59
707.899	18861.74
708.243	18896.09
708.588	18823.09
708.932	18710.55
709.277	18597.34
709.621	18559.14
709.966	18607.05
710.31	18595.08
710.654	18457.45
710.998	18564.12
711.342	18467.17
711.687	18504.91
712.031	18372.71
712.375	18317.34
712.719	18399.83
713.063	18365.25
713.407	18377.68
713.75	18260.62
714.094	18219.94
714.438	18259.04
714.782	18215.43
715.125	18136.78
715.469	18166.84
715.812	18012.27
716.156	17920.29
716.499	18053.62
716.843	18043
717.186	17925.49
717.53	18028.09
717.873	18000.97
718.216	17953.51
718.559	17872.61
718.902	17753.29
719.246	17872.16
719.589	17777.02
719.932	17664.03
720.275	17733.18
720.617	17633.75
720.96	17618.83
721.303	17615.89
721.646	17716
721.989	17574.54
722.331	17731.6
722.674	17601.43
723.016	17633.97
723.359	17649.56
723.701	17601.88
724.044	17426.29
724.386	17423.81
724.729	17476.46
725.071	17528.44
725.413	17479.4
725.755	17497.48
726.097	17408.44
726.439	17313.53
726.782	17368.22
727.124	17462.9
727.465	17350.81
727.807	17302.45
728.149	17275.11
728.491	17237.6
728.833	17306.07
729.175	17279.63
729.516	17324.83
729.858	17150.37
730.199	17250.93
730.541	17188.56
730.882	17184.94
731.224	17151.27
731.565	17161.44
731.906	17112.63
732.248	17220.65
732.589	17067.66
732.93	17051.39
733.271	17117.6
733.612	17078.73
733.953	17105.62
734.294	17046.42
734.635	16918.28
734.976	16992.41
735.317	16998.28
735.658	16904.73
735.999	16978.85
736.339	16944.72
736.68	16930.26
737.021	16976.81
737.361	16873.09
737.702	16884.39
738.042	16871.28
738.383	16839.64
738.723	16975.68
739.063	16933.88
739.404	16896.36
739.744	16893.43
740.084	16828.34
740.424	16903.37
740.764	16797.84
741.104	16896.59
741.444	16715.58
741.784	16731.17
742.124	16760.77
742.464	16715.8
742.804	16738.4
743.143	16753.54
743.483	16675.35
743.823	16704.96
744.162	16679.19
744.502	16720.32
744.841	16684.17
745.181	16707.67
745.52	16633.09
745.86	16577.28
746.199	16631.06
746.538	16581.57
746.877	16629.03
747.216	16679.87
747.556	16585.19
747.895	16518.75
748.234	16514.23
748.573	16489.14
748.911	16535.92
749.25	16463.61
749.589	16465.41
749.928	16499.76
750.267	16426.77
750.605	16405.08
750.944	16458.18
751.283	16319.66
751.621	16469.03
751.96	16316.27
752.298	16346.77
752.636	16337.73
752.975	16393.33
753.313	16214.57
753.651	16384.96
753.989	16231.07
754.327	16121.47
754.666	16187.68
755.004	16228.36
755.342	16212.54
755.679	16210.05
756.017	16092.54
756.355	16197.62
756.693	16081.47
757.031	16175.25
757.368	16061.13
757.706	16074.92
758.044	16045.99
758.381	15969.83
758.719	15889.38
759.056	16034.24
759.394	15935.48
759.731	15838.31
760.068	15820.01
760.405	15786.56
760.743	15821.36
761.08	15811.42
761.417	15738.43
761.754	15758.31
762.091	15679.9
762.428	15583.86
762.765	15508.15
763.102	15598.09
763.438	15459.34
763.775	15436.52
764.112	15366.23
764.449	15394.93
764.785	15428.38
765.122	15285.33
765.458	15177.99
765.795	15230.87
766.131	15258.67
766.467	15166.69
766.804	15124.21
767.14	15065.45
767.476	14993.14
767.812	14977.09
768.148	15012.35
768.485	14968.28
768.821	14799.02
769.157	14794.95
769.492	14862.07
769.828	14807.83
770.164	14706.36
770.5	14753.6
770.836	14676.54
771.171	14552.24
771.507	14571.45
771.842	14427.95
772.178	14594.96
772.513	14432.7
772.849	14421.85
773.184	14365.36
773.519	14405.13
773.855	14321.06
774.19	14258.24
774.525	14264.34
774.86	14161.52
775.195	14221.86
775.53	14044.69
775.865	14013.73
776.2	14002.43
776.535	13936.89
776.87	13894.41
777.205	13872.49
777.539	13802.21
777.874	13786.84
778.209	13754.98
778.543	13693.28
778.878	13649.9
779.212	13541.88
779.547	13500.07
779.881	13550.01
780.215	13448.54
780.55	13483.12
780.884	13377.81
781.218	13353.41
781.552	13355.67
781.886	13273.63
782.22	13186.63
782.554	13130.36
782.888	13027.09
783.222	13067.76
783.556	12974.43
783.889	12926.98
784.223	12864.83
784.557	12813.08
784.89	12907.77
785.224	12801.1
785.557	12770.37
785.891	12728.79
786.224	12731.5
786.558	12691.05
786.891	12548.23
787.224	12533.99
787.557	12526.99
787.891	12486.31
788.224	12449.02
788.557	12450.15
788.89	12402.92
789.223	12385.07
789.556	12271.4
789.888	12319.08
790.221	12257.62
790.554	12226.2
790.887	12167.9
791.219	12070.05
791.552	12154.79
791.884	11980.79
792.217	11982.82
792.549	11946.44
792.882	11763.17
793.214	11861.02
793.546	11899.88
793.879	11737.4
794.211	11804.29
794.543	11823.95
794.875	11650.85
795.207	11710.51
795.539	11641.36
795.871	11681.59
796.203	11562.94
796.535	11547.13
796.867	11550.29
797.198	11466.22
797.53	11443.85
797.862	11320.01
798.193	11363.18
798.525	11320.47
798.856	11342.61
799.188	11272.1
799.519	11237.76
799.85	11167.7
800.182	11124.99
800.513	11217.64
800.844	11027.14
801.175	11122.5
801.506	11152.56
801.837	11028.5
802.168	11031.89
802.499	10997.99
802.83	10941.27
803.161	10875.28
803.491	10848.84
803.822	10875.96
804.153	10824.43
804.483	10733.81
804.814	10738.11
805.145	10733.59
805.475	10655.17
805.805	10708.05
806.136	10683.65
806.466	10674.38
806.796	10660.14
807.126	10593.7
807.457	10629.18
807.787	10534.27
808.117	10545.8
808.447	10541.95
808.777	10486.14
809.107	10396.2
809.436	10423.09
809.766	10454.5
810.096	10391.68
810.426	10259.02
810.755	10414.73
811.085	10313.71
811.414	10311.45
811.744	10227.84
812.073	10205.47
812.403	10269.65
812.732	10175.64
813.061	10169.99
813.39	10053.83
813.719	10131.12
814.049	10152.59
814.378	10125.47
814.707	10056.77
815.036	10045.7
815.365	9991.23
815.693	9943.78
816.022	9911.46
816.351	9938.81
816.68	9824.46
817.008	9897.23
817.337	9808.19
817.665	9843.44
817.994	9841.63
818.322	9799.83
818.651	9842.99
818.979	9666.05
819.307	9758.25
819.636	9723.9
819.964	9617.68
820.292	9723.9
820.62	9727.06
820.948	9694.97
821.276	9680.51
821.604	9667.85
821.932	9713.95
822.259	9652.94
822.587	9635.99
822.915	9643.67
823.243	9647.74
823.57	9683.45
823.898	9619.27
824.225	9618.59
824.553	9617.01
824.88	9675.76
825.207	9691.58
825.535	9612.71
825.862	9713.73
826.189	9663.79
826.516	9735.87
826.843	9685.93
827.17	9653.62
827.497	9662.66
827.824	9640.51
828.151	9749.43
828.478	9671.69
828.805	9680.73
829.131	9642.77
829.458	9738.59
829.785	9606.39
830.111	9647.06
830.438	9759.15
830.764	9683.45
831.09	9658.14
831.417	9620.85
831.743	9707.85
832.069	9683.45
832.395	9632.15
832.722	9706.27
833.048	9652.26
833.374	9591.47
833.7	9637.12
834.026	9569.78
834.351	9671.47
834.677	9648.64
835.003	9640.28
835.329	9529.78
835.654	9560.96
835.98	9520.74
836.306	9595.31
836.631	9503.56
836.956	9533.17
837.282	9567.97
837.607	9549.44
837.932	9470.8
838.258	9555.77
838.583	9496.78
838.908	9444.36
839.233	9426.28
839.558	9433.06
839.883	9374.53
840.208	9346.73
840.533	9347.64
840.858	9379.27
841.182	9483.9
841.507	9437.12
841.832	9353.29
842.156	9330.01
842.481	9316.68
842.805	9278.03
843.13	9291.82
843.454	9296.11
843.778	9213.85
844.103	9236.23
844.427	9209.56
844.751	9211.82
845.075	9171.37
845.399	9155.55
845.723	9050.47
846.047	9108.77
846.371	9046.4
846.695	9020.41
847.019	8888.21
847.343	8936.8
847.666	8868.1
847.99	8824.94
848.313	8852.06
848.637	8810.25
848.96	8815.45
849.284	8722.79
849.607	8696.58
849.931	8596.69
850.254	8642.8
850.577	8596.69
850.9	8534.55
851.223	8511.5
851.546	8534.32
851.869	8386.53
852.192	8483.25
852.515	8339.07
852.838	8328
853.161	8369.36
853.483	8325.06
853.806	8322.8
854.129	8314.44
854.451	8272.18
854.774	8201.45
855.096	8159.42
855.419	8173.66
855.741	8182.47
856.063	8118.74
856.385	8152.64
856.708	8048.01
857.03	8083.94
857.352	8038.29
857.674	8038.74
857.996	7965.75
858.318	7923.72
858.64	7937.05
858.961	7897.96
859.283	7921.46
859.605	7899.99
859.926	7889.37
860.248	7837.62
860.57	7786.09
860.891	7867.67
861.212	7803.95
861.534	7782.03
861.855	7854.57
862.176	7778.86
862.498	7735.02
862.819	7707
863.14	7704.29
863.461	7688.24
863.782	7624.07
864.103	7710.16
864.424	7678.07
864.745	7602.37
865.065	7615.03
865.386	7554.91
865.707	7532.54
866.027	7642.82
866.348	7579.09
866.668	7612.54
866.989	7520.34
867.309	7525.54
867.63	7546.55
867.95	7528.02
868.27	7456.39
868.59	7479.66
868.91	7547.91
869.23	7506.55
869.55	7421.36
869.87	7545.42
870.19	7436.27
870.51	7447.35
870.83	7466.78
871.15	7407.8
871.469	7391.75
871.789	7393.79
872.109	7381.81
872.428	7387.69
872.748	7373.68
873.067	7394.47
873.386	7360.12
873.706	7318.31
874.025	7340.46
874.344	7332.1
874.663	7321.93
874.982	7298.88
875.301	7283.96
875.62	7239.67
875.939	7243.28
876.258	7226.56
876.577	7166
876.896	7225.88
877.214	7208.26
877.533	7170.29
877.852	7247.35
878.17	7183.62
878.489	7198.54
878.807	7196.51
879.125	7218.2
879.444	7124.42
879.762	7130.07
880.08	7173.23
880.398	7108.15
880.716	7056.4
881.034	7117.41
881.352	7055.27
881.67	7041.71
881.988	7041.26
882.306	7041.03
882.624	7009.62
882.941	6983.86
883.259	6960.35
883.577	6957.19
883.894	6878.32
884.212	6899.56
884.529	6922.61
884.846	6884.2
885.164	6860.24
885.481	6850.3
885.798	6890.98
886.115	6866.57
886.432	6828.38
886.75	6845.1
887.067	6838.55
887.383	6784.09
887.7	6753.35
888.017	6802.84
888.334	6789.06
888.651	6709.29
888.967	6724.2
889.284	6679.91
889.6	6670.19
889.917	6610.98
890.233	6647.82
890.55	6631.32
890.866	6652.34
891.182	6563.75
891.498	6592.68
891.815	6573.92
892.131	6564.88
892.447	6502.06
892.763	6496.19
893.079	6450.99
893.395	6485.11
893.71	6495.06
894.026	6491.67
894.342	6450.54
894.657	6399.46
894.973	6435.17
895.289	6356.53
895.604	6312.46
895.92	6338.9
896.235	6241.05
896.55	6378.45
896.865	6305.68
897.181	6258.9
897.496	6206.02
897.811	6179.13
898.126	6211.9
898.441	6148.85
898.756	6165.12
899.071	6109.98
899.386	6126.7
899.7	6060.94
900.015	6034.28
900.33	6056.65
900.644	6043.99
900.959	6065.46
901.273	6028.63
901.588	5942.75
901.902	5955.63
902.216	5881.51
902.531	5893.94
902.845	5900.95
903.159	5847.39
903.473	5838.58
903.787	5824.79
904.101	5779.59
904.415	5786.37
904.729	5797.45
905.042	5727.84
905.356	5757.45
905.67	5746.37
905.984	5701.4
906.297	5689.88
906.611	5678.35
906.924	5606.04
907.237	5600.39
907.551	5629.09
907.864	5556.1
908.177	5586.38
908.491	5571.46
908.804	5539.83
909.117	5488.98
909.43	5520.39
909.743	5453.95
910.056	5439.26
910.368	5385.03
910.681	5394.97
910.994	5353.62
911.307	5382.77
911.619	5284.69
911.932	5311.81
912.244	5233.85
912.557	5242.88
912.869	5214.64
913.181	5231.36
913.494	5231.81
913.806	5202.21
914.118	5196.33
914.43	5080.63
914.742	5159.95
915.054	5117.24
915.366	5084.02
915.678	5064.36
915.99	5049.67
916.302	4999.28
916.613	4969.45
916.925	4973.51
917.236	4968.77
917.548	4949.33
917.859	4941.2
918.171	4923.8
918.482	4848.77
918.794	4824.59
919.105	4865.72
919.416	4816.91
919.727	4809
920.038	4800.64
920.349	4749.56
920.66	4752.28
920.971	4754.08
921.282	4746.85
921.593	4704.37
921.903	4616.46
922.214	4670.92
922.525	4641.54
922.835	4620.3
923.146	4590.92
923.456	4578.95
923.767	4569.68
924.077	4554.77
924.387	4486.52
924.697	4538.5
925.008	4512.28
925.318	4517.71
925.628	4458.72
925.938	4455.33
926.248	4436.35
926.558	4414.66
926.867	4407.2
927.177	4334.43
927.487	4356.81
927.796	4301.89
928.106	4307.32
928.416	4358.84
928.725	4285.4
929.034	4286.07
929.344	4289.69
929.653	4266.87
929.962	4225.51
930.271	4203.14
930.581	4161.33
930.89	4138.73
931.199	4199.52
931.508	4156.81
931.817	4129.24
932.125	4108.45
932.434	4107.77
932.743	4077.72
933.051	4053.31
933.36	4003.37
933.669	4012.41
933.977	3995.69
934.286	3968.79
934.594	3994.1
934.902	3924.5
935.21	3883.6
935.519	3921.11
935.827	3903.26
936.135	3877.04
936.443	3860.77
936.751	3826.88
937.059	3871.4
937.367	3841.11
937.674	3773.54
937.982	3802.92
938.29	3775.35
938.597	3768.12
938.905	3714.56
939.213	3718.18
939.52	3698.52
939.827	3721.12
940.135	3697.61
940.442	3673.43
940.749	3698.74
941.056	3636.37
941.363	3597.05
941.67	3583.95
941.977	3605.19
942.284	3577.17
942.591	3531.29
942.898	3551.86
943.205	3564.96
943.511	3487
943.818	3529.26
944.125	3462.37
944.431	3473.89
944.738	3481.35
945.044	3429.37
945.35	3459.43
945.657	3427.57
945.963	3418.98
946.269	3392.99
946.575	3437.51
946.881	3352.99
947.187	3372.43
947.493	3362.48
947.799	3356.61
948.105	3316.61
948.41	3299.43
948.716	3278.64
949.022	3305.76
949.327	3262.6
949.633	3219.89
949.938	3231.19
950.244	3244.75
950.549	3186.44
950.854	3183.28
951.16	3191.41
951.465	3161.58
951.77	3173.79
952.075	3122.71
952.38	3129.95
952.685	3125.43
952.99	3069.38
953.294	3096.05
953.599	3082.49
953.904	3063.73
954.209	3073.45
954.513	3069.38
954.818	3017.63
955.122	2995.03
955.426	3003.17
955.731	2966.33
956.035	2920.91
956.339	2932.44
956.643	2940.57
956.948	2926.34
957.252	2939.67
957.556	2919.33
957.86	2876.85
958.163	2898.54
958.467	2934.24
958.771	2916.17
959.075	2877.75
959.378	2840.24
959.682	2828.94
959.985	2779.67
960.289	2804.08
960.592	2776.73
960.896	2813.12
961.199	2754.81
961.502	2762.95
961.805	2711.2
962.108	2706.68
962.411	2709.84
962.714	2745.32
963.017	2711.65
963.32	2706.91
963.623	2693.35
963.926	2659.45
964.228	2660.81
964.531	2663.29
964.833	2672.56
965.136	2611.09
965.438	2643.63
965.741	2616.06
966.043	2605.21
966.345	2578.55
966.648	2546.01
966.95	2554.14
967.252	2537.65
967.554	2536.52
967.856	2504.88
968.158	2496.52
968.46	2541.71
968.761	2499.68
969.063	2502.39
969.365	2492.9
969.666	2486.8
969.968	2461.26
970.269	2492.22
970.571	2461.26
970.872	2468.27
971.174	2405.22
971.475	2438.89
971.776	2433.92
972.077	2441.38
972.378	2357.08
972.679	2370.64
972.98	2376.07
973.281	2328.61
973.582	2352.11
973.883	2324.77
974.183	2307.37
974.484	2323.64
974.785	2315.05
975.085	2282.74
975.386	2275.96
975.686	2287.03
975.986	2271.66
976.287	2256.97
976.587	2222.85
976.887	2230.31
977.187	2220.82
977.487	2226.24
977.787	2220.82
978.087	2200.48
978.387	2185.79
978.687	2192.57
978.987	2178.56
979.286	2165.45
979.586	2177.43
979.885	2147.82
980.185	2132.46
980.484	2138.11
980.784	2135.17
981.083	2109.86
981.382	2131.78
981.682	2086.58
981.981	2078.45
982.28	2096.3
982.579	2061.73
982.878	2011.78
983.177	2055.62
983.475	2071.22
983.774	2036.64
984.073	2045.45
984.372	2009.52
984.67	2023.08
984.969	1987.15
985.267	2022.4
985.566	1991.67
985.864	1988.73
986.162	1999.35
986.461	1949.41
986.759	1946.25
987.057	1952.12
987.355	1921.84
987.653	1942.18
987.951	1934.95
988.249	1915.74
988.547	1914.84
988.844	1922.52
989.142	1884.78
989.44	1880.49
989.737	1880.26
990.035	1868.96
990.332	1848.17
990.63	1855.18
990.927	1834.39
991.224	1848.17
991.521	1835.52
991.819	1835.29
992.116	1829.42
992.413	1824.9
992.71	1794.39
993.006	1804.56
993.303	1797.55
993.6	1779.7
993.897	1746.03
994.193	1747.84
994.49	1738.34
994.787	1758.91
995.083	1715.52
995.379	1728.17
995.676	1724.11
995.972	1718.46
996.268	1711.9
996.565	1678.68
996.861	1697.89
997.157	1683.43
997.453	1673.94
997.749	1685.01
998.044	1631
998.34	1638.91
998.636	1649.53
998.932	1608.86
999.227	1618.35
999.523	1623.54
999.818	1583.09
1000.114	1591.23
1000.409	1577.22
1000.704	1597.78
1001	1580.38
1001.295	1584
1001.59	1576.31
1001.885	1583.09
1002.18	1546.71
1002.475	1556.43
1002.77	1543.1
1003.065	1533.38
1003.359	1541.51
1003.654	1506.94
1003.949	1501.74
1004.243	1490.44
1004.538	1475.3
1004.832	1461.52
1005.127	1494.51
1005.421	1457.22
1005.715	1466.03
1006.009	1445.7
1006.304	1457.22
1006.598	1435.08
1006.892	1424.91
1007.186	1420.84
1007.48	1419.71
1007.773	1412.48
1008.067	1388.3
1008.361	1393.49
1008.655	1373.38
1008.948	1381.74
1009.242	1377.9
1009.535	1365.25
1009.829	1337
1010.122	1321.18
1010.415	1337
1010.708	1346.04
1011.001	1305.81
1011.295	1308.98
1011.588	1319.37
1011.881	1287.28
1012.173	1297.68
1012.466	1290.9
1012.759	1271.01
1013.052	1292.03
1013.344	1279.15
1013.637	1250
1013.93	1244.8
1014.222	1246.83
1014.514	1275.53
1014.807	1229.43
1015.099	1231.46
1015.391	1245.02
1015.683	1226.04
1015.976	1216.32
1016.268	1216.78
1016.56	1186.72
1016.851	1190.34
1017.143	1190.56
1017.435	1178.81
1017.727	1185.14
1018.018	1165.7
1018.31	1172.94
1018.602	1146.72
1018.893	1158.47
1019.185	1162.54
1019.476	1151.92
1019.767	1144.01
1020.058	1114.41
1020.35	1115.76
1020.641	1112.6
1020.932	1084.58
1021.223	1094.29
1021.514	1083.9
1021.804	1077.34
1022.095	1085.48
1022.386	1087.29
1022.677	1046.16
1022.967	1043.22
1023.258	1056.1
1023.548	1057.23
1023.839	1060.17
1024.129	1009.55
1024.419	1009.32
1024.709	1042.32
1025	1000.74
1025.29	1012.49
1025.58	1013.39
1025.87	1002.32
1026.16	987.63
1026.449	981.08
1026.739	962.32
1027.029	963.9
1027.319	976.78
1027.608	963.45
1027.898	973.84
1028.187	939.27
1028.477	946.73
1028.766	945.37
1029.055	947.86
1029.344	926.84
1029.634	918.93
1029.923	905.15
1030.212	916.44
1030.501	920.74
1030.79	903.56
1031.078	902.43
1031.367	915.54
1031.656	899.5
1031.945	870.57
1032.233	889.33
1032.522	894.07
1032.81	857.69
1033.099	866.73
1033.387	850.46
1033.675	855.43
1033.963	857.69
1034.251	847.97
1034.54	842.1
1034.828	841.64
1035.116	839.84
1035.403	833.06
1035.691	831.7
1035.979	829.22
1036.267	815.2
1036.554	805.04
1036.842	805.04
1037.129	802.55
1037.417	790.12
1037.704	775.43
1037.992	783.34
1038.279	794.87
1038.566	778.37
1038.853	778.37
1039.14	778.37
