Data from cardboard_FLMS001491_067.txt Node
Date: Tue Feb 07 11:39:57 GMT 2017
User: dcchb
Spectrometer: FLMS00149
Trigger mode: 0
Integration Time (sec): 2.000000E-2
Scans to average: 10
Electric dark correction enabled: true
Nonlinearity correction enabled: false
Boxcar width: 0
XAxis mode: Wavelengths
Number of Pixels in Spectrum: 2048
>>>>>Begin Spectral Data<<<<<
341.393	-5.8
341.776	-5.8
342.16	-5.8
342.543	-68.4
342.927	-73.83
343.31	-94.39
343.693	-42.87
344.077	-70.89
344.46	-84.22
344.843	-42.87
345.226	-49.87
345.61	-29.31
345.993	-13.04
346.376	17.25
346.759	-5.58
347.142	25.38
347.525	56.34
347.908	44.14
348.291	75.32
348.674	89.11
349.057	125.49
349.44	141.54
349.823	159.84
350.206	172.27
350.588	193.51
350.971	197.58
351.354	231.25
351.737	239.16
352.119	259.95
352.502	259.5
352.884	269.89
353.267	285.03
353.65	294.75
354.032	306.05
354.414	316.22
354.797	299.27
355.179	318.25
355.562	311.25
355.944	324.58
356.326	320.74
356.709	358.48
357.091	346.28
357.473	337.01
357.855	347.63
358.238	352.15
358.62	340.85
359.002	351.93
359.384	334.53
359.766	345.37
360.148	344.24
360.53	313.51
360.912	348.54
361.294	334.3
361.676	319.61
362.057	333.4
362.439	331.14
362.821	336.11
363.203	354.19
363.584	328.88
363.966	324.81
364.348	333.4
364.729	344.02
365.111	314.19
365.493	307.63
365.874	326.16
366.256	322.1
366.637	341.08
367.019	303.34
367.4	318.25
367.781	314.86
368.163	329.33
368.544	336.11
368.925	325.49
369.306	318.48
369.688	324.36
370.069	330.01
370.45	314.19
370.831	316.67
371.212	310.12
371.593	312.15
371.974	296.33
372.355	333.85
372.736	318.93
373.117	304.24
373.498	322.77
373.879	321.19
374.26	316.45
374.641	315.09
375.021	325.26
375.402	327.75
375.783	331.81
376.163	341.08
376.544	342.66
376.925	358.48
377.305	332.72
377.686	347.41
378.066	337.91
378.447	338.82
378.827	336.33
379.208	330.23
379.588	344.69
379.968	334.98
380.349	334.3
380.729	337.24
381.109	334.75
381.489	341.3
381.87	353.96
382.25	346.5
382.63	332.04
383.01	360.97
383.39	343.34
383.77	355.99
384.15	348.31
384.53	354.64
384.91	376.78
385.29	333.4
385.67	352.15
386.049	381.98
386.429	373.85
386.809	370.68
387.189	367.52
387.568	369.55
387.948	373.17
388.328	352.83
388.707	370.91
389.087	398.7
389.466	391.02
389.846	378.82
390.225	373.17
390.605	386.73
390.984	377.01
391.363	395.99
391.743	377.69
392.122	385.82
392.501	364.58
392.881	392.15
393.26	406.61
393.639	395.77
394.018	395.54
394.397	394.18
394.776	400.51
395.155	403.45
395.534	404.81
395.913	389.21
396.292	414.97
396.671	410.46
397.05	411.59
397.429	415.88
397.808	427.18
398.186	420.4
398.565	431.7
398.944	414.97
399.323	409.33
399.701	426.73
400.08	439.61
400.458	414.52
400.837	435.31
401.215	417.46
401.594	430.12
401.972	434.64
402.351	425.82
402.729	437.12
403.107	432.15
403.486	442.09
403.864	466.5
404.242	459.04
404.62	465.14
404.999	449.78
405.377	468.31
405.755	459.95
406.133	463.56
406.511	466.05
406.889	483.9
407.267	478.93
407.645	475.54
408.023	497.01
408.401	468.31
408.779	514.41
409.156	495.65
409.534	494.29
409.912	519.38
410.29	527.06
410.667	524.35
411.045	510.79
411.422	531.13
411.8	535.88
412.178	539.04
412.555	532.94
412.933	529.55
413.31	542.2
413.687	541.53
414.065	562.77
414.442	539.72
414.819	589.21
415.197	564.8
415.574	548.53
415.951	565.25
416.328	564.8
416.705	563.22
417.082	595.08
417.46	570.23
417.837	609.32
418.214	593.28
418.591	594.41
418.967	604.35
419.344	609.55
419.721	583.33
420.098	636.89
420.475	616.55
420.852	607.74
421.228	633.95
421.605	625.36
421.982	626.72
422.358	640.51
422.735	637.34
423.111	628.3
423.488	652.71
423.864	675.31
424.241	617.23
424.617	661.52
424.994	672.14
425.37	666.49
425.746	677.34
426.123	692.71
426.499	672.82
426.875	692.93
427.251	694.06
427.627	730.22
428.003	709.66
428.379	747.4
428.756	733.16
429.132	722.09
429.507	748.98
429.883	737.68
430.259	747.4
430.635	725.93
431.011	755.3
431.387	757.56
431.763	771.35
432.138	794.85
432.514	814.06
432.89	770.67
433.265	792.14
433.641	794.4
434.016	817.45
434.392	848.86
434.767	839.6
435.143	836.66
435.518	857.68
435.894	869.88
436.269	851.8
436.644	874.85
437.02	900.84
437.395	890.44
437.77	875.08
438.145	904.68
438.52	888.41
438.895	910.56
439.271	947.16
439.646	935.19
440.021	928.86
440.395	934.74
440.77	930.89
441.145	972.25
441.52	991.91
441.895	940.16
442.27	989.88
442.645	965.47
443.019	965.69
443.394	982.64
443.769	988.97
444.143	990.55
444.518	989.42
444.892	1033.49
445.267	1014.28
445.641	1019.25
446.016	1020.16
446.39	1011.12
446.764	1045.47
447.139	1035.98
447.513	1038.91
447.887	1060.83
448.262	1048.63
448.636	1082.08
449.01	1081.62
449.384	1094.05
449.758	1081.62
450.132	1112.81
450.506	1102.64
450.88	1122.75
451.254	1122.75
451.628	1141.06
452.002	1158.68
452.376	1130.66
452.75	1160.04
453.123	1181.51
453.497	1174.73
453.871	1180.38
454.244	1218.57
454.618	1215.18
454.992	1230.55
455.365	1216.08
455.739	1263.31
456.112	1278.91
456.486	1273.03
456.859	1276.42
457.232	1320.04
457.606	1303.54
457.979	1301.51
458.352	1358.45
458.725	1348.96
459.099	1357.1
459.472	1390.99
459.845	1389.19
460.218	1426.93
460.591	1453.14
460.964	1436.64
461.337	1473.03
461.71	1453.59
462.083	1509.41
462.456	1514.38
462.829	1489.75
463.201	1559.58
463.574	1550.76
463.947	1561.61
464.32	1589.41
464.692	1631.44
465.065	1625.56
465.438	1622.85
465.81	1670.08
466.183	1674.6
466.555	1725.9
466.928	1731.55
467.3	1731.32
467.672	1757.54
468.045	1776.97
468.417	1767.26
468.789	1813.81
469.161	1823.07
469.534	1829.85
469.906	1870.08
470.278	1900.36
470.65	1932.68
471.022	1969.96
471.394	2011.54
471.766	2007.25
472.138	2041.37
472.51	2070.75
472.882	2089.51
473.253	2123.4
473.625	2147.13
473.997	2155.49
474.369	2206.11
474.74	2242.95
475.112	2291.76
475.484	2293.34
475.855	2329.27
476.227	2353.91
476.598	2423.06
476.97	2436.16
477.341	2457.18
477.713	2535.15
478.084	2563.62
478.455	2584.64
478.827	2651.75
479.198	2708.47
479.569	2699.89
479.94	2808.36
480.311	2802.93
480.682	2880.67
481.053	2926.77
481.424	2969.03
481.795	2999.99
482.166	3025.3
482.537	3083.61
482.908	3164.96
483.279	3200.89
483.65	3255.35
484.021	3343.03
484.391	3357.72
484.762	3396.82
485.133	3463.03
485.503	3487.89
485.874	3536.47
486.244	3571.28
486.615	3623.25
486.985	3653.53
487.356	3773.08
487.726	3780.54
488.097	3903.7
488.467	3909.35
488.837	3987.99
489.207	4061.66
489.578	4162.22
489.948	4129
490.318	4211.26
490.688	4222.78
491.058	4274.99
491.428	4392.72
491.798	4407.41
492.168	4504.58
492.538	4493.29
492.908	4611.25
493.278	4692.38
493.648	4655.54
494.017	4761.75
494.387	4810.79
494.757	4868.64
495.126	4898.7
495.496	4958.58
495.866	5019.83
496.235	5069.77
496.605	5079.71
496.974	5154.06
497.344	5230.67
497.713	5242.42
498.082	5285.13
498.452	5381.85
498.821	5364.68
499.19	5436.54
499.559	5474.73
499.928	5534.84
500.298	5595.18
500.667	5679.02
501.036	5684.21
501.405	5759.92
501.774	5727.15
502.143	5858.22
502.512	5890.76
502.88	5957.88
503.249	5926.92
503.618	6023.19
503.987	6065.9
504.356	6110.64
504.724	6205.78
505.093	6146.12
505.462	6254.6
505.83	6354.03
506.199	6400.58
506.567	6489.84
506.936	6474.93
507.304	6566.45
507.672	6637.18
508.041	6662.49
508.409	6767.12
508.777	6818.65
509.145	6865.43
509.514	6914.24
509.882	6987.46
510.25	7008.47
510.618	7105.42
510.986	7150.17
511.354	7226.77
511.722	7344.28
512.09	7387.22
512.458	7387.9
512.826	7505.18
513.193	7576.82
513.561	7614.79
513.929	7662.02
514.297	7804.39
514.664	7856.59
515.032	7967.77
515.4	8032.18
515.767	8140.2
516.135	8145.17
516.502	8080.99
516.869	8318.95
517.237	8358.49
517.604	8351.49
517.972	8546.74
518.339	8556.23
518.706	8550.58
519.073	8659.05
519.44	8740.41
519.808	8909.67
520.175	8905.6
520.542	9023.56
520.909	9175.2
521.276	9200.28
521.643	9294.97
522.009	9364.12
522.376	9465.13
522.743	9520.95
523.11	9697.44
523.477	9715.75
523.843	9897.21
524.21	10037.77
524.577	10062.4
524.943	10143.98
525.31	10217.43
525.676	10321.61
526.043	10414.49
526.409	10584.65
526.776	10682.73
527.142	10724.31
527.508	10840.92
527.874	10927.69
528.241	11073.23
528.607	11127.91
528.973	11212.43
529.339	11307.12
529.705	11436.61
530.071	11550.73
530.437	11602.7
530.803	11722.02
531.169	11762.02
531.535	11824.39
531.901	11938.74
532.267	12031.17
532.632	12198.85
532.998	12209.24
533.364	12369.91
533.73	12388.9
534.095	12525.84
534.461	12564.71
534.826	12656.69
535.192	12773.97
535.557	12844.25
535.923	12898.04
536.288	13028.65
536.653	13149.33
537.019	13109.56
537.384	13220.06
537.749	13270.46
538.114	13368.31
538.479	13411.02
538.845	13554.97
539.21	13532.37
539.575	13644.91
539.94	13796.32
540.305	13937.33
540.67	13851.01
541.034	14009.65
541.399	14140.72
541.764	14147.95
542.129	14249.64
542.494	14372.8
542.858	14478.79
543.223	14418
543.587	14705.67
543.952	14612.34
544.316	14707.03
544.681	14840.13
545.045	14831.55
545.41	15005.78
545.774	15067.92
546.138	15086.68
546.503	15306.33
546.867	15278.31
547.231	15398.31
547.595	15476.27
547.959	15540.23
548.324	15542.03
548.688	15744.97
549.052	15787.45
549.416	15979.09
549.779	15907.22
550.143	15981.35
550.507	16142.02
550.871	16274.22
551.235	16264.05
551.599	16474.21
551.962	16532.52
552.326	16608
552.689	16692.06
553.053	16655.68
553.417	16842.79
553.78	17069.68
554.143	17050.92
554.507	17226.96
554.87	17178.83
555.234	17374.98
555.597	17344.47
555.96	17499.27
556.323	17634.18
556.686	17685.03
557.05	17877.34
557.413	17951.01
557.776	18040.5
558.139	18117.33
558.502	18312.36
558.865	18310.32
559.228	18536.08
559.59	18543.99
559.953	18690.65
560.316	18938.56
560.679	18800.71
561.041	19149.85
561.404	19170.19
561.767	19374.02
562.129	19304.87
562.492	19503.51
562.854	19555.26
563.217	19574.92
563.579	19701.93
563.941	19912.54
564.304	19936.72
564.666	20137.85
565.028	20222.82
565.39	20265.53
565.753	20488.12
566.115	20526.31
566.477	20748
566.839	20778.51
567.201	20865.96
567.563	20945.51
567.925	21202.22
568.287	21224.37
568.648	21266.18
569.01	21515.21
569.372	21556.57
569.734	21613.97
570.095	21645.83
570.457	21863.45
570.819	21966.27
571.18	21989.55
571.542	22139.83
571.903	22170.79
572.265	22383.21
572.626	22467.28
572.987	22449.2
573.349	22634.5
573.71	22740.94
574.071	22759.25
574.432	22804.89
574.794	23071.1
575.155	23101.84
575.516	23063.19
575.877	23230.65
576.238	23257.09
576.599	23486.91
576.96	23501.83
577.32	23584.76
577.681	23660.92
578.042	23747.02
578.403	23711.76
578.763	23844.87
579.124	23942.49
579.485	24054.58
579.845	24232.65
580.206	24139.32
580.566	24205.54
580.927	24121.7
581.287	24413.67
581.648	24298.19
582.008	24494.57
582.368	24471.97
582.728	24549.93
583.089	24572.31
583.449	24668.35
583.809	24672.64
584.169	24771.85
584.529	24793.54
584.889	24954.67
585.249	24878.74
585.609	24947.44
585.969	24976.14
586.329	25049.58
586.688	25154.89
587.048	25159.18
587.408	25116.7
587.768	25153.08
588.127	25204.38
588.487	25188.33
588.846	25398.27
589.206	25243.02
589.565	25360.53
589.925	25605.95
590.284	25510.59
590.643	25577.93
591.003	25650.24
591.362	25694.31
591.721	25754.87
592.08	25642.33
592.44	25730.24
592.799	25769.56
593.158	25812.27
593.517	25908.99
593.876	25935.21
594.235	25866.28
594.593	26061.08
594.952	26140.63
595.311	26101.08
595.67	26271.7
596.029	26292.49
596.387	26360.51
596.746	26403.9
597.104	26341.52
597.463	26330
597.822	26441.86
598.18	26310.57
598.538	26411.81
598.897	26629.65
599.255	26444.12
599.613	26925.46
599.972	26638.47
600.33	26718.01
600.688	26614.06
601.046	26839.82
601.404	26952.13
601.762	26933.15
602.12	27020.38
602.478	26919.14
602.836	26977.44
603.194	26989.19
603.552	26998
603.91	26960.04
604.268	27128.17
604.625	26999.59
604.983	27393.25
605.341	27128.85
605.698	27411.1
606.056	27343.53
606.413	27403.42
606.771	27525.67
607.128	27627.82
607.485	27574.94
607.843	27455.17
608.2	27625.78
608.557	27816.06
608.914	27696.52
609.272	27864.87
609.629	28048.82
609.986	28071.2
610.343	27827.81
610.7	28216.96
611.057	28218.31
611.414	28233
611.771	28190.06
612.127	28241.14
612.484	28359.1
612.841	28478.42
613.198	28333.34
613.554	28430.51
613.911	28472.32
614.267	28478.42
614.624	28599.54
614.98	28621.92
615.337	28834.57
615.693	28779.65
616.05	28690.39
616.406	28984.17
616.762	28963.6
617.118	28998.86
617.475	28883.15
617.831	28996.14
618.187	29106.88
618.543	29166.08
618.899	29391.84
619.255	29281.56
619.611	29265.29
619.967	29375.57
620.323	29474.78
620.678	29306.19
621.034	29366.76
621.39	29489.24
621.746	29355.23
622.101	29766.75
622.457	29495.11
622.812	29600.87
623.168	29572.4
623.523	29743.02
623.879	29754.77
624.234	29627.09
624.589	29752.73
624.945	29770.59
625.3	29762
625.655	29727.88
626.01	29764.94
626.365	29776.69
626.72	29740.31
627.075	29780.53
627.43	29790.93
627.785	29755.45
628.14	29844.26
628.495	29787.76
628.85	29870.47
629.205	29788.89
629.559	29894.43
629.914	29867.53
630.269	29838.61
630.623	29778.72
630.978	29802
631.332	30006.97
631.687	30038.6
632.041	29861.66
632.396	29982.56
632.75	29893.3
633.104	29797.71
633.459	29813.3
633.813	29777.82
634.167	29734.88
634.521	29769.23
634.875	29822.11
635.229	29845.16
635.583	29649.91
635.937	29647.43
636.291	29686.3
636.645	29717.71
636.999	29679.74
637.352	29627.99
637.706	29616.92
638.06	29736.92
638.413	29567.43
638.767	29621.21
639.121	29669.35
639.474	29392.97
639.828	29542.12
640.181	29577.37
640.534	29526.98
640.888	29474.55
641.241	29475
641.594	29552.29
641.947	29535.79
642.301	29498.05
642.654	29410.6
643.007	29562.91
643.36	29445.4
643.713	29437.94
644.066	29548.67
644.419	29350.49
644.771	29064.17
645.124	29014.67
645.477	28955.47
645.83	28722.48
646.182	28677.06
646.535	28518.64
646.888	28669.6
647.24	28542.37
647.593	28814
647.945	28633.44
648.298	28492.88
648.65	28445.88
649.002	28396.61
649.355	28560.45
649.707	28528.59
650.059	28527
650.411	28905.98
650.763	28904.4
651.115	29403.59
651.467	29193.43
651.819	29278.4
652.171	29149.81
652.523	29166.99
652.875	29183.48
653.227	29090.15
653.578	29232.97
653.93	29247.44
654.282	29103.49
654.633	29035.47
654.985	29114.56
655.337	29137.84
655.688	29160.21
656.039	29245.86
656.391	28970.61
656.742	29113.2
657.094	29020.78
657.445	29098.29
657.796	29115.69
658.147	29206.53
658.498	28976.94
658.849	29218.74
659.2	29138.06
659.551	29006.31
659.902	29074.56
660.253	29001.79
660.604	29123.6
660.955	28843.83
661.306	29129.02
661.656	29124.28
662.007	29110.72
662.358	29048.12
662.708	29060.32
663.059	29074.79
663.409	28855.58
663.76	29123.82
664.11	29185.97
664.461	29124.5
664.811	29233.88
665.161	29162.24
665.511	29162.69
665.862	29150.26
666.212	29186.2
666.562	29231.17
666.912	29279.75
667.262	29181.45
667.612	29141.23
667.962	29220.55
668.312	29156.37
668.662	29289.7
669.011	29080.89
669.361	29210.6
669.711	29018.06
670.06	29133.99
670.41	29064.17
670.76	29000.44
671.109	29166.99
671.459	29088.12
671.808	29067.1
672.157	29076.14
672.507	28971.06
672.856	29063.71
673.205	29044.28
673.554	29148
673.904	29135.8
674.253	29112.98
674.602	29045.63
674.951	28748.24
675.3	28536.5
675.649	29017.84
675.998	29001.34
676.346	29033.43
676.695	29085.18
677.044	28829.37
677.393	29036.37
677.741	28958.41
678.09	28871.4
678.438	28818.97
678.787	29047.22
679.135	29087.89
679.484	28794.79
679.832	28978.97
680.181	28795.92
680.529	28807.45
680.877	28692.2
681.225	28656.04
681.573	28896.94
681.922	28659.88
682.27	28661.46
682.618	28735.13
682.966	28499.66
683.314	28667.79
683.661	28526.1
684.009	28380.79
684.357	28384.18
684.705	28339.21
685.053	28329.72
685.4	28398.42
685.748	28217.86
686.095	28292.89
686.443	28250.63
686.79	28130.63
687.138	28206.79
687.485	28247.24
687.832	28115.72
688.18	28029.84
688.527	27964.99
688.874	28021.93
689.221	28007.7
689.568	27942.84
689.915	27712.56
690.262	27837.3
690.609	27733.13
690.956	27609.51
691.303	27677.99
691.65	27574.71
691.997	27618.78
692.344	27429.41
692.69	27344.21
693.037	27343.98
693.383	27193.03
693.73	27325
694.077	27029.64
694.423	27104.22
694.769	27000.94
695.116	26988.74
695.462	26936.54
695.808	27001.39
696.155	26843.21
696.501	26676.43
696.847	26788.29
697.193	26658.13
697.539	26694.51
697.885	26541.07
698.231	26352.6
698.577	26452.03
698.923	26357.8
699.269	26216.33
699.614	26146.28
699.96	26119.38
700.306	26144.69
700.651	26121.19
700.997	25998.26
701.342	26054.07
701.688	25890.92
702.033	25860.63
702.379	25787.64
702.724	25796.91
703.069	25677.36
703.415	25384.04
703.76	25382.23
704.105	25504.03
704.45	25516.69
704.795	25209.35
705.14	25269.69
705.485	25337.03
705.83	25167.09
706.175	25298.84
706.52	25023.14
706.865	25128.9
707.209	25023.14
707.554	24997.83
707.899	25010.94
708.243	24738.86
708.588	24861.11
708.932	24731.62
709.277	24641.23
709.621	24699.99
709.966	24560.78
710.31	24729.14
710.654	24431.07
710.998	24453.89
711.342	24479.43
711.687	24349.71
712.031	24337.96
712.375	24321.69
712.719	24324.4
713.063	24305.42
713.407	24342.03
713.75	24145.42
714.094	24170.28
714.438	24066.78
714.782	24114.01
715.125	23977.07
715.469	24097.74
715.812	23839.67
716.156	23884.64
716.499	23856.39
716.843	23940.46
717.186	23806
717.53	23824.75
717.873	23777.07
718.216	23835.15
718.559	23653.23
718.902	23431.32
719.246	23600.13
719.589	23499.11
719.932	23502.96
720.275	23496.18
720.617	23426.12
720.96	23445.56
721.303	23369.63
721.646	23418.89
721.989	23326.69
722.331	23424.54
722.674	23301.6
723.016	23294.37
723.359	23287.37
723.701	23300.7
724.044	23137.77
724.386	23080.37
724.729	23131.44
725.071	23135.96
725.413	23143.87
725.755	23066.58
726.097	23034.95
726.439	22924.44
726.782	22957.43
727.124	23017.54
727.465	23013.7
727.807	22896.87
728.149	22846.48
728.491	22842.63
728.833	22824.1
729.175	22756.31
729.516	22807.38
729.858	22747.04
730.199	22789.53
730.541	22743.88
730.882	22700.49
731.224	22813.71
731.565	22698.23
731.906	22769.42
732.248	22733.48
732.589	22663.66
732.93	22553.6
733.271	22587.95
733.612	22535.52
733.953	22642.64
734.294	22515.64
734.635	22517.44
734.976	22498.91
735.317	22447.16
735.658	22503.43
735.999	22454.17
736.339	22401.97
736.68	22555.41
737.021	22444.9
737.361	22243.55
737.702	22436.09
738.042	22355.19
738.383	22368.07
738.723	22410.78
739.063	22345.47
739.404	22342.53
739.744	22115.2
740.084	22216.44
740.424	22248.98
740.764	22171.47
741.104	22313.61
741.444	22204.91
741.784	22157.45
742.124	22186.38
742.464	22119.04
742.804	22185.25
743.143	22060.28
743.483	22078.36
743.823	21926.05
744.162	22038.59
744.502	22084.91
744.841	21991.36
745.181	22108.64
745.52	21979.61
745.86	22049.21
746.199	21901.19
746.538	22023.9
746.877	22025.25
747.216	22008.76
747.556	21871.13
747.895	21897.12
748.234	21867.07
748.573	21818.93
748.911	21810.12
749.25	21915.65
749.589	21674.08
749.928	21778.71
750.267	21742.32
750.605	21743.45
750.944	21745.71
751.283	21651.48
751.621	21687.41
751.96	21593.18
752.298	21620.29
752.636	21622.78
752.975	21606.06
753.313	21454.2
753.651	21648.09
753.989	21462.78
754.327	21454.65
754.666	21395.89
755.004	21484.48
755.342	21538.49
755.679	21403.8
756.017	21333.75
756.355	21418.72
756.693	21165.62
757.031	21310.7
757.368	21264.6
757.706	21203.58
758.044	21195.45
758.381	21186.18
758.719	21164.49
759.056	21097.14
759.394	21021.89
759.731	21042
760.068	20943.02
760.405	20853.76
760.743	20829.35
761.08	20882.91
761.417	20812.86
761.754	20764.95
762.091	20730.6
762.428	20677.27
762.765	20548.68
763.102	20661.67
763.438	20483.15
763.775	20374.9
764.112	20436.82
764.449	20474.33
764.785	20382.13
765.122	20238.41
765.458	20232.98
765.795	20022.59
766.131	20197.96
766.467	20152.76
766.804	20012.2
767.14	19973.1
767.476	19908.02
767.812	19812.21
768.148	19883.39
768.485	19833
768.821	19688.14
769.157	19585.54
769.492	19556.84
769.828	19552.78
770.164	19432.33
770.5	19521.37
770.836	19318.88
771.171	19280.02
771.507	19233.92
771.842	19150.75
772.178	19124.77
772.513	19077.76
772.849	19065.11
773.184	18976.29
773.519	18977.2
773.855	18809.97
774.19	18807.03
774.525	18762.52
774.86	18722.29
775.195	18648.17
775.53	18662.63
775.865	18502.86
776.2	18406.37
776.535	18341.51
776.87	18285.47
777.205	18188.07
777.539	18078.47
777.874	18183.1
778.209	18061.97
778.543	18004.34
778.878	17885.93
779.212	17921.18
779.547	17851.8
779.881	17882.99
780.215	17626.27
780.55	17797.12
780.884	17604.58
781.218	17616.33
781.552	17572.04
781.886	17571.81
782.22	17305.15
782.554	17327.98
782.888	17277.58
783.222	17178.38
783.556	17107.19
783.889	17076.23
784.223	17003.69
784.557	16958.04
784.89	17049.79
785.224	16872.85
785.557	16747.88
785.891	16799.85
786.224	16742.68
786.558	16724.15
786.891	16576.81
787.224	16536.13
787.557	16502.24
787.891	16433.31
788.224	16369.13
788.557	16464.5
788.89	16317.61
789.223	16384.27
789.556	16162.36
789.888	16148.12
790.221	16069.93
790.554	15996.03
790.887	15999.2
791.219	15880.78
791.552	15824.74
791.884	15778.86
792.217	15840.11
792.549	15776.38
792.882	15631.52
793.214	15610.28
793.546	15692.09
793.879	15586.1
794.211	15402.6
794.543	15488.7
794.875	15372.1
795.207	15396.73
795.539	15309.95
795.871	15335.71
796.203	15219.33
796.535	15232.66
796.867	15156.73
797.198	15145.21
797.53	15032.44
797.862	15034.03
798.193	15055.49
798.525	14927.59
798.856	14932.79
799.188	14774.37
799.519	14752
799.85	14695.05
800.182	14611.89
800.513	14688.95
800.844	14566.92
801.175	14667.26
801.506	14592.68
801.837	14547.26
802.168	14394.72
802.499	14469.07
802.83	14396.98
803.161	14356.76
803.491	14276.76
803.822	14337.09
804.153	14229.53
804.483	14161.73
804.814	14101.62
805.145	14109.08
805.475	14066.59
805.805	13974.62
806.136	13988.63
806.466	13956.54
806.796	13940.5
807.126	13824.11
807.457	13813.49
807.787	13866.82
808.117	13724.46
808.447	13681.07
808.777	13738.69
809.107	13683.33
809.436	13642.88
809.766	13554.06
810.096	13501.64
810.426	13588.19
810.755	13468.19
811.085	13552.71
811.414	13433.39
811.744	13311.36
812.073	13340.51
812.403	13252.6
812.732	13297.35
813.061	13397.46
813.39	13203.34
813.719	13171.7
814.049	13231.81
814.378	13149.78
814.707	13178.93
815.036	13069.33
815.365	13107.52
815.693	12933.74
816.022	12992.27
816.351	12969.45
816.68	12840.86
817.008	12909.56
817.337	12839.28
817.665	12810.81
817.994	12857.81
818.322	12766.51
818.651	12687.65
818.979	12727.19
819.307	12710.24
819.636	12643.13
819.964	12667.99
820.292	12673.86
820.62	12690.58
820.948	12661.21
821.276	12636.12
821.604	12601.32
821.932	12622.79
822.259	12619.85
822.587	12576.46
822.915	12595.45
823.243	12546.18
823.57	12613.98
823.898	12588.67
824.225	12532.4
824.553	12548.22
824.88	12517.71
825.207	12653.3
825.535	12554.09
825.862	12622.56
826.189	12515.67
826.516	12606.74
826.843	12594.99
827.17	12666.18
827.497	12608.1
827.824	12568.1
828.151	12635.44
828.478	12649.68
828.805	12570.59
829.131	12550.93
829.458	12545.96
829.785	12427.54
830.111	12608.55
830.438	12553.19
830.764	12608.78
831.09	12588.44
831.417	12601.32
831.743	12651.04
832.069	12664.82
832.395	12413.76
832.722	12562.23
833.048	12560.42
833.374	12567.42
833.7	12503.7
834.026	12534.66
834.351	12566.29
834.677	12485.39
835.003	12492.85
835.329	12472.29
835.654	12357.03
835.98	12444.94
836.306	12362.46
836.631	12429.57
836.956	12387.54
837.282	12468.9
837.607	12315.9
837.932	12380.08
838.258	12374.43
838.583	12224.38
838.908	12176.02
839.233	12268
839.558	12194.33
839.883	12177.38
840.208	12143.25
840.533	12181.22
840.858	12086.98
841.182	12133.31
841.507	12133.99
841.832	12083.37
842.156	12089.24
842.481	11993.65
842.805	11986.42
843.13	12018.96
843.454	11966.99
843.778	11911.17
844.103	11898.74
844.427	11833.43
844.751	11829.36
845.075	11909.81
845.399	11875.24
845.723	11786.88
846.047	11716.82
846.371	11695.58
846.695	11614.68
847.019	11549.37
847.343	11484.29
847.666	11472.99
847.99	11446.78
848.313	11381.69
848.637	11333.11
848.96	11392.54
849.284	11320.45
849.607	11258.98
849.931	11255.82
850.254	11140.57
850.577	11116.84
850.9	10970.18
851.223	10964.08
851.546	10991.87
851.869	10931.08
852.192	10949.39
852.515	10842.27
852.838	10793.23
853.161	10758.88
853.483	10723.4
853.806	10722.27
854.129	10727.47
854.451	10710.3
854.774	10652.9
855.096	10512.11
855.419	10515.27
855.741	10463.07
856.063	10506.24
856.385	10447.71
856.708	10410.87
857.03	10426.46
857.352	10368.84
857.674	10341.95
857.996	10250.42
858.318	10252.46
858.64	10214.04
858.961	10223.53
859.283	10207.26
859.605	10141.05
859.926	10201.16
860.248	10143.08
860.57	10127.94
860.891	10056.53
861.212	9985.8
861.534	10009.98
861.855	9974.95
862.176	10074.83
862.498	9934.27
862.819	9931.33
863.14	9921.84
863.461	9966.81
863.782	9886.36
864.103	9955.52
864.424	9842.07
864.745	9859.25
865.065	9866.48
865.386	9767.5
865.707	9751
866.027	9791.9
866.348	9794.84
866.668	9775.18
866.989	9756.65
867.309	9670.55
867.63	9683.21
867.95	9683.21
868.27	9557.11
868.59	9659.25
868.91	9607.05
869.23	9659.25
869.55	9633.72
869.87	9602.53
870.19	9699.25
870.51	9556.2
870.83	9592.13
871.15	9538.35
871.469	9533.15
871.789	9592.36
872.109	9578.35
872.428	9440.05
872.748	9509.88
873.067	9554.85
873.386	9534.28
873.706	9447.51
874.025	9442.76
874.344	9348.3
874.663	9435.3
874.982	9352.14
875.301	9382.65
875.62	9358.24
875.939	9349.88
876.258	9350.56
876.577	9318.24
876.896	9270.56
877.214	9198.47
877.533	9244.57
877.852	9280.05
878.17	9235.31
878.489	9242.54
878.807	9227.85
879.125	9210.68
879.444	9179.26
879.762	9188.53
880.08	9181.52
880.398	9140.62
880.716	9139.94
881.034	9102.88
881.352	9071.47
881.67	9024.24
881.988	9049.32
882.306	8984.47
882.624	8987.86
882.941	9007.52
883.259	8890.91
883.577	8958.03
883.894	8903.34
884.212	8882.1
884.529	8881.87
884.846	8853.4
885.164	8813.85
885.481	8805.71
885.798	8840.97
886.115	8742.44
886.432	8761.2
886.75	8778.82
887.067	8713.97
887.383	8712.16
887.7	8705.38
888.017	8656.34
888.334	8662.67
888.651	8576.34
888.967	8591.03
889.284	8585.16
889.6	8628.54
889.917	8571.14
890.233	8561.88
890.55	8478.72
890.866	8507.87
891.182	8501.09
891.498	8391.71
891.815	8398.04
892.131	8433.97
892.447	8320.3
892.763	8304.94
893.079	8334.09
893.395	8225.39
893.71	8266.07
894.026	8240.98
894.342	8215.9
894.657	8185.62
894.973	8164.83
895.289	8164.38
895.604	8141.33
895.92	8078.95
896.235	8023.36
896.55	8039.18
896.865	8032.63
897.181	7955.12
897.496	8011.16
897.811	7965.74
898.126	7924.83
898.441	7883.25
898.756	7854.1
899.071	7811.39
899.386	7857.72
899.7	7794.89
900.015	7712.18
900.33	7701.79
900.644	7661.11
900.959	7704.5
901.273	7667.44
901.588	7559.42
901.902	7555.13
902.216	7582.92
902.531	7495.69
902.845	7492.53
903.159	7463.15
903.473	7480.78
903.787	7377.96
904.101	7405.3
904.415	7432.87
904.729	7338.86
905.042	7304.96
905.356	7268.81
905.67	7287.34
905.984	7186.1
906.297	7179.54
906.611	7174.35
906.924	7185.42
907.237	7195.14
907.551	7129.15
907.864	7137.74
908.177	7050.96
908.491	7057.74
908.804	6981.58
909.117	6978.19
909.43	6948.81
909.743	6944.97
910.056	6889.61
910.368	6884.18
910.681	6809.38
910.994	6801.47
911.307	6791.98
911.619	6697.3
911.932	6721.93
912.244	6684.87
912.557	6668.14
912.869	6649.61
913.181	6619.11
913.494	6605.32
913.806	6527.81
914.118	6522.84
914.43	6474.7
914.742	6485.32
915.054	6495.95
915.366	6460.24
915.678	6436.96
915.99	6383.86
916.302	6318.77
916.613	6372.56
916.925	6296.18
917.236	6360.36
917.548	6297.08
917.859	6263.18
918.171	6250.98
918.482	6214.82
918.794	6163.3
919.105	6187.25
919.416	6132.34
919.727	6066.13
920.038	6061.38
920.349	6028.16
920.66	6041.95
920.971	5976.18
921.282	5952.23
921.593	5955.85
921.903	5970.54
922.214	5868.16
922.525	5892.57
922.835	5817.09
923.146	5793.59
923.456	5800.6
923.767	5811.22
924.077	5737.55
924.387	5693.71
924.697	5670.66
925.008	5751.56
925.318	5663.42
925.628	5642.18
925.938	5654.39
926.248	5569.64
926.558	5518.8
926.867	5529.87
927.177	5462.98
927.487	5446.71
927.796	5421.85
928.106	5436.09
928.416	5431.34
928.725	5436.31
929.034	5373.71
929.344	5368.29
929.653	5340.95
929.962	5335.75
930.271	5283.1
930.581	5300.5
930.89	5211.91
931.199	5232.48
931.508	5172.59
931.817	5218.24
932.125	5154.96
932.434	5121.97
932.743	5087.17
933.051	5095.08
933.36	5097.11
933.669	5049.43
933.977	5041.52
934.286	5020.5
934.594	5011.24
934.902	4977.57
935.21	4917.68
935.519	4973.27
935.827	4921.75
936.135	4868.19
936.443	4845.82
936.751	4853.5
937.059	4889.43
937.367	4821.64
937.674	4831.81
937.982	4825.93
938.29	4747.74
938.597	4758.14
938.905	4674.3
939.213	4701.64
939.52	4662.32
939.827	4651.7
940.135	4648.31
940.442	4625.94
940.749	4620.51
941.056	4587.97
941.363	4558.59
941.67	4550.01
941.977	4526.51
942.284	4511.82
942.591	4499.84
942.898	4446.96
943.205	4462.1
943.511	4413.29
943.818	4406.51
944.125	4331.26
944.431	4345.95
944.738	4339.84
945.044	4361.54
945.35	4330.13
945.657	4296
945.963	4253.29
946.269	4253.74
946.575	4210.36
946.881	4232.95
947.187	4219.62
947.493	4215.33
947.799	4174.88
948.105	4190.02
948.41	4101.88
948.716	4155.22
949.022	4083.58
949.327	4099.17
949.633	4049.46
949.938	4045.39
950.244	4036.57
950.549	4004.94
950.854	4020.76
951.16	3987.54
951.465	4028.44
951.77	3934.2
952.075	3921.1
952.38	3925.62
952.685	3900.08
952.99	3857.82
953.294	3888.33
953.599	3830.25
953.904	3819.18
954.209	3791.84
954.513	3793.87
954.818	3832.74
955.122	3801.78
955.426	3700.76
955.731	3741.44
956.035	3699.63
956.339	3666.19
956.643	3679.52
956.948	3665.51
957.252	3633.87
957.556	3670.03
957.86	3630.26
958.163	3624.61
958.467	3595.46
958.771	3606.98
959.075	3516.81
959.378	3578.73
959.682	3573.08
959.985	3566.98
960.289	3498.74
960.592	3441.79
960.896	3469.36
961.199	3500.09
961.502	3474.1
961.805	3472.75
962.108	3440.21
962.411	3414.9
962.714	3441.11
963.017	3396.59
963.32	3382.81
963.623	3345.07
963.926	3336.03
964.228	3306.42
964.531	3328.57
964.833	3312.98
965.136	3288.35
965.438	3235.69
965.741	3231.62
966.043	3232.75
966.345	3201.12
966.648	3232.3
966.95	3188.91
967.252	3176.03
967.554	3142.36
967.856	3157.28
968.158	3099.2
968.46	3127.22
968.761	3077.05
969.063	3118.41
969.365	3090.38
969.666	3087
969.968	3052.42
970.269	3032.76
970.571	3029.37
970.872	3020.78
971.174	2992.99
971.475	3011.74
971.776	2986.88
972.077	2998.41
972.378	2970.16
972.679	2968.35
972.98	2942.37
973.281	2930.16
973.582	2909.6
973.883	2879.54
974.183	2852.65
974.484	2892.88
974.785	2865.76
975.085	2842.93
975.386	2824.86
975.686	2798.19
975.986	2832.54
976.287	2765.42
976.587	2766.33
976.887	2770.62
977.187	2774.69
977.487	2745.54
977.787	2746.44
978.087	2712.54
978.387	2700.79
978.687	2714.8
978.987	2671.86
979.286	2648.81
979.586	2673.22
979.885	2635.93
980.185	2668.7
980.484	2670.96
980.784	2625.99
981.083	2631.64
981.382	2585.31
981.682	2596.16
981.981	2575.37
982.28	2569.49
982.579	2509.61
982.878	2541.92
983.177	2522.94
983.475	2532.66
983.774	2485.88
984.073	2477.97
984.372	2478.2
984.67	2497.18
984.969	2483.4
985.267	2425.09
985.566	2449.05
985.864	2441.81
986.162	2420.12
986.461	2397.75
986.759	2407.92
987.057	2381.25
987.355	2394.36
987.653	2391.19
987.951	2340.35
988.249	2338.77
988.547	2322.72
988.844	2316.17
989.142	2327.69
989.44	2309.84
989.737	2291.31
990.035	2296.28
990.332	2311.2
990.63	2260.35
990.927	2287.92
991.224	2265.55
991.521	2224.87
991.819	2245.89
992.116	2229.16
992.413	2222.16
992.71	2209.5
993.006	2199.79
993.303	2188.71
993.6	2163.86
993.897	2169.96
994.193	2151.2
994.49	2142.84
994.787	2119.11
995.083	2127.92
995.379	2112.11
995.676	2126.57
995.972	2122.5
996.268	2108.72
996.565	2053.35
996.861	2042.28
997.157	2046.12
997.453	2051.09
997.749	2044.08
998.044	2017.19
998.34	2003.86
998.636	2020.81
998.932	1987.14
999.227	1986.46
999.523	1966.35
999.818	1958.66
1000.114	1947.82
1000.409	1949.17
1000.704	1949.17
1001	1936.29
1001.295	1935.84
1001.59	1926.35
1001.885	1908.5
1002.18	1882.51
1002.475	1887.7
1002.77	1844.54
1003.065	1831.66
1003.359	1858.55
1003.654	1846.8
1003.949	1796.86
1004.243	1796.86
1004.538	1814.94
1004.832	1818.78
1005.127	1793.92
1005.421	1783.07
1005.715	1760.02
1006.009	1776.3
1006.304	1758.44
1006.598	1733.36
1006.892	1744.88
1007.186	1716.41
1007.48	1729.29
1007.773	1717.99
1008.067	1720.25
1008.361	1699.01
1008.655	1669.41
1008.948	1694.04
1009.242	1671.44
1009.535	1662.4
1009.829	1649.29
1010.122	1650.42
1010.415	1630.99
1010.708	1637.99
1011.001	1615.4
1011.295	1589.63
1011.588	1588.73
1011.881	1588.28
1012.173	1599.8
1012.466	1579.92
1012.759	1565.68
1013.052	1524.32
1013.344	1514.16
1013.637	1512.12
1013.93	1548.73
1014.222	1490.2
1014.514	1509.18
1014.807	1481.39
1015.099	1517.32
1015.391	1477.77
1015.683	1475.51
1015.976	1430.99
1016.268	1421.28
1016.56	1424.21
1016.851	1421.95
1017.143	1423.08
1017.435	1409.3
1017.727	1422.41
1018.018	1394.16
1018.31	1412.24
1018.602	1392.58
1018.893	1362.29
1019.185	1368.4
1019.476	1322.75
1019.767	1338.79
1020.058	1350.09
1020.35	1343.09
1020.641	1316.42
1020.932	1320.26
1021.223	1308.28
1021.514	1291.11
1021.804	1288.17
1022.095	1265.8
1022.386	1289.3
1022.677	1264.9
1022.967	1264.22
1023.258	1249.98
1023.548	1230.55
1023.839	1223.32
1024.129	1235.07
1024.419	1215.63
1024.709	1168.4
1025	1198.01
1025.29	1211.34
1025.58	1177.67
1025.87	1171.11
1026.16	1165.01
1026.449	1187.38
1026.739	1167.72
1027.029	1137.22
1027.319	1149.19
1027.608	1134.73
1027.898	1113.49
1028.187	1110.78
1028.477	1123.43
1028.766	1102.64
1029.055	1097.89
1029.344	1095.64
1029.634	1089.99
1029.923	1058.35
1030.212	1066.71
1030.501	1075.07
1030.79	1059.25
1031.078	1045.92
1031.367	1036.2
1031.656	1035.98
1031.945	1026.94
1032.233	1017.44
1032.522	990.33
1032.81	1045.01
1033.099	1006.6
1033.387	988.07
1033.675	974.06
1033.963	996.88
1034.251	983.55
1034.54	972.02
1034.828	985.58
1035.116	966.6
1035.403	958.69
1035.691	946.49
1035.979	957.11
1036.267	912.14
1036.554	916.43
1036.842	935.87
1037.129	938.13
1037.417	894.74
1037.704	942.19
1037.992	888.63
1038.279	892.93
1038.566	910.33
1038.853	910.33
1039.14	910.33
