Data from cardboard_FLMS001491_015.txt Node
Date: Tue Feb 07 11:39:01 GMT 2017
User: dcchb
Spectrometer: FLMS00149
Trigger mode: 0
Integration Time (sec): 2.000000E-2
Scans to average: 10
Electric dark correction enabled: true
Nonlinearity correction enabled: false
Boxcar width: 0
XAxis mode: Wavelengths
Number of Pixels in Spectrum: 2048
>>>>>Begin Spectral Data<<<<<
341.393	-22.47
341.776	-22.47
342.16	-22.47
342.543	-44.17
342.927	-58.18
343.31	-64.96
343.693	-59.76
344.077	-68.8
344.46	-59.08
344.843	-42.81
345.226	-36.93
345.61	-30.83
345.993	-20.66
346.376	-26.76
346.759	-14.34
347.142	26.34
347.525	58.43
347.908	54.81
348.291	79.67
348.674	102.72
349.057	102.95
349.44	145.43
349.823	133.46
350.206	169.61
350.588	189.05
350.971	193.79
351.354	220.23
351.737	237.18
352.119	270.85
352.502	264.53
352.884	304.53
353.267	288.03
353.65	296.16
354.032	307.92
354.414	299.1
354.797	325.09
355.179	312.44
355.562	303.17
355.944	327.8
356.326	329.38
356.709	350.17
357.091	332.1
357.473	352.21
357.855	342.72
358.238	353.34
358.62	353.11
359.002	323.73
359.384	353.56
359.766	341.59
360.148	330.97
360.53	342.27
360.912	345.2
361.294	350.63
361.676	330.74
362.057	328.93
362.439	325.99
362.821	330.97
363.203	333.45
363.584	325.32
363.966	331.64
364.348	320.34
364.729	318.76
365.111	319.89
365.493	317.41
365.874	339.1
366.256	314.7
366.637	311.31
367.019	298.65
367.4	326.22
367.781	328.25
368.163	301.14
368.544	327.58
368.925	316.73
369.306	333.9
369.688	292.55
370.069	323.73
370.45	298.2
370.831	334.13
371.212	307.46
371.593	320.8
371.974	320.12
372.355	309.27
372.736	317.63
373.117	316.95
373.498	316.28
373.879	316.5
374.26	326.67
374.641	321.93
375.021	339.55
375.402	318.76
375.783	319.67
376.163	314.7
376.544	307.01
376.925	322.15
377.305	330.51
377.686	335.49
378.066	331.42
378.447	350.4
378.827	309.95
379.208	309.95
379.588	328.48
379.968	336.16
380.349	340.23
380.729	330.29
381.109	342.94
381.489	342.49
381.87	325.09
382.25	349.04
382.63	357.18
383.01	346.78
383.39	331.19
383.77	350.4
384.15	356.05
384.53	351.98
384.91	347.91
385.29	358.08
385.67	361.93
386.049	363.28
386.429	355.37
386.809	356.95
387.189	366.22
387.568	364.86
387.948	362.15
388.328	358.31
388.707	375.48
389.087	373.22
389.466	384.98
389.846	375.48
390.225	380.23
390.605	367.12
390.984	387.46
391.363	361.47
391.743	367.12
392.122	382.26
392.501	377.97
392.881	383.17
393.26	383.85
393.639	382.49
394.018	401.25
394.397	386.33
394.776	380.46
395.155	374.58
395.534	384.3
395.913	376.39
396.292	393.79
396.671	384.75
397.05	410.51
397.429	382.49
397.808	402.15
398.186	397.18
398.565	406.9
398.944	407.8
399.323	399.66
399.701	404.18
400.08	410.74
400.458	400.12
400.837	415.94
401.215	413.68
401.594	412.32
401.972	413
402.351	422.94
402.729	432.21
403.107	437.18
403.486	431.53
403.864	438.53
404.242	415.26
404.62	424.52
404.999	447.8
405.377	449.83
405.755	446.44
406.133	439.89
406.511	435.82
406.889	452.32
407.267	436.73
407.645	452.54
408.023	446.44
408.401	484.63
408.779	464.97
409.156	466.78
409.534	466.56
409.912	480.34
410.29	449.83
410.667	484.63
411.045	479.89
411.422	491.41
411.8	492.54
412.178	469.95
412.555	495.93
412.933	493.22
413.31	504.97
413.687	488.7
414.065	525.76
414.442	520.34
414.819	521.47
415.197	516.95
415.574	514.24
415.951	540.45
416.328	523.73
416.705	527.8
417.082	559.21
417.46	519.21
417.837	558.53
418.214	531.41
418.591	558.76
418.967	572.99
419.344	556.27
419.721	568.02
420.098	559.66
420.475	578.42
420.852	570.28
421.228	557.4
421.605	582.26
421.982	591.98
422.358	563.95
422.735	589.72
423.111	594.01
423.488	598.98
423.864	608.92
424.241	620.9
424.617	626.78
424.994	617.29
425.37	614.35
425.746	615.03
426.123	631.75
426.499	618.87
426.875	646.44
427.251	637.17
427.627	637.62
428.003	629.26
428.379	644.63
428.756	652.54
429.132	685.53
429.507	690.96
429.883	671.3
430.259	684.18
430.635	688.92
431.011	686.21
431.387	688.47
431.763	705.19
432.138	719.2
432.514	710.62
432.89	732.31
433.265	744.06
433.641	712.42
434.016	752.88
434.392	737.06
434.767	753.78
435.143	771.18
435.518	768.69
435.894	782.93
436.269	803.5
436.644	791.97
437.02	804.85
437.395	820.9
437.77	810.5
438.145	824.06
438.52	841.01
438.895	835.81
439.271	810.73
439.646	854.34
440.021	837.39
440.395	845.53
440.77	834.68
441.145	839.2
441.52	885.3
441.895	886.21
442.27	876.94
442.645	875.58
443.019	889.6
443.394	899.09
443.769	901.57
444.143	885.08
444.518	905.41
444.892	881.46
445.267	918.97
445.641	937.5
446.016	937.28
446.39	933.44
446.764	952.42
447.139	934.11
447.513	940.67
447.887	945.19
448.262	947.9
448.636	948.58
449.01	970.05
449.384	986.54
449.758	1006.43
450.132	1003.72
450.506	986.32
450.88	997.62
451.254	1003.94
451.628	1021.8
452.002	1012.98
452.376	1032.64
452.75	1029.93
453.123	1023.83
453.497	1059.76
453.871	1065.64
454.244	1073.55
454.618	1085.97
454.992	1106.76
455.365	1071.96
455.739	1131.62
456.112	1137.5
456.486	1147.67
456.859	1127.33
457.232	1158.29
457.606	1179.76
457.979	1191.73
458.352	1203.71
458.725	1233.99
459.099	1212.3
459.472	1231.28
459.845	1250.72
460.218	1250.94
460.591	1281.9
460.964	1295.69
461.337	1308.79
461.71	1301.56
462.083	1339.07
462.456	1346.31
462.829	1326.42
463.201	1354.89
463.574	1371.84
463.947	1397.38
464.32	1423.59
464.692	1430.6
465.065	1414.33
465.438	1438.96
465.81	1482.8
466.183	1489.81
466.555	1522.8
466.928	1518.96
467.3	1536.36
467.672	1572.74
468.045	1565.96
468.417	1585.62
468.789	1591.72
469.161	1595.11
469.534	1640.54
469.906	1652.51
470.278	1676.69
470.65	1697.94
471.022	1723.7
471.394	1752.62
471.766	1768.22
472.138	1780.65
472.51	1823.13
472.882	1869.68
473.253	1850.47
473.625	1902.22
473.997	1930.02
474.369	1930.7
474.74	1963.01
475.112	2007.08
475.484	2041.43
475.855	2033.07
476.227	2082.11
476.598	2132.27
476.97	2135.44
477.341	2196.68
477.713	2224.7
478.084	2239.62
478.455	2302.89
478.827	2332.5
479.198	2386.05
479.569	2380.4
479.94	2415.88
480.311	2458.14
480.682	2506.95
481.053	2570.46
481.424	2587.63
481.795	2615.43
482.166	2675.76
482.537	2694.75
482.908	2770.22
483.279	2771.58
483.65	2834.63
484.021	2909.66
484.391	2916.43
484.762	2901.52
485.133	2970.9
485.503	3076.2
485.874	3065.36
486.244	3145.81
486.615	3198.91
486.985	3202.3
487.356	3292.92
487.726	3350.1
488.097	3356.88
488.467	3360.04
488.837	3449.3
489.207	3533.37
489.578	3499.7
489.948	3586.7
490.318	3678
490.688	3678.45
491.058	3705.79
491.428	3768.39
491.798	3873.02
492.168	3912.34
492.538	3944.88
492.908	3994.37
493.278	4006.35
493.648	4025.78
494.017	4113.01
494.387	4148.94
494.757	4206.12
495.126	4242.5
495.496	4250.41
495.866	4304.65
496.235	4346.45
496.605	4433.91
496.974	4446.11
497.344	4466
497.713	4485.66
498.082	4538.09
498.452	4620.8
498.821	4624.19
499.19	4709.61
499.559	4708.93
499.928	4784.63
500.298	4785.31
500.667	4846.1
501.036	4892.2
501.405	4992.31
501.774	4957.96
502.143	5027.34
502.512	5029.6
502.88	5099.43
503.249	5103.27
503.618	5160.22
503.987	5213.32
504.356	5221.91
504.724	5321.8
505.093	5351.17
505.462	5417.84
505.83	5460.77
506.199	5521.34
506.567	5603.6
506.936	5549.81
507.304	5661.45
507.672	5698.28
508.041	5759.75
508.409	5790.71
508.777	5804.27
509.145	5915.68
509.514	5924.27
509.882	6032.96
510.25	6056.69
510.618	6087.65
510.986	6112.28
511.354	6222.11
511.722	6267.76
512.09	6329.68
512.458	6354.31
512.826	6451.93
513.193	6454.42
513.561	6560.86
513.929	6626.39
514.297	6695.09
514.664	6711.14
515.032	6750.46
515.4	6812.38
515.767	6862.77
516.135	6908.42
516.502	6887.86
516.869	7062.99
517.237	7129.21
517.604	7132.14
517.972	7185.25
518.339	7300.05
518.706	7393.38
519.073	7383.89
519.44	7400.84
519.808	7537.1
520.175	7582.07
520.542	7731.9
520.909	7777.1
521.276	7775.97
521.643	7907.49
522.009	7991.56
522.376	8014.38
522.743	8081.27
523.11	8197.43
523.477	8321.26
523.843	8380.02
524.21	8460.02
524.577	8546.12
524.943	8600.8
525.31	8670.18
525.676	8743.4
526.043	8812.55
526.409	8971.42
526.776	8987.24
527.142	9123.5
527.508	9180.68
527.874	9286.89
528.241	9297.51
528.607	9317.85
528.973	9459.09
529.339	9459.99
529.705	9638.74
530.071	9693.43
530.437	9782.92
530.803	9898.17
531.169	9911.28
531.535	9916.48
531.901	10043.03
532.267	10066.08
532.632	10144.49
532.998	10165.28
533.364	10287.99
533.73	10398.05
534.095	10487.99
534.461	10541.77
534.826	10624.03
535.192	10667.19
535.557	10815.44
535.923	10743.57
536.288	10899.95
536.653	10971.59
537.019	10989.44
537.384	11024.02
537.749	11108.76
538.114	11239.61
538.479	11228.76
538.845	11309.89
539.21	11223.11
539.575	11383.78
539.94	11446.15
540.305	11576.32
540.67	11595.75
541.034	11666.71
541.399	11756.43
541.764	11878.01
542.129	11847.27
542.494	11951.45
542.858	12085.46
543.223	12043.65
543.587	12173.82
543.952	12180.6
544.316	12288.84
544.681	12262.4
545.045	12448.84
545.41	12428.27
545.774	12520.48
546.138	12606.35
546.503	12737.19
546.867	12701.94
547.231	12805.67
547.595	12884.53
547.959	12932.22
548.324	12817.42
548.688	13113.68
549.052	13138.99
549.416	13186.67
549.779	13249.04
550.143	13297.4
550.507	13406.33
550.871	13480.68
551.235	13495.37
551.599	13655.59
551.962	13711.86
552.326	13814.45
552.689	13792.08
553.053	13818.52
553.417	13894.45
553.78	14099.87
554.143	14026.88
554.507	14127.21
554.87	14275.01
555.234	14397.71
555.597	14363.82
555.96	14481.1
556.323	14548.22
556.686	14572.63
557.05	14684.94
557.413	14829.79
557.776	14809.68
558.139	14920.41
558.502	15039.51
558.865	14992.28
559.228	15190.01
559.59	15283.79
559.953	15298.26
560.316	15514.07
560.679	15572.37
561.041	15718.36
561.404	15686.72
561.767	15908.18
562.129	15875.64
562.492	16029.31
562.854	16058.46
563.217	16121.74
563.579	16207.61
563.941	16445.57
564.304	16408.96
564.666	16490.31
565.028	16623.19
565.39	16762.85
565.753	16808.72
566.115	16938.66
566.477	17035.84
566.839	17086.91
567.201	17239.9
567.563	17323.06
567.925	17386.56
568.287	17474.24
568.648	17527.8
569.01	17615.94
569.372	17674.01
569.734	17791.07
570.095	17840.34
570.457	18043.72
570.819	18046.66
571.18	18043.95
571.542	18212.98
571.903	18219.31
572.265	18323.71
572.626	18397.38
572.987	18422.02
573.349	18668.79
573.71	18705.17
574.071	18684.16
574.432	18819.75
574.794	18956.01
575.155	19028.78
575.516	18993.53
575.877	19070.59
576.238	19161.21
576.599	19318.72
576.96	19296.34
577.32	19430.8
577.681	19492.5
578.042	19535.88
578.403	19523
578.763	19623.57
579.124	19767.74
579.485	19892.94
579.845	19814.97
580.206	19843
580.566	19988.08
580.927	19957.57
581.287	20131.58
581.648	20121.86
582.008	20183.33
582.368	20161.18
582.728	20234.85
583.089	20175.87
583.449	20337.22
583.809	20338.12
584.169	20377.22
584.529	20400.04
584.889	20593.48
585.249	20480.49
585.609	20468.74
585.969	20607.27
586.329	20534.5
586.688	20722.97
587.048	20608.17
587.408	20678.91
587.768	20672.58
588.127	20707.83
588.487	20765.68
588.846	20908.05
589.206	20875.96
589.565	20840.03
589.925	21028.27
590.284	20993.02
590.643	20979.24
591.003	21175.62
591.362	21027.37
591.721	21088.84
592.08	21083.41
592.44	21238.21
592.799	21284.77
593.158	21247.93
593.517	21303.75
593.876	21275.5
594.235	21365.44
594.593	21369.96
594.952	21470.97
595.311	21391.66
595.67	21454.48
596.029	21520.92
596.387	21597.53
596.746	21691.53
597.104	21619.67
597.463	21703.51
597.822	21733.57
598.18	21726.34
598.538	21691.99
598.897	21888.14
599.255	21696.05
599.613	22032.54
599.972	21932.88
600.33	21948.48
600.688	21939.44
601.046	21982.6
601.404	22078.87
601.762	22105.31
602.12	22218.07
602.478	22244.51
602.836	22277.51
603.194	22138.53
603.552	22308.02
603.91	22268.47
604.268	22320.9
604.625	22201.58
604.983	22352.08
605.341	22306.89
605.698	22491.06
606.056	22572.41
606.413	22536.03
606.771	22653.77
607.128	22680.43
607.485	22585.3
607.843	22716.14
608.2	22773.31
608.557	22856.25
608.914	22855.8
609.272	23018.28
609.629	23075.45
609.986	23141.44
610.343	22944.16
610.7	23164.94
611.057	23077.71
611.414	23243.36
611.771	23231.38
612.127	23377.14
612.484	23189.12
612.841	23344.37
613.198	23255.79
613.554	23360.87
613.911	23557.93
614.267	23441.09
614.624	23440.19
614.98	23633.18
615.337	23727.64
615.693	23728.54
616.05	23633.4
616.406	23801.08
616.762	23692.39
617.118	23788.2
617.475	23823.91
617.831	23858.71
618.187	23952.72
618.543	24013.73
618.899	24124.92
619.255	24068.42
619.611	23984.36
619.967	24104.8
620.323	24228.87
620.678	24075.65
621.034	24152.26
621.39	24110
621.746	24240.85
622.101	24491.01
622.457	24241.3
622.812	24313.61
623.168	24320.62
623.523	24417.79
623.879	24529.65
624.234	24359.26
624.589	24389.77
624.945	24469.99
625.3	24446.49
625.655	24495.53
626.01	24467.05
626.365	24511.35
626.72	24529.43
627.075	24471.57
627.43	24522.65
627.785	24474.96
628.14	24710.66
628.495	24652.36
628.85	24599.93
629.205	24395.64
629.559	24626.82
629.914	24494.85
630.269	24639.03
630.623	24516.77
630.978	24538.01
631.332	24640.38
631.687	24757.22
632.041	24640.38
632.396	24617.56
632.75	24553.38
633.104	24654.17
633.459	24398.81
633.813	24568.97
634.167	24506.15
634.521	24603.55
634.875	24602.64
635.229	24471.12
635.583	24465.02
635.937	24469.77
636.291	24416.43
636.645	24491.23
636.999	24381.18
637.352	24460.95
637.706	24418.02
638.06	24402.65
638.413	24427.96
638.767	24410.33
639.121	24464.79
639.474	24385.7
639.828	24236.33
640.181	24348.87
640.534	24322.43
640.888	24302.31
641.241	24258.7
641.594	24308.64
641.947	24363.33
642.301	24289.88
642.654	24262.09
643.007	24308.64
643.36	24357.45
643.713	24325.59
644.066	24359.03
644.419	24254.18
644.771	24048.53
645.124	23882.44
645.477	23780.97
645.83	23727.41
646.182	23655.32
646.535	23564.93
646.888	23602.67
647.24	23397.48
647.593	23540.53
647.945	23533.52
648.298	23427.08
648.65	23445.61
649.002	23373.52
649.355	23663.23
649.707	23477.25
650.059	23577.13
650.411	23959.05
650.763	23996.56
651.115	24126.5
651.467	24098.02
651.819	24166.27
652.171	24125.59
652.523	24044.92
652.875	24147.29
653.227	23932.83
653.578	24088.53
653.93	24050.57
654.282	24003.34
654.633	24021.42
654.985	24035.65
655.337	24048.53
655.688	24022.32
656.039	24065.94
656.391	23926.5
656.742	24010.12
657.094	23928.09
657.445	24058.48
657.796	24044.24
658.147	23996.78
658.498	24042.66
658.849	24082.21
659.2	24080.85
659.551	23961.98
659.902	24140.28
660.253	24147.74
660.604	24105.48
660.955	24006.28
661.306	24178.02
661.656	24090.57
662.007	23992.94
662.358	24067.74
662.708	24102.77
663.059	23998.82
663.409	23936.9
663.76	24124.92
664.11	24017.35
664.461	24006.5
664.811	24059.83
665.161	24040.85
665.511	24061.87
665.862	24133.5
666.212	24179.15
666.562	24193.62
666.912	24145.71
667.262	24110.23
667.612	24131.02
667.962	24091.47
668.312	24150
668.662	24297.34
669.011	24163.79
669.361	24164.24
669.711	24083.56
670.06	24120.85
670.41	24049.44
670.76	24093.73
671.109	24051.02
671.459	24026.84
671.808	24093.28
672.157	24242.88
672.507	23918.37
672.856	24048.53
673.205	24072.71
673.554	24183.67
673.904	24072.94
674.253	24192.49
674.602	24035.43
674.951	23830.01
675.3	23654.19
675.649	24086.05
675.998	24056.22
676.346	24096.44
676.695	24128.98
677.044	24028.42
677.393	24018.7
677.741	24032.26
678.09	24006.5
678.438	23889.22
678.787	24023.9
679.135	24013.73
679.484	23844.25
679.832	24027.52
680.181	23879.95
680.529	23955.88
680.877	23917.24
681.225	23885.37
681.573	23994.3
681.922	23816.22
682.27	23773.74
682.618	23855.32
682.966	23719.05
683.314	23773.29
683.661	23722.44
684.009	23637.47
684.357	23581.2
684.705	23452.62
685.053	23539.17
685.4	23619.62
685.748	23530.36
686.095	23370.81
686.443	23363.13
686.79	23245.39
687.138	23376.24
687.485	23411.71
687.832	23328.55
688.18	23362.45
688.527	23202.45
688.874	23139.18
689.221	23158.61
689.568	23143.93
689.915	23126.52
690.262	23037.71
690.609	22925.4
690.956	23021.22
691.303	22998.62
691.65	22920.65
691.997	22863.48
692.344	22753.2
692.69	22776.03
693.037	22747.78
693.383	22646.09
693.73	22648.12
694.077	22403.15
694.423	22557.27
694.769	22346.88
695.116	22415.81
695.462	22424.17
695.808	22342.59
696.155	22362.7
696.501	22280.9
696.847	22250.16
697.193	22022.6
697.539	22186.89
697.885	22009.49
698.231	21931.3
698.577	21995.71
698.923	22000
699.269	21849.5
699.614	21847.91
699.96	21684.75
700.306	21747.58
700.651	21721.82
700.997	21610.63
701.342	21487.25
701.688	21548.04
702.033	21549.39
702.379	21457.64
702.724	21387.81
703.069	21378.1
703.415	21312.56
703.76	21225.33
704.105	21159.57
704.45	21186.91
704.795	21079.35
705.14	21075.51
705.485	20885.45
705.83	20907.83
706.175	20932.68
706.52	20870.31
706.865	20846.36
707.209	20714.84
707.554	20729.98
707.899	20678
708.243	20615.86
708.588	20619.47
708.932	20478.01
709.277	20494.5
709.621	20557.33
709.966	20382.87
710.31	20476.88
710.654	20230.78
710.998	20281.4
711.342	20348.97
711.687	20298.35
712.031	20240.72
712.375	20133.16
712.719	20285.02
713.063	20251.12
713.407	20253.61
713.75	20134.96
714.094	20199.82
714.438	20102.42
714.782	20001.64
715.125	20033.5
715.469	19922.32
715.812	19956.44
716.156	19821.07
716.499	19911.92
716.843	19898.36
717.186	19855.42
717.53	19823.33
717.873	19805.03
718.216	19778.59
718.559	19731.13
718.902	19627.41
719.246	19628.99
719.589	19638.71
719.932	19441.88
720.275	19431.93
720.617	19487.75
720.96	19491.59
721.303	19495.89
721.646	19412.95
721.989	19427.86
722.331	19453.85
722.674	19399.62
723.016	19438.71
723.359	19387.87
723.701	19421.31
724.044	19256.34
724.386	19232.62
724.729	19259.51
725.071	19219.73
725.413	19154.43
725.755	19286.17
726.097	19158.27
726.439	19031.27
726.782	19099.06
727.124	19239.4
727.465	19051.38
727.807	19056.12
728.149	19024.03
728.491	19038.04
728.833	18978.61
729.175	19055.9
729.516	19034.88
729.858	18982.9
730.199	18997.59
730.541	18969.8
730.882	18963.02
731.224	18975.67
731.565	18860.65
731.906	18948.33
732.248	18989.68
732.589	18744.27
732.93	18853.19
733.271	18789.92
733.612	18911.04
733.953	18957.82
734.294	18760.54
734.635	18739.97
734.976	18890.03
735.317	18709.92
735.658	18722.8
735.999	18800.08
736.339	18570.94
736.68	18655
737.021	18616.81
737.361	18636.02
737.702	18725.28
738.042	18591.95
738.383	18599.64
738.723	18592.63
739.063	18497.27
739.404	18659.07
739.744	18540.88
740.084	18595.34
740.424	18503.6
740.764	18490.71
741.104	18522.35
741.444	18457.49
741.784	18378.63
742.124	18515.35
742.464	18510.15
742.804	18548.11
743.143	18360.1
743.483	18471.28
743.823	18288.46
744.162	18363.71
744.502	18349.48
744.841	18450.04
745.181	18460.66
745.52	18299.53
745.86	18352.19
746.199	18412.75
746.538	18320.55
746.877	18362.13
747.216	18362.58
747.556	18297.27
747.895	18347.89
748.234	18318.97
748.573	18171.4
748.911	18241.23
749.25	18335.69
749.589	18219.31
749.928	18300.66
750.267	18248.91
750.605	18226.99
750.944	18189.71
751.283	18089.59
751.621	18231.29
751.96	18099.09
752.298	18095.02
752.636	18062.93
752.975	17992.87
753.313	17956.72
753.651	17983.16
753.989	17964.85
754.327	18012.53
754.666	17863.84
755.004	17851.86
755.342	17891.18
755.679	17887.57
756.017	17892.09
756.355	17876.49
756.693	17843.05
757.031	17820
757.368	17743.39
757.706	17744.52
758.044	17659.55
758.381	17631.75
758.719	17695.03
759.056	17648.02
759.394	17488.93
759.731	17549.72
760.068	17538.2
760.405	17443.51
760.743	17523.96
761.08	17620.91
761.417	17391.08
761.754	17355.15
762.091	17370.74
762.428	17234.25
762.765	17239
763.102	17314.02
763.438	17150.18
763.775	17138.21
764.112	17081.71
764.449	17107.47
764.785	17036.06
765.122	16974.82
765.458	16967.14
765.795	16946.35
766.131	16877.88
766.467	16847.14
766.804	16740.25
767.14	16591.78
767.476	16657.99
767.812	16594.49
768.148	16625
768.485	16551.78
768.821	16433.37
769.157	16514.5
769.492	16448.96
769.828	16391.79
770.164	16290.55
770.5	16278.12
770.836	16187.5
771.171	16153.6
771.507	16100.72
771.842	15995.19
772.178	16021.17
772.513	15901.18
772.849	16001.06
773.184	15819.37
773.519	15908.86
773.855	15827.51
774.19	15783.44
774.525	15687.17
774.86	15669.77
775.195	15619.6
775.53	15544.13
775.865	15522.2
776.2	15413.96
776.535	15293.28
776.87	15364.24
777.205	15333.28
777.539	15252.61
777.874	15285.83
778.209	15123.12
778.543	15065.72
778.878	14951.15
779.212	15056
779.547	14945.5
779.881	14950.24
780.215	14886.29
780.55	14819.62
780.884	14718.16
781.218	14763.81
781.552	14778.5
781.886	14691.72
782.22	14562.68
782.554	14496.92
782.888	14493.31
783.222	14383.48
783.556	14286.98
783.889	14311.84
784.223	14298.51
784.557	14192.75
784.89	14234.1
785.224	14097.38
785.557	14108.46
785.891	14011.06
786.224	14105.52
786.558	13945.52
786.891	13869.37
787.224	13915.92
787.557	13841.57
787.891	13807.22
788.224	13784.17
788.557	13791.18
788.89	13677.28
789.223	13735.36
789.556	13510.51
789.888	13534.01
790.221	13462.15
790.554	13421.7
790.887	13450.17
791.219	13360.23
791.552	13331.08
791.884	13320.91
792.217	13253.34
792.549	13218.99
792.882	13159.56
793.214	13165.43
793.546	13179.67
793.879	12996.85
794.211	13013.57
794.543	12996.4
794.875	12944.65
795.207	12963.4
795.539	12902.39
795.871	12891.09
796.203	12794.37
796.535	12616.52
796.867	12761.15
797.198	12659.91
797.53	12614.03
797.862	12543.98
798.193	12682.73
798.525	12524.09
798.856	12511.44
799.188	12467.82
799.519	12399.8
799.85	12364.77
800.182	12318.22
800.513	12372.68
800.844	12256.75
801.175	12282.06
801.506	12344.44
801.837	12128.62
802.168	12128.62
802.499	12111.67
802.83	12071.45
803.161	11960.94
803.491	12046.14
803.822	12071.67
804.153	11959.59
804.483	11860.61
804.814	11789.65
805.145	11811.34
805.475	11799.59
805.805	11816.09
806.136	11769.08
806.466	11808.63
806.796	11779.03
807.126	11630.1
807.457	11672.36
807.787	11725.69
808.117	11580.16
808.447	11542.65
808.777	11563.21
809.107	11513.5
809.436	11501.29
809.766	11532.25
810.096	11458.81
810.426	11433.27
810.755	11414.29
811.085	11382.88
811.414	11279.6
811.744	11255.88
812.073	11235.31
812.403	11243.9
812.732	11148.99
813.061	11207.97
813.39	11160.51
813.719	11083
814.049	11106.5
814.378	11143.34
814.707	11149.66
815.036	11072.6
815.365	11082.32
815.693	10955.09
816.022	10958.94
816.351	10903.34
816.68	10884.81
817.008	10921.42
817.337	10708.32
817.665	10795.32
817.994	10812.27
818.322	10857.47
818.651	10757.13
818.979	10709.45
819.307	10794.87
819.636	10771.14
819.964	10649.34
820.292	10717.59
820.62	10692.73
820.948	10680.75
821.276	10709
821.604	10641.88
821.932	10655.67
822.259	10668.1
822.587	10677.13
822.915	10688.21
823.243	10697.7
823.57	10557.36
823.898	10657.47
824.225	10555.56
824.553	10575.22
824.88	10623.8
825.207	10610.02
825.535	10650.02
825.862	10701.31
826.189	10606.85
826.516	10676
826.843	10735.44
827.17	10610.24
827.497	10609.79
827.824	10652.5
828.151	10649.79
828.478	10607.08
828.805	10663.8
829.131	10607.31
829.458	10610.47
829.785	10570.02
830.111	10516.69
830.438	10701.77
830.764	10618.38
831.09	10641.88
831.417	10600.07
831.743	10653.86
832.069	10617.7
832.395	10578.38
832.722	10619.51
833.048	10564.37
833.374	10604.37
833.7	10521.88
834.026	10530.92
834.351	10604.59
834.677	10589.68
835.003	10522.79
835.329	10549.45
835.654	10523.47
835.98	10508.55
836.306	10502.68
836.631	10476.69
836.956	10487.53
837.282	10470.36
837.607	10456.58
837.932	10397.37
838.258	10429.91
838.583	10414.09
838.908	10331.15
839.233	10329.8
839.558	10364.83
839.883	10334.54
840.208	10231.5
840.533	10338.39
840.858	10331.38
841.182	10289.8
841.507	10296.35
841.832	10226.07
842.156	10189.92
842.481	10200.31
842.805	10200.99
843.13	10130.93
843.454	10080.31
843.778	10100.65
844.103	10062.24
844.427	10076.7
844.751	10033.31
845.075	10065.85
845.399	10007.1
845.723	9969.36
846.047	9964.16
846.371	9863.82
846.695	9907.89
847.019	9806.42
847.343	9748.12
847.666	9712.41
847.99	9657.05
848.313	9700.44
848.637	9646.65
848.96	9594.23
849.284	9536.83
849.607	9442.14
849.931	9513.1
850.254	9454.34
850.577	9394.23
850.9	9264.74
851.223	9314.91
851.546	9275.59
851.869	9225.87
852.192	9304.52
852.515	9209.15
852.838	9146.55
853.161	9142.26
853.483	9094.35
853.806	9074.92
854.129	9037.4
854.451	9007.12
854.774	8998.31
855.096	8930.97
855.419	8912.44
855.741	8801.7
856.063	8861.59
856.385	8895.03
856.708	8807.58
857.03	8850.06
857.352	8782.27
857.674	8719.67
857.996	8795.38
858.318	8685.55
858.64	8749.73
858.961	8699.33
859.283	8568.26
859.605	8602.61
859.926	8655.27
860.248	8657.75
860.57	8586.79
860.891	8598.77
861.212	8554.7
861.534	8525.33
861.855	8419.34
862.176	8500.24
862.498	8501.6
862.819	8465.22
863.14	8394.03
863.461	8451.88
863.782	8443.97
864.103	8487.59
864.424	8367.36
864.745	8377.76
865.065	8359.46
865.386	8326.46
865.707	8313.58
866.027	8265.22
866.348	8277.88
866.668	8283.75
866.989	8284.2
867.309	8208.5
867.63	8218.44
867.95	8255.05
868.27	8150.2
868.59	8157.43
868.91	8200.82
869.23	8201.95
869.55	8132.79
869.87	8131.89
870.19	8114.04
870.51	8123.98
870.83	8148.84
871.15	8098.67
871.469	8164.66
871.789	8110.2
872.109	8070.88
872.428	8093.47
872.748	8055.28
873.067	8066.81
873.386	8069.97
873.706	8029.97
874.025	8020.93
874.344	7990.43
874.663	7949.75
874.982	7945.68
875.301	7973.48
875.62	7922.86
875.939	7931.44
876.258	7956.98
876.577	7953.82
876.896	7902.74
877.214	7845.34
877.533	7918.11
877.852	7836.31
878.17	7822.52
878.489	7872.24
878.807	7887.83
879.125	7856.64
879.444	7790.66
879.762	7780.71
880.08	7772.35
880.398	7766.02
880.716	7730.32
881.034	7749.08
881.352	7718.12
881.67	7697.1
881.988	7671.34
882.306	7589.98
882.624	7646.93
882.941	7677.67
883.259	7610.77
883.577	7588.63
883.894	7565.13
884.212	7557.67
884.529	7582.53
884.846	7521.51
885.164	7532.13
885.481	7505.01
885.798	7579.81
886.115	7478.8
886.432	7484.22
886.75	7456.43
887.067	7410.1
887.383	7398.8
887.7	7387.05
888.017	7382.98
888.334	7385.02
888.651	7284
888.967	7339.37
889.284	7289.43
889.6	7260.28
889.917	7270.67
890.233	7241.29
890.55	7239.03
890.866	7270.67
891.182	7220.73
891.498	7165.14
891.815	7204.91
892.131	7150.67
892.447	7056.21
892.763	7033.84
893.079	7083.1
893.395	7050.56
893.71	6995.42
894.026	7006.27
894.342	7004.91
894.657	6988.42
894.973	6983.22
895.289	6929.21
895.604	6943
895.92	6836.11
896.235	6831.59
896.55	6822.55
896.865	6845.37
897.181	6868.2
897.496	6794.3
897.811	6797.46
898.126	6759.72
898.441	6733.06
898.756	6715.43
899.071	6651.48
899.386	6663.23
899.7	6643.57
900.015	6614.64
900.33	6492.61
900.644	6590.46
900.959	6585.94
901.273	6539.39
901.588	6467.3
901.902	6465.27
902.216	6415.33
902.531	6386.4
902.845	6376
903.159	6346.4
903.473	6333.52
903.787	6351.15
904.101	6279.96
904.415	6353.41
904.729	6306.63
905.042	6215.78
905.356	6233.18
905.67	6236.35
905.984	6188.89
906.297	6141.43
906.611	6146.18
906.924	6157.71
907.237	6156.35
907.551	6042.91
907.864	6032.51
908.177	6074.54
908.491	6040.65
908.804	6001.1
909.117	5977.37
909.43	5944.15
909.743	5908.22
910.056	5896.47
910.368	5911.16
910.681	5849.69
910.994	5837.94
911.307	5778.28
911.619	5723.82
911.932	5712.75
912.244	5737.6
912.557	5731.95
912.869	5736.93
913.181	5713.65
913.494	5650.6
913.806	5640.88
914.118	5656.25
914.43	5580.09
914.742	5595.69
915.054	5554.11
915.366	5500.77
915.678	5496.93
915.99	5472.3
916.302	5459.87
916.613	5406.09
916.925	5362.92
917.236	5401.79
917.548	5378.06
917.859	5377.61
918.171	5348.46
918.482	5309.37
918.794	5291.06
919.105	5286.99
919.416	5204.74
919.727	5199.54
920.038	5198.86
920.349	5163.61
920.66	5137.62
920.971	5133.78
921.282	5102.14
921.593	5098.52
921.903	5072.31
922.214	5079.32
922.525	5027.79
922.835	4976.49
923.146	5023.27
923.456	5031.18
923.767	4945.76
924.077	4946.44
924.387	4924.52
924.697	4886.78
925.008	4905.08
925.318	4863.95
925.628	4884.97
925.938	4838.64
926.248	4792.32
926.558	4773.33
926.867	4765.43
927.177	4750.96
927.487	4734.69
927.796	4710.74
928.106	4708.03
928.416	4624.64
928.725	4652.89
929.034	4620.12
929.344	4617.41
929.653	4582.83
929.962	4547.58
930.271	4578.09
930.581	4510.52
930.89	4510.52
931.199	4469.39
931.508	4500.8
931.817	4480.46
932.125	4462.16
932.434	4417.86
932.743	4376.74
933.051	4345.32
933.36	4381.71
933.669	4343.29
933.977	4329.05
934.286	4298.32
934.594	4279.11
934.902	4244.31
935.21	4215.61
935.519	4219.45
935.827	4249.96
936.135	4200.02
936.443	4164.31
936.751	4178.1
937.059	4160.7
937.367	4124.54
937.674	4163.86
937.982	4144.65
938.29	4081.83
938.597	4101.71
938.905	4069.85
939.213	4072.79
939.52	4043.41
939.827	4009.06
940.135	3985.33
940.442	3949.18
940.749	3948.72
941.056	3976.07
941.363	3901.27
941.67	3935.84
941.977	3920.25
942.284	3852.46
942.591	3903.3
942.898	3813.36
943.205	3882.28
943.511	3805.45
943.818	3814.04
944.125	3778.33
944.431	3743.31
944.738	3712.12
945.044	3716.64
945.35	3720.71
945.657	3709.41
945.963	3694.72
946.269	3695.17
946.575	3714.38
946.881	3660.6
947.187	3686.36
947.493	3623.08
947.799	3627.15
948.105	3573.59
948.41	3557.1
948.716	3548.06
949.022	3565.01
949.327	3532.46
949.633	3540.37
949.938	3525.68
950.244	3469.41
950.549	3507.83
950.854	3470.09
951.16	3457.21
951.465	3426.93
951.77	3444.1
952.075	3377.89
952.38	3384.67
952.685	3382.19
952.99	3375.86
953.294	3367.95
953.599	3319.81
953.904	3314.39
954.209	3311
954.513	3279.36
954.818	3307.61
955.122	3205.24
955.426	3254.5
955.731	3221.51
956.035	3207.73
956.339	3217.44
956.643	3215.64
956.948	3162.98
957.252	3181.74
957.556	3144.23
957.86	3144.68
958.163	3152.36
958.467	3139.93
958.771	3101.06
959.075	3045.92
959.378	3049.31
959.682	3085.24
959.985	3073.27
960.289	3035.75
960.592	3056.54
960.896	3021.29
961.199	3038.24
961.502	2980.16
961.805	2990.56
962.108	2936.32
962.411	2970.44
962.714	2899.94
963.017	2929.99
963.32	2878.47
963.623	2876.66
963.926	2906.49
964.228	2889.77
964.531	2887.73
964.833	2887.96
965.136	2828.53
965.438	2842.54
965.741	2819.04
966.043	2839.37
966.345	2788.98
966.648	2810.45
966.95	2760.51
967.252	2779.26
967.554	2737.91
967.856	2743.11
968.158	2690.9
968.46	2697.68
968.761	2700.17
969.063	2693.84
969.365	2716.44
969.666	2685.93
969.968	2672.6
970.269	2645.48
970.571	2667.4
970.872	2606.39
971.174	2604.35
971.475	2624.01
971.776	2600.74
972.077	2573.84
972.378	2559.16
972.679	2573.39
972.98	2577.23
973.281	2580.17
973.582	2519.38
973.883	2519.83
974.183	2523.9
974.484	2548.76
974.785	2474.19
975.085	2497.91
975.386	2467.63
975.686	2439.39
975.986	2489.1
976.287	2440.29
976.587	2421.53
976.887	2419.72
977.187	2455.43
977.487	2408.65
977.787	2408.88
978.087	2390.35
978.387	2358.03
978.687	2396.45
978.987	2363.45
979.286	2340.4
979.586	2361.19
979.885	2307.86
980.185	2307.41
980.484	2299.05
980.784	2234.64
981.083	2274.64
981.382	2278.26
981.682	2259.05
981.981	2272.61
982.28	2273.29
982.579	2213.85
982.878	2248.66
983.177	2233.29
983.475	2200.75
983.774	2222.89
984.073	2184.48
984.372	2176.12
984.67	2180.63
984.969	2171.6
985.267	2177.25
985.566	2176.34
985.864	2139.05
986.162	2129.11
986.461	2143.57
986.759	2114.65
987.057	2088.21
987.355	2105.61
987.653	2085.95
987.951	2091.15
988.249	2068.55
988.547	2068.32
988.844	2047.3
989.142	2036.46
989.44	2023.35
989.737	2016.8
990.035	2020.64
990.332	1984.93
990.63	2016.57
990.927	1967.53
991.224	1992.84
991.521	1951.26
991.819	1960.75
992.116	1964.82
992.413	1935.67
992.71	1944.93
993.006	1906.97
993.303	1912.17
993.6	1915.56
993.897	1906.29
994.193	1878.04
994.49	1877.59
994.787	1873.75
995.083	1854.77
995.379	1860.64
995.676	1859.29
995.972	1841.43
996.268	1840.53
996.565	1798.27
996.861	1812.28
997.157	1818.84
997.453	1820.64
997.749	1791.27
998.044	1775.45
998.34	1777.48
998.636	1765.73
998.932	1754.21
999.227	1764.83
999.523	1761.66
999.818	1739.52
1000.114	1717.37
1000.409	1726.18
1000.704	1704.49
1001	1664.49
1001.295	1684.38
1001.59	1668.33
1001.885	1689.57
1002.18	1662.68
1002.475	1665.17
1002.77	1655.22
1003.065	1658.16
1003.359	1634.43
1003.654	1629.24
1003.949	1610.03
1004.243	1618.16
1004.538	1610.25
1004.832	1594.66
1005.127	1601.44
1005.421	1586.3
1005.715	1534.78
1006.009	1534.78
1006.304	1554.44
1006.598	1523.02
1006.892	1549.01
1007.186	1528.22
1007.48	1511.73
1007.773	1520.99
1008.067	1490.94
1008.361	1489.81
1008.655	1521.67
1008.948	1484.61
1009.242	1492.29
1009.535	1466.08
1009.829	1448.45
1010.122	1459.52
1010.415	1422.91
1010.708	1449.35
1011.001	1441.22
1011.295	1432.63
1011.588	1421.33
1011.881	1393.76
1012.173	1397.15
1012.466	1380.43
1012.759	1386.31
1013.052	1352.18
1013.344	1367.32
1013.637	1339.53
1013.93	1338.17
1014.222	1349.92
1014.514	1329.36
1014.807	1317.61
1015.099	1327.55
1015.391	1301.11
1015.683	1294.1
1015.976	1288.91
1016.268	1321
1016.56	1293.65
1016.851	1257.5
1017.143	1281.22
1017.435	1248.46
1017.727	1251.62
1018.018	1225.63
1018.31	1203.94
1018.602	1244.84
1018.893	1210.04
1019.185	1223.15
1019.476	1227.67
1019.767	1198.97
1020.058	1202.36
1020.35	1183.6
1020.641	1177.5
1020.932	1184.28
1021.223	1163.94
1021.514	1161.68
1021.804	1138.63
1022.095	1155.12
1022.386	1137.27
1022.677	1151.51
1022.967	1115.35
1023.258	1124.17
1023.548	1153.77
1023.839	1093.21
1024.129	1124.84
1024.419	1101.34
1024.709	1086.2
1025	1085.52
1025.29	1082.13
1025.58	1079.87
1025.87	1066.54
1026.16	1079.87
1026.449	1071.06
1026.739	1059.53
1027.029	1035.13
1027.319	1052.98
1027.608	1017.95
1027.898	1024.05
1028.187	1017.73
1028.477	1010.72
1028.766	1027.22
1029.055	995.81
1029.344	1001.91
1029.634	997.39
1029.923	984.73
1030.212	986.99
1030.501	954.23
1030.79	971.18
1031.078	935.7
1031.367	954.9
1031.656	944.74
1031.945	930.95
1032.233	940.44
1032.522	933.21
1032.81	922.14
1033.099	928.01
1033.387	909.26
1033.675	913.32
1033.963	901.12
1034.251	897.28
1034.54	875.36
1034.828	884.85
1035.116	871.29
1035.403	874.68
1035.691	875.13
1035.979	877.62
1036.267	867.9
1036.554	845.53
1036.842	864.74
1037.129	834.68
1037.417	836.72
1037.704	834
1037.992	810.5
1038.279	824.96
1038.566	829.71
1038.853	829.71
1039.14	829.71
