Data from cardboard_FLMS001491_099.txt Node
Date: Tue Feb 07 11:40:27 GMT 2017
User: dcchb
Spectrometer: FLMS00149
Trigger mode: 0
Integration Time (sec): 2.000000E-2
Scans to average: 10
Electric dark correction enabled: true
Nonlinearity correction enabled: false
Boxcar width: 0
XAxis mode: Wavelengths
Number of Pixels in Spectrum: 2048
>>>>>Begin Spectral Data<<<<<
341.393	-12.02
341.776	-12.02
342.16	-12.02
342.543	-76.2
342.927	-70.55
343.31	-49.31
343.693	-79.36
344.077	-62.64
344.46	-89.53
344.843	-52.7
345.226	-26.26
345.61	-22.19
345.993	-14.96
346.376	-15.64
346.759	11.03
347.142	20.97
347.525	40.63
347.908	57.36
348.291	69.79
348.674	98.71
349.057	114.08
349.44	140.97
349.823	133.74
350.206	156.79
350.588	174.42
350.971	193.62
351.354	213.06
351.737	234.08
352.119	251.48
352.502	246.28
352.884	282.21
353.267	279.05
353.65	272.94
354.032	274.07
354.414	292.38
354.797	302.32
355.179	321.76
355.562	319.5
355.944	324.47
356.326	335.32
356.709	345.03
357.091	336.22
357.473	321.31
357.855	339.84
358.238	338.93
358.62	332.6
359.002	331.47
359.384	338.93
359.766	339.84
360.148	323.34
360.53	340.97
360.912	353.39
361.294	326.73
361.676	345.49
362.057	327.86
362.439	326.5
362.821	316.79
363.203	314.3
363.584	323.11
363.966	313.4
364.348	311.59
364.729	312.49
365.111	316.79
365.493	338.71
365.874	312.94
366.256	308.65
366.637	297.12
367.019	313.85
367.4	324.47
367.781	319.72
368.163	313.4
368.544	334.64
368.925	320.85
369.306	328.31
369.688	323.56
370.069	316.11
370.45	301.42
370.831	316.33
371.212	320.4
371.593	307.52
371.974	291.48
372.355	317.24
372.736	324.69
373.117	307.29
373.498	306.84
373.879	307.07
374.26	299.38
374.641	310.68
375.021	310.23
375.402	312.94
375.783	316.11
376.163	324.24
376.544	316.11
376.925	322.66
377.305	320.4
377.686	310.23
378.066	326.73
378.447	328.08
378.827	324.92
379.208	356.33
379.588	326.28
379.968	311.81
380.349	321.08
380.729	330.12
381.109	345.03
381.489	334.19
381.87	335.99
382.25	338.71
382.63	342.55
383.01	320.85
383.39	348.2
383.77	345.94
384.15	343.23
384.53	331.02
384.91	353.62
385.29	341.64
385.67	339.84
386.049	346.84
386.429	353.17
386.809	373.51
387.189	344.81
387.568	370.12
387.948	360.85
388.328	385.71
388.707	358.14
389.087	344.36
389.466	358.82
389.846	366.28
390.225	354.98
390.605	362.66
390.984	382.32
391.363	386.84
391.743	381.64
392.122	380.96
392.501	364.24
392.881	380.74
393.26	390.23
393.639	385.48
394.018	393.17
394.397	391.59
394.776	370.12
395.155	388.2
395.534	383.68
395.913	390.46
396.292	388.42
396.671	404.47
397.05	373.28
397.429	418.48
397.808	401.75
398.186	404.69
398.565	389.55
398.944	404.01
399.323	407.18
399.701	391.36
400.08	388.87
400.458	406.05
400.837	413.73
401.215	438.14
401.594	408.99
401.972	408.76
402.351	419.83
402.729	434.52
403.107	438.14
403.486	428.65
403.864	425.26
404.242	425.48
404.62	426.61
404.999	434.07
405.377	428.19
405.755	429.78
406.133	435.43
406.511	444.69
406.889	457.57
407.267	450.79
407.645	493.5
408.023	463.45
408.401	457.35
408.779	453.73
409.156	481.3
409.534	476.56
409.912	479.95
410.29	492.83
410.667	501.19
411.045	494.41
411.422	489.21
411.8	496.67
412.178	495.31
412.555	492.83
412.933	513.39
413.31	515.2
413.687	523.56
414.065	519.49
414.442	513.62
414.819	547.74
415.197	547.29
415.574	542.99
415.951	540.28
416.328	547.51
416.705	552.71
417.082	553.84
417.46	550.9
417.837	571.69
418.214	566.95
418.591	558.14
418.967	567.17
419.344	578.25
419.721	572.37
420.098	573.73
420.475	600.85
420.852	592.71
421.228	612.6
421.605	585.03
421.982	617.12
422.358	608.76
422.735	602.43
423.111	600.17
423.488	617.34
423.864	612.6
424.241	630
424.617	627.74
424.994	635.42
425.37	638.81
425.746	614.18
426.123	618.47
426.499	637.45
426.875	632.48
427.251	657.79
427.627	655.08
428.003	667.51
428.379	684.69
428.756	674.06
429.132	677.23
429.507	691.24
429.883	720.16
430.259	724.68
430.635	691.46
431.011	700.5
431.387	727.17
431.763	740.96
432.138	753.38
432.514	767.17
432.89	754.51
433.265	742.09
433.641	758.36
434.016	769.43
434.392	782.31
434.767	773.95
435.143	806.26
435.518	803.78
435.894	785.25
436.269	818.47
436.644	809.43
437.02	816.43
437.395	826.6
437.77	839.71
438.145	831.8
438.52	841.74
438.895	863.21
439.271	867.73
439.646	902.98
440.021	899.37
440.395	879.71
440.77	893.04
441.145	884.68
441.52	903.66
441.895	899.37
442.27	899.14
442.645	917.22
443.019	938.24
443.394	936.43
443.769	935.53
444.143	945.24
444.518	971.46
444.892	941.85
445.267	920.39
445.641	966.49
446.016	927.16
446.39	964.68
446.764	989.76
447.139	992.7
447.513	989.31
447.887	986.6
448.262	997.67
448.636	1009.65
449.01	1013.94
449.384	1028.63
449.758	1001.74
450.132	1021.63
450.506	1019.37
450.88	1052.81
451.254	1034.28
451.628	1087.84
452.002	1077.9
452.376	1058.46
452.75	1095.52
453.123	1075.41
453.497	1086.71
453.871	1116.99
454.244	1142.07
454.618	1152.7
454.992	1138.46
455.365	1135.97
455.739	1151.57
456.112	1178.46
456.486	1173.49
456.859	1206.03
457.232	1199.93
457.606	1211.68
457.979	1252.81
458.352	1276.99
458.725	1284.44
459.099	1306.36
459.472	1296.42
459.845	1316.99
460.218	1333.26
460.591	1328.74
460.964	1340.26
461.337	1357.21
461.71	1391.11
462.083	1392.92
462.456	1410.09
462.829	1428.85
463.201	1424.55
463.574	1436.3
463.947	1425.46
464.32	1482.86
464.692	1469.52
465.065	1519.92
465.438	1525.34
465.81	1525.34
466.183	1560.14
466.555	1595.4
466.928	1591.55
467.3	1582.29
467.672	1623.19
468.045	1681.95
468.417	1669.07
468.789	1671.33
469.161	1699.35
469.534	1721.27
469.906	1738.89
470.278	1768.95
470.65	1783.19
471.022	1804.2
471.394	1846.91
471.766	1860.93
472.138	1900.92
472.51	1905.67
472.882	1951.09
473.253	1958.1
473.625	1998.32
473.997	2018.44
474.369	2022.28
474.74	2047.14
475.112	2084.87
475.484	2115.83
475.855	2159.45
476.227	2185.44
476.598	2236.06
476.97	2276.96
477.341	2309.5
477.713	2312.67
478.084	2375.94
478.455	2387.47
478.827	2443.96
479.198	2530.06
479.569	2525.54
479.94	2565.54
480.311	2622.49
480.682	2628.36
481.053	2731.19
481.424	2751.07
481.795	2764.4
482.166	2821.35
482.537	2859.32
482.908	2921.69
483.279	2964.17
483.65	2980.44
484.021	3085.98
484.391	3109.93
484.762	3093.89
485.133	3150.38
485.503	3193.55
485.874	3266.31
486.244	3310.83
486.615	3362.58
486.985	3416.82
487.356	3497.94
487.726	3480.54
488.097	3554.89
488.467	3597.15
488.837	3680.76
489.207	3714.21
489.578	3767.09
489.948	3812.51
490.318	3850.25
490.688	3871.95
491.058	3930.93
491.428	3982.45
491.798	4057.03
492.168	4191.03
492.538	4121.43
492.908	4193.07
493.278	4269.22
493.648	4246.4
494.017	4367.3
494.387	4410.01
494.757	4412.72
495.126	4458.37
495.496	4523
495.866	4601.64
496.235	4586.05
496.605	4676.44
496.974	4718.25
497.344	4752.83
497.713	4792.83
498.082	4825.14
498.452	4894.97
498.821	4975.87
499.19	4975.87
499.559	5050.22
499.928	5021.75
500.298	5131.57
500.667	5142.87
501.036	5189.2
501.405	5219.93
501.774	5274.4
502.143	5304.22
502.512	5328.63
502.88	5407.5
503.249	5468.29
503.618	5496.54
503.987	5554.39
504.356	5558.68
504.724	5620.6
505.093	5638.91
505.462	5671.45
505.83	5708.73
506.199	5814.95
506.567	5890.42
506.936	5948.95
507.304	6023.75
507.672	6016.52
508.041	6090.19
508.409	6087.03
508.777	6199.79
509.145	6332.45
509.514	6296.74
509.882	6306.91
510.25	6398.89
510.618	6484.76
510.986	6497.87
511.354	6557.3
511.722	6662.38
512.09	6657.18
512.458	6736.73
512.826	6816.5
513.193	6865.99
513.561	6863.05
513.929	7003.39
514.297	7027.12
514.664	7115.7
515.032	7116.15
515.4	7255.59
515.767	7285.42
516.135	7290.61
516.502	7341.91
516.869	7490.38
517.237	7506.43
517.604	7511.85
517.972	7662.81
518.339	7673.2
518.706	7748.23
519.073	7809.02
519.44	7876.81
519.808	8020.31
520.175	8016.92
520.542	8190.25
520.909	8168.1
521.276	8155.9
521.643	8410.58
522.009	8419.62
522.376	8536.68
522.743	8569
523.11	8655.1
523.477	8788.43
523.843	8853.51
524.21	8882.66
524.577	9019.16
524.943	9071.81
525.31	9188.42
525.676	9270.45
526.043	9364.68
526.409	9373.5
526.776	9576.43
527.142	9585.24
527.508	9664.34
527.874	9833.15
528.241	9848.51
528.607	9938.68
528.973	9950.2
529.339	10053.48
529.705	10116.75
530.071	10279.91
530.437	10352.68
530.803	10511.32
531.169	10516.07
531.535	10596.52
531.901	10597.19
532.267	10691.2
532.632	10740.47
532.998	10885.77
533.364	10973.68
533.73	10952.66
534.095	11132.09
534.461	11161.7
534.826	11192.21
535.192	11328.7
535.557	11434.23
535.923	11476.49
536.288	11517.85
536.653	11604.85
537.019	11641.91
537.384	11691.4
537.749	11823.15
538.114	11841
538.479	11913.54
538.845	11956.48
539.21	12009.59
539.575	12050.71
539.94	12195.12
540.305	12260.43
540.67	12281.22
541.034	12313.76
541.399	12445.96
541.764	12471.04
542.129	12599.17
542.494	12613.64
542.858	12735.22
543.223	12643.02
543.587	12901.54
543.952	12892.5
544.316	12989.45
544.681	12986.28
545.045	13084.13
545.41	13132.95
545.774	13174.98
546.138	13251.13
546.503	13288.65
546.867	13441.64
547.231	13522.99
547.595	13638.92
547.959	13679.37
548.324	13659.94
548.688	13686.15
549.052	13805.24
549.416	13899.25
549.779	13941.06
550.143	13978.8
550.507	14110.55
550.871	14229.64
551.235	14244.33
551.599	14400.71
551.962	14411.1
552.326	14488.16
552.689	14679.35
553.053	14612.23
553.417	14666.69
553.78	14855.61
554.143	14861.04
554.507	14936.51
554.87	15028.94
555.234	15189.61
555.597	15130.63
555.96	15287.01
556.323	15421.25
556.686	15356.84
557.05	15592.77
557.413	15604.97
557.776	15670.28
558.139	15847.9
558.502	15816.04
558.865	15889.26
559.228	16100.33
559.59	16176.48
559.953	16261.68
560.316	16366.53
560.679	16501.22
561.041	16562.46
561.404	16686.75
561.767	16812.4
562.129	16632.74
562.492	17042
562.854	16967.2
563.217	17032.05
563.579	17180.97
563.941	17214.65
564.304	17429.56
564.666	17544.81
565.028	17559.27
565.39	17601.3
565.753	17829.09
566.115	17921.29
566.477	17956.32
566.839	18037
567.201	18178.46
567.563	18168.07
567.925	18429.08
568.287	18456.65
568.648	18607.83
569.01	18584.78
569.372	18722.18
569.734	18837.88
570.095	18869.52
570.457	19037.42
570.819	19079.68
571.18	19135.73
571.542	19289.39
571.903	19267.7
572.265	19329.17
572.626	19584.3
572.987	19651.42
573.349	19628.14
573.71	19770.51
574.071	19871.3
574.432	19984.06
574.794	20107.68
575.155	20190.39
575.516	20083.5
575.877	20136.38
576.238	20276.94
576.599	20300.67
576.96	20418.4
577.32	20462.7
577.681	20518.97
578.042	20540.21
578.403	20675.12
578.763	20712.86
579.124	20848.45
579.485	20850.03
579.845	20933.87
580.206	21009.8
580.566	21045.73
580.927	21115.56
581.287	21258.16
581.648	21170.25
582.008	21396.01
582.368	21238.27
582.728	21315.33
583.089	21412.5
583.449	21425.61
583.809	21499.05
584.169	21549.22
584.529	21511.26
584.889	21729.78
585.249	21646.17
585.609	21642.1
585.969	21736.79
586.329	21719.84
586.688	21801.19
587.048	21802.1
587.408	21852.72
587.768	21852.72
588.127	21963
588.487	21856.33
588.846	22137.91
589.206	22037.34
589.565	22045.93
589.925	22311.24
590.284	22109.43
590.643	22240.95
591.003	22392.14
591.362	22435.07
591.721	22322.53
592.08	22428.29
592.44	22635.75
592.799	22447.28
593.158	22461.74
593.517	22591.45
593.876	22643.43
594.235	22597.56
594.593	22626.03
594.952	22718.91
595.311	22665.8
595.67	22730.43
596.029	22897.66
596.387	22944.21
596.746	22986.25
597.104	22808.85
597.463	22949.86
597.822	23123.42
598.18	22993.7
598.538	23033.48
598.897	23151.67
599.255	23047.04
599.613	23305.56
599.972	23073.48
600.33	23168.84
600.688	23157.54
601.046	23345.56
601.404	23421.04
601.762	23415.16
602.12	23534.71
602.478	23477.31
602.836	23519.11
603.194	23474.37
603.552	23612.67
603.91	23627.36
604.268	23745.55
604.625	23531.32
604.983	23793.68
605.341	23756.17
605.698	23865.09
606.056	23931.76
606.413	23927.24
606.771	24077.97
607.128	24044.3
607.485	24073.22
607.843	24047.46
608.2	24208.13
608.557	24215.82
608.914	24207.46
609.272	24357.96
609.629	24453.33
609.986	24454.91
610.343	24406.1
610.7	24632.76
611.057	24611.74
611.414	24639.31
611.771	24584.17
612.127	24700.1
612.484	24728.57
612.841	24846.54
613.198	24812.86
613.554	24794.79
613.911	24959.75
614.267	25039.75
614.624	24912.07
614.98	24996.14
615.337	25100.99
615.693	25087.21
616.05	25132.4
616.406	25390.93
616.762	25254.66
617.118	25252.18
617.475	25396.35
617.831	25450.59
618.187	25466.41
618.543	25569.23
618.899	25536.24
619.255	25586.86
619.611	25589.34
619.967	25689.68
620.323	25802.22
620.678	25708.21
621.034	25662.56
621.39	25581.66
621.746	25619.17
622.101	25999.95
622.457	25765.61
622.812	25789.11
623.168	26014.19
623.523	25888.09
623.879	25944.59
624.234	25789.11
624.589	25956.79
624.945	25875.66
625.3	26034.3
625.655	26118.14
626.01	26058.71
626.365	26034.08
626.72	26013.74
627.075	26000.63
627.43	26122.66
627.785	25976.22
628.14	26132.15
628.495	26123.79
628.85	26152.72
629.205	26015.32
629.559	26261.19
629.914	26205.37
630.269	26087.63
630.623	26095.32
630.978	26005.6
631.332	26203.34
631.687	26230.45
632.041	26164.02
632.396	26123.79
632.75	26104.58
633.104	26234.3
633.459	25991.82
633.813	26120.63
634.167	26206.27
634.521	25980.97
634.875	26176.44
635.229	26149.1
635.583	25872.95
635.937	26001.31
636.291	26101.42
636.645	26010.12
636.999	26032.72
637.352	25960.18
637.706	25917.92
638.06	26021.65
638.413	25922.21
638.767	25864.36
639.121	25999.05
639.474	25798.38
639.828	25848.77
640.181	25985.04
640.534	25903.91
640.888	25794.08
641.241	25778.04
641.594	25877.24
641.947	25938.48
642.301	25839.96
642.654	25796.79
643.007	25983.46
643.36	25841.76
643.713	25739.39
644.066	25884.47
644.419	25706.4
644.771	25609.23
645.124	25359.29
645.477	25323.81
645.83	25192.52
646.182	25008.34
646.535	25133.76
646.888	25130.82
647.24	25057.6
647.593	25198.84
647.945	25142.57
648.298	25062.8
648.65	24920.21
649.002	24982.58
649.355	25000.66
649.707	25031.62
650.059	25180.99
650.411	25406.07
650.763	25478.61
651.115	25632.5
651.467	25730.58
651.819	25625.72
652.171	25597.02
652.523	25510.47
652.875	25512.28
653.227	25513.86
653.578	25700.3
653.93	25626.4
654.282	25490.36
654.633	25423.47
654.985	25504.6
655.337	25515.44
655.688	25614.43
656.039	25714.99
656.391	25432.51
656.742	25455.79
657.094	25478.61
657.445	25667.08
657.796	25523.58
658.147	25586.86
658.498	25570.58
658.849	25589.57
659.2	25486.07
659.551	25452.85
659.902	25626.85
660.253	25535.78
660.604	25558.83
660.955	25406.07
661.306	25631.15
661.656	25427.99
662.007	25532.62
662.358	25536.01
662.708	25611.49
663.059	25536.01
663.409	25380.99
663.76	25681.54
664.11	25570.36
664.461	25711.15
664.811	25670.02
665.161	25704.82
665.511	25624.37
665.862	25617.82
666.212	25807.19
666.562	25699.39
666.912	25671.82
667.262	25601.54
667.612	25583.92
667.962	25696.23
668.312	25631.37
668.662	25821.65
669.011	25561.09
669.361	25596.12
669.711	25592.73
670.06	25600.64
670.41	25563.35
670.76	25594.76
671.109	25553.86
671.459	25621.66
671.808	25515.9
672.157	25678.83
672.507	25526.97
672.856	25553.18
673.205	25551.15
673.554	25606.06
673.904	25462.79
674.253	25617.59
674.602	25558.61
674.951	25331.49
675.3	25141.9
675.649	25496.46
675.998	25533.07
676.346	25558.83
676.695	25591.83
677.044	25450.36
677.393	25446.97
677.741	25559.51
678.09	25420.31
678.438	25374.21
678.787	25490.36
679.135	25332.4
679.484	25385.5
679.832	25498.95
680.181	25252.63
680.529	25400.42
680.877	25298.28
681.225	25300.31
681.573	25392.51
681.922	25185.51
682.27	25143.03
682.618	25203.36
682.966	25133.76
683.314	25165.85
683.661	25022.8
684.009	24984.61
684.357	25010.6
684.705	24934.22
685.053	24945.29
685.4	24911.84
685.748	24875.69
686.095	24972.63
686.443	24795.92
686.79	24685.41
687.138	24846.08
687.485	24819.42
687.832	24768.12
688.18	24662.59
688.527	24549.14
688.874	24581.46
689.221	24615.36
689.568	24550.27
689.915	24406.77
690.262	24378.53
690.609	24421.91
690.956	24314.35
691.303	24458.52
691.65	24225.08
691.997	24202.71
692.344	24064.18
692.69	24080
693.037	24084.75
693.383	23882.27
693.73	23939.67
694.077	23829.84
694.423	23904.19
694.769	23809.28
695.116	23812.89
695.462	23801.14
695.808	23713.91
696.155	23784.42
696.501	23589.17
696.847	23494.48
697.193	23414.48
697.539	23433.92
697.885	23378.1
698.231	23289.97
698.577	23266.69
698.923	23175.17
699.269	23118.9
699.614	23084.77
699.96	23138.78
700.306	23142.63
700.651	23074.83
700.997	23004.55
701.342	22913.25
701.688	22894.95
702.033	22825.57
702.379	22915.06
702.724	22727.95
703.069	22727.72
703.415	22472.36
703.76	22540.16
704.105	22594.39
704.45	22473.04
704.795	22341.07
705.14	22339.26
705.485	22261.97
705.83	22277.34
706.175	22210.22
706.52	22147.4
706.865	22024.69
707.209	22048.64
707.554	21863.34
707.899	21920.29
708.243	21925.48
708.588	21931.36
708.932	21840.74
709.277	21737.01
709.621	21854.98
709.966	21653.85
710.31	21813.62
710.654	21560.07
710.998	21602.55
711.342	21443.91
711.687	21549
712.031	21429
712.375	21402.33
712.719	21494.08
713.063	21464.48
713.407	21527.3
713.75	21362.56
714.094	21283.47
714.438	21225.39
714.782	21204.37
715.125	21231.04
715.469	21258.83
715.812	21127.09
716.156	21140.19
716.499	21043.25
716.843	21121.89
717.186	20971.84
717.53	21062.45
717.873	21098.16
718.216	20929.12
718.559	20934.1
718.902	20749.47
719.246	20826.08
719.589	20802.35
719.932	20770.71
720.275	20675.57
720.617	20740.66
720.96	20678.74
721.303	20747.21
721.646	20743.82
721.989	20533.88
722.331	20675.35
722.674	20628.34
723.016	20730.94
723.359	20521.68
723.701	20579.98
724.044	20585.41
724.386	20412.53
724.729	20520.1
725.071	20500.21
725.413	20431.96
725.755	20417.05
726.097	20454.34
726.439	20308.12
726.782	20310.61
727.124	20325.75
727.465	20182.25
727.807	20243.72
728.149	20235.36
728.491	20189.26
728.833	20249.82
729.175	20175.47
729.516	20187.9
729.858	20191.29
730.199	20238.97
730.541	20102.25
730.882	20092.76
731.224	20150.61
731.565	19974.35
731.906	19965.53
732.248	20114.68
732.589	19975.03
732.93	19922.37
733.271	19920.11
733.612	19964.18
733.953	19971.18
734.294	19902.71
734.635	20020.22
734.976	19994.46
735.317	19842.37
735.658	19841.92
735.999	19875.59
736.339	19800.57
736.68	19901.36
737.021	19809.83
737.361	19776.61
737.702	19928.02
738.042	19764.41
738.383	19652.55
738.723	19827.68
739.063	19671.53
739.404	19746.78
739.744	19740.46
740.084	19688.48
740.424	19707.01
740.764	19668.14
741.104	19603.28
741.444	19584.75
741.784	19561.03
742.124	19584.3
742.464	19522.61
742.804	19616.62
743.143	19540.69
743.483	19559.44
743.823	19374.82
744.162	19447.13
744.502	19574.13
744.841	19351.54
745.181	19440.12
745.52	19479.67
745.86	19466.56
746.199	19406.23
746.538	19469.73
746.877	19486.9
747.216	19405.32
747.556	19298.89
747.895	19515.15
748.234	19359.67
748.573	19279.45
748.911	19297.53
749.25	19327.59
749.589	19264.76
749.928	19252.33
750.267	19282.39
750.605	19169.17
750.944	19097.76
751.283	19079.91
751.621	19194.26
751.96	19132.56
752.298	19254.59
752.636	19096.86
752.975	19096.18
753.313	18996.52
753.651	19124.65
753.989	19049.63
754.327	19018.44
754.666	18999.91
755.004	19028.84
755.342	19018.67
755.679	18964.66
756.017	18973.7
756.355	18843.3
756.693	18836.75
757.031	18939.57
757.368	18806.92
757.706	18747.26
758.044	18782.29
758.381	18749.52
758.719	18724.66
759.056	18769.18
759.394	18686.25
759.731	18574.38
760.068	18536.87
760.405	18530.54
760.743	18522.18
761.08	18532.8
761.417	18426.82
761.754	18413.48
762.091	18353.6
762.428	18351.79
762.765	18227.27
763.102	18293.49
763.438	18086.49
763.775	18181.85
764.112	18111.8
764.449	18117.9
764.785	18032.93
765.122	18004.68
765.458	17892.59
765.795	17837.91
766.131	17872.26
766.467	17825.7
766.804	17842.43
767.14	17720.62
767.476	17706.84
767.812	17528.99
768.148	17677.68
768.485	17646.73
768.821	17493.73
769.157	17461.65
769.492	17461.19
769.828	17427.97
770.164	17287.86
770.5	17303.23
770.836	17369.67
771.171	17159.28
771.507	17127.42
771.842	16937.82
772.178	16921.09
772.513	16952.51
772.849	16959.06
773.184	16837.48
773.519	16841.32
773.855	16770.82
774.19	16747.31
774.525	16639.07
774.86	16640.2
775.195	16545.51
775.53	16522.69
775.865	16478.85
776.2	16393.42
776.535	16281.34
776.87	16192.53
777.205	16127.44
777.539	16122.92
777.874	16142.36
778.209	16045.86
778.543	15978.75
778.878	15995.24
779.212	15924.51
779.547	15851.97
779.881	15827.56
780.215	15800.9
780.55	15762.93
780.884	15747.11
781.218	15641.13
781.552	15671.86
781.886	15620.34
782.22	15559.1
782.554	15501.47
782.888	15386.67
783.222	15248.6
783.556	15218.54
783.889	15194.81
784.223	15114.14
784.557	15073.46
784.89	15045.89
785.224	15016.74
785.557	14886.35
785.891	14898.32
786.224	14823.52
786.558	14790.08
786.891	14677.09
787.224	14600.48
787.557	14577.2
787.891	14581.04
788.224	14547.6
788.557	14597.99
788.89	14500.37
789.223	14516.64
789.556	14394.61
789.888	14343.76
790.221	14366.81
790.554	14201.84
790.887	14167.95
791.219	14139.25
791.552	14085.46
791.884	14070.32
792.217	14011.34
792.549	13887.95
792.882	13887.73
793.214	13874.4
793.546	13966.6
793.879	13799.59
794.211	13710.33
794.543	13723.44
794.875	13635.53
795.207	13784.45
795.539	13622.88
795.871	13658.58
796.203	13552.14
796.535	13448.64
796.867	13433.05
797.198	13430.11
797.53	13389.89
797.862	13329.78
798.193	13420.4
798.525	13210.01
798.856	13213.17
799.188	13165.49
799.519	13085.94
799.85	13053.85
800.182	13033.06
800.513	13083.68
800.844	13009.11
801.175	12981.99
801.506	12991.48
801.837	12876.23
802.168	12848.21
802.499	12823.35
802.83	12840.75
803.161	12769.11
803.491	12737.93
803.822	12673.07
804.153	12657.48
804.483	12586.97
804.814	12562.57
805.145	12530.25
805.475	12516.24
805.805	12461.78
806.136	12414.77
806.466	12383.13
806.796	12432.17
807.126	12358.95
807.457	12385.85
807.787	12337.49
808.117	12210.94
808.447	12160.77
808.777	12243.48
809.107	12144.95
809.436	12123.71
809.766	12197.38
810.096	12030.38
810.426	12086.19
810.755	12050.94
811.085	12008.46
811.414	11976.37
811.744	11923.03
812.073	11876.26
812.403	11873.09
812.732	11799.42
813.061	11876.03
813.39	11747.9
813.719	11785.41
814.049	11807.56
814.378	11742.93
814.707	11725.53
815.036	11692.76
815.365	11621.35
815.693	11472.42
816.022	11613.89
816.351	11451.18
816.68	11505.87
817.008	11557.85
817.337	11430.17
817.665	11417.74
817.994	11439.43
818.322	11336.61
818.651	11372.09
818.979	11280.79
819.307	11376.83
819.636	11280.56
819.964	11217.29
820.292	11300.9
820.62	11242.83
820.948	11206.67
821.276	11286.89
821.604	11231.98
821.932	11188.82
822.259	11208.48
822.587	11250.96
822.915	11201.7
823.243	11270.17
823.57	11172.55
823.898	11156.5
824.225	11245.54
824.553	11204.18
824.88	11202.15
825.207	11234.69
825.535	11219.78
825.862	11143.39
826.189	11179.55
826.516	11105.43
826.843	11255.71
827.17	11219.1
827.497	11203.96
827.824	11174.81
828.151	11264.29
828.478	11257.29
828.805	11254.58
829.131	11174.35
829.458	11195.6
829.785	11118.08
830.111	11153.11
830.438	11210.96
830.764	11239.44
831.09	11217.52
831.417	11138.2
831.743	11208.48
832.069	11190.4
832.395	11131.64
832.722	11200.12
833.048	11139.33
833.374	11123.05
833.7	11163.73
834.026	11148.59
834.351	11087.58
834.677	11102.72
835.003	11206.22
835.329	11068.37
835.654	11059.33
835.98	11109.27
836.306	11031.76
836.631	10955.6
836.956	11068.82
837.282	10993.34
837.607	11052.1
837.932	10976.84
838.258	10995.83
838.583	10944.08
838.908	10827.7
839.233	10919.67
839.558	10870.63
839.883	10868.37
840.208	10843.29
840.533	10830.18
840.858	10918.99
841.182	10836.28
841.507	10797.41
841.832	10749.28
842.156	10711.54
842.481	10733.69
842.805	10808.94
843.13	10693.91
843.454	10742.5
843.778	10663.63
844.103	10600.36
844.427	10624.09
844.751	10548.83
845.075	10597.65
845.399	10580.02
845.723	10457.76
846.047	10533.69
846.371	10397.42
846.695	10402.4
847.019	10361.49
847.343	10355.17
847.666	10299.35
847.99	10176.64
848.313	10189.52
848.637	10172.35
848.96	10203.53
849.284	10110.65
849.607	10007.6
849.931	10105.23
850.254	9932.13
850.577	9852.35
850.9	9840.15
851.223	9900.94
851.546	9841.28
851.869	9758.12
852.192	9784.33
852.515	9682.87
852.838	9618.24
853.161	9693.71
853.483	9609.87
853.806	9592.47
854.129	9572.36
854.451	9600.16
854.774	9468.86
855.096	9401.97
855.419	9413.95
855.741	9419.14
856.063	9305.48
856.385	9328.53
856.708	9352.48
857.03	9284.23
857.352	9266.38
857.674	9284.23
857.996	9223.22
858.318	9167.85
858.64	9165.37
858.961	9239.49
859.283	9092.83
859.605	9039.27
859.926	9109.77
860.248	9143.67
860.57	9014.86
860.891	9045.82
861.212	9007.18
861.534	8948.87
861.855	8984.13
862.176	8956.33
862.498	8942.77
862.819	8951.36
863.14	8918.14
863.461	8888.54
863.782	8829.1
864.103	8837.92
864.424	8812.38
864.745	8808.99
865.065	8787.75
865.386	8778.26
865.707	8763.79
866.027	8765.15
866.348	8792.27
866.668	8716.34
866.989	8710.92
867.309	8693.06
867.63	8646.28
867.95	8621.65
868.27	8684.7
868.59	8644.93
868.91	8637.02
869.23	8593.18
869.55	8610.8
869.87	8579.62
870.19	8559.73
870.51	8593.86
870.83	8547.98
871.15	8498.27
871.469	8557.92
871.789	8501.43
872.109	8489.9
872.428	8458.04
872.748	8494.88
873.067	8520.64
873.386	8516.57
873.706	8431.6
874.025	8440.64
874.344	8361.32
874.663	8416.69
874.982	8350.02
875.301	8402.45
875.62	8369.23
875.939	8338.04
876.258	8416.46
876.577	8331.94
876.896	8368.33
877.214	8332.62
877.533	8360.87
877.852	8347.53
878.17	8290.59
878.489	8201.78
878.807	8225.5
879.125	8186.41
879.444	8179.4
879.762	8129.46
880.08	8200.19
880.398	8133.53
880.716	8129.69
881.034	8143.25
881.352	8091.95
881.67	8048.33
881.988	8046.75
882.306	8117.48
882.624	8046.53
882.941	8021.89
883.259	7980.09
883.577	8000.2
883.894	7954.78
884.212	8040.88
884.529	7968.79
884.846	7969.24
885.164	7859.41
885.481	7951.16
885.798	7897.83
886.115	7849.69
886.432	7858.28
886.75	7776.02
887.067	7861.45
887.383	7798.17
887.7	7851.5
888.017	7756.82
888.334	7726.08
888.651	7821.9
888.967	7714.56
889.284	7671.17
889.6	7677.72
889.917	7618.06
890.233	7646.99
890.55	7609.7
890.866	7665.29
891.182	7589.81
891.498	7494
891.815	7468.01
892.131	7460.55
892.447	7454
892.763	7448.58
893.079	7458.29
893.395	7373.78
893.71	7442.02
894.026	7388.46
894.342	7376.26
894.657	7319.77
894.973	7305.53
895.289	7300.56
895.604	7318.18
895.92	7165.42
896.235	7180.33
896.55	7180.11
896.865	7119.32
897.181	7226.89
897.496	7109.83
897.811	7054.24
898.126	7056.5
898.441	7033.22
898.756	6996.84
899.071	7013.33
899.386	7025.76
899.7	6898.08
900.015	6886.33
900.33	6899.66
900.644	6858.53
900.959	6878.87
901.273	6816.5
901.588	6826.44
901.902	6815.15
902.216	6790.74
902.531	6767.69
902.845	6733.57
903.159	6738.99
903.473	6695.37
903.787	6643.17
904.101	6658.09
904.415	6620.8
904.729	6535.15
905.042	6558.66
905.356	6557.07
905.67	6543.74
905.984	6534.48
906.297	6502.84
906.611	6438.21
906.924	6482.73
907.237	6419
907.551	6376.29
907.864	6351.43
908.177	6395.95
908.491	6359.79
908.804	6263.52
909.117	6263.52
909.43	6230.98
909.743	6184.2
910.056	6156.18
910.368	6202.51
910.681	6139.23
910.994	6110.31
911.307	6117.99
911.619	6059.69
911.932	6095.84
912.244	6037.09
912.557	6027.6
912.869	5966.81
913.181	5968.39
913.494	5969.52
913.806	5897.66
914.118	5866.47
914.43	5863.98
914.742	5824.44
915.054	5903.76
915.366	5763.87
915.678	5750.77
915.99	5750.54
916.302	5703.54
916.613	5716.87
916.925	5668.51
917.236	5711.67
917.548	5602.97
917.859	5633.26
918.171	5556.65
918.482	5570.66
918.794	5535.41
919.105	5540.38
919.416	5509.64
919.727	5464.22
920.038	5447.72
920.349	5427.61
920.66	5392.13
920.971	5443.88
921.282	5396.88
921.593	5353.26
921.903	5337.22
922.214	5331.79
922.525	5299.03
922.835	5267.39
923.146	5217.45
923.456	5256.09
923.767	5180.39
924.077	5221.29
924.387	5181.97
924.697	5132.7
925.008	5151.69
925.318	5118.02
925.628	5072.82
925.938	5017.45
926.248	5015.19
926.558	5028.07
926.867	4974.06
927.177	4937.23
927.487	4968.41
927.796	4906.04
928.106	4936.1
928.416	4874.18
928.725	4915.76
929.034	4838.47
929.344	4885.48
929.653	4812.94
929.962	4763.9
930.271	4762.54
930.581	4786.72
930.89	4736.56
931.199	4716.44
931.508	4700.4
931.817	4702.88
932.125	4690
932.434	4628.99
932.743	4605.26
933.051	4581.08
933.36	4596.67
933.669	4575.43
933.977	4564.81
934.286	4517.58
934.594	4503.79
934.902	4492.95
935.21	4468.99
935.519	4411.14
935.827	4469.67
936.135	4381.99
936.443	4377.7
936.751	4365.27
937.059	4358.94
937.367	4355.78
937.674	4339.28
937.982	4331.37
938.29	4263.12
938.597	4275.55
938.905	4214.54
939.213	4209.34
939.52	4207.53
939.827	4219.73
940.135	4168.44
940.442	4159.17
940.749	4167.76
941.056	4162.33
941.363	4079.85
941.67	4073.75
941.977	4115.1
942.284	4092.73
942.591	4089.79
942.898	4034.2
943.205	4009.12
943.511	4008.21
943.818	3995.56
944.125	3950.14
944.431	3956.01
944.738	3916.01
945.044	3905.17
945.35	3889.8
945.657	3901.32
945.963	3895.22
946.269	3843.02
946.575	3853.87
946.881	3841.66
947.187	3835.56
947.493	3752.4
947.799	3762.12
948.105	3789.24
948.41	3714.44
948.716	3766.64
949.022	3688
949.327	3670.82
949.633	3685.06
949.938	3640.31
950.244	3665.4
950.549	3608
950.854	3605.29
951.16	3612.52
951.465	3602.8
951.77	3554.67
952.075	3568.68
952.38	3570.94
952.685	3544.5
952.99	3505.85
953.294	3503.37
953.599	3472.41
953.904	3483.71
954.209	3464.73
954.513	3426.08
954.818	3434.44
955.122	3394.44
955.426	3403.03
955.731	3387.21
956.035	3355.35
956.339	3362.13
956.643	3358.97
956.948	3290.49
957.252	3336.82
957.556	3290.27
957.86	3322.13
958.163	3260.44
958.467	3254.79
958.771	3238.06
959.075	3229.7
959.378	3211.17
959.682	3215.47
959.985	3204.39
960.289	3191.74
960.592	3205.52
960.896	3188.12
961.199	3126.2
961.502	3110.61
961.805	3103.6
962.108	3120.55
962.411	3070.61
962.714	3072.87
963.017	3069.26
963.32	3063.38
963.623	3052.53
963.926	3036.04
964.228	3046.88
964.531	3019.31
964.833	2994.91
965.136	2961.24
965.438	3015.7
965.741	2932.54
966.043	2963.04
966.345	2911.29
966.648	2888.7
966.95	2900.45
967.252	2888.24
967.554	2870.16
967.856	2843.05
968.158	2818.19
968.46	2854.8
968.761	2848.7
969.063	2808.92
969.365	2809.15
969.666	2827.45
969.968	2777.06
970.269	2767.57
970.571	2742.94
970.872	2740.22
971.174	2723.05
971.475	2731.41
971.776	2714.46
972.077	2679.89
972.378	2678.53
972.679	2669.94
972.98	2661.36
973.281	2647.35
973.582	2664.75
973.883	2625.2
974.183	2618.87
974.484	2611.64
974.785	2591.75
975.085	2576.84
975.386	2578.42
975.686	2561.25
975.986	2556.95
976.287	2548.82
976.587	2534.13
976.887	2526.67
977.187	2499.1
977.487	2517.41
977.787	2510.63
978.087	2507.91
978.387	2477.86
978.687	2496.62
978.987	2478.31
979.286	2434.24
979.586	2440.35
979.885	2424.98
980.185	2421.14
980.484	2384.75
980.784	2382.95
981.083	2400.35
981.382	2343.17
981.682	2354.02
981.981	2342.49
982.28	2330.74
982.579	2295.26
982.878	2303.17
983.177	2299.78
983.475	2309.28
983.774	2272.67
984.073	2316.96
984.372	2280.12
984.67	2310.41
984.969	2277.86
985.267	2253.68
985.566	2231.31
985.864	2235.83
986.162	2197.87
986.461	2198.09
986.759	2202.16
987.057	2177.3
987.355	2156.96
987.653	2184.98
987.951	2150.64
988.249	2103.18
988.547	2133.01
988.844	2132.78
989.142	2117.64
989.44	2085.55
989.737	2099.79
990.035	2089.62
990.332	2126.46
990.63	2088.72
990.927	2080.81
991.224	2039.68
991.521	2011.2
991.819	2040.13
992.116	2028.6
992.413	2005.1
992.71	2007.59
993.006	1987.7
993.303	1983.18
993.6	1988.61
993.897	1960.36
994.193	1988.38
994.49	1961.71
994.787	1952.22
995.083	1957.65
995.379	1930.3
995.676	1918.33
995.972	1914.26
996.268	1893.47
996.565	1915.16
996.861	1898.21
997.157	1879.68
997.453	1830.42
997.749	1869.51
998.044	1817.76
998.34	1859.12
998.636	1844.88
998.932	1820.93
999.227	1796.75
999.523	1811.44
999.818	1801.94
1000.114	1798.55
1000.409	1780.25
1000.704	1774.83
1001	1763.53
1001.295	1758.78
1001.59	1777.31
1001.885	1716.97
1002.18	1690.53
1002.475	1702.29
1002.77	1692.57
1003.065	1666.13
1003.359	1688.5
1003.654	1715.62
1003.949	1672.68
1004.243	1648.28
1004.538	1666.13
1004.832	1632.01
1005.127	1642.4
1005.421	1651.21
1005.715	1621.84
1006.009	1640.37
1006.304	1604.21
1006.598	1588.39
1006.892	1586.13
1007.186	1562.63
1007.48	1566.47
1007.773	1569.63
1008.067	1546.13
1008.361	1542.29
1008.655	1523.76
1008.948	1528.73
1009.242	1514.27
1009.535	1519.69
1009.829	1496.42
1010.122	1483.08
1010.415	1480.6
1010.708	1447.38
1011.001	1460.26
1011.295	1462.29
1011.588	1441.5
1011.881	1438.79
1012.173	1440.82
1012.466	1457.55
1012.759	1450.54
1013.052	1422.07
1013.344	1399.92
1013.637	1412.12
1013.93	1414.61
1014.222	1383.42
1014.514	1392.46
1014.807	1367.15
1015.099	1372.12
1015.391	1355.85
1015.683	1331.22
1015.976	1347.94
1016.268	1355.85
1016.56	1323.54
1016.851	1317.44
1017.143	1299.81
1017.435	1308.4
1017.727	1314.73
1018.018	1299.58
1018.31	1306.14
1018.602	1254.16
1018.893	1290.77
1019.185	1235.41
1019.476	1222.98
1019.767	1236.08
1020.058	1229.08
1020.35	1244.67
1020.641	1230.66
1020.932	1218
1021.223	1192.92
1021.514	1192.02
1021.804	1185.24
1022.095	1177.33
1022.386	1166.03
1022.677	1177.55
1022.967	1151.34
1023.258	1141.17
1023.548	1156.31
1023.839	1167.84
1024.129	1118.35
1024.419	1140.72
1024.709	1149.98
1025	1112.47
1025.29	1091.91
1025.58	1082.42
1025.87	1093.49
1026.16	1100.72
1026.449	1052.36
1026.739	1083.09
1027.029	1045.13
1027.319	1072.47
1027.608	1055.75
1027.898	1040.83
1028.187	1021.85
1028.477	1034.51
1028.766	1035.86
1029.055	1010.78
1029.344	1006.03
1029.634	1010.33
1029.923	1006.71
1030.212	1011
1030.501	1006.03
1030.79	987.95
1031.078	973.04
1031.367	978.69
1031.656	973.27
1031.945	942.31
1032.233	961.06
1032.522	946.37
1032.81	971.68
1033.099	941.63
1033.387	936.2
1033.675	907.96
1033.963	930.55
1034.251	895.75
1034.54	887.39
1034.828	902.31
1035.116	907.28
1035.403	900.72
1035.691	910.44
1035.979	893.04
1036.267	859.37
1036.554	858.47
1036.842	862.76
1037.129	867.28
1037.417	851.69
1037.704	866.83
1037.992	833.38
1038.279	832.7
1038.566	814.63
1038.853	814.63
1039.14	814.63
