Data from cardboard_FLMS001491_070.txt Node
Date: Tue Feb 07 11:39:58 GMT 2017
User: dcchb
Spectrometer: FLMS00149
Trigger mode: 0
Integration Time (sec): 2.000000E-2
Scans to average: 10
Electric dark correction enabled: true
Nonlinearity correction enabled: false
Boxcar width: 0
XAxis mode: Wavelengths
Number of Pixels in Spectrum: 2048
>>>>>Begin Spectral Data<<<<<
341.393	-7.34
341.776	-7.34
342.16	-7.34
342.543	-75.14
342.927	-73.11
343.31	-71.98
343.693	-78.98
344.077	-50.73
344.46	-49.15
344.843	-57.06
345.226	-20
345.61	-22.94
345.993	-37.63
346.376	-7.12
346.759	10.73
347.142	8.93
347.525	46.44
347.908	63.39
348.291	64.07
348.674	99.32
349.057	102.71
349.44	113.1
349.823	134.12
350.206	181.35
350.588	198.75
350.971	230.39
351.354	230.16
351.737	224.06
352.119	255.47
352.502	267.68
352.884	287.56
353.267	283.95
353.65	312.65
354.032	300.9
354.414	314.46
354.797	318.3
355.179	314.23
355.562	344.28
355.944	341.35
356.326	348.58
356.709	364.17
357.091	348.35
357.473	364.62
357.855	360.33
358.238	363.72
358.62	359.65
359.002	349.48
359.384	351.06
359.766	340.67
360.148	348.8
360.53	364.85
360.912	341.57
361.294	349.03
361.676	351.52
362.057	351.74
362.439	343.61
362.821	331.4
363.203	311.07
363.584	348.13
363.966	332.08
364.348	314
364.729	322.59
365.111	321.23
365.493	337.28
365.874	337.73
366.256	328.24
366.637	325.75
367.019	317.17
367.4	321.23
367.781	338.41
368.163	332.53
368.544	295.7
368.925	310.61
369.306	337.96
369.688	325.53
370.069	331.4
370.45	332.76
370.831	310.39
371.212	312.87
371.593	325.3
371.974	317.17
372.355	320.56
372.736	336.83
373.117	314.23
373.498	319.88
373.879	308.81
374.26	317.39
374.641	321.01
375.021	325.98
375.402	334.57
375.783	338.64
376.163	320.33
376.544	310.39
376.925	341.35
377.305	323.27
377.686	327.56
378.066	342.02
378.447	322.59
378.827	321.91
379.208	342.25
379.588	351.52
379.968	344.06
380.349	348.8
380.729	351.06
381.109	358.07
381.489	342.7
381.87	345.41
382.25	358.3
382.63	365.98
383.01	347.67
383.39	356.94
383.77	361.91
384.15	391.74
384.53	365.75
384.91	363.95
385.29	348.35
385.67	370.72
386.049	371.85
386.429	361.69
386.809	357.62
387.189	363.04
387.568	358.52
387.948	358.3
388.328	398.07
388.707	379.31
389.087	359.65
389.466	384.06
389.846	363.49
390.225	386.09
390.605	391.06
390.984	380.67
391.363	408.01
391.743	393.55
392.122	403.94
392.501	394.68
392.881	401.01
393.26	401.01
393.639	402.59
394.018	405.75
394.397	404.62
394.776	405.53
395.155	417.05
395.534	399.65
395.913	403.49
396.292	429.03
396.671	410.05
397.05	436.49
397.429	441.46
397.808	409.82
398.186	406.2
398.565	400.55
398.944	416.83
399.323	408.01
399.701	446.2
400.08	423.6
400.458	429.48
400.837	449.37
401.215	439.42
401.594	435.36
401.972	443.49
402.351	439.88
402.729	445.53
403.107	470.61
403.486	440.1
403.864	454.56
404.242	442.14
404.62	474.22
404.999	479.42
405.377	444.17
405.755	470.61
406.133	480.55
406.511	493.89
406.889	476.94
407.267	497.28
407.645	499.76
408.023	494.79
408.401	483.94
408.779	484.62
409.156	502.47
409.534	497.5
409.912	505.18
410.29	525.07
410.667	510.16
411.045	508.12
411.422	539.08
411.8	537.05
412.178	528.23
412.555	535.47
412.933	540.21
413.31	549.03
413.687	546.54
414.065	549.93
414.442	562.81
414.819	562.58
415.197	558.52
415.574	580.66
415.951	569.36
416.328	584.05
416.705	593.54
417.082	564.17
417.46	589.25
417.837	592.41
418.214	601.68
418.591	582.02
418.967	600.55
419.344	616.59
419.721	631.73
420.098	616.14
420.475	605.75
420.852	636.25
421.228	634.45
421.605	641.68
421.982	641.9
422.358	624.73
422.735	658.17
423.111	648.68
423.488	655.24
423.864	648.68
424.241	650.72
424.617	682.58
424.994	685.74
425.37	683.94
425.746	678.06
426.123	674.45
426.499	687.78
426.875	692.3
427.251	713.54
427.627	705.41
428.003	710.38
428.379	717.38
428.756	732.07
429.132	730.72
429.507	730.04
429.883	740.43
430.259	773.88
430.635	756.7
431.011	765.74
431.387	762.8
431.763	774.78
432.138	803.03
432.514	774.78
432.89	811.84
433.265	812.52
433.641	814.55
434.016	828.79
434.392	855.46
434.767	851.16
435.143	850.26
435.518	853.88
435.894	829.24
436.269	869.02
436.644	897.72
437.02	889.36
437.395	878.96
437.77	905.17
438.145	899.98
438.52	932.07
438.895	923.25
439.271	924.16
439.646	926.19
440.021	965.29
440.395	946.08
440.77	956.02
441.145	944.95
441.52	985.62
441.895	944.95
442.27	996.7
442.645	1000.09
443.019	985.62
443.394	993.08
443.769	993.08
444.143	970.93
444.518	996.7
444.892	1018.62
445.267	995.12
445.641	1036.24
446.016	1031.5
446.39	1026.53
446.764	1076.24
447.139	1038.05
447.513	1045.51
447.887	1073.76
448.262	1057.49
448.636	1061.33
449.01	1090.93
449.384	1071.05
449.758	1097.49
450.132	1112.4
450.506	1112.85
450.88	1123.47
451.254	1134.32
451.628	1124.38
452.002	1147.65
452.376	1153.98
452.75	1141.55
453.123	1186.52
453.497	1173.87
453.871	1200.08
454.244	1210.48
454.618	1204.15
454.992	1234.43
455.365	1224.49
455.739	1245.5
456.112	1260.19
456.486	1278.05
456.859	1277.14
457.232	1310.14
457.606	1326.41
457.979	1348.55
458.352	1340.64
458.725	1365.95
459.099	1400.75
459.472	1414.77
459.845	1393.52
460.218	1391.71
460.591	1425.16
460.964	1453.86
461.337	1478.27
461.71	1497.25
462.083	1478.49
462.456	1484.14
462.829	1510.36
463.201	1529.34
463.574	1524.37
463.947	1577.92
464.32	1589.45
464.692	1622.67
465.065	1598.04
465.438	1626.74
465.81	1640.97
466.183	1691.14
466.555	1722.55
466.928	1704.93
467.3	1721.2
467.672	1748.99
468.045	1775.21
468.417	1790.57
468.789	1785.15
469.161	1838.71
469.534	1852.27
469.906	1912.83
470.278	1922.77
470.65	1926.62
471.022	1966.84
471.394	1995.99
471.766	2017.01
472.138	2047.97
472.51	2063.56
472.882	2118.02
473.253	2116.67
473.625	2149.21
473.997	2205.25
474.369	2213.16
474.74	2229.43
475.112	2265.82
475.484	2303.78
475.855	2324.12
476.227	2342.65
476.598	2435.76
476.97	2464.45
477.341	2486.83
477.713	2531.57
478.084	2568.63
478.455	2654.73
478.827	2649.99
479.198	2709.65
479.569	2718.91
479.94	2778.57
480.311	2774.73
480.682	2885.01
481.053	2916.65
481.424	2979.7
481.795	3013.82
482.166	3055.63
482.537	3120.03
482.908	3176.53
483.279	3186.7
483.65	3282.29
484.021	3305.79
484.391	3348.95
484.762	3400.48
485.133	3426.46
485.503	3516.18
485.874	3536.52
486.244	3598.66
486.615	3646.57
486.985	3686.12
487.356	3773.8
487.726	3832.55
488.097	3968.82
488.467	3908.94
488.837	4017.63
489.207	4065.09
489.578	4125.65
489.948	4146.22
490.318	4199.32
490.688	4230.06
491.058	4270.96
491.428	4389.38
491.798	4409.71
492.168	4456.27
492.538	4526.77
492.908	4594.79
493.278	4662.82
493.648	4690.39
494.017	4745.07
494.387	4814.22
494.757	4842.02
495.126	4886.54
495.496	4965.41
495.866	4973.99
496.235	5017.83
496.605	5127.89
496.974	5141.67
497.344	5222.35
497.713	5280.43
498.082	5321.1
498.452	5347.09
498.821	5437.03
499.19	5470.03
499.559	5529.91
499.928	5562
500.298	5595.22
500.667	5653.52
501.036	5691.26
501.405	5760.64
501.774	5757.48
502.143	5784.82
502.512	5904.82
502.88	5964.25
503.249	6014.19
503.618	6067.3
503.987	6078.82
504.356	6085.83
504.724	6212.38
505.093	6223.9
505.462	6286.05
505.83	6316.78
506.199	6386.16
506.567	6468.87
506.936	6510.22
507.304	6601.97
507.672	6623.67
508.041	6673.84
508.409	6775.3
508.777	6825.24
509.145	6909.99
509.514	6952.47
509.882	6994.96
510.25	7041.96
510.618	7087.16
510.986	7136.65
511.354	7292.12
511.722	7340.03
512.09	7378.9
512.458	7357.66
512.826	7506.13
513.193	7640.36
513.561	7619.12
513.929	7658.44
514.297	7840.13
514.664	7858.44
515.032	7936.4
515.4	8018.89
515.767	8140.46
516.135	8165.1
516.502	8134.14
516.869	8352.66
517.237	8397.18
517.604	8381.14
517.972	8496.16
518.339	8555.14
518.706	8586.78
519.073	8724.4
519.44	8794.46
519.808	8841.46
520.175	8983.61
520.542	9081.68
520.909	9152.41
521.276	9164.62
521.643	9297.5
522.009	9405.74
522.376	9478.06
522.743	9642.8
523.11	9738.39
523.477	9782
523.843	9872.62
524.21	10043.92
524.577	10132.95
524.943	10185.61
525.31	10208.66
525.676	10290.01
526.043	10417.47
526.409	10576.56
526.776	10730
527.142	10718.25
527.508	10780.85
527.874	10906.49
528.241	11009.09
528.607	11085.47
528.973	11225.35
529.339	11278.01
529.705	11458.34
530.071	11546.93
530.437	11606.14
530.803	11726.58
531.169	11814.27
531.535	11821.27
531.901	11889.52
532.267	12066.46
532.632	12144.88
532.998	12171.54
533.364	12373.57
533.73	12400.69
534.095	12529.73
534.461	12630.52
534.826	12736.05
535.192	12781.7
535.557	12894.01
535.923	12903.73
536.288	12975.59
536.653	13118.64
537.019	13084.51
537.384	13240.22
537.749	13283.61
538.114	13410.38
538.479	13435.92
538.845	13590.72
539.21	13607.89
539.575	13682.24
539.94	13809.02
540.305	13878.39
540.67	13891.95
541.034	14070.93
541.399	14173.3
541.764	14144.15
542.129	14233.41
542.494	14378.94
542.858	14366.06
543.223	14493.29
543.587	14597.02
543.952	14610.58
544.316	14758.37
544.681	14747.97
545.045	14812.15
545.41	14960.17
545.774	14973.96
546.138	15112.71
546.503	15221.63
546.867	15275.19
547.231	15387.96
547.595	15614.39
547.959	15538.46
548.324	15667.05
548.688	15683.54
549.052	15860.49
549.416	15961.28
549.779	15881.5
550.143	15994.72
550.507	16225
550.871	16221.38
551.235	16282.4
551.599	16472.9
551.962	16477.65
552.326	16579.56
552.689	16654.82
553.053	16745.21
553.417	16740.46
553.78	16983.4
554.143	17031.3
554.507	17221.81
554.87	17227.68
555.234	17391.52
555.597	17431.29
555.96	17498.86
556.323	17581.57
556.686	17701.12
557.05	17900.66
557.413	17896.37
557.776	17986.76
558.139	18180.2
558.502	18193.98
558.865	18274.66
559.228	18501.77
559.59	18559.17
559.953	18571.6
560.316	18884.59
560.679	18945.15
561.041	19087.75
561.404	19250.91
561.767	19288.42
562.129	19268.53
562.492	19461.07
562.854	19520.5
563.217	19616.55
563.579	19712.59
563.941	19874.62
564.304	19976.08
564.666	20207.72
565.028	20284.55
565.39	20245
565.753	20485.68
566.115	20609.29
566.477	20637.76
566.839	20852.22
567.201	20977.64
567.563	21006.79
567.925	21259.44
568.287	21186.67
568.648	21312.77
569.01	21501.69
569.372	21628.92
569.734	21512.32
570.095	21729.49
570.457	21898.97
570.819	22029.82
571.18	22002.02
571.542	22084.96
571.903	22180.32
572.265	22264.84
572.626	22421.22
572.987	22533.53
573.349	22648.78
573.71	22768.1
574.071	22825.73
574.432	22924.03
574.794	23188.88
575.155	23080.41
575.516	23068.43
575.877	23274.76
576.238	23199.5
576.599	23468.65
576.96	23440.63
577.32	23549.32
577.681	23674.97
578.042	23748.87
578.403	23797.45
578.763	23823.89
579.124	23847.85
579.485	24034.74
579.845	24195.86
580.206	24068.18
580.566	24259.14
580.927	24230.89
581.287	24451.45
581.648	24280.15
582.008	24574.38
582.368	24577.32
582.728	24668.16
583.089	24580.26
583.449	24605.57
583.809	24702.06
584.169	24737.99
584.529	24846.47
584.889	25018.44
585.249	24937.08
585.609	24880.36
585.969	25004.88
586.329	25000.36
586.688	25088.27
587.048	25181.6
587.408	25097.53
587.768	25123.29
588.127	25160.58
588.487	25275.83
588.846	25507.69
589.206	25319.9
589.565	25393.34
589.925	25516.96
590.284	25543.85
590.643	25680.79
591.003	25664.3
591.362	25753.56
591.721	25753.79
592.08	25803.5
592.44	26017.73
592.799	25850.05
593.158	25784.29
593.517	25996.94
593.876	25903.84
594.235	25990.16
594.593	26012.76
594.952	26082.37
595.311	26079.2
595.67	26278.74
596.029	26421.11
596.387	26258.41
596.746	26465.86
597.104	26276.48
597.463	26366.2
597.822	26572.52
598.18	26349.7
598.538	26349.02
598.897	26579.08
599.255	26419.08
599.613	26836.47
599.972	26763.03
600.33	26799.41
600.688	26664.5
601.046	26809.8
601.404	26915.79
601.762	26866.07
602.12	27076.46
602.478	27103.36
602.836	27135.9
603.194	27014.77
603.552	27074.2
603.91	27026.3
604.268	27134.31
604.625	26964.6
604.983	27272.84
605.341	27182.22
605.698	27373.18
606.056	27399.39
606.413	27368.66
606.771	27582.21
607.128	27429
607.485	27475.55
607.843	27531.82
608.2	27688.88
608.557	27739.95
608.914	27701.08
609.272	27810.91
609.629	27943.11
609.986	28078.24
610.343	27971.58
610.7	28080.96
611.057	28038.25
611.414	28176.55
611.771	28300.39
612.127	28375.41
612.484	28355.53
612.841	28492.47
613.198	28379.25
613.554	28449.31
613.911	28518.01
614.267	28633.03
614.624	28567.5
614.98	28632.58
615.337	28796.64
615.693	28674.16
616.05	28714.61
616.406	28892.69
616.762	28817.43
617.118	28891.78
617.475	28997.32
617.831	28985.57
618.187	29055.62
618.543	29156.63
618.899	29382.39
619.255	29223.3
619.611	29282.96
619.967	29370.41
620.323	29520.01
620.678	29308.04
621.034	29357.99
621.39	29291.55
621.746	29461.49
622.101	29769.27
622.457	29593.46
622.812	29550.97
623.168	29595.94
623.523	29695.83
623.879	29789.61
624.234	29644.98
624.589	29684.98
624.945	29727.01
625.3	29710.07
625.655	29774.02
626.01	29685.66
626.365	29861.93
626.72	29874.81
627.075	29857.63
627.43	29778.77
627.785	29798.65
628.14	29826.67
628.495	29947.8
628.85	29925.2
629.205	29806.33
629.559	30035.93
629.914	29714.36
630.269	29873.45
630.623	29952.55
630.978	29748.03
631.332	29969.95
631.687	30007.23
632.041	29819.89
632.396	30004.52
632.75	29879.1
633.104	29942.6
633.459	29830.52
633.813	29769.27
634.167	29781.7
634.521	29802.04
634.875	29945.99
635.229	29825.09
635.583	29650.86
635.937	29744.87
636.291	29644.31
636.645	29701.7
636.999	29673.68
637.352	29843.17
637.706	29502.16
638.06	29587.13
638.413	29640.46
638.767	29593.91
639.121	29701.48
639.474	29435.95
639.828	29492.9
640.181	29495.83
640.534	29593.01
640.888	29545.55
641.241	29491.99
641.594	29534.93
641.947	29614.02
642.301	29547.13
642.654	29411.54
643.007	29576.06
643.36	29365.67
643.713	29468.49
644.066	29587.36
644.419	29226.92
644.771	29134.26
645.124	28790.99
645.477	28868.05
645.83	28829.64
646.182	28695.86
646.535	28567.27
646.888	28682.07
647.24	28528.18
647.593	28751
647.945	28685.23
648.298	28488.86
648.65	28449.08
649.002	28447.73
649.355	28613.6
649.707	28460.38
650.059	28672.13
650.411	28938.79
650.763	28981.27
651.115	29256.29
651.467	29344.2
651.819	29205.45
652.171	29180.59
652.523	29200.7
652.875	29187.37
653.227	29029.63
653.578	29252
653.93	29146.92
654.282	29205.22
654.633	29136.97
654.985	29115.96
655.337	29175.39
655.688	29204.54
656.039	29208.16
656.391	28959.58
656.742	29147.37
657.094	28933.36
657.445	29190.08
657.796	29106.24
658.147	29025.34
658.498	29027.15
658.849	29184.43
659.2	29029.63
659.551	29058.56
659.902	29132.45
660.253	29008.16
660.604	29141.72
660.955	29007.49
661.306	29081.38
661.656	29055.17
662.007	29129.74
662.358	29121.61
662.708	29160.93
663.059	29043.19
663.409	28953.48
663.76	29079.8
664.11	29160.02
664.461	29123.87
664.811	29248.38
665.161	29178.33
665.511	29041.38
665.862	29141.49
666.212	29308.27
666.562	29251.55
666.912	29196.63
667.262	29244.09
667.612	29105.11
667.962	29254.49
668.312	29138.1
668.662	29438.89
669.011	29235.73
669.361	29165
669.711	29155.96
670.06	29106.47
670.41	29063.08
670.76	29051.55
671.109	29246.12
671.459	29061.04
671.808	29105.79
672.157	29106.01
672.507	28965
672.856	29012.23
673.205	29001.38
673.554	29157.31
673.904	29051.1
674.253	29143.98
674.602	28993.47
674.951	28761.16
675.3	28651.34
675.649	29049.97
675.998	28985.57
676.346	29072.34
676.695	29092.68
677.044	28923.65
677.393	28950.09
677.741	29091.1
678.09	28944.44
678.438	28893.14
678.787	28927.04
679.135	28984.21
679.484	28889.97
679.832	28889.97
680.181	28720.26
680.529	28847.94
680.877	28736.08
681.225	28755.52
681.573	29054.94
681.922	28720.26
682.27	28615.86
682.618	28732.92
682.966	28485.47
683.314	28620.15
683.661	28549.42
684.009	28451.34
684.357	28389.42
684.705	28403.21
685.053	28448.18
685.4	28384.45
685.748	28174.51
686.095	28185.81
686.443	28159.6
686.79	28122.09
687.138	28334.06
687.485	28291.12
687.832	28110.79
688.18	28172.71
688.527	27875.99
688.874	28060.62
689.221	27911.47
689.568	27875.76
689.915	27880.28
690.262	27761.19
690.609	27674.41
690.956	27658.14
691.303	27681.87
691.65	27532.04
691.997	27487.75
692.344	27380.64
692.69	27378.15
693.037	27401.65
693.383	27128.21
693.73	27340.41
694.077	27098.16
694.423	27123.69
694.769	27140.87
695.116	26967.77
695.462	26979.97
695.808	26867.43
696.155	26875.79
696.501	26702.46
696.847	26712.4
697.193	26582.01
697.539	26612.07
697.885	26435.12
698.231	26442.36
698.577	26380.44
698.923	26437.84
699.269	26240.1
699.614	26228.35
699.96	26171.18
700.306	26234.9
700.651	25975.48
700.997	25892.31
701.342	25970.96
701.688	25896.83
702.033	25788.59
702.379	25848.92
702.724	25701.58
703.069	25888.47
703.415	25383.17
703.76	25491.87
704.105	25559.44
704.45	25450.97
704.795	25343.4
705.14	25337.98
705.485	25236.51
705.83	25117.87
706.175	25185.44
706.52	25170.3
706.865	25104.09
707.209	25091.88
707.554	24979.12
707.899	24948.16
708.243	24817.99
708.588	24866.13
708.932	24694.83
709.277	24674.04
709.621	24711.33
709.966	24528.51
710.31	24540.71
710.654	24507.72
710.998	24485.8
711.342	24487.38
711.687	24439.02
712.031	24315.63
712.375	24258.46
712.719	24360.83
713.063	24283.77
713.407	24381.17
713.75	24173.04
714.094	24182.08
714.438	24005.36
714.782	24097.33
715.125	24049.88
715.469	23960.84
715.812	23932.82
716.156	23862.76
716.499	23793.84
716.843	23952.93
717.186	23697.12
717.53	23809.88
717.873	23846.94
718.216	23799.71
718.559	23735.08
718.902	23527.4
719.246	23618.7
719.589	23571.02
719.932	23471.59
720.275	23413.06
720.617	23410.57
720.96	23354.08
721.303	23340.52
721.646	23363.79
721.989	23310.69
722.331	23256
722.674	23302.1
723.016	23294.87
723.359	23271.14
723.701	23228.2
724.044	23036.8
724.386	23110.47
724.729	23066.63
725.071	23135.32
725.413	23041.77
725.755	23107.08
726.097	23117.7
726.439	22816.01
726.782	22940.53
727.124	23110.69
727.465	22936.46
727.807	22903.69
728.149	22840.42
728.491	22930.81
728.833	22945.05
729.175	22910.25
729.516	22744.6
729.858	22827.31
730.199	22771.04
730.541	22787.99
730.882	22678.84
731.224	22810.36
731.565	22719.29
731.906	22700.53
732.248	22716.35
732.589	22626.18
732.93	22575.56
733.271	22532.4
733.612	22608.11
733.953	22706.41
734.294	22434.78
734.635	22474.1
734.976	22536.02
735.317	22487.66
735.658	22345.06
735.999	22496.24
736.339	22489.47
736.68	22522.91
737.021	22373.99
737.361	22298.28
737.702	22445.85
738.042	22418.28
738.383	22392.29
738.723	22360.88
739.063	22256.48
739.404	22300.32
739.744	22224.84
740.084	22204.95
740.424	22186.2
740.764	22198.63
741.104	22280.43
741.444	22146.42
741.784	22129.93
742.124	22229.13
742.464	22168.34
742.804	22139.42
743.143	22068.23
743.483	22038.63
743.823	22093.32
744.162	22022.58
744.502	22141
744.841	21946.43
745.181	22169.93
745.52	21979.42
745.86	22064.39
746.199	22121.79
746.538	21896.71
746.877	21985.98
747.216	21945.07
747.556	21985.3
747.895	22007.67
748.234	21837.05
748.573	21855.13
748.911	21918.86
749.25	21849.71
749.589	21727.9
749.928	21854.45
750.267	21986.65
750.605	21669.37
750.944	21736.26
751.283	21627.79
751.621	21630.5
751.96	21634.8
752.298	21644.97
752.636	21733.55
752.975	21579.66
753.313	21547.8
753.651	21610.84
753.989	21507.12
754.327	21522.71
754.666	21378.76
755.004	21522.03
755.342	21575.82
755.679	21459.66
756.017	21216.5
756.355	21435.93
756.693	21266.67
757.031	21245.2
757.368	21184.19
757.706	21214.7
758.044	21090.18
758.381	21138.54
758.719	21154.59
759.056	21160.46
759.394	21092.44
759.731	20856.29
760.068	20871.2
760.405	20910.52
760.743	20912.33
761.08	20915.72
761.417	20842.05
761.754	20807.25
762.091	20752.56
762.428	20647.03
762.765	20583.53
763.102	20625.79
763.438	20526.8
763.775	20320.03
764.112	20421.95
764.449	20498.11
764.785	20366.81
765.122	20256.53
765.458	20179.24
765.795	20160.26
766.131	20181.5
766.467	20135.63
766.804	19981.73
767.14	19980.38
767.476	20077.1
767.812	19959.81
768.148	20007.95
768.485	19780.38
768.821	19661.06
769.157	19686.38
769.492	19635.98
769.828	19590.56
770.164	19466.95
770.5	19377.68
770.836	19388.3
771.171	19395.54
771.507	19287.52
771.842	19083
772.178	19078.03
772.513	19104.47
772.849	19051.82
773.184	18916
773.519	18967.52
773.855	18940.18
774.19	18734.76
774.525	18749.68
774.86	18712.39
775.195	18671.26
775.53	18511.49
775.865	18460.64
776.2	18407.54
776.535	18297.48
776.87	18336.35
777.205	18191.95
777.539	18094.1
777.874	18198.96
778.209	18063.37
778.543	17973.2
778.878	17893.43
779.212	17946.76
779.547	17865.86
779.881	17893.65
780.215	17769.82
780.55	17744.73
780.884	17601.68
781.218	17665.86
781.552	17560.1
781.886	17495.02
782.22	17446.66
782.554	17369.6
782.888	17164.18
783.222	17221.13
783.556	17127.35
783.889	17125.54
784.223	17079.66
784.557	17007.35
784.89	16916.05
785.224	16863.62
785.557	16866.11
785.891	16820.91
786.224	16701.37
786.558	16688.71
786.891	16518.1
787.224	16598.55
787.557	16429.51
787.891	16502.5
788.224	16456.86
788.557	16370.53
788.89	16368.04
789.223	16299.12
789.556	16211.44
789.888	16179.12
790.221	16122.85
790.554	15976.87
790.887	15912.24
791.219	15912.01
791.552	15858.45
791.884	15880.83
792.217	15783.2
792.549	15749.98
792.882	15710.89
793.214	15592.02
793.546	15729.19
793.879	15539.14
794.211	15443.55
794.543	15490.78
794.875	15402.19
795.207	15505.24
795.539	15369.2
795.871	15371.46
796.203	15291.91
796.535	15138.47
796.867	15126.72
797.198	15203.1
797.53	15136.66
797.862	14970.79
798.193	15055.99
798.525	14849.89
798.856	14903.9
799.188	14748.2
799.519	14788.65
799.85	14697.81
800.182	14690.57
800.513	14626.4
800.844	14623.23
801.175	14605.6
801.506	14631.14
801.837	14582.78
802.168	14473.63
802.499	14379.85
802.83	14343.46
803.161	14362.9
803.491	14259.4
803.822	14329.68
804.153	14213.98
804.483	14128.1
804.814	14162.23
805.145	14123.81
805.475	14114.54
805.805	14007.43
806.136	14046.98
806.466	14029.8
806.796	13966.3
807.126	13816.47
807.457	13772.41
807.787	13862.12
808.117	13778.51
808.447	13643.37
808.777	13847.88
809.107	13733.54
809.436	13616.25
809.766	13605.4
810.096	13625.07
810.426	13556.59
810.755	13500.32
811.085	13508.46
811.414	13377.84
811.744	13392.76
812.073	13332.64
812.403	13358.41
812.732	13223.49
813.061	13268.92
813.39	13212.19
813.719	13247.22
814.049	13293.55
814.378	13183.27
814.707	13069.6
815.036	13142.37
815.365	13071.18
815.693	12956.61
816.022	13032.09
816.351	12954.8
816.68	12865.99
817.008	12963.84
817.337	12850.17
817.665	12763.39
817.994	12853.11
818.322	12762.49
818.651	12726.11
818.979	12704.19
819.307	12698.31
819.636	12766.56
819.964	12653.34
820.292	12723.62
820.62	12660.57
820.948	12680.01
821.276	12665.99
821.604	12593.45
821.932	12654.47
822.259	12593.68
822.587	12631.42
822.915	12600.23
823.243	12617.86
823.57	12564.3
823.898	12602.72
824.225	12508.94
824.553	12564.75
824.88	12620.57
825.207	12576.73
825.535	12593
825.862	12642.49
826.189	12520.01
826.516	12569.95
826.843	12623.51
827.17	12538.99
827.497	12626
827.824	12599.1
828.151	12701.47
828.478	12571.53
828.805	12527.69
829.131	12593.23
829.458	12640.01
829.785	12442.5
830.111	12546.9
830.438	12595.04
830.764	12547.13
831.09	12615.37
831.417	12604.3
831.743	12559.1
832.069	12604.98
832.395	12504.87
832.722	12535.83
833.048	12562.95
833.374	12551.2
833.7	12469.16
834.026	12499.45
834.351	12494.02
834.677	12502.61
835.003	12516.17
835.329	12451.76
835.654	12522.72
835.98	12369.28
836.306	12409.28
836.631	12421.48
836.956	12435.94
837.282	12414.25
837.607	12370.41
837.932	12359.11
838.258	12359.11
838.583	12322.95
838.908	12205.89
839.233	12234.14
839.558	12242.73
839.883	12190.53
840.208	12112.56
840.533	12171.09
840.858	12150.3
841.182	12184.2
841.507	12159.34
841.832	12115.27
842.156	12079.12
842.481	12164.76
842.805	12022.85
843.13	11967.03
843.454	11959.8
843.778	11979.23
844.103	11951.89
844.427	11905.11
844.751	11862.17
845.075	11863.98
845.399	11819.69
845.723	11720.71
846.047	11786.24
846.371	11729.07
846.695	11740.82
847.019	11575.18
847.343	11494.73
847.666	11466.03
847.99	11391.68
848.313	11375.63
848.637	11363.66
848.96	11395.52
849.284	11303.77
849.607	11256.99
849.931	11224.22
850.254	11153.94
850.577	11077.79
850.9	11019.94
851.223	10965.7
851.546	10884.12
851.869	10882.31
852.192	10950.33
852.515	10838.47
852.838	10803.22
853.161	10800.96
853.483	10792.6
853.806	10774.52
854.129	10674.41
854.451	10714.41
854.774	10594.86
855.096	10572.72
855.419	10587.41
855.741	10537.24
856.063	10473.96
856.385	10406.39
856.708	10411.36
857.03	10391.03
857.352	10429.67
857.674	10304.47
857.996	10329.11
858.318	10263.8
858.64	10295.44
858.961	10169.34
859.283	10220.64
859.605	10139.73
859.926	10203.46
860.248	10186.96
860.57	10030.58
860.891	10065.84
861.212	10047.08
861.534	10035.78
861.855	10008.44
862.176	9990.13
862.498	9987.87
862.819	9997.14
863.14	9908.1
863.461	9964.14
863.782	9889.12
864.103	9926.63
864.424	9876.92
864.745	9866.52
865.065	9863.58
865.386	9807.09
865.707	9800.76
866.027	9798.73
866.348	9824.04
866.668	9812.74
866.989	9705.62
867.309	9653.64
867.63	9720.99
867.95	9652.74
868.27	9660.42
868.59	9638.28
868.91	9630.82
869.23	9685.06
869.55	9586.98
869.87	9625.85
870.19	9602.57
870.51	9626.07
870.83	9578.84
871.15	9536.81
871.469	9485.74
871.789	9497.94
872.109	9554.21
872.428	9467.43
872.748	9539.75
873.067	9412.29
873.386	9476.93
873.706	9455.23
874.025	9510.6
874.344	9381.34
874.663	9416.59
874.982	9439.19
875.301	9313.09
875.62	9341.56
875.939	9365.29
876.258	9288
876.577	9328.68
876.896	9284.61
877.214	9271.73
877.533	9281.22
877.852	9213.66
878.17	9225.18
878.489	9176.82
878.807	9169.82
879.125	9179.08
879.444	9131.17
879.762	9156.03
880.08	9123.71
880.398	9096.15
880.716	9146.31
881.034	9085.07
881.352	9016.37
881.67	9025.86
881.988	9043.27
882.306	9045.52
882.624	8987.67
882.941	8996.94
883.259	8934.57
883.577	8966.66
883.894	8921.91
884.212	8836.26
884.529	8860.67
884.846	8822.71
885.164	8782.93
885.481	8816.83
885.798	8853.89
886.115	8828.13
886.432	8764.85
886.75	8753.33
887.067	8770.96
887.383	8686.89
887.7	8679.21
888.017	8678.3
888.334	8615.93
888.651	8674.69
888.967	8650.73
889.284	8580.23
889.6	8555.37
889.917	8511.08
890.233	8507.91
890.55	8540
890.866	8544.3
891.182	8465.88
891.498	8422.94
891.815	8458.2
892.131	8394.69
892.447	8366.67
892.763	8343.62
893.079	8321.02
893.395	8346.33
893.71	8206.45
894.026	8282.83
894.342	8271.08
894.657	8180.46
894.973	8198.54
895.289	8206.22
895.604	8116.74
895.92	8085.1
896.235	8056.17
896.55	8079.67
896.865	8059.79
897.181	8034.48
897.496	7957.64
897.811	7915.84
898.126	7932.79
898.441	7900.24
898.756	7871.54
899.071	7855.73
899.386	7886.46
899.7	7763.98
900.015	7692.34
900.33	7717.65
900.644	7695.73
900.959	7677.2
901.273	7623.87
901.588	7665
901.902	7632
902.216	7599.91
902.531	7556.3
902.845	7496.64
903.159	7471.78
903.473	7459.58
903.787	7438.79
904.101	7368.73
904.415	7402.18
904.729	7379.35
905.042	7337.1
905.356	7281.5
905.67	7227.72
905.984	7291.22
906.297	7206.7
906.611	7132.35
906.924	7198.57
907.237	7198.57
907.551	7175.74
907.864	7125.8
908.177	7111.34
908.491	7081.73
908.804	7016.2
909.117	6982.3
909.43	6953.6
909.743	6924.22
910.056	6921.51
910.368	6880.61
910.681	6895.98
910.994	6798.35
911.307	6702.54
911.619	6719.03
911.932	6742.76
912.244	6704.8
912.557	6650.79
912.869	6626.83
913.181	6681.07
913.494	6631.13
913.806	6558.81
914.118	6530.34
914.43	6519.04
914.742	6522.65
915.054	6483.78
915.366	6469.32
915.678	6446.05
915.99	6360.62
916.302	6384.13
916.613	6355.2
916.925	6309.1
917.236	6285.6
917.548	6253.96
917.859	6235.88
918.171	6241.08
918.482	6164.92
918.794	6174.19
919.105	6218.48
919.416	6139.39
919.727	6104.36
920.038	6037.02
920.349	6080.41
920.66	6054.19
920.971	6005.38
921.282	5998.37
921.593	5977.13
921.903	5941.43
922.214	5890.35
922.525	5834.99
922.835	5824.14
923.146	5796.12
923.456	5785.05
923.767	5771.49
924.077	5804.93
924.387	5746.63
924.697	5705.95
925.008	5674.09
925.318	5691.94
925.628	5663.69
925.938	5615.56
926.248	5570.59
926.558	5573.3
926.867	5545.73
927.177	5511.83
927.487	5474.09
927.796	5461.44
928.106	5445.85
928.416	5457.14
928.725	5419.63
929.034	5399.07
929.344	5374.89
929.653	5389.8
929.962	5281.78
930.271	5290.82
930.581	5237.04
930.89	5206.3
931.199	5227.77
931.508	5173.99
931.817	5205.4
932.125	5192.52
932.434	5204.5
932.743	5146.19
933.051	5102.8
933.36	5066.42
933.669	5094.22
933.977	5062.35
934.286	4980.32
934.594	5002.02
934.902	4976.48
935.21	4941.45
935.519	4908.01
935.827	4947.78
936.135	4913.66
936.443	4880.66
936.751	4825.75
937.059	4812.42
937.367	4813.32
937.674	4827.33
937.982	4816.71
938.29	4713.66
938.597	4738.29
938.905	4703.04
939.213	4696.94
939.52	4643.38
939.827	4668.01
940.135	4635.02
940.442	4638.41
940.749	4594.79
941.056	4604.74
941.363	4520.9
941.67	4547.11
941.977	4508.24
942.284	4479.77
942.591	4475.48
942.898	4521.12
943.205	4466.89
943.511	4435.02
943.818	4434.57
944.125	4411.52
944.431	4381.01
944.738	4399.09
945.044	4333.56
945.35	4291.3
945.657	4268.48
945.963	4266.44
946.269	4256.5
946.575	4270.74
946.881	4250.17
947.187	4245.2
947.493	4148.93
947.799	4144.86
948.105	4167.01
948.41	4148.7
948.716	4131.98
949.022	4094.69
949.327	4065.09
949.633	4050.63
949.938	4071.42
950.244	4077.29
950.549	4041.59
950.854	3969.27
951.16	4006.34
951.465	3951.2
951.77	3953.46
952.075	3920.91
952.38	3931.08
952.685	3926.34
952.99	3884.08
953.294	3880.46
953.599	3854.7
953.904	3839.33
954.209	3845.44
954.513	3800.01
954.818	3796.85
955.122	3800.24
955.426	3764.08
955.731	3707.81
956.035	3736.29
956.339	3692.9
956.643	3698.55
956.948	3609.74
957.252	3662.16
957.556	3603.86
957.86	3621.49
958.163	3571.77
958.467	3616.52
958.771	3577.19
959.075	3592.33
959.378	3540.13
959.682	3553.47
959.985	3524.31
960.289	3508.27
960.592	3511.21
960.896	3476.63
961.199	3478.21
961.502	3481.38
961.805	3470.08
962.108	3436.86
962.411	3439.8
962.714	3427.82
963.017	3358.67
963.32	3379.46
963.623	3383.75
963.926	3352.12
964.228	3313.02
964.531	3322.74
964.833	3334.94
965.136	3255.85
965.438	3267.6
965.741	3258.78
966.043	3221.5
966.345	3211.33
966.648	3220.37
966.95	3196.41
967.252	3184.66
967.554	3120.93
967.856	3134.49
968.158	3112.12
968.46	3143.08
968.761	3104.21
969.063	3096.3
969.365	3105.57
969.666	3074.61
969.968	3041.39
970.269	3056.3
970.571	3059.02
970.872	3059.24
971.174	3023.54
971.475	3020.82
971.776	3011.11
972.077	2968.85
972.378	2975.4
972.679	2987.38
972.98	2962.75
973.281	2885.69
973.582	2939.24
973.883	2924.1
974.183	2909.64
974.484	2863.54
974.785	2852.02
975.085	2845.46
975.386	2825.58
975.686	2839.13
975.986	2826.03
976.287	2794.62
976.587	2760.27
976.887	2802.07
977.187	2792.81
977.487	2781.06
977.787	2720.04
978.087	2730.89
978.387	2735.41
978.687	2678.23
978.987	2650.89
979.286	2692.92
979.586	2658.57
979.885	2655.86
980.185	2634.17
980.484	2667.61
980.784	2618.12
981.083	2593.04
981.382	2636.88
981.682	2581.06
981.981	2563.44
982.28	2607.05
982.579	2578.8
982.878	2572.25
983.177	2555.07
983.475	2555.75
983.774	2504.23
984.073	2520.95
984.372	2494.51
984.67	2525.47
984.969	2524.57
985.267	2459.26
985.566	2454.06
985.864	2500.61
986.162	2472.82
986.461	2380.84
986.759	2346.94
987.057	2392.59
987.355	2392.82
987.653	2381.29
987.951	2402.08
988.249	2363.21
988.547	2344.46
988.844	2333.38
989.142	2324.35
989.44	2292.48
989.737	2317.11
990.035	2300.84
990.332	2280.28
990.63	2249.09
990.927	2247.29
991.224	2257
991.521	2268.3
991.819	2243.9
992.116	2245.25
992.413	2227.63
992.71	2193.73
993.006	2170.68
993.303	2186.95
993.6	2180.85
993.897	2157.8
994.193	2121.87
994.49	2177
994.787	2138.36
995.083	2101.75
995.379	2137.68
995.676	2110.57
995.972	2092.49
996.268	2107.4
996.565	2079.83
996.861	2026.5
997.157	2088.65
997.453	2026.73
997.749	2047.52
998.044	2020.4
998.34	2014.07
998.636	1984.92
998.932	2007.97
999.227	2016.11
999.523	1998.48
999.818	1942.89
1000.114	1961.64
1000.409	1957.58
1000.704	1941.08
1001	1945.82
1001.295	1916.67
1001.59	1890.23
1001.885	1875.54
1002.18	1879.84
1002.475	1870.8
1002.77	1877.35
1003.065	1872.38
1003.359	1869.22
1003.654	1851.36
1003.949	1791.7
1004.243	1811.59
1004.538	1777.47
1004.832	1803.68
1005.127	1796.68
1005.421	1792.16
1005.715	1784.02
1006.009	1749.9
1006.304	1778.82
1006.598	1755.1
1006.892	1741.99
1007.186	1720.52
1007.48	1702.44
1007.773	1734.3
1008.067	1715.32
1008.361	1703.57
1008.655	1663.35
1008.948	1677.13
1009.242	1672.16
1009.535	1646.17
1009.829	1639.84
1010.122	1641.65
1010.415	1628.54
1010.708	1627.19
1011.001	1598.72
1011.295	1587.42
1011.588	1585.83
1011.881	1569.34
1012.173	1563.46
1012.466	1570.69
1012.759	1559.39
1013.052	1548.77
1013.344	1543.12
1013.637	1543.8
1013.93	1504.71
1014.222	1495.44
1014.514	1506.06
1014.807	1512.84
1015.099	1462.45
1015.391	1493.86
1015.683	1451.37
1015.976	1466.52
1016.268	1463.13
1016.56	1459.06
1016.851	1448.89
1017.143	1435.78
1017.435	1410.47
1017.727	1420.87
1018.018	1404.37
1018.31	1390.58
1018.602	1401.43
1018.893	1398.04
1019.185	1372.51
1019.476	1339.74
1019.767	1353.98
1020.058	1335.67
1020.35	1376.35
1020.641	1327.54
1020.932	1323.47
1021.223	1310.14
1021.514	1281.66
1021.804	1304.71
1022.095	1272.17
1022.386	1270.36
1022.677	1264.94
1022.967	1261.32
1023.258	1240.53
1023.548	1243.47
1023.839	1222.23
1024.129	1229.23
1024.419	1248.44
1024.709	1204.38
1025	1211.15
1025.29	1176.81
1025.58	1180.87
1025.87	1168.44
1026.16	1180.19
1026.449	1156.69
1026.739	1143.81
1027.029	1130.48
1027.319	1142.46
1027.608	1149.01
1027.898	1129.57
1028.187	1129.57
1028.477	1136.13
1028.766	1099.07
1029.055	1117.15
1029.344	1076.02
1029.634	1079.63
1029.923	1056.36
1030.212	1065.4
1030.501	1072.4
1030.79	1063.36
1031.078	1040.54
1031.367	1061.55
1031.656	1036.47
1031.945	1031.27
1032.233	1014.78
1032.522	1020.2
1032.81	1026.07
1033.099	1008
1033.387	1033.53
1033.675	989.92
1033.963	1017.04
1034.251	988.34
1034.54	973.19
1034.828	957.38
1035.116	942.46
1035.403	974.55
1035.691	954.44
1035.979	963.03
1036.267	932.52
1036.554	945.62
1036.842	939.07
1037.129	932.07
1037.417	902.91
1037.704	916.02
1037.992	915.8
1038.279	882.8
1038.566	880.09
1038.853	880.09
1039.14	880.09
