Data from cardboard_FLMS001491_027.txt Node
Date: Tue Feb 07 11:39:11 GMT 2017
User: dcchb
Spectrometer: FLMS00149
Trigger mode: 0
Integration Time (sec): 2.000000E-2
Scans to average: 10
Electric dark correction enabled: true
Nonlinearity correction enabled: false
Boxcar width: 0
XAxis mode: Wavelengths
Number of Pixels in Spectrum: 2048
>>>>>Begin Spectral Data<<<<<
341.393	-11.24
341.776	-11.24
342.16	-11.24
342.543	-75.2
342.927	-58.93
343.31	-59.15
343.693	-79.49
344.077	-62.31
344.46	-55.54
344.843	-58.93
345.226	-48.53
345.61	-22.77
345.993	-17.8
346.376	7.97
346.759	7.29
347.142	34.18
347.525	50.22
347.908	29.66
348.291	78.7
348.674	88.19
349.057	108.3
349.44	120.05
349.823	147.17
350.206	158.24
350.588	176.55
350.971	200.73
351.354	211.8
351.737	208.41
352.119	234.63
352.502	254.06
352.884	262.42
353.267	262.2
353.65	281.63
354.032	298.35
354.414	289.99
354.797	313.04
355.179	306.94
355.562	335.64
355.944	315.08
356.326	344.91
356.709	306.49
357.091	337
357.473	337
357.855	324.12
358.238	334.51
358.62	329.09
359.002	322.53
359.384	324.57
359.766	338.58
360.148	312.82
360.53	341.52
360.912	324.12
361.294	292.48
361.676	327.96
362.057	317.11
362.439	331.35
362.821	323.21
363.203	312.36
363.584	300.39
363.966	287.28
364.348	326.83
364.729	318.01
365.111	310.1
365.493	284.34
365.874	298.81
366.256	304.91
366.637	317.79
367.019	298.35
367.4	322.31
367.781	299.48
368.163	327.51
368.544	287.96
368.925	286.6
369.306	309.88
369.688	298.58
370.069	293.61
370.45	307.85
370.831	314.4
371.212	294.29
371.593	324.12
371.974	291.57
372.355	307.85
372.736	276.89
373.117	301.29
373.498	310.1
373.879	290.9
374.26	309.2
374.641	301.07
375.021	295.87
375.402	303.1
375.783	302.87
376.163	316.43
376.544	318.69
376.925	310.33
377.305	312.82
377.686	307.62
378.066	332.7
378.447	314.17
378.827	304.68
379.208	296.32
379.588	318.24
379.968	293.16
380.349	319.14
380.729	306.72
381.109	325.47
381.489	327.28
381.87	322.99
382.25	326.15
382.63	334.51
383.01	328.86
383.39	320.27
383.77	317.79
384.15	329.77
384.53	322.76
384.91	338.58
385.29	321.4
385.67	341.97
386.049	333.16
386.429	325.92
386.809	338.8
387.189	336.32
387.568	341.74
387.948	335.64
388.328	341.29
388.707	344
389.087	361.18
389.466	327.28
389.846	326.15
390.225	347.84
390.605	341.74
390.984	337.45
391.363	332.48
391.743	331.57
392.122	346.49
392.501	345.13
392.881	346.26
393.26	345.58
393.639	344
394.018	362.08
394.397	347.84
394.776	351.01
395.155	352.36
395.534	335.64
395.913	353.72
396.292	361.85
396.671	369.09
397.05	369.54
397.429	352.59
397.808	369.99
398.186	369.31
398.565	349.88
398.944	373.61
399.323	363.21
399.701	375.87
400.08	365.24
400.458	371.35
400.837	370.44
401.215	374.74
401.594	387.62
401.972	368.41
402.351	362.76
402.729	382.19
403.107	393.72
403.486	376.54
403.864	371.8
404.242	395.75
404.62	400.27
404.999	381.29
405.377	369.09
405.755	382.42
406.133	390.33
406.511	407.73
406.889	397.56
407.267	394.85
407.645	398.69
408.023	395.98
408.401	405.47
408.779	397.11
409.156	402.98
409.534	404.79
409.912	407.05
410.29	413.6
410.667	405.02
411.045	408.41
411.422	416.99
411.8	417.22
412.178	439.59
412.555	424.9
412.933	403.21
413.31	430.1
413.687	435.53
414.065	444.79
414.442	437.79
414.819	447.05
415.197	429.88
415.574	439.14
415.951	450.89
416.328	446.6
416.705	445.24
417.082	460.61
417.46	443.43
417.837	463.32
418.214	444.56
418.591	467.39
418.967	436.66
419.344	476.2
419.721	462.87
420.098	468.52
420.475	465.81
420.852	485.02
421.228	478.46
421.605	483.89
421.982	491.34
422.358	458.58
422.735	480.27
423.111	469.65
423.488	480.72
423.864	480.27
424.241	485.47
424.617	509.2
424.994	504
425.37	494.05
425.746	503.32
426.123	505.58
426.499	518.01
426.875	526.82
427.251	532.25
427.627	523.21
428.003	520.04
428.379	523.88
428.756	528.63
429.132	538.57
429.507	528.63
429.883	534.05
430.259	543.09
430.635	565.69
431.011	544.9
431.387	560.72
431.763	545.8
432.138	571.57
432.514	581.06
432.89	571.11
433.265	582.19
433.641	575.63
434.016	585.58
434.392	587.61
434.767	601.85
435.143	585.13
435.518	623.99
435.894	599.81
436.269	619.93
436.644	601.17
437.02	625.8
437.395	620.38
437.77	626.93
438.145	635.75
438.52	654.28
438.895	645.69
439.271	664.22
439.646	652.92
440.021	631.68
440.395	636.2
440.77	649.76
441.145	656.08
441.52	646.37
441.895	683.2
442.27	697.21
442.645	655.63
443.019	679.13
443.394	678.68
443.769	684.33
444.143	668.97
444.518	686.82
444.892	687.95
445.267	702.86
445.641	661.51
446.016	685.46
446.39	693.15
446.764	717.55
447.139	738.57
447.513	712.13
447.887	723.88
448.262	715.29
448.636	714.84
449.01	741.51
449.384	735.18
449.758	729.53
450.132	740.6
450.506	745.12
450.88	757.1
451.254	756.42
451.628	757.78
452.002	789.19
452.376	794.16
452.75	788.06
453.123	794.84
453.497	776.31
453.871	790.77
454.244	805.91
454.618	826.7
454.992	830.09
455.365	842.52
455.739	822.86
456.112	854.05
456.486	828.06
456.859	832.8
457.232	863.99
457.606	863.99
457.979	875.06
458.352	892.91
458.725	898.79
459.099	881.16
459.472	905.57
459.845	907.38
460.218	918.22
460.591	936.53
460.964	935.85
461.337	961.84
461.71	965.45
462.083	988.73
462.456	966.36
462.829	940.14
463.201	958.9
463.574	982.86
463.947	983.08
464.32	1017.66
464.692	998.22
465.065	1039.35
465.438	1034.83
465.81	1061.27
466.183	1055.85
466.555	1075.51
466.928	1085.45
467.3	1094.27
467.672	1089.07
468.045	1103.08
468.417	1127.94
468.789	1116.86
469.161	1129.74
469.534	1159.35
469.906	1162.29
470.278	1177.2
470.65	1173.13
471.022	1220.59
471.394	1237.31
471.766	1218.56
472.138	1256.29
472.51	1257.2
472.882	1271.66
473.253	1303.53
473.625	1303.3
473.997	1313.92
474.369	1364.54
474.74	1360.7
475.112	1391.66
475.484	1359.79
475.855	1443.41
476.227	1443.41
476.598	1436.85
476.97	1474.37
477.341	1498.55
477.713	1520.92
478.084	1521.37
478.455	1548.26
478.827	1569.28
479.198	1616.96
479.569	1638.66
479.94	1675.94
480.311	1677.07
480.682	1691.54
481.053	1744.19
481.424	1743.74
481.795	1809.5
482.166	1816.96
482.537	1837.52
482.908	1853.34
483.279	1847.01
483.65	1903.74
484.021	1934.69
484.391	1987.35
484.762	1949.38
485.133	1992.77
485.503	2031.42
485.874	2090.62
486.244	2095.59
486.615	2127.23
486.985	2185.08
487.356	2178.53
487.726	2196.83
488.097	2261.01
488.467	2235.7
488.837	2299.43
489.207	2324.29
489.578	2325.42
489.948	2376.72
490.318	2431.4
490.688	2414.91
491.058	2501.46
491.428	2521.57
491.798	2546.88
492.168	2585.07
492.538	2580.78
492.908	2593.21
493.278	2607.9
493.648	2623.72
494.017	2704.62
494.387	2776.93
494.757	2771.28
495.126	2780.32
495.496	2787.33
495.866	2780.32
496.235	2839.08
496.605	2854.67
496.974	2921.79
497.344	2936.7
497.713	2965.85
498.082	2975.57
498.452	2999.07
498.821	3019.86
499.19	3056.02
499.559	3047.66
499.928	3133.76
500.298	3107.55
500.667	3181.22
501.036	3157.49
501.405	3228.45
501.774	3229.12
502.143	3270.48
502.512	3291.04
502.88	3329.23
503.249	3285.85
503.618	3334.43
503.987	3408.1
504.356	3414.88
504.724	3431.6
505.093	3436.58
505.462	3479.51
505.83	3524.71
506.199	3511.15
506.567	3608.32
506.936	3586.4
507.304	3657.14
507.672	3671.37
508.041	3672.05
508.409	3683.35
508.777	3761.31
509.145	3795.66
509.514	3823.68
509.882	3842.44
510.25	3871.82
510.618	3919.5
510.986	3947.98
511.354	3968.09
511.722	4041.76
512.09	4037.46
512.458	4064.58
512.826	4127.63
513.193	4117.24
513.561	4180.51
513.929	4200.4
514.297	4285.37
514.664	4283.56
515.032	4284.24
515.4	4382.54
515.767	4388.19
516.135	4413.95
516.502	4425.93
516.869	4467.51
517.237	4539.6
517.604	4512.48
517.972	4612.82
518.339	4616.43
518.706	4613.04
519.073	4678.35
519.44	4722.87
519.808	4742.08
520.175	4808.29
520.542	4890.32
520.909	4896.88
521.276	4936.88
521.643	4971.23
522.009	5022.52
522.376	5044.67
522.743	5101.62
523.11	5184.55
523.477	5231.33
523.843	5285.34
524.21	5282.4
524.577	5359.69
524.943	5387.03
525.31	5445.11
525.676	5437.2
526.043	5523.53
526.409	5601.94
526.776	5649.63
527.142	5671.09
527.508	5759.91
527.874	5779.79
528.241	5832.67
528.607	5807.36
528.973	5894.59
529.339	5970.97
529.705	6017.75
530.071	6063.4
530.437	6099.33
530.803	6142.72
531.169	6198.31
531.535	6193.57
531.901	6262.94
532.267	6269.72
532.632	6327.8
532.998	6330.06
533.364	6420
533.73	6488.47
534.095	6512.65
534.461	6526.66
534.826	6639.66
535.192	6645.31
535.557	6756.49
535.923	6698.41
536.288	6778.18
536.653	6851.18
537.019	6820.44
537.384	6850.72
537.749	6892.98
538.114	6971.17
538.479	6986.31
538.845	7075.12
539.21	7015.47
539.575	7129.36
539.94	7093.43
540.305	7175.69
540.67	7194.67
541.034	7256.81
541.399	7318.73
541.764	7357.6
542.129	7402.57
542.494	7420.65
542.858	7464.27
543.223	7487.77
543.587	7548.33
543.952	7551.72
544.316	7606.41
544.681	7609.8
545.045	7707.65
545.41	7735.45
545.774	7822.22
546.138	7751.72
546.503	7828.78
546.867	7947.19
547.231	7957.59
547.595	8034.2
547.959	8013.86
548.324	8005.72
548.688	8113.74
549.052	8196.45
549.416	8173.85
549.779	8188.77
550.143	8146.28
550.507	8319.39
550.871	8369.78
551.235	8360.06
551.599	8422.43
551.962	8440.96
552.326	8542.66
552.689	8565.03
553.053	8515.76
553.417	8599.15
553.78	8745.36
554.143	8749.2
554.507	8821.07
554.87	8830.11
555.234	8921.4
555.597	8939.48
555.96	8924.57
556.323	8967.5
556.686	8997.56
557.05	9126.82
557.413	9199.59
557.776	9191
558.139	9286.37
558.502	9287.27
558.865	9363.43
559.228	9412.46
559.59	9508.73
559.953	9509.86
560.316	9552.57
560.679	9586.25
561.041	9704.66
561.404	9732
561.767	9839.57
562.129	9823.98
562.492	9965.22
562.854	9933.35
563.217	10009.96
563.579	10004.54
563.941	10093.12
564.304	10196.62
564.666	10268.71
565.028	10284.98
565.39	10408.82
565.753	10449.73
566.115	10487.69
566.477	10508.48
566.839	10581.02
567.201	10674.8
567.563	10747.57
567.925	10749.83
568.287	10775.14
568.648	10887.91
569.01	10883.16
569.372	10984.4
569.734	11022.59
570.095	10989.37
570.457	11153.44
570.819	11158.18
571.18	11164.51
571.542	11241.12
571.903	11303.71
572.265	11357.72
572.626	11355.69
572.987	11465.97
573.349	11533.76
573.71	11594.33
574.071	11535.57
574.432	11555.91
574.794	11734.44
575.155	11725.17
575.516	11766.75
575.877	11853.3
576.238	11866.64
576.599	11886.75
576.96	11887.88
577.32	11873.87
577.681	11914.55
578.042	12063.69
578.403	12134.65
578.763	12078.61
579.124	12166.06
579.485	12151.38
579.845	12232.28
580.206	12285.84
580.566	12227.98
580.927	12317.25
581.287	12353.63
581.648	12366.06
582.008	12357.47
582.368	12440.18
582.728	12397.7
583.089	12541.2
583.449	12519.95
583.809	12553.62
584.169	12650.8
584.529	12573.29
584.889	12714.75
585.249	12568.54
585.609	12583.68
585.969	12659.38
586.329	12784.58
586.688	12700.51
587.048	12712.04
587.408	12710.91
587.768	12808.08
588.127	12781.87
588.487	12799.72
588.846	12853.28
589.206	12879.04
589.565	12916.78
589.925	12934.18
590.284	12912.71
590.643	13033.16
591.003	12973.27
591.362	13060.5
591.721	12983.9
592.08	12999.94
592.44	13095.08
592.799	13059.6
593.158	13016.44
593.517	13157.9
593.876	13164.91
594.235	13102.76
594.593	13142.76
594.952	13267.96
595.311	13106.83
595.67	13191.8
596.029	13276.09
596.387	13367.39
596.746	13331.91
597.104	13316.09
597.463	13346.37
597.822	13373.04
598.18	13386.37
598.538	13407.16
598.897	13516.54
599.255	13329.65
599.613	13518.12
599.972	13533.94
600.33	13479.48
600.688	13543.66
601.046	13544.56
601.404	13721.05
601.762	13629.3
602.12	13664.1
602.478	13708.17
602.836	13679.92
603.194	13675.86
603.552	13708.17
603.91	13609.87
604.268	13780.49
604.625	13754.95
604.983	13797.21
605.341	13778.23
605.698	13831.78
606.056	13909.3
606.413	13903.87
606.771	13949.97
607.128	14006.47
607.485	13991.55
607.843	14046.69
608.2	14095.05
608.557	14111.32
608.914	14143.87
609.272	14159.68
609.629	14279.91
609.986	14263.64
610.343	14163.75
610.7	14259.34
611.057	14295.05
611.414	14307.25
611.771	14294.14
612.127	14436.29
612.484	14353.13
612.841	14396.06
613.198	14434.25
613.554	14349.74
613.911	14460.47
614.267	14544.08
614.624	14454.37
614.98	14570.29
615.337	14708.6
615.693	14560.35
616.05	14619.56
616.406	14660.24
616.762	14751.98
617.118	14780.91
617.475	14688.71
617.831	14770.97
618.187	14767.8
618.543	14779.78
618.899	14854.81
619.255	14886.9
619.611	14875.82
619.967	14931.19
620.323	14960.12
620.678	14961.02
621.034	14981.81
621.39	14918.08
621.746	14929.83
622.101	15038.98
622.457	14979.1
622.812	14964.41
623.168	15000.11
623.523	14960.57
623.879	15104.52
624.234	15030.85
624.589	15107.68
624.945	15100
625.3	15157.4
625.655	15058.87
626.01	15132.99
626.365	15159.43
626.72	15207.79
627.075	15114.24
627.43	15149.49
627.785	15121.24
628.14	15083.73
628.495	15169.38
628.85	15205.76
629.205	15098.64
629.559	15166.44
629.914	15239.43
630.269	15220.22
630.623	15141.81
630.978	15133.44
631.332	15181.8
631.687	15274.01
632.041	15143.39
632.396	15210.05
632.75	15104.97
633.104	15184.52
633.459	15170.05
633.813	15099.55
634.167	15162.14
634.521	15150.84
634.875	15203.27
635.229	15188.58
635.583	15148.13
635.937	15066.78
636.291	15177.28
636.645	15120.79
636.999	15080.11
637.352	15093.44
637.706	15070.39
638.06	15083.73
638.413	15128.25
638.767	15147.23
639.121	15103.16
639.474	15032.88
639.828	15068.81
640.181	15065.42
640.534	15074.24
640.888	15017.74
641.241	15036.5
641.594	15020.45
641.947	15007.57
642.301	15006.22
642.654	15084.86
643.007	15118.3
643.36	15040.79
643.713	14911.53
644.066	15138.87
644.419	15036.05
644.771	14919.89
645.124	14812.77
645.477	14818.65
645.83	14645.32
646.182	14643.06
646.535	14580.24
646.888	14692.33
647.24	14538.66
647.593	14632.89
647.945	14565.55
648.298	14492.33
648.65	14560.8
649.002	14612.78
649.355	14604.64
649.707	14554.7
650.059	14562.16
650.411	14891.42
650.763	14836.05
651.115	14997.18
651.467	14908.14
651.819	14866.56
652.171	14956.5
652.523	14839.89
652.875	15006.22
653.227	14885.31
653.578	14926.22
653.93	14864.3
654.282	14946.1
654.633	14897.07
654.985	14928.25
655.337	14775.26
655.688	15023.84
656.039	15027.01
656.391	14864.3
656.742	14862.04
657.094	14891.42
657.445	14983.17
657.796	14993.79
658.147	14871.53
658.498	14882.38
658.849	14921.25
659.2	14907.01
659.551	14890.96
659.902	14904.75
660.253	14874.02
660.604	14990.62
660.955	14792.44
661.306	14949.04
661.656	14927.8
662.007	14944.75
662.358	14912.66
662.708	14903.62
663.059	14890.29
663.409	14868.37
663.76	14959.21
664.11	14929.61
664.461	15043.5
664.811	15031.3
665.161	14910.62
665.511	14866.11
665.862	14976.61
666.212	15022.71
666.562	14954.24
666.912	14954.24
667.262	14905.65
667.612	14942.94
667.962	14958.99
668.312	14931.64
668.662	15029.72
669.011	14942.26
669.361	15012.77
669.711	14951.3
670.06	14956.05
670.41	14851.64
670.76	14883.73
671.109	14982.94
671.459	14889.38
671.808	14888.93
672.157	14976.39
672.507	14893.22
672.856	14866.78
673.205	14959.66
673.554	14952.21
673.904	14940.45
674.253	15006.89
674.602	14953.34
674.951	14717.64
675.3	14711.76
675.649	14906.33
675.998	14952.43
676.346	14958.99
676.695	15023.62
677.044	14851.64
677.393	14899.1
677.741	14983.62
678.09	14944.3
678.438	14782.04
678.787	14962.83
679.135	14905.88
679.484	14798.31
679.832	14863.39
680.181	14830.85
680.529	14864.98
680.877	14869.95
681.225	14853.45
681.573	14893.45
681.922	14790.18
682.27	14734.13
682.618	14814.36
682.966	14725.32
683.314	14789.5
683.661	14694.81
684.009	14667.02
684.357	14619.33
684.705	14674.7
685.053	14728.71
685.4	14647.81
685.748	14513.35
686.095	14528.26
686.443	14580.69
686.79	14507.47
687.138	14551.76
687.485	14479.9
687.832	14517.41
688.18	14609.39
688.527	14481.48
688.874	14401.71
689.221	14390.41
689.568	14322.39
689.915	14351.09
690.262	14301.38
690.609	14305.67
690.956	14293.47
691.303	14217.99
691.65	14209.63
691.997	14214.82
692.344	14129.4
692.69	14158.33
693.037	14154.49
693.383	14013.02
693.73	14060.7
694.077	13991.1
694.423	13995.85
694.769	13992.23
695.116	13965.56
695.462	13899.58
695.808	13895.74
696.155	13916.07
696.501	13817.77
696.847	13803.99
697.193	13747.27
697.539	13808.28
697.885	13768.96
698.231	13636.08
698.577	13695.97
698.923	13663.88
699.269	13617.78
699.614	13558.34
699.96	13458.91
700.306	13523.77
700.651	13476.31
700.997	13430.21
701.342	13418.23
701.688	13476.76
702.033	13349.54
702.379	13313.6
702.724	13312.25
703.069	13346.82
703.415	13230.9
703.76	13258.46
704.105	13194.51
704.45	13218.01
704.795	13193.38
705.14	13006.95
705.485	13099.37
705.83	13016.89
706.175	12965.59
706.52	13067.74
706.865	13018.02
707.209	13021.64
707.554	12944.35
707.899	13048.07
708.243	12855.31
708.588	12919.94
708.932	12803.79
709.277	12781.87
709.621	12866.61
709.966	12768.53
710.31	12814.41
710.654	12765.6
710.998	12705.03
711.342	12728.99
711.687	12672.94
712.031	12637.01
712.375	12592.49
712.719	12538.71
713.063	12560.18
713.407	12660.97
713.75	12563.34
714.094	12541.42
714.438	12434.08
714.782	12528.77
715.125	12488.54
715.469	12429.11
715.812	12353.4
716.156	12446.96
716.499	12416
716.843	12408.77
717.186	12253.52
717.53	12406.28
717.873	12337.59
718.216	12364.93
718.559	12301.2
718.902	12226.4
719.246	12228.66
719.589	12289.9
719.932	12199.74
720.275	12239.51
720.617	12179.4
720.96	12147.53
721.303	12202.67
721.646	12241.54
721.989	12174.43
722.331	12173.3
722.674	12120.64
723.016	12201.09
723.359	12121.55
723.701	12110.7
724.044	12064.6
724.386	12012.4
724.729	12121.09
725.071	12106.4
725.413	11939.18
725.755	12045.84
726.097	12002.45
726.439	11894.66
726.782	11955
727.124	12016.69
727.465	11920.42
727.807	11932.62
728.149	11851.5
728.491	11931.95
728.833	11926.52
729.175	11899.86
729.516	11880.42
729.858	11831.38
730.199	11818.95
730.541	11762.23
730.882	11823.93
731.224	11846.75
731.565	11724.27
731.906	11776.92
732.248	11721.56
732.589	11759.3
732.93	11731.95
733.271	11709.13
733.612	11775.79
733.953	11728.11
734.294	11758.17
734.635	11711.84
734.976	11740.09
735.317	11767.43
735.658	11739.86
735.999	11705.51
736.339	11659.41
736.68	11706.19
737.021	11646.98
737.361	11652.63
737.702	11708.45
738.042	11638.62
738.383	11607.43
738.723	11758.39
739.063	11606.76
739.404	11642.91
739.744	11642.01
740.084	11625.97
740.424	11657.15
740.764	11583.48
741.104	11569.92
741.444	11594.78
741.784	11531.05
742.124	11584.84
742.464	11513.43
742.804	11564.95
743.143	11516.82
743.483	11555.91
743.823	11505.97
744.162	11357.5
744.502	11499.42
744.841	11443.6
745.181	11550.26
745.52	11453.31
745.86	11519.08
746.199	11483.14
746.538	11425.29
746.877	11379.19
747.216	11499.87
747.556	11490.83
747.895	11435.69
748.234	11386.88
748.573	11411.06
748.911	11341
749.25	11343.26
749.589	11345.97
749.928	11415.58
750.267	11406.08
750.605	11361.57
750.944	11405.18
751.283	11281.57
751.621	11301.91
751.96	11254.22
752.298	11252.87
752.636	11295.58
752.975	11207.67
753.313	11233.89
753.651	11301.91
753.989	11178.75
754.327	11246.31
754.666	11129.48
755.004	11121.35
755.342	11240.21
755.679	11219.87
756.017	11025.76
756.355	11146.43
756.693	11084.96
757.031	11168.35
757.368	11059.88
757.706	11035.02
758.044	11028.47
758.381	11051.29
758.719	10993.21
759.056	11012.42
759.394	11040.44
759.731	10961.12
760.068	10945.98
760.405	10871.41
760.743	10837.51
761.08	10884.97
761.417	10798.64
761.754	10839.09
762.091	10798.87
762.428	10781.02
762.765	10619.89
763.102	10802.26
763.438	10729.72
763.775	10658.76
764.112	10688.14
764.449	10731.98
764.785	10667.8
765.122	10560.23
765.458	10486.11
765.795	10509.84
766.131	10493.34
766.467	10478.43
766.804	10440.23
767.14	10389.61
767.476	10399.11
767.812	10360.24
768.148	10345.55
768.485	10350.29
768.821	10305.55
769.157	10243.4
769.492	10254.7
769.828	10233.69
770.164	10134.25
770.5	10116.85
770.836	10150.75
771.171	10045.22
771.507	10051.32
771.842	9994.14
772.178	10039.79
772.513	9935.84
772.849	9943.07
773.184	9904.88
773.519	9956.18
773.855	9877.99
774.19	9848.16
774.525	9826.69
774.86	9773.36
775.195	9764.09
775.53	9679.35
775.865	9721.16
776.2	9653.81
776.535	9596.41
776.87	9579.01
777.205	9536.75
777.539	9525.23
777.874	9541.73
778.209	9415.4
778.543	9433.71
778.878	9429.19
779.212	9373.82
779.547	9323.43
779.881	9312.81
780.215	9245.24
780.55	9326.82
780.884	9224.9
781.218	9197.78
781.552	9245.92
781.886	9184.45
782.22	9146.03
782.554	9081.17
782.888	8976.32
783.222	9036.2
783.556	8929.77
783.889	8977
784.223	8872.14
784.557	8930.67
784.89	8895.64
785.224	8884.79
785.557	8821.52
785.891	8762.76
786.224	8764.35
786.558	8770.67
786.891	8704.23
787.224	8671.47
787.557	8633.05
787.891	8603.22
788.224	8628.53
788.557	8583.11
788.89	8558.7
789.223	8581.07
789.556	8576.55
789.888	8534.07
790.221	8491.13
790.554	8401.87
790.887	8452.49
791.219	8420.17
791.552	8325.04
791.884	8311.48
792.217	8345.83
792.549	8255.88
792.882	8261.99
793.214	8162.33
793.546	8204.59
793.879	8208.65
794.211	8152.16
794.543	8158.94
794.875	8094.76
795.207	8199.61
795.539	8119.39
795.871	8051.82
796.203	8033.74
796.535	8003.24
796.867	7952.84
797.198	7959.17
797.53	7915.1
797.862	7880.98
798.193	7941.09
798.525	7857.7
798.856	7898.38
799.188	7789
799.519	7795.11
799.85	7732.51
800.182	7727.31
800.513	7737.03
800.844	7623.81
801.175	7676.01
801.506	7655.45
801.837	7627.65
802.168	7676.01
802.499	7618.61
802.83	7592.63
803.161	7507.43
803.491	7553.08
803.822	7550.82
804.153	7487.54
804.483	7443.25
804.814	7396.7
805.145	7405.29
805.475	7456.36
805.805	7395.79
806.136	7388.34
806.466	7381.11
806.796	7345.4
807.126	7282.35
807.457	7290.26
807.787	7344.5
808.117	7324.16
808.447	7221.11
808.777	7220.21
809.107	7225.18
809.436	7239.87
809.766	7224.73
810.096	7149.25
810.426	7174.33
810.755	7139.53
811.085	7143.37
811.414	7113.77
811.744	7083.03
812.073	7083.49
812.403	7066.31
812.732	7055.92
813.061	7038.74
813.39	7052.98
813.719	7007.78
814.049	6978.4
814.378	7010.49
814.707	6956.48
815.036	6931.63
815.365	6932.3
815.693	6921.68
816.022	6911.29
816.351	6899.99
816.68	6800.78
817.008	6824.96
817.337	6742.25
817.665	6758.07
817.994	6803.49
818.322	6830.39
818.651	6734.12
818.979	6766.21
819.307	6790.39
819.636	6740.44
819.964	6686.66
820.292	6710.16
820.62	6714.46
820.948	6659.77
821.276	6733.44
821.604	6678.07
821.932	6705.87
822.259	6709.03
822.587	6701.58
822.915	6666.77
823.243	6657.73
823.57	6671.97
823.898	6663.38
824.225	6628.81
824.553	6669.03
824.88	6642.59
825.207	6678.75
825.535	6598.53
825.862	6727.34
826.189	6704.96
826.516	6685.08
826.843	6745.42
827.17	6683.04
827.497	6697.73
827.824	6668.36
828.151	6694.57
828.478	6685.53
828.805	6680.11
829.131	6718.3
829.458	6691.63
829.785	6639.2
830.111	6636.27
830.438	6707.22
830.764	6684.17
831.09	6721.24
831.417	6617.06
831.743	6664.29
832.069	6680.33
832.395	6630.84
832.722	6643.27
833.048	6658.41
833.374	6669.03
833.7	6669.71
834.026	6688.47
834.351	6660.67
834.677	6614.8
835.003	6621.35
835.329	6577.51
835.654	6611.63
835.98	6588.13
836.306	6600.56
836.631	6589.26
836.956	6590.62
837.282	6572.54
837.607	6565.31
837.932	6541.81
838.258	6557.85
838.583	6525.99
838.908	6493.67
839.233	6544.97
839.558	6531.41
839.883	6535.93
840.208	6448.25
840.533	6445.99
840.858	6434.69
841.182	6504.29
841.507	6490.73
841.832	6385.43
842.156	6392.66
842.481	6391.07
842.805	6399.21
843.13	6335.26
843.454	6365.31
843.778	6304.98
844.103	6339.78
844.427	6305.65
844.751	6307.01
845.075	6287.12
845.399	6285.09
845.723	6292.09
846.047	6239.44
846.371	6215.49
846.695	6194.47
847.019	6206.9
847.343	6172.78
847.666	6122.16
847.99	6122.16
848.313	6112.66
848.637	6046.23
848.96	6057.52
849.284	6060.69
849.607	5998.99
849.931	5935.72
850.254	5916.96
850.577	5936.85
850.9	5899.56
851.223	5934.14
851.546	5906.12
851.869	5848.49
852.192	5887.81
852.515	5797.87
852.838	5800.36
853.161	5795.16
853.483	5765.1
853.806	5745.22
854.129	5756.97
854.451	5727.82
854.774	5732.56
855.096	5662.73
855.419	5672.9
855.741	5640.36
856.063	5627.71
856.385	5592.9
856.708	5630.64
857.03	5563.75
857.352	5590.64
857.674	5600.36
857.996	5519.69
858.318	5502.96
858.64	5541.83
858.961	5506.13
859.283	5517.65
859.605	5438.11
859.926	5472.45
860.248	5460.93
860.57	5433.13
860.891	5455.51
861.212	5394.72
861.534	5419.12
861.855	5362.85
862.176	5402.85
862.498	5358.56
862.819	5352.46
863.14	5355.4
863.461	5319.92
863.782	5307.04
864.103	5333.7
864.424	5313.14
864.745	5309.07
865.065	5287.6
865.386	5297.32
865.707	5327.83
866.027	5250.77
866.348	5245.12
866.668	5232.01
866.989	5223.42
867.309	5214.38
867.63	5229.07
867.95	5231.11
868.27	5150.66
868.59	5203.76
868.91	5248.05
869.23	5213.25
869.55	5152.69
869.87	5148.62
870.19	5185.23
870.51	5148.85
870.83	5158.34
871.15	5103.88
871.469	5133.25
871.789	5154.27
872.109	5131
872.428	5100.71
872.748	5097.78
873.067	5088.74
873.386	5111.79
873.706	5107.04
874.025	5091.9
874.344	5086.7
874.663	5051.22
874.982	5073.6
875.301	5050.09
875.62	5053.71
875.939	5027.72
876.258	5042.64
876.577	5026.59
876.896	5040.6
877.214	5017.55
877.533	5013.26
877.852	4990.21
878.17	5024.78
878.489	4981.17
878.807	5017.55
879.125	5019.81
879.444	4989.53
879.762	4900.94
880.08	4971.23
880.398	4943.66
880.716	4916.09
881.034	4926.25
881.352	4960.38
881.67	4917.89
881.988	4857.33
882.306	4916.31
882.624	4893.04
882.941	4860.49
883.259	4829.31
883.577	4850.32
883.894	4860.95
884.212	4811.23
884.529	4799.03
884.846	4800.38
885.164	4828.18
885.481	4789.76
885.798	4774.62
886.115	4771.68
886.432	4789.99
886.75	4738.24
887.067	4745.69
887.383	4712.25
887.7	4729.42
888.017	4709.99
888.334	4737.33
888.651	4691.68
888.967	4702.76
889.284	4671.12
889.6	4667.73
889.917	4648.3
890.233	4644.45
890.55	4631.8
890.866	4626.15
891.182	4613.95
891.498	4578.02
891.815	4581.4
892.131	4554.96
892.447	4568.98
892.763	4491.92
893.079	4521.75
893.395	4512.48
893.71	4504.34
894.026	4470.9
894.342	4493.27
894.657	4465.02
894.973	4452.59
895.289	4433.84
895.604	4477.68
895.92	4423.22
896.235	4368.76
896.55	4374.4
896.865	4342.54
897.181	4354.07
897.496	4326.72
897.811	4356.78
898.126	4335.76
898.441	4290.34
898.756	4289.44
899.071	4270.68
899.386	4274.97
899.7	4275.42
900.015	4207.4
900.33	4226.61
900.644	4165.37
900.959	4223.22
901.273	4188.87
901.588	4130.34
901.902	4173.96
902.216	4130.12
902.531	4137.57
902.845	4116.33
903.159	4115.88
903.473	4099.38
903.787	4090.34
904.101	4026.62
904.415	4069.1
904.729	4051.93
905.042	4051.48
905.356	3978.71
905.67	3978.48
905.984	3983.91
906.297	4003.34
906.611	3970.8
906.924	3920.18
907.237	3943.23
907.551	3892.84
907.864	3844.7
908.177	3916.34
908.491	3900.97
908.804	3858.71
909.117	3856
909.43	3834.31
909.743	3852.61
910.056	3849.9
910.368	3760.41
910.681	3809.22
910.994	3769
911.307	3771.93
911.619	3711.82
911.932	3724.03
912.244	3736.68
912.557	3706.17
912.869	3682.67
913.181	3668.21
913.494	3681.09
913.806	3656.23
914.118	3630.92
914.43	3612.62
914.742	3617.81
915.054	3585.5
915.366	3599.74
915.678	3512.05
915.99	3556.12
916.302	3520.42
916.613	3518.16
916.925	3527.2
917.236	3513.64
917.548	3479.51
917.859	3484.94
918.171	3487.42
918.482	3463.02
918.794	3457.14
919.105	3410.81
919.416	3454.88
919.727	3378.5
920.038	3338.73
920.349	3357.71
920.66	3328.78
920.971	3354.09
921.282	3355.45
921.593	3316.35
921.903	3281.33
922.214	3260.54
922.525	3279.74
922.835	3279.29
923.146	3218.95
923.456	3228.45
923.767	3181.67
924.077	3274.77
924.387	3205.85
924.697	3200.88
925.008	3201.55
925.318	3168.79
925.628	3181.44
925.938	3156.13
926.248	3105.29
926.558	3134.66
926.867	3091.05
927.177	3082.69
927.487	3075.91
927.796	3049.69
928.106	3062.8
928.416	3059.86
928.725	3056.02
929.034	3034.78
929.344	3005.85
929.653	3020.09
929.962	2962.92
930.271	2957.72
930.581	2922.24
930.89	2941.9
931.199	2935.8
931.508	2961.79
931.817	2947.55
932.125	2903.26
932.434	2938.96
932.743	2851.05
933.051	2879.98
933.36	2848.34
933.669	2856.7
933.977	2819.64
934.286	2805.63
934.594	2856.03
934.902	2816.03
935.21	2819.87
935.519	2812.86
935.827	2810.15
936.135	2734
936.443	2768.8
936.751	2767.67
937.059	2716.82
937.367	2710.95
937.674	2719.98
937.982	2735.35
938.29	2674.34
938.597	2714.56
938.905	2641.12
939.213	2652.64
939.52	2635.02
939.827	2634.56
940.135	2638.63
940.442	2616.48
940.749	2638.63
941.056	2607.45
941.363	2559.99
941.67	2603.6
941.977	2568.12
942.284	2553.21
942.591	2560.22
942.898	2529.48
943.205	2530.16
943.511	2523.15
943.818	2489.71
944.125	2513.66
944.431	2478.18
944.738	2476.15
945.044	2480.22
945.35	2477.05
945.657	2451.07
945.963	2425.98
946.269	2419.2
946.575	2439.77
946.881	2392.08
947.187	2387.11
947.493	2400.22
947.799	2406.09
948.105	2345.08
948.41	2345.76
948.716	2354.12
949.022	2344.18
949.327	2341.92
949.633	2314.12
949.938	2305.76
950.244	2308.47
950.549	2302.59
950.854	2267.57
951.16	2329.49
951.465	2247.91
951.77	2255.14
952.075	2257.62
952.38	2227.34
952.685	2227.57
952.99	2197.74
953.294	2212.65
953.599	2221.24
953.904	2214.91
954.209	2186.21
954.513	2189.6
954.818	2181.92
955.122	2140.11
955.426	2139.44
955.731	2181.02
956.035	2141.92
956.339	2132.43
956.643	2110.96
956.948	2145.76
957.252	2136.95
957.556	2116.61
957.86	2128.81
958.163	2104.63
958.467	2068.7
958.771	2050.85
959.075	2094.46
959.378	2037.74
959.682	2051.53
959.985	2046.56
960.289	2062.15
960.592	2009.72
960.896	2018.08
961.199	2030.96
961.502	2008.37
961.805	2003.39
962.108	1980.8
962.411	1957.29
962.714	1989.38
963.017	1958.42
963.32	1980.8
963.623	1934.02
963.926	1946.9
964.228	1939.44
964.531	1959.78
964.833	1919.55
965.136	1914.36
965.438	1916.84
965.741	1899.67
966.043	1894.24
966.345	1873
966.648	1865.09
966.95	1863.28
967.252	1850.4
967.554	1844.3
967.856	1830.29
968.158	1826.22
968.46	1821.48
968.761	1820.35
969.063	1823.06
969.365	1812.66
969.666	1785.32
969.968	1757.98
970.269	1788.94
970.571	1741.48
970.872	1787.13
971.174	1748.03
971.475	1784.42
971.776	1744.64
972.077	1720.01
972.378	1761.59
972.679	1733.8
972.98	1759.33
973.281	1712.1
973.582	1721.59
973.883	1732.21
974.183	1691.54
974.484	1701.03
974.785	1651.99
975.085	1680.01
975.386	1661.71
975.686	1665.32
975.986	1641.14
976.287	1635.72
976.587	1655.83
976.887	1672.33
977.187	1641.82
977.487	1641.14
977.787	1616.74
978.087	1621.48
978.387	1634.59
978.687	1592.11
978.987	1571.09
979.286	1612.44
979.586	1601.6
979.885	1577.42
980.185	1608.38
980.484	1582.61
980.784	1573.35
981.083	1541.26
981.382	1539.9
981.682	1545.78
981.981	1532.45
982.28	1530.86
982.579	1509.85
982.878	1505.55
983.177	1529.28
983.475	1533.35
983.774	1535.84
984.073	1519.11
984.372	1519.34
984.67	1528.38
984.969	1483.41
985.267	1489.73
985.566	1496.51
985.864	1458.32
986.162	1460.13
986.461	1456.97
986.759	1427.14
987.057	1417.19
987.355	1443.86
987.653	1426.01
987.951	1440.92
988.249	1403.18
988.547	1391.21
988.844	1419
989.142	1416.06
989.44	1394.37
989.737	1384.43
990.035	1368.38
990.332	1403.64
990.63	1383.52
990.927	1360.25
991.224	1368.61
991.521	1335.84
991.819	1370.42
992.116	1368.16
992.413	1352.34
992.71	1364.54
993.006	1354.6
993.303	1322.28
993.6	1329.97
993.897	1332.22
994.193	1333.81
994.49	1296.29
994.787	1294.71
995.083	1316.41
995.379	1286.35
995.676	1277.31
995.972	1266.69
996.268	1254.71
996.565	1284.99
996.861	1259.68
997.157	1250.42
997.453	1239.57
997.749	1265.56
998.044	1226.69
998.34	1228.95
998.636	1210.65
998.932	1219.91
999.227	1233.24
999.523	1219.69
999.818	1197.77
1000.114	1194.6
1000.409	1182.4
1000.704	1211.32
1001	1176.97
1001.295	1166.35
1001.59	1179.23
1001.885	1174.49
1002.18	1180.59
1002.475	1174.04
1002.77	1165.9
1003.065	1145.11
1003.359	1143.08
1003.654	1134.04
1003.949	1139.01
1004.243	1172.68
1004.538	1127.71
1004.832	1104.66
1005.127	1133.59
1005.421	1099.91
1005.715	1106.47
1006.009	1073.7
1006.304	1107.15
1006.598	1094.72
1006.892	1093.36
1007.186	1079.58
1007.48	1062.4
1007.773	1054.49
1008.067	1052.46
1008.361	1074.83
1008.655	1033.7
1008.948	1035.06
1009.242	1072.34
1009.535	1036.87
1009.829	1012.01
1010.122	1010.2
1010.415	1016.53
1010.708	1004.78
1011.001	1027.15
1011.295	995.51
1011.588	988.51
1011.881	1014.27
1012.173	979.69
1012.466	999.35
1012.759	1004.55
1013.052	997.32
1013.344	960.48
1013.637	985.57
1013.93	968.17
1014.222	969.75
1014.514	969.75
1014.807	945.12
1015.099	969.75
1015.391	957.32
1015.683	947.83
1015.976	950.77
1016.268	917.32
1016.56	941.05
1016.851	911.44
1017.143	924.55
1017.435	921.16
1017.727	919.35
1018.018	907.83
1018.31	909.41
1018.602	903.31
1018.893	888.85
1019.185	892.24
1019.476	868.06
1019.767	892.01
1020.058	902.41
1020.35	875.51
1020.641	875.51
1020.932	867.6
1021.223	852.24
1021.514	855.85
1021.804	819.47
1022.095	852.24
1022.386	834.61
1022.677	847.49
1022.967	852.24
1023.258	823.31
1023.548	826.48
1023.839	807.49
1024.129	831.22
1024.419	816.53
1024.709	798.91
1025	788.74
1025.29	802.52
1025.58	788.06
1025.87	806.59
1026.16	771.34
1026.449	795.97
1026.739	791
1027.029	786.48
1027.319	772.24
1027.608	769.3
1027.898	769.75
1028.187	760.71
1028.477	766.36
1028.766	760.04
1029.055	738.79
1029.344	762.3
1029.634	754.16
1029.923	722.75
1030.212	753.26
1030.501	739.47
1030.79	729.3
1031.078	712.58
1031.367	683.2
1031.656	700.83
1031.945	699.93
1032.233	688.4
1032.522	709.87
1032.81	706.48
1033.099	727.27
1033.387	694.73
1033.675	674.84
1033.963	657.44
1034.251	669.64
1034.54	673.03
1034.828	684.33
1035.116	646.82
1035.403	679.81
1035.691	659.7
1035.979	676.87
1036.267	656.31
1036.554	644.33
1036.842	644.11
1037.129	665.8
1037.417	643.88
1037.704	638.68
1037.992	632.13
1038.279	632.58
1038.566	628.29
1038.853	628.29
1039.14	628.29
