Data from cardboard_FLMS001491_023.txt Node
Date: Tue Feb 07 11:39:10 GMT 2017
User: dcchb
Spectrometer: FLMS00149
Trigger mode: 0
Integration Time (sec): 2.000000E-2
Scans to average: 10
Electric dark correction enabled: true
Nonlinearity correction enabled: false
Boxcar width: 0
XAxis mode: Wavelengths
Number of Pixels in Spectrum: 2048
>>>>>Begin Spectral Data<<<<<
341.393	-1.12
341.776	-1.12
342.16	-1.12
342.543	-80.66
342.927	-98.74
343.31	-71.4
343.693	-60.1
344.077	-71.4
344.46	-42.7
344.843	-66.65
345.226	-46.09
345.61	-21.68
345.993	-29.14
346.376	-6.54
346.759	-1.57
347.142	22.61
347.525	52.22
347.908	52.44
348.291	71.42
348.674	112.33
349.057	106.23
349.44	118.88
349.823	144.87
350.206	146
350.588	169.05
350.971	203.17
351.354	208.6
351.737	223.74
352.119	227.35
352.502	238.2
352.884	263.96
353.267	288.37
353.65	278.65
354.032	296.05
354.414	289.05
354.797	299.22
355.179	290.63
355.562	308.25
355.944	313.9
356.326	304.19
356.709	307.12
357.091	311.19
357.473	324.3
357.855	329.72
358.238	321.59
358.62	342.83
359.002	340.12
359.384	325.66
359.766	341.25
360.148	315.71
360.53	329.05
360.912	315.94
361.294	323.4
361.676	330.17
362.057	315.94
362.439	313.45
362.821	315.03
363.203	318.2
363.584	315.71
363.966	298.76
364.348	304.19
364.729	297.18
365.111	315.94
365.493	307.58
365.874	293.34
366.256	297.18
366.637	307.58
367.019	308.03
367.4	301.7
367.781	298.09
368.163	309.16
368.544	298.99
368.925	296.5
369.306	321.59
369.688	294.47
370.069	298.76
370.45	310.29
370.831	292.66
371.212	290.18
371.593	300.8
371.974	313
372.355	298.99
372.736	301.25
373.117	315.26
373.498	289.5
373.879	297.86
374.26	296.5
374.641	294.7
375.021	304.41
375.402	296.5
375.783	302.15
376.163	298.99
376.544	303.28
376.925	289.5
377.305	302.38
377.686	289.27
378.066	308.48
378.447	308.48
378.827	330.17
379.208	315.26
379.588	303.51
379.968	313.45
380.349	301.25
380.729	311.42
381.109	304.41
381.489	317.07
381.87	346.45
382.25	310.06
382.63	311.42
383.01	304.64
383.39	311.42
383.77	317.52
384.15	324.98
384.53	333.79
384.91	324.75
385.29	308.93
385.67	318.2
386.049	311.19
386.429	319.78
386.809	330.4
387.189	324.98
387.568	290.4
387.948	314.81
388.328	342.38
388.707	342.83
389.087	318.2
389.466	323.85
389.846	347.35
390.225	332.66
390.605	344.41
390.984	332.21
391.363	348.03
391.743	336.05
392.122	351.19
392.501	351.42
392.881	338.08
393.26	356.84
393.639	356.16
394.018	360.23
394.397	344.19
394.776	337.86
395.155	373.11
395.534	362.94
395.913	351.42
396.292	357.07
396.671	347.58
397.05	354.13
397.429	361.13
397.808	347.35
398.186	342.83
398.565	354.58
398.944	357.97
399.323	339.89
399.701	371.76
400.08	373.34
400.458	372.21
400.837	362.04
401.215	362.04
401.594	369.27
401.972	385.99
402.351	385.77
402.729	383.05
403.107	370.17
403.486	371.98
403.864	383.28
404.242	373.56
404.62	384.64
404.999	362.26
405.377	380.34
405.755	375.37
406.133	383.73
406.511	376.73
406.889	409.04
407.267	385.54
407.645	379.67
408.023	399.78
408.401	382.15
408.779	400
409.156	410.4
409.534	392.09
409.912	403.17
410.29	415.14
410.667	423.96
411.045	398.2
411.422	422.83
411.8	396.84
412.178	421.25
412.555	417.63
412.933	411.53
413.31	426.22
413.687	435.03
414.065	433.45
414.442	441.58
414.819	437.74
415.197	447.01
415.574	437.74
415.951	426.67
416.328	443.39
416.705	447.91
417.082	442.26
417.46	471.87
417.837	449.49
418.214	463.05
418.591	456.05
418.967	448.36
419.344	459.89
419.721	464.41
420.098	467.12
420.475	447.23
420.852	458.76
421.228	456.95
421.605	457.63
421.982	486.78
422.358	469.61
422.735	505.09
423.111	471.64
423.488	498.76
423.864	480
424.241	497.63
424.617	485.65
424.994	491.75
425.37	480.45
425.746	477.97
426.123	473.22
426.499	499.21
426.875	510.06
427.251	503.96
427.627	512.32
428.003	528.36
428.379	508.93
428.756	517.29
429.132	533.79
429.507	540.11
429.883	538.08
430.259	536.27
430.635	529.04
431.011	548.47
431.387	534.24
431.763	566.78
432.138	573.11
432.514	565.42
432.89	578.3
433.265	567.91
433.641	578.3
434.016	577.4
434.392	582.37
434.767	586.67
435.143	607.23
435.518	622.6
435.894	623.05
436.269	592.54
436.644	604.97
437.02	619.88
437.395	641.58
437.77	629.38
438.145	615.37
438.52	643.61
438.895	637.29
439.271	657.85
439.646	614.24
440.021	654.91
440.395	640
440.77	635.7
441.145	673.44
441.52	669.83
441.895	666.21
442.27	655.59
442.645	680.45
443.019	672.54
443.394	701.24
443.769	682.26
444.143	701.92
444.518	688.36
444.892	684.52
445.267	691.75
445.641	702.37
446.016	694.46
446.39	708.02
446.764	703.27
447.139	705.08
447.513	715.7
447.887	736.49
448.262	729.71
448.636	713.67
449.01	717.28
449.384	744.18
449.758	720.22
450.132	724.06
450.506	744.4
450.88	723.61
451.254	736.49
451.628	748.24
452.002	758.64
452.376	770.39
452.75	763.38
453.123	792.54
453.497	782.37
453.871	801.12
454.244	789.82
454.618	789.82
454.992	792.54
455.365	822.59
455.739	821.01
456.112	846.55
456.486	842.03
456.859	847.9
457.232	854.68
457.606	867.11
457.979	879.09
458.352	868.47
458.725	878.64
459.099	897.17
459.472	894.91
459.845	910.72
460.218	933.32
460.591	939.42
460.964	886.77
461.337	965.19
461.71	937.39
462.083	958.63
462.456	957.96
462.829	965.41
463.201	980.55
463.574	971.74
463.947	995.92
464.32	1002.02
464.692	1031.63
465.065	1018.74
465.438	1011.74
465.81	1043.6
466.183	1036.6
466.555	1085.64
466.928	1080.21
467.3	1065.52
467.672	1106.88
468.045	1076.82
468.417	1127.89
468.789	1134.9
469.161	1135.13
469.534	1148.46
469.906	1167.89
470.278	1166.31
470.65	1175.35
471.022	1200.66
471.394	1204.5
471.766	1229.81
472.138	1244.73
472.51	1267.33
472.882	1287.21
473.253	1285.4
473.625	1289.92
473.997	1335.12
474.369	1331.5
474.74	1368.11
475.112	1391.39
475.484	1390.94
475.855	1410.37
476.227	1417.38
476.598	1473.65
476.97	1456.47
477.341	1489.47
477.713	1531.27
478.084	1521.56
478.455	1581.67
478.827	1577.37
479.198	1581.89
479.569	1604.94
479.94	1666.86
480.311	1700.31
480.682	1694.21
481.053	1716.35
481.424	1770.59
481.795	1749.8
482.166	1789.12
482.537	1780.53
482.908	1875.9
483.279	1895.11
483.65	1906.86
484.021	1951.6
484.391	1984.59
484.762	2011.94
485.133	1998.83
485.503	2023.01
485.874	2056.01
486.244	2091.03
486.615	2145.72
486.985	2146.62
487.356	2181.65
487.726	2200.18
488.097	2244.25
488.467	2270.46
488.837	2324.47
489.207	2303.68
489.578	2333.51
489.948	2365.38
490.318	2422.78
490.688	2434.98
491.058	2466.62
491.428	2472.72
491.798	2523.34
492.168	2562.21
492.538	2530.8
492.908	2581.19
493.278	2639.94
493.648	2627.52
494.017	2677.91
494.387	2714.75
494.757	2730.34
495.126	2807.62
495.496	2799.49
495.866	2842.43
496.235	2863.44
496.605	2869.09
496.974	2881.07
497.344	2960.39
497.713	2950.9
498.082	3027.73
498.452	3007.39
498.821	3029.54
499.19	3035.19
499.559	3086.49
499.928	3079.26
500.298	3135.3
500.667	3186.82
501.036	3176.2
501.405	3224.56
501.774	3227.27
502.143	3212.81
502.512	3312.92
502.88	3316.54
503.249	3323.54
503.618	3341.85
503.987	3349.76
504.356	3406.48
504.724	3439.7
505.093	3426.82
505.462	3458
505.83	3500.71
506.199	3553.82
506.567	3570.77
506.936	3574.84
507.304	3566.47
507.672	3681.95
508.041	3673.82
508.409	3748.62
508.777	3745.23
509.145	3783.42
509.514	3801.5
509.882	3877.43
510.25	3891.21
510.618	3894.15
510.986	3933.47
511.354	3999.68
511.722	4010.98
512.09	4027.93
512.458	4066.8
512.826	4120.58
513.193	4122.84
513.561	4137.98
513.929	4195.38
514.297	4238.77
514.664	4265.66
515.032	4272.67
515.4	4327.36
515.767	4354.48
516.135	4401.03
516.502	4408.26
516.869	4517.18
517.237	4506.11
517.604	4537.52
517.972	4609.16
518.339	4654.36
518.706	4643.28
519.073	4669.5
519.44	4726.9
519.808	4763.73
520.175	4748.59
520.542	4860
520.909	4874.91
521.276	4937.51
521.643	4955.36
522.009	5024.51
522.376	5113.55
522.743	5104.96
523.11	5150.39
523.477	5169.82
523.843	5271.74
524.21	5306.77
524.577	5405.75
524.943	5398.97
525.31	5421.34
525.676	5476.71
526.043	5521.68
526.409	5608.23
526.776	5621.34
527.142	5726.42
527.508	5740.43
527.874	5765.74
528.241	5816.13
528.607	5829.92
528.973	5868.11
529.339	5930.48
529.705	5947.2
530.071	6047.99
530.437	6090.25
530.803	6122.57
531.169	6172.06
531.535	6194.2
531.901	6231.04
532.267	6273.52
532.632	6316.91
532.998	6324.37
533.364	6426.51
533.73	6455.21
534.095	6587.86
534.461	6582.89
534.826	6582.67
535.192	6598.94
535.557	6740.63
535.923	6707.63
536.288	6785.82
536.653	6762.55
537.019	6859.95
537.384	6851.59
537.749	6889.78
538.114	6972.71
538.479	6988.3
538.845	7073.05
539.21	7059.72
539.575	7123.67
539.94	7078.92
540.305	7184.01
540.67	7219.71
541.034	7240.95
541.399	7298.81
541.764	7327.96
542.129	7351.01
542.494	7403.44
542.858	7509.2
543.223	7464.68
543.587	7534.96
543.952	7544.67
544.316	7619.25
544.681	7627.38
545.045	7671.45
545.41	7707.83
545.774	7775.63
546.138	7803.2
546.503	7863.31
546.867	7922.97
547.231	8004.32
547.595	7986.7
547.959	7977.88
548.324	8058.79
548.688	8035.06
549.052	8102.85
549.416	8151.89
549.779	8178.33
550.143	8180.59
550.507	8303.52
550.871	8321.38
551.235	8320.25
551.599	8440.24
551.962	8489.73
552.326	8492.67
552.689	8537.64
553.053	8561.6
553.417	8635.49
553.78	8734.47
554.143	8708.49
554.507	8818.09
554.87	8815.83
555.234	8923.4
555.597	8879.55
555.96	9007.23
556.323	8972.43
556.686	8997.52
557.05	9124.29
557.413	9171.07
557.776	9210.39
558.139	9217.62
558.502	9297.4
558.865	9330.84
559.228	9400.67
559.59	9485.41
559.953	9488.58
560.316	9586.65
560.679	9611.51
561.041	9696.26
561.404	9706.2
561.767	9835.69
562.129	9803.82
562.492	9912.75
562.854	9998.62
563.217	9992.07
563.579	10021.22
563.941	10091.05
564.304	10129.01
564.666	10212.4
565.028	10300.99
565.39	10287.2
565.753	10413.07
566.115	10486.52
566.477	10563.35
566.839	10519.51
567.201	10660.75
567.563	10654.88
567.925	10783.23
568.287	10746.85
568.648	10833.4
569.01	10940.29
569.372	10965.15
569.734	10941.42
570.095	11063.45
570.457	11151.13
570.819	11137.35
571.18	11180.74
571.542	11312.49
571.903	11274.75
572.265	11315.65
572.626	11387.96
572.987	11434.74
573.349	11505.47
573.71	11535.3
574.071	11551.8
574.432	11643.32
574.794	11781.85
575.155	11780.95
575.516	11716.77
575.877	11737.56
576.238	11791.79
576.599	11907.27
576.96	11954.05
577.32	11985.91
577.681	12025.69
578.042	12050.32
578.403	12048.96
578.763	12112.69
579.124	12108.62
579.485	12221.39
579.845	12292.35
580.206	12250.09
580.566	12299.58
580.927	12283.31
581.287	12382.74
581.648	12385.9
582.008	12447.37
582.368	12392.68
582.728	12460.25
583.089	12494.83
583.449	12481.04
583.809	12484.88
584.169	12592.9
584.529	12561.94
584.889	12670.64
585.249	12628.83
585.609	12610.98
585.969	12699.12
586.329	12620.25
586.688	12739.57
587.048	12783.18
587.408	12728.72
587.768	12775.72
588.127	12860.47
588.487	12742.96
588.846	12853.24
589.206	12761.71
589.565	12850.98
589.925	12931.88
590.284	12941.82
590.643	12916.28
591.003	12902.5
591.362	13060.01
591.721	13027.92
592.08	13058.43
592.44	13067.02
592.799	13129.84
593.158	13058.2
593.517	13069.95
593.876	13091.42
594.235	13158.31
594.593	13178.42
594.952	13193.57
595.311	13239.67
595.67	13201.25
596.029	13292.55
596.387	13318.99
596.746	13326.67
597.104	13305.43
597.463	13347.23
597.822	13367.57
598.18	13395.37
598.538	13408.02
598.897	13482.82
599.255	13362.83
599.613	13595.36
599.972	13489.6
600.33	13563.95
600.688	13449.15
601.046	13557.62
601.404	13639.88
601.762	13607.11
602.12	13677.85
602.478	13790.61
602.836	13777.5
603.194	13724.17
603.552	13714
603.91	13664.06
604.268	13726.66
604.625	13690.95
604.983	13834.68
605.341	13760.56
605.698	13850.05
606.056	13894.56
606.413	13897.5
606.771	14004.84
607.128	14002.58
607.485	13912.42
607.843	13999.87
608.2	14081.68
608.557	14170.04
608.914	14033.09
609.272	14135.91
609.629	14105.86
609.986	14225.4
610.343	14164.61
610.7	14324.38
611.057	14248.23
611.414	14182.24
611.771	14247.1
612.127	14329.13
612.484	14360.09
612.841	14404.61
613.198	14365.51
613.554	14492.06
613.911	14498.16
614.267	14506.07
614.624	14481.89
614.98	14565.28
615.337	14602.34
615.693	14574.77
616.05	14464.94
616.406	14774.09
616.762	14681.21
617.118	14704.94
617.475	14667.88
617.831	14772.96
618.187	14731.83
618.543	14733.64
618.899	14868.32
619.255	14832.39
619.611	14775.9
619.967	14871.26
620.323	14923.46
620.678	14974.99
621.034	14862.45
621.39	14875.78
621.746	14930.92
622.101	15066.51
622.457	14894.09
622.812	14955.55
623.168	15058.38
623.523	15055.89
623.879	15144.7
624.234	15011.37
624.589	15079.39
624.945	15077.36
625.3	15110.8
625.655	15111.26
626.01	15048.66
626.365	15196.45
626.72	15176.79
627.075	15146.73
627.43	15086.62
627.785	15083.46
628.14	15095.66
628.495	15225.83
628.85	15153.06
629.205	15193.29
629.559	15136.79
629.914	15249.78
630.269	15245.71
630.623	15150.35
630.978	15072.84
631.332	15200.74
631.687	15211.37
632.041	15124.36
632.396	15208.43
632.75	15188.54
633.104	15216.56
633.459	15120.52
633.813	15107.41
634.167	15174.3
634.521	15124.81
634.875	15221.53
635.229	15135.66
635.583	15071.71
635.937	15139.28
636.291	15127.98
636.645	15100.86
636.999	15080.97
637.352	15145.6
637.706	15050.24
638.06	15156.45
638.413	15099.5
638.767	15032.84
639.121	15048.66
639.474	14986.96
639.828	14976.12
640.181	15012.27
640.534	15040.52
640.888	15031.71
641.241	15043.23
641.594	15013.86
641.947	15033.74
642.301	14947.87
642.654	15121.42
643.007	15075.32
643.36	15000.75
643.713	14992.84
644.066	14997.81
644.419	14952.84
644.771	14953.52
645.124	14822.9
645.477	14731.6
645.83	14667.88
646.182	14615.45
646.535	14603.02
646.888	14613.42
647.24	14589.24
647.593	14716.92
647.945	14666.75
648.298	14587.65
648.65	14521.89
649.002	14448.45
649.355	14640.76
649.707	14518.5
650.059	14611.38
650.411	14894.31
650.763	14856.35
651.115	14962.11
651.467	14979.51
651.819	14898.61
652.171	14971.15
652.523	14923.69
652.875	15004.59
653.227	14825.39
653.578	15038.49
653.93	14930.02
654.282	14938.83
654.633	14828.1
654.985	14937.25
655.337	14877.59
655.688	14911.49
656.039	14943.8
656.391	14790.59
656.742	14831.49
657.094	14854.31
657.445	14911.26
657.796	14959.62
658.147	14825.61
658.498	14869.23
658.849	14926.85
659.2	14940.19
659.551	14881.43
659.902	14869.91
660.253	14893.63
660.604	14927.08
660.955	14928.89
661.306	14917.81
661.656	14953.07
662.007	14920.07
662.358	14904.93
662.708	14918.72
663.059	14942.9
663.409	14790.13
663.76	14899.96
664.11	14970.92
664.461	15023.12
664.811	14915.55
665.161	14903.35
665.511	15005.72
665.862	14982.67
666.212	15004.59
666.562	14950.58
666.912	14920.75
667.262	14871.26
667.612	14932.73
667.962	14895.67
668.312	15033.07
668.662	14970.47
669.011	14991.71
669.361	14976.34
669.711	14950.58
670.06	14935.21
670.41	14984.25
670.76	14914.42
671.109	14971.15
671.459	14911.71
671.808	14878.49
672.157	14993.07
672.507	14857.93
672.856	14934.76
673.205	14924.37
673.554	14960.07
673.904	14905.61
674.253	14984.25
674.602	14980.19
674.951	14750.13
675.3	14688.89
675.649	14952.39
675.998	14906.06
676.346	14912.16
676.695	14914.42
677.044	14819.51
677.393	14895.67
677.741	14911.49
678.09	14915.33
678.438	14750.59
678.787	14888.66
679.135	14921.66
679.484	14823.13
679.832	14908.1
680.181	14777.25
680.529	14815.9
680.877	14806.63
681.225	14807.53
681.573	14962.78
681.922	14802.79
682.27	14778.38
682.618	14801.66
682.966	14720.98
683.314	14805.05
683.661	14800.3
684.009	14654.77
684.357	14645.73
684.705	14627.43
685.053	14710.59
685.4	14628.78
685.748	14605.96
686.095	14577.03
686.443	14560.08
686.79	14564.83
687.138	14552.85
687.485	14514.66
687.832	14452.97
688.18	14514.66
688.527	14373.87
688.874	14404.38
689.221	14418.39
689.568	14329.13
689.915	14329.58
690.262	14287.1
690.609	14340.2
690.956	14365.51
691.303	14285.97
691.65	14206.19
691.997	14135.69
692.344	14176.82
692.69	14149.25
693.037	14078.29
693.383	14058.4
693.73	14048.46
694.077	13981.79
694.423	13963.71
694.769	13965.3
695.116	13972.08
695.462	13894.79
695.808	13938.18
696.155	13870.38
696.501	13816.6
696.847	13819.09
697.193	13795.58
697.539	13786.77
697.885	13739.31
698.231	13712.65
698.577	13747
698.923	13686.89
699.269	13572.54
699.614	13473.11
699.96	13508.81
700.306	13481.02
700.651	13435.82
700.997	13488.25
701.342	13462.49
701.688	13427.01
702.033	13377.74
702.379	13443.05
702.724	13351.98
703.069	13323.96
703.415	13125.77
703.76	13218.42
704.105	13140.69
704.45	13230.85
704.795	13190.63
705.14	13204.41
705.485	13070.86
705.83	13028.37
706.175	13050.29
706.52	13121.25
706.865	12997.86
707.209	13000.58
707.554	12954.02
707.899	12996.73
708.243	12921.26
708.588	12843.52
708.932	12808.94
709.277	12798.77
709.621	12773.92
709.966	12723.97
710.31	12698.21
710.654	12699.57
710.998	12695.05
711.342	12706.57
711.687	12646.91
712.031	12611.21
712.375	12608.5
712.719	12609.17
713.063	12576.63
713.407	12681.04
713.75	12567.14
714.094	12527.14
714.438	12462.06
714.782	12522.4
715.125	12412.12
715.469	12525.79
715.812	12450.76
716.156	12365.79
716.499	12358.11
716.843	12343.42
717.186	12327.6
717.53	12333.48
717.873	12417.77
718.216	12351.33
718.559	12267.94
718.902	12202.18
719.246	12215.29
719.589	12290.31
719.932	12231.33
720.275	12154.72
720.617	12184.1
720.96	12106.36
721.303	12108.4
721.646	12085.57
721.989	12071.11
722.331	12116.08
722.674	12098.68
723.016	12149.98
723.359	12166.93
723.701	12095.06
724.044	11981.85
724.386	12022.3
724.729	12081.05
725.071	12064.33
725.413	11992.47
725.755	12032.69
726.097	11988.63
726.439	11946.14
726.782	11935.75
727.124	12014.61
727.465	11893.94
727.807	11979.59
728.149	11922.19
728.491	11833.38
728.833	11877.22
729.175	11883.32
729.516	11900.49
729.858	11801.51
730.199	11931.68
730.541	11819.82
730.882	11783.66
731.224	11852.13
731.565	11740.04
731.906	11767.61
732.248	11834.96
732.589	11692.81
732.93	11731.01
733.271	11749.99
733.612	11743.43
733.953	11837.89
734.294	11771.91
734.635	11718.12
734.976	11756.99
735.317	11721.97
735.658	11631.8
735.999	11663.21
736.339	11714.51
736.68	11699.82
737.021	11671.57
737.361	11598.35
737.702	11649.2
738.042	11621.86
738.383	11662.08
738.723	11694.85
739.063	11598.35
739.404	11695.07
739.744	11633.38
740.084	11555.42
740.424	11614.85
740.764	11633.83
741.104	11566.04
741.444	11600.61
741.784	11525.59
742.124	11557.9
742.464	11577.34
742.804	11566.26
743.143	11420.5
743.483	11554.96
743.823	11502.08
744.162	11508.86
744.502	11527.85
744.841	11491.46
745.181	11575.98
745.52	11380.73
745.86	11394.74
746.199	11485.14
746.538	11411.01
746.877	11470.22
747.216	11469.32
747.556	11470.67
747.895	11382.77
748.234	11344.12
748.573	11400.84
748.911	11343.9
749.25	11391.35
749.589	11335.99
749.928	11390.45
750.267	11351.35
750.605	11395.19
750.944	11368.3
751.283	11366.72
751.621	11364.24
751.96	11237.46
752.298	11239.04
752.636	11314.52
752.975	11227.74
753.313	11168.76
753.651	11213.05
753.989	11161.98
754.327	11200.4
754.666	11116.78
755.004	11204.92
755.342	11140.51
755.679	11114.07
756.017	11128.76
756.355	11169.21
756.693	11079.95
757.031	11040.18
757.368	11060.74
757.706	11086.73
758.044	11067.52
758.381	11021.42
758.719	10957.24
759.056	11004.92
759.394	10978.71
759.731	10866.17
760.068	10925.6
760.405	10893.74
760.743	10873.4
761.08	10885.6
761.417	10815.55
761.754	10786.4
762.091	10824.81
762.428	10784.14
762.765	10695.78
763.102	10753.86
763.438	10763.12
763.775	10667.76
764.112	10677.7
764.449	10665.27
764.785	10596.12
765.122	10576.69
765.458	10537.59
765.795	10550.02
766.131	10492.85
766.467	10439.97
766.804	10390.25
767.14	10380.31
767.476	10470.7
767.812	10352.06
768.148	10386.86
768.485	10279.97
768.821	10224.15
769.157	10240.65
769.492	10273.64
769.828	10218.5
770.164	10135.79
770.5	10173.98
770.836	10114.55
771.171	10072.29
771.507	10080.65
771.842	9975.8
772.178	10004.72
772.513	9985.29
772.849	9990.71
773.184	9888.34
773.519	9925.63
773.855	9830.94
774.19	9842.92
774.525	9835.01
774.86	9858.06
775.195	9766.99
775.53	9710.95
775.865	9716.14
776.2	9596.82
776.535	9578.07
776.87	9502.82
777.205	9568.58
777.539	9520.89
777.874	9486.77
778.209	9446.77
778.543	9411.29
778.878	9356.15
779.212	9362.25
779.547	9358.86
779.881	9270.96
780.215	9302.59
780.55	9286.55
780.884	9196.83
781.218	9219.21
781.552	9211.98
781.886	9136.05
782.22	9184.18
782.554	9131.75
782.888	8988.7
783.222	9019.66
783.556	8970.17
783.889	9009.27
784.223	8885.43
784.557	8904.19
784.89	8898.31
785.224	8908.71
785.557	8787.58
785.891	8781.7
786.224	8762.5
786.558	8776.05
786.891	8650.41
787.224	8645.66
787.557	8631.88
787.891	8638.21
788.224	8593.01
788.557	8624.87
788.89	8569.96
789.223	8528.15
789.556	8485.21
789.888	8466.23
790.221	8476.4
790.554	8394.6
790.887	8364.99
791.219	8364.54
791.552	8345.78
791.884	8379.68
792.217	8329.29
792.549	8321.15
792.882	8286.58
793.214	8196.63
793.546	8243.87
793.879	8169.29
794.211	8104.66
794.543	8145.34
794.875	8119.8
795.207	8085
795.539	8112.8
795.871	8021.05
796.203	7997.32
796.535	7953.7
796.867	7978.79
797.198	7962.29
797.53	7952.35
797.862	7803.65
798.193	7883.87
798.525	7842.52
798.856	7849.53
799.188	7772.47
799.519	7766.82
799.85	7709.64
800.182	7715.29
800.513	7725.91
800.844	7651.56
801.175	7698.79
801.506	7616.54
801.837	7599.59
802.168	7698.79
802.499	7620.6
802.83	7489.31
803.161	7538.35
803.491	7492.92
803.822	7533.15
804.153	7451.57
804.483	7468.74
804.814	7401.63
805.145	7446.15
805.475	7409.54
805.805	7372.25
806.136	7359.37
806.466	7383.32
806.796	7333.15
807.126	7223.78
807.457	7282.08
807.787	7302.42
808.117	7207.06
808.447	7177.23
808.777	7270.11
809.107	7230.33
809.436	7239.82
809.766	7177
810.096	7186.04
810.426	7111.92
810.755	7160.05
811.085	7107.85
811.414	7082.99
811.744	7091.35
812.073	7016.1
812.403	7051.81
812.732	7021.52
813.061	7002.09
813.39	6955.99
813.719	6968.19
814.049	7021.75
814.378	7009.77
814.707	6975.42
815.036	6946.5
815.365	6916.67
815.693	6854.75
816.022	6855.88
816.351	6876.67
816.68	6837.8
817.008	6879.61
817.337	6750.35
817.665	6781.08
817.994	6775.88
818.322	6766.16
818.651	6753.96
818.979	6684.36
819.307	6767.97
819.636	6732.27
819.964	6713.51
820.292	6672.61
820.62	6724.13
820.948	6716.45
821.276	6633.96
821.604	6679.39
821.932	6715.54
822.259	6701.76
822.587	6726.84
822.915	6617.92
823.243	6657.92
823.57	6649.78
823.898	6644.36
824.225	6665.15
824.553	6658.37
824.88	6649.78
825.207	6697.24
825.535	6692.04
825.862	6730.01
826.189	6671.03
826.516	6677.58
826.843	6688.88
827.17	6705.37
827.497	6653.62
827.824	6674.87
828.151	6709.89
828.478	6711.7
828.805	6685.71
829.131	6707.41
829.458	6664.47
829.785	6659.5
830.111	6652.72
830.438	6719.16
830.764	6635.77
831.09	6659.27
831.417	6595.77
831.743	6704.7
832.069	6692.49
832.395	6632.83
832.722	6673.74
833.048	6666.05
833.374	6654.98
833.7	6625.15
834.026	6658.6
834.351	6645.49
834.677	6626.51
835.003	6644.59
835.329	6600.74
835.654	6617.69
835.98	6597.58
836.306	6566.17
836.631	6583.8
836.956	6691.14
837.282	6594.87
837.607	6562.33
837.932	6514.65
838.258	6519.62
838.583	6506.74
838.908	6489.34
839.233	6479.39
839.558	6511.71
839.883	6432.39
840.208	6476.68
840.533	6470.58
840.858	6429.22
841.182	6475.32
841.507	6458.83
841.832	6438.04
842.156	6421.77
842.481	6414.53
842.805	6388.55
843.13	6392.84
843.454	6357.81
843.778	6382.45
844.103	6336.8
844.427	6333.86
844.751	6332.05
845.075	6298.61
845.399	6255.67
845.723	6258.61
846.047	6283.01
846.371	6193.98
846.695	6226.52
847.019	6164.15
847.343	6218.38
847.666	6154.2
847.99	6108.55
848.313	6123.02
848.637	6054.32
848.96	6041.89
849.284	6008.44
849.607	5982.91
849.931	5947.88
850.254	5949.01
850.577	5929.35
850.9	5924.83
851.223	5866.3
851.546	5843.25
851.869	5876.47
852.192	5855.23
852.515	5770.94
852.838	5793.31
853.161	5796.92
853.483	5739.52
853.806	5750.15
854.129	5737.04
854.451	5660.2
854.774	5714.44
855.096	5695.46
855.419	5689.13
855.741	5627.66
856.063	5573.2
856.385	5641.45
856.708	5605.06
857.03	5592.86
857.352	5555.57
857.674	5555.12
857.996	5528.68
858.318	5493.43
858.64	5502.69
858.961	5498.85
859.283	5468.34
859.605	5437.84
859.926	5501.11
860.248	5451.85
860.57	5395.13
860.891	5415.01
861.212	5368.01
861.534	5411.4
861.855	5373.21
862.176	5363.26
862.498	5356.94
862.819	5361
863.14	5356.26
863.461	5336.37
863.782	5295.02
864.103	5278.97
864.424	5298.63
864.745	5296.15
865.065	5256.15
865.386	5289.37
865.707	5259.76
866.027	5247.56
866.348	5203.49
866.668	5277.62
866.989	5296.37
867.309	5202.59
867.63	5207.11
867.95	5232.87
868.27	5236.94
868.59	5233.55
868.91	5204.4
869.23	5196.26
869.55	5186.77
869.87	5120.56
870.19	5180.44
870.51	5142.03
870.83	5118.3
871.15	5128.69
871.469	5141.57
871.789	5113.1
872.109	5123.5
872.428	5114.46
872.748	5152.87
873.067	5081.69
873.386	5102.03
873.706	5137.96
874.025	5042.37
874.344	5080.33
874.663	5073.1
874.982	5054.34
875.301	5047.79
875.62	5074.23
875.939	5050.95
876.258	5059.09
876.577	5025.87
876.896	5003.27
877.214	5013.44
877.533	5022.93
877.852	5003.05
878.17	5040.33
878.489	4976.38
878.807	4998.3
879.125	4990.62
879.444	4958.3
879.762	4984.52
880.08	4926.89
880.398	4952.65
880.716	4931.64
881.034	4882.37
881.352	4905.42
881.67	4914.24
881.988	4889.38
882.306	4884.18
882.624	4871.3
882.941	4891.64
883.259	4855.71
883.577	4801.47
883.894	4874.91
884.212	4854.8
884.529	4762.37
884.846	4774.13
885.164	4787.68
885.481	4773
885.798	4800.79
886.115	4758.99
886.432	4749.04
886.75	4755.6
887.067	4747.69
887.383	4728.48
887.7	4727.8
888.017	4752.43
888.334	4716.27
888.651	4658.87
888.967	4690.96
889.284	4677.63
889.6	4662.26
889.917	4632.89
890.233	4662.26
890.55	4581.59
890.866	4640.57
891.182	4583.62
891.498	4582.49
891.815	4577.75
892.131	4534.13
892.447	4573.91
892.763	4507.69
893.079	4536.84
893.395	4490.52
893.71	4505.88
894.026	4455.72
894.342	4469.05
894.657	4448.26
894.973	4446.45
895.289	4455.72
895.604	4428.37
895.92	4399.67
896.235	4376.85
896.55	4382.27
896.865	4356.51
897.181	4399.22
897.496	4334.36
897.811	4354.48
898.126	4330.97
898.441	4317.41
898.756	4318.77
899.071	4257.53
899.386	4258.21
899.7	4205.78
900.015	4232.45
900.33	4210.98
900.644	4203.52
900.959	4266.12
901.273	4201.94
901.588	4118.78
901.902	4153.13
902.216	4136.4
902.531	4099.57
902.845	4140.92
903.159	4137.31
903.473	4062.96
903.787	4037.87
904.101	4022.51
904.415	4043.98
904.729	4069.96
905.042	4079.23
905.356	4014.37
905.67	4001.04
905.984	4002.17
906.297	3972.57
906.611	3959.46
906.924	3896.86
907.237	3931.21
907.551	3925.11
907.864	3905.45
908.177	3869.52
908.491	3910.42
908.804	3854.15
909.117	3792.68
909.43	3853.02
909.743	3813.47
910.056	3810.31
910.368	3770.54
910.681	3741.16
910.994	3715.4
911.307	3766.02
911.619	3728.05
911.932	3755.4
912.244	3650.09
912.557	3693.93
912.869	3689.86
913.181	3659.58
913.494	3674.72
913.806	3596.98
914.118	3622.52
914.43	3598.79
914.742	3579.36
915.054	3547.94
915.366	3586.36
915.678	3563.76
915.99	3530.99
916.302	3496.19
916.613	3510.66
916.925	3485.35
917.236	3518.11
917.548	3482.63
917.859	3494.39
918.171	3453.71
918.482	3458.68
918.794	3414.16
919.105	3453.93
919.416	3364.9
919.727	3386.37
920.038	3366.48
920.349	3329.19
920.66	3378
920.971	3330.32
921.282	3312.7
921.593	3301.85
921.903	3294.16
922.214	3272.7
922.525	3273.6
922.835	3252.81
923.146	3236.09
923.456	3205.81
923.767	3244
924.077	3207.61
924.387	3183.43
924.697	3214.17
925.008	3171.46
925.318	3139.14
925.628	3175.98
925.938	3100.5
926.248	3104.57
926.558	3128.07
926.867	3114.96
927.177	3095.75
927.487	3067.05
927.796	3050.56
928.106	3061.18
928.416	3015.98
928.725	3046.49
929.034	3011.91
929.344	3017.34
929.653	3010.56
929.962	2990.44
930.271	2940.28
930.581	2948.19
930.89	2919.94
931.199	2943.21
931.508	2946.15
931.817	2954.29
932.125	2881.07
932.434	2931.46
932.743	2848.07
933.051	2877.68
933.36	2847.62
933.669	2841.75
933.977	2812.6
934.286	2827.28
934.594	2827.96
934.902	2806.72
935.21	2770.34
935.519	2764.46
935.827	2764.01
936.135	2737.8
936.443	2720.39
936.751	2738.47
937.059	2735.76
937.367	2742.77
937.674	2751.81
937.982	2702.77
938.29	2711.36
938.597	2667.29
938.905	2647.18
939.213	2663.9
939.52	2652.83
939.827	2618.25
940.135	2639.04
940.442	2621.64
940.749	2579.16
941.056	2621.64
941.363	2543.22
941.67	2561.98
941.977	2512.26
942.284	2541.42
942.591	2567.63
942.898	2548.87
943.205	2521.53
943.511	2488.54
943.818	2498.03
944.125	2506.61
944.431	2479.5
944.738	2481.53
945.044	2474.98
945.35	2439.5
945.657	2447.63
945.963	2458.03
946.269	2399.73
946.575	2424.58
946.881	2437.24
947.187	2420.97
947.493	2355.21
947.799	2379.61
948.105	2380.52
948.41	2387.52
948.716	2357.69
949.022	2361.76
949.327	2326.28
949.633	2326.96
949.938	2321.99
950.244	2348.2
950.549	2322.66
950.854	2291.25
951.16	2304.36
951.465	2247.19
951.77	2256.9
952.075	2253.97
952.38	2279.05
952.685	2239.05
952.99	2205.83
953.294	2209.45
953.599	2216.23
953.904	2180.07
954.209	2218.71
954.513	2203.35
954.818	2181.2
955.122	2151.82
955.426	2164.48
955.731	2143.69
956.035	2129.68
956.339	2166.06
956.643	2143.91
956.948	2129.68
957.252	2104.82
957.556	2092.84
957.86	2067.98
958.163	2105.5
958.467	2052.16
958.771	2061.43
959.075	2069.56
959.378	2057.81
959.682	2040.64
959.985	2043.12
960.289	2037.47
960.592	2026.4
960.896	2033.86
961.199	1998.61
961.502	2022.11
961.805	1993.41
962.108	1986.18
962.411	1975.78
962.714	1954.09
963.017	1933.07
963.32	1952.96
963.623	1979.4
963.926	1940.3
964.228	1905.27
964.531	1922.68
964.833	1900.98
965.136	1924.26
965.438	1877.93
965.741	1893.75
966.043	1905.5
966.345	1851.49
966.648	1881.09
966.95	1851.94
967.252	1875.67
967.554	1829.57
967.856	1829.34
968.158	1840.42
968.46	1800.19
968.761	1860.76
969.063	1781.66
969.365	1829.34
969.666	1823.69
969.968	1790.7
970.269	1816.69
970.571	1774.2
970.872	1790.7
971.174	1767.2
971.475	1745.73
971.776	1749.35
972.077	1723.58
972.378	1767.43
972.679	1704.38
972.98	1722.45
973.281	1708.67
973.582	1715.68
973.883	1692.17
974.183	1723.13
974.484	1686.07
974.785	1686.52
975.085	1684.72
975.386	1680.42
975.686	1670.7
975.986	1670.03
976.287	1658.05
976.587	1660.31
976.887	1625.51
977.187	1638.84
977.487	1630.48
977.787	1631.61
978.087	1617.37
978.387	1587.32
978.687	1595
978.987	1607.43
979.286	1589.12
979.586	1577.37
979.885	1594.32
980.185	1583.48
980.484	1559.52
980.784	1539.18
981.083	1571.05
981.382	1532.63
981.682	1550.93
981.981	1553.87
982.28	1554.1
982.579	1559.3
982.878	1539.86
983.177	1526.53
983.475	1509.58
983.774	1514.55
984.073	1524.72
984.372	1496.02
984.67	1500.09
984.969	1463.03
985.267	1480.88
985.566	1479.52
985.864	1454.67
986.162	1457.83
986.461	1453.31
986.759	1446.76
987.057	1411.05
987.355	1412.18
987.653	1442.69
987.951	1420.99
988.249	1415.8
988.547	1413.54
988.844	1395.68
989.142	1386.64
989.44	1425.29
989.737	1383.25
990.035	1385.97
990.332	1385.97
990.63	1361.56
990.927	1386.42
991.224	1357.94
991.521	1362.69
991.819	1347.78
992.116	1333.76
992.413	1311.62
992.71	1329.92
993.006	1315.01
993.303	1349.13
993.6	1337.38
993.897	1336.25
994.193	1299.64
994.49	1274.33
994.787	1271.17
995.083	1285.86
995.379	1291.96
995.676	1296.7
995.972	1293.77
996.268	1261.9
996.565	1246.08
996.861	1254.44
997.157	1268.46
997.453	1241.79
997.749	1245.86
998.044	1193.66
998.34	1237.95
998.636	1201.79
998.932	1220.55
999.227	1197.72
999.523	1195.91
999.818	1217.38
1000.114	1184.62
1000.409	1199.3
1000.704	1199.98
1001	1222.58
1001.295	1183.49
1001.59	1176.93
1001.885	1173.54
1002.18	1171.51
1002.475	1161.11
1002.77	1138.97
1003.065	1156.37
1003.359	1150.04
1003.654	1112.75
1003.949	1130.83
1004.243	1127.44
1004.538	1108.69
1004.832	1112.75
1005.127	1115.47
1005.421	1111.85
1005.715	1084.96
1006.009	1096.26
1006.304	1090.38
1006.598	1071.85
1006.892	1058.07
1007.186	1068.01
1007.48	1067.78
1007.773	1072.75
1008.067	1069.59
1008.361	1046.31
1008.655	1067.56
1008.948	1068.69
1009.242	1025.07
1009.535	1011.96
1009.829	1042.7
1010.122	1012.19
1010.415	1026.88
1010.708	1029.82
1011.001	993.66
1011.295	1024.39
1011.588	1003.38
1011.881	1016.26
1012.173	999.31
1012.466	976.71
1012.759	996.6
1013.052	992.3
1013.344	946.88
1013.637	973.55
1013.93	969.25
1014.222	964.51
1014.514	946.43
1014.807	978.52
1015.099	961.34
1015.391	934.45
1015.683	960.21
1015.976	912.76
1016.268	927.9
1016.56	940.1
1016.851	904.17
1017.143	919.31
1017.435	919.99
1017.727	907.56
1018.018	917.05
1018.31	906.43
1018.602	902.14
1018.893	872.99
1019.185	894.91
1019.476	884.51
1019.767	866.66
1020.058	859.43
1020.35	839.54
1020.641	854.45
1020.932	854.45
1021.223	860.1
1021.514	821.91
1021.804	845.64
1022.095	841.12
1022.386	830.27
1022.677	808.58
1022.967	836.6
1023.258	800.22
1023.548	818.3
1023.839	803.61
1024.129	800.9
1024.419	814.68
1024.709	802.03
1025	799.32
1025.29	813.1
1025.58	796.83
1025.87	774.91
1026.16	774.46
1026.449	773.33
1026.739	767.45
1027.029	767.23
1027.319	764.97
1027.608	739.43
1027.898	759.54
1028.187	767
1028.477	771.75
1028.766	744.4
1029.055	759.54
1029.344	747.34
1029.634	736.27
1029.923	718.64
1030.212	736.49
1030.501	711.86
1030.79	723.84
1031.078	725.42
1031.367	709.15
1031.656	707.79
1031.945	703.27
1032.233	716.15
1032.522	710.05
1032.81	682.26
1033.099	695.59
1033.387	712.09
1033.675	682.48
1033.963	700.33
1034.251	691.75
1034.54	676.61
1034.828	658.98
1035.116	667.12
1035.403	687.91
1035.691	654.23
1035.979	649.71
1036.267	660.34
1036.554	679.54
1036.842	637.51
1037.129	636.38
1037.417	629.15
1037.704	636.16
1037.992	622.82
1038.279	652.43
1038.566	633.22
1038.853	633.22
1039.14	633.22
