Data from cardboard_FLMS001491_024.txt Node
Date: Tue Feb 07 11:39:10 GMT 2017
User: dcchb
Spectrometer: FLMS00149
Trigger mode: 0
Integration Time (sec): 2.000000E-2
Scans to average: 10
Electric dark correction enabled: true
Nonlinearity correction enabled: false
Boxcar width: 0
XAxis mode: Wavelengths
Number of Pixels in Spectrum: 2048
>>>>>Begin Spectral Data<<<<<
341.393	-27.73
341.776	-27.73
342.16	-27.73
342.543	-55.07
342.927	-83.09
343.31	-77.67
343.693	-83.32
344.077	-60.94
344.46	-40.61
344.843	-62.53
345.226	-42.87
345.61	-20.95
345.993	-18.01
346.376	-1.06
346.759	16.57
347.142	29.67
347.525	31.26
347.908	51.14
348.291	93.63
348.674	75.1
349.057	110.58
349.44	124.81
349.823	137.92
350.206	156.45
350.588	182.89
350.971	204.81
351.354	193.74
351.737	207.75
352.119	239.61
352.502	235.32
352.884	272.83
353.267	246.62
353.65	292.72
354.032	287.52
354.414	271.7
354.797	300.18
355.179	297.24
355.562	308.76
355.944	281.65
356.326	307.86
356.709	304.7
357.091	311.25
357.473	332.27
357.855	308.54
358.238	330.68
358.62	314.19
359.002	298.37
359.384	330.68
359.766	311.93
360.148	312.6
360.53	329.78
360.912	308.09
361.294	305.37
361.676	317.35
362.057	293.17
362.439	297.01
362.821	308.31
363.203	297.46
363.584	316.45
363.966	308.09
364.348	290.91
364.729	306.5
365.111	292.72
365.493	293.85
365.874	302.66
366.256	301.53
366.637	282.78
367.019	296.79
367.4	297.01
367.781	284.58
368.163	299.5
368.544	279.39
368.925	288.65
369.306	289.33
369.688	291.36
370.069	290.23
370.45	290.01
370.831	287.07
371.212	279.61
371.593	290.68
371.974	289.1
372.355	276.67
372.736	319.16
373.117	302.21
373.498	294.07
373.879	291.59
374.26	301.08
374.641	293.4
375.021	274.41
375.402	294.53
375.783	299.95
376.163	289.55
376.544	290.01
376.925	325.26
377.305	322.55
377.686	295.2
378.066	316.9
378.447	310.57
378.827	299.27
379.208	313.73
379.588	294.75
379.968	311.02
380.349	300.18
380.729	297.92
381.109	310.34
381.489	306.73
381.87	314.64
382.25	323.45
382.63	298.37
383.01	306.5
383.39	316.67
383.77	321.42
384.15	309.22
384.53	329.1
384.91	320.29
385.29	332.94
385.67	332.94
386.049	330.01
386.429	309.67
386.809	321.42
387.189	322.55
387.568	326.62
387.948	314.86
388.328	319.84
388.707	329.33
389.087	310.8
389.466	336.33
389.846	312.83
390.225	313.06
390.605	329.78
390.984	355.32
391.363	311.25
391.743	330.23
392.122	352.83
392.501	325.26
392.881	365.71
393.26	314.64
393.639	348.08
394.018	353.06
394.397	322.32
394.776	334.07
395.155	345.37
395.534	343.11
395.913	351.7
396.292	344.02
396.671	353.73
397.05	342.43
397.429	352.83
397.808	364.81
398.186	350.8
398.565	345.15
398.944	334.98
399.323	339.27
399.701	355.99
400.08	360.51
400.458	358.48
400.837	350.12
401.215	367.07
401.594	359.38
401.972	370.68
402.351	355.99
402.729	375.43
403.107	353.73
403.486	385.37
403.864	353.73
404.242	373.62
404.62	371.81
404.999	394.64
405.377	372.49
405.755	392.83
406.133	386.05
406.511	367.97
406.889	409.78
407.267	372.26
407.645	373.85
408.023	382.66
408.401	379.72
408.779	376.11
409.156	380.85
409.534	395.99
409.912	404.35
410.29	394.64
410.667	397.35
411.045	410.91
411.422	415.43
411.8	401.19
412.178	406.16
412.555	434.18
412.933	415.65
413.31	395.99
413.687	411.36
414.065	442.54
414.442	422.88
414.819	422.43
415.197	438.48
415.574	451.58
415.951	449.1
416.328	445.03
416.705	439.83
417.082	430.57
417.46	456.33
417.837	442.32
418.214	434.41
418.591	454.75
418.967	452.71
419.344	450.23
419.721	438.7
420.098	446.61
420.475	452.94
420.852	453.39
421.228	454.52
421.605	483.67
421.982	474.18
422.358	460.17
422.735	482.77
423.111	501.3
423.488	476.67
423.864	478.25
424.241	508.76
424.617	480.96
424.994	485.26
425.37	515.09
425.746	487.06
426.123	500.4
426.499	486.39
426.875	501.3
427.251	496.1
427.627	513.28
428.003	524.8
428.379	508.08
428.756	527.29
429.132	544.69
429.507	530.68
429.883	533.62
430.259	534.07
430.635	541.07
431.011	544.46
431.387	542.2
431.763	579.04
432.138	570.23
432.514	532.49
432.89	563.22
433.265	559.6
433.641	574.74
434.016	588.98
434.392	590.34
434.767	591.24
435.143	590.34
435.518	610.22
435.894	602.54
436.269	615.87
436.644	591.24
437.02	604.12
437.395	607.29
437.77	620.39
438.145	601.41
438.52	607.51
438.895	641.18
439.271	641.18
439.646	636.21
440.021	663.33
440.395	639.38
440.77	618.81
441.145	652.48
441.52	644.57
441.895	647.29
442.27	669.21
442.645	665.59
443.019	643.22
443.394	648.42
443.769	664.69
444.143	666.95
444.518	672.6
444.892	694.06
445.267	683.89
445.641	692.26
446.016	681.63
446.39	713.5
446.764	701.52
447.139	673.73
447.513	723.44
447.887	720.5
448.262	712.14
448.636	721.18
449.01	717.34
449.384	751.92
449.758	717.79
450.132	718.47
450.506	762.76
450.88	748.98
451.254	757.34
451.628	742.42
452.002	772.71
452.376	766.15
452.75	777.9
453.123	761.86
453.497	767.96
453.871	795.08
454.244	792.82
454.618	800.95
454.992	816.77
455.365	824
455.739	832.37
456.112	840.5
456.486	832.37
456.859	831.91
457.232	841.4
457.606	853.61
457.979	895.87
458.352	870.1
458.725	862.19
459.099	896.09
459.472	925.02
459.845	882.08
460.218	914.85
460.591	917.11
460.964	924.79
461.337	941.74
461.71	962.53
462.083	966.6
462.456	971.34
462.829	959.37
463.201	966.6
463.574	957.56
463.947	1002.08
464.32	1009.31
464.692	1003.43
465.065	1026.26
465.438	1028.07
465.81	1050.66
466.183	1034.17
466.555	1048.63
466.928	1069.65
467.3	1082.53
467.672	1075.75
468.045	1097.22
468.417	1106.48
468.789	1111
469.161	1142.19
469.534	1139.93
469.906	1152.13
470.278	1152.58
470.65	1161.17
471.022	1214.73
471.394	1236.87
471.766	1232.58
472.138	1229.87
472.51	1239.81
472.882	1268.29
473.253	1299.02
473.625	1295.86
473.997	1304.44
474.369	1332.92
474.74	1327.49
475.112	1377.44
475.484	1362.52
475.855	1410.88
476.227	1433.93
476.598	1443.87
476.97	1480.94
477.341	1493.36
477.713	1491.33
478.084	1519.8
478.455	1545.57
478.827	1579.01
479.198	1614.49
479.569	1618.56
479.94	1631.89
480.311	1674.15
480.682	1685.45
481.053	1740.82
481.424	1771.55
481.795	1770.19
482.166	1799.57
482.537	1837.08
482.908	1849.74
483.279	1868.04
483.65	1892.9
484.021	1914.14
484.391	1953.69
484.762	1968.15
485.133	1970.41
485.503	2003.63
485.874	2042.73
486.244	2053.58
486.615	2125.66
486.985	2135.38
487.356	2171.76
487.726	2165.89
488.097	2248.37
488.467	2239.79
488.837	2295.83
489.207	2321.59
489.578	2333.12
489.948	2404.98
490.318	2373.12
490.688	2410.18
491.058	2421.93
491.428	2470.51
491.798	2505.32
492.168	2546.9
492.538	2588.93
492.908	2610.62
493.278	2585.31
493.648	2654.01
494.017	2675.48
494.387	2743.28
494.757	2749.15
495.126	2756.83
495.496	2762.48
495.866	2836.83
496.235	2852.65
496.605	2838.87
496.974	2905.3
497.344	2891.07
497.713	2961.35
498.082	2976.26
498.452	3010.84
498.821	3003.38
499.19	3045.41
499.559	3121.8
499.928	3051.74
500.298	3110.05
500.667	3163.6
501.036	3164.06
501.405	3226.88
501.774	3236.82
502.143	3229.82
502.512	3309.81
502.88	3317.5
503.249	3315.46
503.618	3370.83
503.987	3390.94
504.356	3391.39
504.724	3446.53
505.093	3458.96
505.462	3459.64
505.83	3516.14
506.199	3563.59
506.567	3546.87
506.936	3600.65
507.304	3627.77
507.672	3668.67
508.041	3730.37
508.409	3716.36
508.777	3742.35
509.145	3794.77
509.514	3801.1
509.882	3814.89
510.25	3842.68
510.618	3882.91
510.986	3863.02
511.354	3962.45
511.722	4015.56
512.09	4057.37
512.458	4085.61
512.826	4064.6
513.193	4109.79
513.561	4150.7
513.929	4199.51
514.297	4221.88
514.664	4279.51
515.032	4275.89
515.4	4364.93
515.767	4380.52
516.135	4379.84
516.502	4401.54
516.869	4484.25
517.237	4523.79
517.604	4503.91
517.972	4587.52
518.339	4594.53
518.706	4674.98
519.073	4693.73
519.44	4679.5
519.808	4774.63
520.175	4759.49
520.542	4845.59
520.909	4893.5
521.276	4917.23
521.643	4990
522.009	5034.51
522.376	5107.96
522.743	5079.49
523.11	5170.78
523.477	5269.54
523.843	5244.23
524.21	5295.52
524.577	5334.39
524.943	5402.87
525.31	5441.74
525.676	5487.38
526.043	5535.74
526.409	5551.56
526.776	5675.85
527.142	5654.39
527.508	5709.53
527.874	5750.88
528.241	5774.38
528.607	5825.91
528.973	5882.63
529.339	5906.13
529.705	6025.22
530.071	6042.17
530.437	6069.29
530.803	6098.22
531.169	6192
531.535	6146.35
531.901	6243.52
532.267	6317.87
532.632	6341.15
532.998	6328.27
533.364	6433.8
533.73	6483.97
534.095	6519.45
534.461	6558.77
534.826	6632.44
535.192	6660.69
535.557	6706.33
535.923	6732.77
536.288	6763.73
536.653	6836.5
537.019	6782.27
537.384	6865.43
537.749	6886.9
538.114	6946.1
538.479	7022.94
538.845	6974.8
539.21	7053.9
539.575	7051.64
539.94	7109.94
540.305	7148.81
540.67	7140
541.034	7245.53
541.399	7317.84
541.764	7310.39
542.129	7370.95
542.494	7416.82
542.858	7443.94
543.223	7437.16
543.587	7618.85
543.952	7560.78
544.316	7616.82
544.681	7639.42
545.045	7678.51
545.41	7728.91
545.774	7759.41
546.138	7762.58
546.503	7736.36
546.867	7892.74
547.231	7976.81
547.595	7971.84
547.959	8031.72
548.324	7999.63
548.688	8054.55
549.052	8140.2
549.416	8169.12
549.779	8191.27
550.143	8250.25
550.507	8318.72
550.871	8316.69
551.235	8335.67
551.599	8419.06
551.962	8506.51
552.326	8510.13
552.689	8511.49
553.053	8501.09
553.417	8631.48
553.78	8671.93
554.143	8758.03
554.507	8779.05
554.87	8820.4
555.234	8948.76
555.597	8885.94
555.96	8946.28
556.323	8977.91
556.686	9012.49
557.05	9107.85
557.413	9124.58
557.776	9131.13
558.139	9273.05
558.502	9276.44
558.865	9297
559.228	9348.3
559.59	9457.22
559.953	9506.04
560.316	9585.13
560.679	9622.42
561.041	9632.59
561.404	9697.44
561.767	9840.49
562.129	9816.31
562.492	9951.45
562.854	9975.4
563.217	9982.41
563.579	10001.62
563.941	10096.08
564.304	10181.95
564.666	10228.28
565.028	10270.08
565.39	10287.26
565.753	10397.09
566.115	10473.92
566.477	10454.71
566.839	10584.43
567.201	10647.02
567.563	10715.04
567.925	10784.87
568.287	10798.2
568.648	10818.32
569.01	10875.04
569.372	10967.01
569.734	10984.64
570.095	11108.93
570.457	11177.4
570.819	11130.63
571.18	11211.98
571.542	11223.05
571.903	11281.81
572.265	11376.04
572.626	11326.78
572.987	11451.75
573.349	11488.81
573.71	11527.9
574.071	11525.87
574.432	11664.4
574.794	11719.54
575.155	11779.42
575.516	11763.15
575.877	11819.42
576.238	11836.14
576.599	11884.05
576.96	11883.6
577.32	11946.88
577.681	11974.67
578.042	11997.5
578.403	12033.2
578.763	12085.85
579.124	12166.3
579.485	12084.05
579.845	12253.76
580.206	12191.61
580.566	12196.36
580.927	12256.7
581.287	12354.1
581.648	12395
582.008	12477.71
582.368	12351.84
582.728	12486.3
583.089	12469.57
583.449	12418.73
583.809	12509.35
584.169	12617.14
584.529	12626.18
584.889	12695.1
585.249	12701.88
585.609	12622.11
585.969	12774.2
586.329	12686.06
586.688	12709.57
587.048	12737.36
587.408	12754.54
587.768	12765.84
588.127	12795.44
588.487	12781.2
588.846	12876.12
589.206	12882.44
589.565	12814.2
589.925	12918.83
590.284	12859.62
590.643	12959.05
591.003	12969
591.362	13134.41
591.721	12947.3
592.08	13056
592.44	13097.35
592.799	13009.67
593.158	13108.88
593.517	13132.61
593.876	13119.5
594.235	13111.36
594.593	13199.72
594.952	13222.32
595.311	13185.71
595.67	13168.99
596.029	13366.5
596.387	13256.9
596.746	13410.11
597.104	13355.2
597.463	13300.29
597.822	13348.87
598.18	13333.51
598.538	13322.21
598.897	13441.75
599.255	13395.2
599.613	13571.92
599.972	13464.58
600.33	13538.02
600.688	13508.64
601.046	13615.76
601.404	13606.72
601.762	13587.28
602.12	13620.96
602.478	13747.05
602.836	13659.82
603.194	13655.76
603.552	13685.36
603.91	13663.21
604.268	13721.29
604.625	13760.61
604.983	13816.43
605.341	13843.1
605.698	13860.5
606.056	13899.59
606.413	13935.52
606.771	13968.97
607.128	14002.41
607.485	13907.05
607.843	13957.22
608.2	14130.55
608.557	14027.95
608.914	14095.52
609.272	14125.12
609.629	14192.47
609.986	14232.01
610.343	14145.24
610.7	14274.95
611.057	14249.41
611.414	14263.65
611.771	14302.97
612.127	14386.81
612.484	14326.93
612.841	14415.74
613.198	14424.55
613.554	14326.25
613.911	14573.92
614.267	14466.58
614.624	14462.74
614.98	14586.81
615.337	14644.88
615.693	14638.1
616.05	14620.25
616.406	14702.06
616.762	14605.56
617.118	14684.2
617.475	14665.22
617.831	14681.04
618.187	14794.26
618.543	14781.15
618.899	14935.27
619.255	14901.6
619.611	14955.84
619.967	14882.62
620.323	14903.41
620.678	14897.76
621.034	14880.58
621.39	14890.53
621.746	14911.99
622.101	15040.35
622.457	14903.41
622.812	15021.14
623.168	15005.78
623.523	15052.56
623.879	15095.04
624.234	14954.25
624.589	15039.45
624.945	15071.31
625.3	15132.33
625.655	15076.51
626.01	15093.91
626.365	15139.56
626.72	15198.77
627.075	15165.32
627.43	15131.42
627.785	15173.91
628.14	15166
628.495	15206.9
628.85	15084.87
629.205	15095.27
629.559	15202.38
629.914	15176.62
630.269	15208.26
630.623	15118.32
630.978	15145.89
631.332	15250.97
631.687	15196.06
632.041	15213.46
632.396	15194.47
632.75	15095.27
633.104	15205.32
633.459	15120.35
633.813	15085.55
634.167	15232.89
634.521	14989.06
634.875	15118.54
635.229	15133.91
635.583	15156.96
635.937	15140.01
636.291	15071.99
636.645	15162.38
636.999	15064.99
637.352	15137.07
637.706	15035.83
638.06	15122.61
638.413	15102.72
638.767	15077.87
639.121	15079.9
639.474	15074.25
639.828	15002.16
640.181	15072.89
640.534	15091.88
640.888	15093.69
641.241	14988.38
641.594	15024.31
641.947	15037.64
642.301	15003.07
642.654	15081.48
643.007	15080.13
643.36	15089.39
643.713	15009.85
644.066	15101.82
644.419	14993.8
644.771	14945.89
645.124	14731.66
645.477	14634.04
645.83	14577.31
646.182	14657.54
646.535	14540.03
646.888	14647.37
647.24	14608.73
647.593	14507.26
647.945	14587.26
648.298	14544.55
648.65	14514.49
649.002	14562.17
649.355	14556.52
649.707	14556.75
650.059	14601.72
650.411	14808.72
650.763	14801.26
651.115	14985.67
651.467	14987.25
651.819	14952.22
652.171	14995.38
652.523	14898.66
652.875	14883.97
653.227	14861.83
653.578	14996.29
653.93	15016.4
654.282	14864.99
654.633	14851.88
654.985	14885.78
655.337	14891.88
655.688	14862.28
656.039	14925.1
656.391	14813.47
656.742	14871.54
657.094	14852.56
657.445	14900.02
657.796	14875.16
658.147	14831.55
658.498	14825.67
658.849	14997.19
659.2	14854.6
659.551	14848.72
659.902	14940.69
660.253	14895.27
660.604	14897.53
660.955	14853.01
661.306	14949.51
661.656	14922.84
662.007	14879.45
662.358	14942.5
662.708	14956.29
663.059	14879.23
663.409	14873.58
663.76	14994.25
664.11	14932.11
664.461	14882.84
664.811	14909.06
665.161	14974.14
665.511	14958.55
665.862	15026.57
666.212	14999.45
666.562	15057.53
666.912	14966.23
667.262	14860.02
667.612	14916.06
667.962	14921.94
668.312	14900.7
668.662	14970.3
669.011	14921.03
669.361	14979.34
669.711	14991.77
670.06	14970.98
670.41	14965.78
670.76	14994.93
671.109	14987.25
671.459	14933.24
671.808	14850.98
672.157	14959.68
672.507	14938.43
672.856	14922.39
673.205	14874.71
673.554	15016.4
673.904	14946.34
674.253	14995.16
674.602	14913.58
674.951	14684.88
675.3	14697.76
675.649	14932.79
675.998	14930.53
676.346	14886.23
676.695	14902.05
677.044	14819.34
677.393	14930.3
677.741	14878.78
678.09	14905.22
678.438	14846.01
678.787	14866.35
679.135	14834.71
679.484	14824.99
679.832	14931.43
680.181	14904.99
680.529	14829.29
680.877	14809.4
681.225	14701.15
681.573	14977.53
681.922	14736.86
682.27	14768.95
682.618	14734.15
682.966	14752.9
683.314	14704.32
683.661	14741.83
684.009	14659.35
684.357	14606.01
684.705	14501.61
685.053	14644.21
685.4	14617.09
685.748	14520.14
686.095	14490.54
686.443	14542.97
686.79	14520.59
687.138	14567.37
687.485	14581.16
687.832	14533.02
688.18	14528.95
688.527	14467.71
688.874	14407.15
689.221	14473.14
689.568	14291.22
689.915	14285.57
690.262	14339.13
690.609	14303.42
690.956	14280.15
691.303	14266.14
691.65	14149.53
691.997	14131.22
692.344	14125.8
692.69	14133.48
693.037	14219.36
693.383	14031.57
693.73	14060.94
694.077	13998.12
694.423	14001.28
694.769	14019.81
695.116	13930.55
695.462	13933.72
695.808	13870.21
696.155	13962.87
696.501	13805.36
696.847	13815.75
697.193	13804
697.539	13806.94
697.885	13694.63
698.231	13736.43
698.577	13646.04
698.923	13590.22
699.269	13629.54
699.614	13536.44
699.96	13525.59
700.306	13535.53
700.651	13481.07
700.997	13312.71
701.342	13388.65
701.688	13407.63
702.033	13384.8
702.379	13371.7
702.724	13349.32
703.069	13307.74
703.415	13165.15
703.76	13230.01
704.105	13271.36
704.45	13171.25
704.795	13117.92
705.14	13103.91
705.485	13074.3
705.83	13028.43
706.175	12990.69
706.52	12934.65
706.865	13028.43
707.209	13012.16
707.554	12946.4
707.899	12949.11
708.243	12860.3
708.588	12884.93
708.932	12828.43
709.277	12844.48
709.621	12800.64
709.966	12742.33
710.31	12724.03
710.654	12650.59
710.998	12725.39
711.342	12706.4
711.687	12613.98
712.031	12619.85
712.375	12584.82
712.719	12585.95
713.063	12584.6
713.407	12592.96
713.75	12569.23
714.094	12531.04
714.438	12483.58
714.782	12463.02
715.125	12468.22
715.469	12452.17
715.812	12436.13
716.156	12348.45
716.499	12343.02
716.843	12411.72
717.186	12412.4
717.53	12317.03
717.873	12337.83
718.216	12363.36
718.559	12244.27
718.902	12201.11
719.246	12279.75
719.589	12201.78
719.932	12147.77
720.275	12181.22
720.617	12158.62
720.96	12147.32
721.303	12177.15
721.646	12228.45
721.989	12135.12
722.331	12221.44
722.674	12107.55
723.016	12154.33
723.359	12141.22
723.701	12084.5
724.044	11983.94
724.386	11972.86
724.729	12036.82
725.071	11982.58
725.413	12076.14
725.755	11958.17
726.097	11979.64
726.439	11908.91
726.782	12004.95
727.124	11986.87
727.465	11962.02
727.807	11891.96
728.149	11826.2
728.491	11841.79
728.833	11893.32
729.175	11815.35
729.516	11910.49
729.858	11873.43
730.199	11844.28
730.541	11830.27
730.882	11795.92
731.224	11789.37
731.565	11733.32
731.906	11766.09
732.248	11781
732.589	11651.97
732.93	11696.03
733.271	11763.6
733.612	11728.12
733.953	11777.61
734.294	11745.3
734.635	11655.58
734.976	11762.47
735.317	11685.41
735.658	11632.76
735.999	11702.59
736.339	11718.86
736.68	11709.37
737.021	11674.11
737.361	11618.07
737.702	11681.8
738.042	11604.29
738.383	11632.31
738.723	11707.79
739.063	11630.5
739.404	11678.18
739.744	11569.48
740.084	11527.23
740.424	11645.64
740.764	11583.04
741.104	11592.08
741.444	11558.64
741.784	11519.77
742.124	11578.52
742.464	11568.58
742.804	11534.68
743.143	11514.8
743.483	11570.84
743.823	11523.61
744.162	11467.34
744.502	11491.97
744.841	11500.11
745.181	11534.91
745.52	11449.71
745.86	11469.6
746.199	11448.36
746.538	11472.99
746.877	11458.3
747.216	11497.85
747.556	11442.48
747.895	11425.98
748.234	11404.29
748.573	11362.48
748.911	11325.42
749.25	11424.18
749.589	11317.51
749.928	11405.65
750.267	11371.75
750.605	11315.25
750.944	11349.15
751.283	11192.54
751.621	11295.37
751.96	11281.58
752.298	11330.62
752.636	11278.87
752.975	11232.77
753.313	11235.93
753.651	11250.85
753.989	11115.71
754.327	11219.44
754.666	11201.58
755.004	11175.37
755.342	11134.24
755.679	11129.04
756.017	11149.38
756.355	11080.46
756.693	11078.42
757.031	11117.07
757.368	11065.99
757.706	11021.93
758.044	10951.42
758.381	11051.31
758.719	10964.75
759.056	10982.61
759.394	10923.63
759.731	10955.71
760.068	10892.89
760.405	10872.78
760.743	10785.32
761.08	10896.73
761.417	10798.2
761.754	10830.52
762.091	10786.91
762.428	10763.86
762.765	10800.24
763.102	10803.4
763.438	10677.76
763.775	10615.61
764.112	10626.46
764.449	10637.53
764.785	10667.13
765.122	10522.96
765.458	10540.81
765.795	10520.92
766.131	10515.95
766.467	10537.42
766.804	10500.13
767.14	10314.15
767.476	10369.06
767.812	10350.98
768.148	10372.45
768.485	10294.04
768.821	10246.35
769.157	10273.02
769.492	10290.65
769.828	10210.2
770.164	10114.38
770.5	10206.81
770.836	10144.44
771.171	10162.06
771.507	10060.37
771.842	9989.19
772.178	9992.8
772.513	10028.96
772.849	9913.26
773.184	9923.43
773.519	9899.02
773.855	9853.37
774.19	9765.46
774.525	9791.9
774.86	9795.52
775.195	9826.03
775.53	9696.76
775.865	9714.84
776.2	9593.49
776.535	9561.18
776.87	9542.87
777.205	9588.29
777.539	9524.11
777.874	9512.14
778.209	9436.21
778.543	9458.35
778.878	9391.69
779.212	9337.23
779.547	9289.77
779.881	9321.41
780.215	9292.26
780.55	9277.57
780.884	9324.12
781.218	9195.31
781.552	9179.49
781.886	9088.42
782.22	9167.97
782.554	9075.31
782.888	8976.11
783.222	9010.46
783.556	8972.94
783.889	8884.58
784.223	8864.92
784.557	8927.75
784.89	8877.8
785.224	8825.38
785.557	8810.69
785.891	8804.81
786.224	8772.27
786.558	8742.67
786.891	8690.24
787.224	8589.22
787.557	8672.38
787.891	8638.71
788.224	8607.98
788.557	8610.01
788.89	8579.05
789.223	8553.97
789.556	8487.98
789.888	8503.8
790.221	8484.82
790.554	8427.42
790.887	8409.34
791.219	8397.59
791.552	8364.37
791.884	8305.61
792.217	8296.12
792.549	8270.14
792.882	8151.04
793.214	8252.96
793.546	8226.75
793.879	8162.12
794.211	8098.84
794.543	8117.6
794.875	8094.32
795.207	8123.47
795.539	8073.53
795.871	8090.48
796.203	7977.04
796.535	7962.35
796.867	7961.22
797.198	7918.51
797.53	7918.73
797.862	7857.72
798.193	7929.13
798.525	7892.07
798.856	7895
799.188	7782.46
799.519	7766.65
799.85	7746.76
800.182	7754.67
800.513	7730.49
800.844	7652.07
801.175	7671.28
801.506	7735.23
801.837	7649.59
802.168	7619.08
802.499	7646.42
802.83	7535.69
803.161	7518.07
803.491	7570.27
803.822	7549.93
804.153	7484.85
804.483	7464.73
804.814	7346.77
805.145	7438.75
805.475	7460.67
805.805	7326.21
806.136	7376.15
806.466	7371.63
806.796	7337.28
807.126	7283.27
807.457	7316.94
807.787	7312.19
808.117	7238.3
808.447	7273.1
808.777	7260.44
809.107	7217.96
809.436	7205.76
809.766	7185.87
810.096	7144.06
810.426	7133.89
810.755	7134.8
811.085	7186.32
811.414	7093.22
811.744	7062.48
812.073	7039.43
812.403	7060.45
812.732	6990.85
813.061	7049.38
813.39	6985.65
813.719	6992.2
814.049	6998.76
814.378	6923.73
814.707	6928.48
815.036	7006.44
815.365	6882.15
815.693	6894.13
816.022	6870.4
816.351	6791.08
816.68	6811.42
817.008	6826.78
817.337	6737.07
817.665	6748.14
817.994	6784.75
818.322	6818.42
818.651	6768.03
818.979	6716.5
819.307	6776.62
819.636	6735.26
819.964	6681.93
820.292	6683.06
820.62	6677.86
820.948	6665.88
821.276	6673.57
821.604	6673.57
821.932	6724.19
822.259	6674.02
822.587	6643.74
822.915	6690.74
823.243	6711.98
823.57	6702.72
823.898	6661.82
824.225	6652.55
824.553	6678.31
824.88	6646.9
825.207	6627.47
825.535	6640.57
825.862	6693
826.189	6632.44
826.516	6675.6
826.843	6692.78
827.17	6756.5
827.497	6707.92
827.824	6681.25
828.151	6680.12
828.478	6695.26
828.805	6690.06
829.131	6668.6
829.458	6660.01
829.785	6637.41
830.111	6671.76
830.438	6717.41
830.764	6705.43
831.09	6684.87
831.417	6601.03
831.743	6671.31
832.069	6662.27
832.395	6611.87
832.722	6670.18
833.048	6660.01
833.374	6660.91
833.7	6634.02
834.026	6605.55
834.351	6616.85
834.677	6578.88
835.003	6659.33
835.329	6573.23
835.654	6589.95
835.98	6586.56
836.306	6609.61
836.631	6546.57
836.956	6546.79
837.282	6608.48
837.607	6557.41
837.932	6536.4
838.258	6547.92
838.583	6548.15
838.908	6451.88
839.233	6485.1
839.558	6467.92
839.883	6488.49
840.208	6467.47
840.533	6520.13
840.858	6459.34
841.182	6491.65
841.507	6431.54
841.832	6413.24
842.156	6437.64
842.481	6389.51
842.805	6442.39
843.13	6369.85
843.454	6410.75
843.778	6369.39
844.103	6343.63
844.427	6283.3
844.751	6349.51
845.075	6340.92
845.399	6316.97
845.723	6240.36
846.047	6269.96
846.371	6231.09
846.695	6205.56
847.019	6166.91
847.343	6201.72
847.666	6105.67
847.99	6054.15
848.313	6126.01
848.637	6090.53
848.96	6094.15
849.284	6019.35
849.607	5967.6
849.931	6018.9
850.254	5967.6
850.577	5936.41
850.9	5876.07
851.223	5877.66
851.546	5855.51
851.869	5862.29
852.192	5885.79
852.515	5803.31
852.838	5780.71
853.161	5791.33
853.483	5767.83
853.806	5748.85
854.129	5724.89
854.451	5658.45
854.774	5681.05
855.096	5684.44
855.419	5636.53
855.741	5686.25
856.063	5583.65
856.385	5611
856.708	5585.23
857.03	5531.68
857.352	5584.1
857.674	5553.6
857.996	5538.68
858.318	5523.32
858.64	5481.73
858.961	5480.6
859.283	5451
859.605	5440.38
859.926	5465.69
860.248	5467.27
860.57	5436.31
860.891	5416.43
861.212	5371.45
861.534	5389.08
861.855	5327.61
862.176	5377.1
862.498	5394.28
862.819	5348.63
863.14	5332.13
863.461	5379.82
863.782	5328.74
864.103	5333.94
864.424	5285.81
864.745	5299.59
865.065	5269.99
865.386	5258.69
865.707	5228.18
866.027	5252.81
866.348	5285.13
866.668	5235.64
866.989	5230.44
867.309	5240.84
867.63	5233.61
867.95	5269.76
868.27	5193.83
868.59	5237.45
868.91	5190.89
869.23	5179.6
869.55	5202.19
869.87	5196.77
870.19	5199.48
870.51	5163.55
870.83	5161.74
871.15	5140.05
871.469	5138.24
871.789	5153.38
872.109	5180.5
872.428	5098.02
872.748	5090.33
873.067	5094.4
873.386	5129.43
873.706	5083.78
874.025	5034.06
874.344	5045.14
874.663	5086.49
874.982	5040.16
875.301	5082.2
875.62	5052.59
875.939	5037.23
876.258	5081.97
876.577	5021.63
876.896	4990.9
877.214	5023.89
877.533	5081.52
877.852	5001.52
878.17	5010.11
878.489	4995.87
878.807	4992.03
879.125	4963.56
879.444	4985.02
879.762	4996.1
880.08	4947.74
880.398	4900.73
880.716	4930.56
881.034	4901.18
881.352	4925.14
881.67	4886.04
881.988	4869.1
882.306	4872.94
882.624	4879.26
882.941	4853.28
883.259	4874.97
883.577	4804.46
883.894	4806.72
884.212	4786.39
884.529	4824.8
884.846	4799.94
885.164	4745.26
885.481	4762.88
885.798	4803.33
886.115	4795.65
886.432	4756.78
886.75	4708.42
887.067	4745.93
887.383	4710
887.7	4748.65
888.017	4725.14
888.334	4746.84
888.651	4709.55
888.967	4693.51
889.284	4672.94
889.6	4665.94
889.917	4632.49
890.233	4621.42
890.55	4575.32
890.866	4585.49
891.182	4564.7
891.498	4582.32
891.815	4545.26
892.131	4552.95
892.447	4537.58
892.763	4535.09
893.079	4506.62
893.395	4534.64
893.71	4497.81
894.026	4495.09
894.342	4442.89
894.657	4473.4
894.973	4448.99
895.289	4421.65
895.604	4385.04
895.92	4366.74
896.235	4371.03
896.55	4387.75
896.865	4387.98
897.181	4390.24
897.496	4355.21
897.811	4284.48
898.126	4314.08
898.441	4324.48
898.756	4326.51
899.071	4308.43
899.386	4252.39
899.7	4282.9
900.015	4230.92
900.33	4194.76
900.644	4190.24
900.959	4187.98
901.273	4163.35
901.588	4155.67
901.902	4158.83
902.216	4124.93
902.531	4111.15
902.845	4123.58
903.159	4105.05
903.473	4097.36
903.787	4056.69
904.101	4022.56
904.415	4053.52
904.729	4015.11
905.042	4007.65
905.356	4000.64
905.67	3983.92
905.984	4000.87
906.297	3953.41
906.611	3990.02
906.924	3961.1
907.237	3929.01
907.551	3928.78
907.864	3907.09
908.177	3898.27
908.491	3872.06
908.804	3820.08
909.117	3797.71
909.43	3821.44
909.743	3817.6
910.056	3799.97
910.368	3774.43
910.681	3789.12
910.994	3759.52
911.307	3772.4
911.619	3708.67
911.932	3716.81
912.244	3700.09
912.557	3673.87
912.869	3664.83
913.181	3652.4
913.494	3623.48
913.806	3616.92
914.118	3616.92
914.43	3597.26
914.742	3576.47
915.054	3564.5
915.366	3545.29
915.678	3558.85
915.99	3538.51
916.302	3598.85
916.613	3482.46
916.925	3484.05
917.236	3471.84
917.548	3458.28
917.859	3523.14
918.171	3463.48
918.482	3454.22
918.794	3386.2
919.105	3432.07
919.416	3399.08
919.727	3379.64
920.038	3335.58
920.349	3354.11
920.66	3336.71
920.971	3349.59
921.282	3328.57
921.593	3273.66
921.903	3298.74
922.214	3259.87
922.525	3283.83
922.835	3270.04
923.146	3222.13
923.456	3269.36
923.767	3192.3
924.077	3251.28
924.387	3211.74
924.697	3177.39
925.008	3161.12
925.318	3154.56
925.628	3170.38
925.938	3130.84
926.248	3111.18
926.558	3090.16
926.867	3082.93
927.177	3078.86
927.487	3095.36
927.796	3018.52
928.106	3061.69
928.416	3021.46
928.725	3034.12
929.034	3019.43
929.344	3025.08
929.653	3000.22
929.962	3014.68
930.271	2977.39
930.581	2942.59
930.89	2979.43
931.199	2916.15
931.508	2919.99
931.817	2901.24
932.125	2880.9
932.434	2950.05
932.743	2879.77
933.051	2826.89
933.36	2833.44
933.669	2886.1
933.977	2792.77
934.286	2831.18
934.594	2814.46
934.902	2811.07
935.21	2778.75
935.519	2801.35
935.827	2758.42
936.135	2784.86
936.443	2728.36
936.751	2731.75
937.059	2737.63
937.367	2720.45
937.674	2697.63
937.982	2714.12
938.29	2680
938.597	2661.92
938.905	2671.86
939.213	2631.41
939.52	2654.01
939.827	2648.59
940.135	2607.69
940.442	2589.61
940.749	2571.75
941.056	2599.1
941.363	2614.24
941.67	2593.9
941.977	2543.05
942.284	2516.39
942.591	2555.94
942.898	2534.24
943.205	2478.65
943.511	2479.33
943.818	2516.16
944.125	2463.28
944.431	2500.8
944.738	2479.33
945.044	2436.16
945.35	2441.81
945.657	2443.4
945.963	2463.73
946.269	2456.05
946.575	2414.02
946.881	2409.95
947.187	2395.04
947.493	2376.73
947.799	2373.57
948.105	2367.92
948.41	2327.92
948.716	2378.99
949.022	2327.24
949.327	2329.73
949.633	2322.72
949.938	2326.34
950.244	2305.55
950.549	2319.78
950.854	2282.72
951.16	2274.81
951.465	2281.59
951.77	2255.6
952.075	2254.47
952.38	2217.41
952.685	2243.4
952.99	2201.59
953.294	2215.38
953.599	2200.92
953.904	2191.43
954.209	2187.58
954.513	2173.57
954.818	2153.46
955.122	2212.22
955.426	2162.95
955.731	2167.47
956.035	2144.87
956.339	2146.91
956.643	2139.9
956.948	2136.06
957.252	2119.34
957.556	2094.03
957.86	2101.03
958.163	2121.14
958.467	2092.44
958.771	2066.23
959.075	2056.29
959.378	2036.85
959.682	2031.43
959.985	2027.59
960.289	2012.9
960.592	2000.92
960.896	2043.86
961.199	1996.85
961.502	2013.8
961.805	2001.37
962.108	1972.45
962.411	1987.14
962.714	1961.37
963.017	1959.79
963.32	1930.64
963.623	1955.27
963.926	1926.57
964.228	1903.3
964.531	1949.85
964.833	1928.38
965.136	1905.11
965.438	1872.34
965.741	1893.35
966.043	1906.24
966.345	1867.37
966.648	1875.73
966.95	1864.2
967.252	1857.65
967.554	1850.64
967.856	1818.78
968.158	1810.64
968.46	1837.99
968.761	1831.66
969.063	1785.11
969.365	1802.51
969.666	1820.36
969.968	1795.5
970.269	1768.61
970.571	1772.23
970.872	1758.67
971.174	1753.02
971.475	1785.11
971.776	1741.72
972.077	1727.93
972.378	1783.53
972.679	1741.95
972.98	1729.97
973.281	1753.92
973.582	1714.15
973.883	1679.57
974.183	1691.33
974.484	1706.69
974.785	1694.26
975.085	1678.9
975.386	1677.77
975.686	1690.42
975.986	1651.1
976.287	1663.98
976.587	1654.49
976.887	1654.49
977.187	1655.17
977.487	1634.38
977.787	1605.45
978.087	1632.57
978.387	1608.62
978.687	1606.36
978.987	1598.22
979.286	1581.5
979.586	1585.57
979.885	1584.66
980.185	1604.55
980.484	1577.43
980.784	1534.04
981.083	1562.97
981.382	1547.15
981.682	1567.49
981.981	1527.04
982.28	1528.17
982.579	1507.38
982.878	1487.49
983.177	1493.82
983.475	1523.65
983.774	1484.78
984.073	1485.23
984.372	1465.34
984.67	1458.79
984.969	1486.36
985.267	1485.46
985.566	1449.3
985.864	1470.09
986.162	1461.5
986.461	1468.28
986.759	1449.3
987.057	1420.82
987.355	1443.87
987.653	1428.96
987.951	1413.59
988.249	1419.92
988.547	1419.24
988.844	1392.8
989.142	1371.11
989.44	1388.51
989.737	1402.75
990.035	1388.73
990.332	1381.96
990.63	1367.04
990.927	1344.89
991.224	1343.76
991.521	1379.92
991.819	1334.72
992.116	1332.24
992.413	1342.63
992.71	1345.35
993.006	1329.08
993.303	1317.32
993.6	1334.5
993.897	1310.54
994.193	1313.26
994.49	1295.18
994.787	1298.34
995.083	1280.49
995.379	1325.01
995.676	1281.17
995.972	1277.1
996.268	1235.07
996.565	1276.2
996.861	1240.72
997.157	1266.7
997.453	1253.15
997.749	1270.55
998.044	1225.35
998.34	1219.47
998.636	1214.05
998.932	1248.85
999.227	1223.99
999.523	1184.45
999.818	1185.8
1000.114	1193.94
1000.409	1184.9
1000.704	1200.72
1001	1182.64
1001.295	1168.63
1001.59	1144
1001.885	1152.81
1002.18	1148.74
1002.475	1138.12
1002.77	1183.09
1003.065	1155.97
1003.359	1116.43
1003.654	1138.35
1003.949	1120.27
1004.243	1138.8
1004.538	1103.77
1004.832	1115.52
1005.127	1126.14
1005.421	1090.44
1005.715	1062.87
1006.009	1113.71
1006.304	1092.47
1006.598	1095.64
1006.892	1080.95
1007.186	1074.62
1007.48	1042.08
1007.773	1058.35
1008.067	1057.22
1008.361	1062.42
1008.655	1021.74
1008.948	1034.39
1009.242	1046.6
1009.535	1052.02
1009.829	1017.22
1010.122	1029.87
1010.415	1019.03
1010.708	1007.95
1011.001	995.75
1011.295	1011.57
1011.588	991.01
1011.881	981.74
1012.173	994.85
1012.466	961.4
1012.759	942.42
1013.052	997.11
1013.344	967.73
1013.637	961.85
1013.93	992.13
1014.222	962.08
1014.514	949.2
1014.807	945.81
1015.099	932.7
1015.391	932.48
1015.683	936.77
1015.976	929.54
1016.268	925.02
1016.56	921.4
1016.851	917.79
1017.143	905.36
1017.435	931.57
1017.727	907.62
1018.018	875.98
1018.31	882.53
1018.602	901.52
1018.893	889.54
1019.185	867.62
1019.476	863.1
1019.767	899.26
1020.058	884.79
1020.35	862.65
1020.641	863.78
1020.932	857.22
1021.223	877.79
1021.514	827.39
1021.804	822.42
1022.095	870.33
1022.386	860.39
1022.677	813.61
1022.967	831.46
1023.258	824.68
1023.548	792.82
1023.839	818.13
1024.129	807.28
1024.419	795.3
1024.709	776.1
1025	796.89
1025.29	770.9
1025.58	777.23
1025.87	760.95
1026.16	762.08
1026.449	782.65
1026.739	770.45
1027.029	784.68
1027.319	755.53
1027.608	745.36
1027.898	748.98
1028.187	748.3
1028.477	739.03
1028.766	749.66
1029.055	730.45
1029.344	768.64
1029.634	720.28
1029.923	732.03
1030.212	718.24
1030.501	720.5
1030.79	716.89
1031.078	704.91
1031.367	713.05
1031.656	727.96
1031.945	715.53
1032.233	687.51
1032.522	690.22
1032.81	667.85
1033.099	691.35
1033.387	668.75
1033.675	678.24
1033.963	700.62
1034.251	696.32
1034.54	666.95
1034.828	671.47
1035.116	668.53
1035.403	647.74
1035.691	643.67
1035.979	657.45
1036.267	652.71
1036.554	648.19
1036.842	655.87
1037.129	628.3
1037.417	664.01
1037.704	654.52
1037.992	642.31
1038.279	636.89
1038.566	620.62
1038.853	620.62
1039.14	620.62
