Data from cardboard_FLMS001491_009.txt Node
Date: Tue Feb 07 11:38:51 GMT 2017
User: dcchb
Spectrometer: FLMS00149
Trigger mode: 0
Integration Time (sec): 2.000000E-2
Scans to average: 10
Electric dark correction enabled: true
Nonlinearity correction enabled: false
Boxcar width: 0
XAxis mode: Wavelengths
Number of Pixels in Spectrum: 2048
>>>>>Begin Spectral Data<<<<<
341.393	-17.3
341.776	-17.3
342.16	-17.3
342.543	-56.4
342.927	-71.76
343.31	-66.34
343.693	-80.13
344.077	-61.82
344.46	-46.45
344.843	-53.23
345.226	-47.13
345.61	-42.39
345.993	-21.6
346.376	-5.1
346.759	29.02
347.142	34.67
347.525	40.55
347.908	54.79
348.291	84.84
348.674	84.16
349.057	96.14
349.44	121.68
349.823	137.04
350.206	149.25
350.588	185.63
350.971	196.7
351.354	224.73
351.737	221.11
352.119	240.09
352.502	244.84
352.884	265.63
353.267	264.95
353.65	276.25
354.032	294.55
354.414	299.07
354.797	285.06
355.179	304.05
355.562	306.98
355.944	316.25
356.326	304.95
356.709	326.64
357.091	326.87
357.473	320.99
357.855	342.24
358.238	330.71
358.62	317.83
359.002	322.8
359.384	313.08
359.766	311.28
360.148	330.03
360.53	333.42
360.912	328.68
361.294	306.53
361.676	318.06
362.057	306.98
362.439	335.68
362.821	317.38
363.203	323.25
363.584	312.18
363.966	315.57
364.348	319.41
364.729	304.95
365.111	297.49
365.493	296.59
365.874	309.24
366.256	315.12
366.637	302.01
367.019	309.47
367.4	299.98
367.781	295.91
368.163	286.65
368.544	303.14
368.925	294.55
369.306	293.88
369.688	304.5
370.069	297.27
370.45	295.01
370.831	301.11
371.212	309.24
371.593	287.77
371.974	298.17
372.355	314.89
372.736	292.97
373.117	298.62
373.498	290.03
373.879	294.78
374.26	297.94
374.641	310.83
375.021	296.81
375.402	289.36
375.783	293.42
376.163	292.07
376.544	315.57
376.925	320.32
377.305	324.84
377.686	307.21
378.066	308.11
378.447	314.89
378.827	317.38
379.208	314.67
379.588	312.86
379.968	322.58
380.349	330.49
380.729	326.42
381.109	329.13
381.489	338.4
381.87	322.12
382.25	321.22
382.63	321.45
383.01	336.59
383.39	326.87
383.77	325.74
384.15	322.8
384.53	344.04
384.91	299.53
385.29	331.39
385.67	326.42
386.049	344.04
386.429	324.38
386.809	328.9
387.189	304.27
387.568	358.51
387.948	332.29
388.328	353.08
388.707	347.89
389.087	352.86
389.466	344.04
389.846	345.4
390.225	333.2
390.605	337.27
390.984	340.88
391.363	349.24
391.743	347.21
392.122	340.43
392.501	326.42
392.881	360.99
393.26	346.53
393.639	344.27
394.018	352.86
394.397	346.76
394.776	376.13
395.155	353.99
395.534	332.97
395.913	351.28
396.292	364.38
396.671	365.06
397.05	362.12
397.429	352.18
397.808	346.53
398.186	368
398.565	377.04
398.944	360.54
399.323	379.98
399.701	370.71
400.08	376.36
400.458	370.03
400.837	358.06
401.215	369.35
401.594	378.39
401.972	376.13
402.351	357.38
402.729	366.19
403.107	386.08
403.486	389.69
403.864	375.23
404.242	368.68
404.62	369.13
404.999	396.7
405.377	385.4
405.755	375.91
406.133	382.69
406.511	390.37
406.889	405.29
407.267	403.93
407.645	394.21
408.023	407.55
408.401	418.84
408.779	402.12
409.156	409.35
409.534	410.03
409.912	402.8
410.29	419.75
410.667	424.04
411.045	410.71
411.422	413.87
411.8	419.52
412.178	433.31
412.555	424.04
412.933	441.22
413.31	433.08
413.687	421.56
414.065	423.82
414.442	432.86
414.819	422.01
415.197	447.32
415.574	454.55
415.951	438.51
416.328	457.26
416.705	450.93
417.082	450.71
417.46	447.32
417.837	459.3
418.214	463.82
418.591	469.01
418.967	430.6
419.344	464.72
419.721	448.22
420.098	459.07
420.475	457.26
420.852	471.05
421.228	472.18
421.605	471.95
421.982	462.46
422.358	475.57
422.735	491.84
423.111	486.64
423.488	506.07
423.864	488.9
424.241	504.94
424.617	475.34
424.994	538.62
425.37	490.26
425.746	511.95
426.123	491.39
426.499	510.14
426.875	497.94
427.251	520.76
427.627	539.07
428.003	522.35
428.379	538.62
428.756	557.82
429.132	532.51
429.507	525.06
429.883	541.1
430.259	552.63
430.635	542.91
431.011	554.43
431.387	576.81
431.763	567.32
432.138	552.85
432.514	565.51
432.89	549.01
433.265	597.82
433.641	589.46
434.016	596.47
434.392	617.48
434.767	602.34
435.143	586.98
435.518	624.49
435.894	610.93
436.269	599.63
436.644	615.22
437.02	638.27
437.395	612.96
437.77	631.72
438.145	645.28
438.52	614.77
438.895	634.21
439.271	645.96
439.646	640.53
440.021	637.14
440.395	658.61
440.77	664.71
441.145	639.18
441.52	675.79
441.895	657.93
442.27	669.69
442.645	679.86
443.019	674.88
443.394	678.73
443.769	687.54
444.143	705.39
444.518	691.38
444.892	699.74
445.267	699.74
445.641	693.87
446.016	723.24
446.39	714.2
446.764	718.95
447.139	719.63
447.513	722.34
447.887	713.07
448.262	720.08
448.636	732.96
449.01	734.54
449.384	749.91
449.758	727.54
450.132	758.27
450.506	754.43
450.88	761.89
451.254	736.35
451.628	754.2
452.002	766.41
452.376	788.78
452.75	820.64
453.123	802.11
453.497	796.46
453.871	775.67
454.244	814.77
454.618	807.08
454.992	850.25
455.365	821.55
455.739	855.9
456.112	843.24
456.486	863.13
456.859	854.31
457.232	862.45
457.606	842.34
457.979	871.71
458.352	894.09
458.725	912.84
459.099	906.06
459.472	909
459.845	900.41
460.218	900.19
460.591	920.98
460.964	932.73
461.337	962.11
461.71	967.53
462.083	949.68
462.456	981.09
462.829	966.4
463.201	988.32
463.574	986.06
463.947	996.91
464.32	1015.21
464.692	1020.86
465.065	1010.69
465.438	1026.96
465.81	1055.66
466.183	1062.67
466.555	1106.74
466.928	1101.31
467.3	1082.78
467.672	1091.37
468.045	1131.37
468.417	1133.4
468.789	1141.76
469.161	1149.45
469.534	1178.15
469.906	1198.03
470.278	1188.32
470.65	1216.11
471.022	1242.1
471.394	1233.96
471.766	1239.16
472.138	1264.7
472.51	1282.33
472.882	1301.99
473.253	1309.44
473.625	1337.24
473.997	1338.14
474.369	1335.88
474.74	1397.12
475.112	1400.51
475.484	1440.51
475.855	1425.82
476.227	1445.94
476.598	1496.78
476.97	1499.72
477.341	1532.49
477.713	1541.08
478.084	1543.11
478.455	1573.62
478.827	1595.76
479.198	1617.68
479.569	1662.2
479.94	1687.96
480.311	1709.66
480.682	1707.85
481.053	1752.14
481.424	1784.68
481.795	1799.37
482.166	1801.41
482.537	1834.17
482.908	1866.72
483.279	1888.64
483.65	1957.11
484.021	2000.95
484.391	1996.88
484.762	2021.74
485.133	2028.52
485.503	2052.93
485.874	2064
486.244	2112.81
486.615	2162.08
486.985	2197.33
487.356	2245.24
487.726	2236.65
488.097	2271
488.467	2272.58
488.837	2319.81
489.207	2366.82
489.578	2359.13
489.948	2385.12
490.318	2470.32
490.688	2482.29
491.058	2529.52
491.428	2543.08
491.798	2571.56
492.168	2624.44
492.538	2601.16
492.908	2665.11
493.278	2675.51
493.648	2709.41
494.017	2744.89
494.387	2792.34
494.757	2784.66
495.126	2843.19
495.496	2841.38
495.866	2834.15
496.235	2916.86
496.605	2945.56
496.974	2966.57
497.344	2979.23
497.713	3002.51
498.082	3034.14
498.452	3089.51
498.821	3100.58
499.19	3106.01
499.559	3141.49
499.928	3159.34
500.298	3193.46
500.667	3190.98
501.036	3214.7
501.405	3285.66
501.774	3271.88
502.143	3319.79
502.512	3354.13
502.88	3372.21
503.249	3403.85
503.618	3432.78
503.987	3443.17
504.356	3502.15
504.724	3515.49
505.093	3499.44
505.462	3603.39
505.83	3593.45
506.199	3638.87
506.567	3657.63
506.936	3710.96
507.304	3747.12
507.672	3733.11
508.041	3728.59
508.409	3824.18
508.777	3854.01
509.145	3876.16
509.514	3886.78
509.882	3930.62
510.25	3979.2
510.618	3990.5
510.986	3975.36
511.354	4044.96
511.722	4075.7
512.09	4111.86
512.458	4121.12
512.826	4157.05
513.193	4258.52
513.561	4277.27
513.929	4295.13
514.297	4334
514.664	4406.08
515.032	4401.11
515.4	4425.75
515.767	4501.9
516.135	4519.98
516.502	4507.55
516.869	4552.3
517.237	4636.36
517.604	4650.82
517.972	4688.34
518.339	4732.4
518.706	4781.44
519.073	4808.33
519.44	4875.9
519.808	4885.85
520.175	4873.87
520.542	5008.33
520.909	4978.27
521.276	5053.07
521.643	5093.3
522.009	5146.63
522.376	5238.61
522.743	5258.49
523.11	5312.5
523.477	5389.11
523.843	5382.33
524.21	5485.38
524.577	5471.37
524.943	5545.72
525.31	5637.92
525.676	5693.28
526.043	5714.07
526.409	5696.22
526.776	5852.37
527.142	5846.72
527.508	5912.26
527.874	5973.5
528.241	6039.49
528.607	6019.6
528.973	6041.07
529.339	6133.72
529.705	6192.25
530.071	6242.19
530.437	6259.37
530.803	6329.88
531.169	6391.57
531.535	6404.68
531.901	6439.03
532.267	6465.01
532.632	6569.64
532.998	6549.08
533.364	6661.62
533.73	6621.17
534.095	6759.7
534.461	6796.08
534.826	6750.43
535.192	6862.29
535.557	6928.05
535.923	6956.07
536.288	6930.99
536.653	7036.75
537.019	7025
537.384	7121.72
537.749	7079.46
538.114	7168.95
538.479	7219.12
538.845	7264.09
539.21	7304.31
539.575	7364.88
539.94	7410.53
540.305	7451.2
540.67	7450.98
541.034	7466.12
541.399	7588.83
541.764	7598.77
542.129	7636.28
542.494	7705.66
542.858	7761.93
543.223	7735.26
543.587	7822.04
543.952	7806.22
544.316	7836.95
544.681	7854.81
545.045	7928.48
545.41	8001.92
545.774	8027.01
546.138	8062.71
546.503	8130.51
546.867	8124.18
547.231	8237.17
547.595	8240.79
547.959	8255.02
548.324	8308.81
548.688	8244.85
549.052	8415.47
549.416	8413.89
549.779	8486.88
550.143	8511.51
550.507	8577.5
550.871	8597.61
551.235	8578.18
551.599	8739.3
551.962	8730.94
552.326	8806.87
552.689	8914.67
553.053	8849.13
553.417	8923.48
553.78	9063.14
554.143	8977.72
554.507	9085.51
554.87	9111.05
555.234	9183.81
555.597	9189.24
555.96	9281.66
556.323	9304.71
556.686	9374.99
557.05	9498.83
557.413	9469.23
557.776	9530.7
558.139	9600.75
558.502	9590.58
558.865	9694.08
559.228	9744.48
559.59	9814.3
559.953	9883.91
560.316	9963.9
560.679	9947.18
561.041	10025.6
561.404	10087.29
561.767	10151.7
562.129	10143.11
562.492	10258.81
562.854	10306.95
563.217	10350.34
563.579	10372.26
563.941	10460.39
564.304	10522.31
564.666	10605.7
565.028	10609.99
565.39	10639.14
565.753	10789.42
566.115	10863.54
566.477	10830.55
566.839	10893.37
567.201	11036.87
567.563	11063.99
567.925	11089.3
568.287	11142.86
568.648	11207.71
569.01	11301.04
569.372	11386.24
569.734	11389.18
570.095	11472.57
570.457	11534.71
570.819	11573.58
571.18	11608.83
571.542	11639.79
571.903	11725.44
572.265	11737.19
572.626	11787.81
572.987	11872.1
573.349	12003.4
573.71	11931.99
574.071	12068.26
574.432	12097.86
574.794	12139.67
575.155	12073
575.516	12111.42
575.877	12214.92
576.238	12249.72
576.599	12324.52
576.96	12324.29
577.32	12430.05
577.681	12368.14
578.042	12464.4
578.403	12484.29
578.763	12510.28
579.124	12548.02
579.485	12629.37
579.845	12672.08
580.206	12715.47
580.566	12708.01
580.927	12755.47
581.287	12807.22
581.648	12802.7
582.008	12875.47
582.368	12909.36
582.728	12921.34
583.089	12962.02
583.449	12977.61
583.809	12993.2
584.169	12997.95
584.529	13011.73
584.889	13162.46
585.249	13099.64
585.609	13017.16
585.969	13219.41
586.329	13110.49
586.688	13169.47
587.048	13231.62
587.408	13241.56
587.768	13148.45
588.127	13236.36
588.487	13250.6
588.846	13344.38
589.206	13314.78
589.565	13291.05
589.925	13483.59
590.284	13412.4
590.643	13451.04
591.003	13502.12
591.362	13514.55
591.721	13518.16
592.08	13535.56
592.44	13573.08
592.799	13489.91
593.158	13642.45
593.517	13578.27
593.876	13579.18
594.235	13660.98
594.593	13616.24
594.952	13717.03
595.311	13692.17
595.67	13742.11
596.029	13835.22
596.387	13875.21
596.746	13913.86
597.104	13837.93
597.463	13850.58
597.822	13963.35
598.18	13916.8
598.538	13869.79
598.897	14075.43
599.255	13910.02
599.613	14092.38
599.972	14086.28
600.33	14125.83
600.688	13984.36
601.046	14133.51
601.404	14208.99
601.762	14189.1
602.12	14246.73
602.478	14307.75
602.836	14246.73
603.194	14222.32
603.552	14273.17
603.91	14286.73
604.268	14384.58
604.625	14245.37
604.983	14368.31
605.341	14283.11
605.698	14494.63
606.056	14417.35
606.413	14412.38
606.771	14521.07
607.128	14560.85
607.485	14532.6
607.843	14496.67
608.2	14582.31
608.557	14681.07
608.914	14628.41
609.272	14686.94
609.629	14836.09
609.986	14730.56
610.343	14746.38
610.7	14791.12
611.057	14811.69
611.414	14827.28
611.771	14855.75
612.127	14907.96
612.484	14874.74
612.841	14992.25
613.198	14987.28
613.554	14999.03
613.911	15101.17
614.267	15162.86
614.624	15119.7
614.98	15166.25
615.337	15248.74
615.693	15235.18
616.05	15120.61
616.406	15316.76
616.762	15250.77
617.118	15314.05
617.475	15250.09
617.831	15336.42
618.187	15438.34
618.543	15366.02
618.899	15557.2
619.255	15403.31
619.611	15423.2
619.967	15581.84
620.323	15496.87
620.678	15591.78
621.034	15434.27
621.39	15467.49
621.746	15594.49
622.101	15700.03
622.457	15582.74
622.812	15586.81
623.168	15654.6
623.523	15728.95
623.879	15723.3
624.234	15625
624.589	15767.82
624.945	15743.19
625.3	15803.53
625.655	15887.59
626.01	15852.11
626.365	15825.22
626.72	15848.72
627.075	15851.43
627.43	15723.53
627.785	15722.17
628.14	15809.63
628.495	15798.78
628.85	15821.15
629.205	15782.06
629.559	15842.62
629.914	15872
630.269	15801.04
630.623	15824.54
630.978	15775.96
631.332	15882.62
631.687	15786.58
632.041	15789.51
632.396	15916.74
632.75	15777.54
633.104	15840.81
633.459	15818.67
633.813	15785.22
634.167	15832.68
634.521	15854.37
634.875	15875.84
635.229	15879.68
635.583	15851.66
635.937	15802.62
636.291	15794.94
636.645	15774.83
636.999	15815.05
637.352	15859.34
637.706	15767.82
638.06	15787.93
638.413	15709.74
638.767	15664.32
639.121	15719.91
639.474	15641.04
639.828	15718.33
640.181	15680.14
640.534	15784.77
640.888	15614.15
641.241	15611.67
641.594	15657.31
641.947	15610.31
642.301	15682.62
642.654	15727.14
643.007	15754.49
643.36	15677.65
643.713	15691.66
644.066	15747.48
644.419	15639.24
644.771	15550.88
645.124	15424.78
645.477	15446.47
645.83	15327.83
646.182	15240.15
646.535	15254.61
646.888	15302.75
647.24	15216.65
647.593	15273.82
647.945	15231.11
648.298	15249.64
648.65	15173.03
649.002	15112.02
649.355	15202.19
649.707	15141.4
650.059	15306.59
650.411	15492.12
650.763	15447.6
651.115	15607.6
651.467	15550.88
651.819	15550.88
652.171	15598.56
652.523	15569.41
652.875	15594.94
653.227	15533.7
653.578	15654.83
653.93	15531.89
654.282	15470.88
654.633	15493.93
654.985	15512.23
655.337	15614.6
655.688	15514.72
656.039	15572.8
656.391	15525.34
656.742	15478.56
657.094	15514.04
657.445	15636.98
657.796	15611.89
658.147	15599.24
658.498	15545
658.849	15665.45
659.2	15606.24
659.551	15562.18
659.902	15592.68
660.253	15584.55
660.604	15576.64
660.955	15516.08
661.306	15607.15
661.656	15566.24
662.007	15528.05
662.358	15513.14
662.708	15630.42
663.059	15583.19
663.409	15495.96
663.76	15577.32
664.11	15662.96
664.461	15585.9
664.811	15706.13
665.161	15612.12
665.511	15574.15
665.862	15628.16
666.212	15659.8
666.562	15765.11
666.912	15656.64
667.262	15565.57
667.612	15646.92
667.962	15680.82
668.312	15578.67
668.662	15779.57
669.011	15633.81
669.361	15633.81
669.711	15640.37
670.06	15559.24
670.41	15591.33
670.76	15553.81
671.109	15686.24
671.459	15574.83
671.808	15676.52
672.157	15679.91
672.507	15593.14
672.856	15599.69
673.205	15609.86
673.554	15568.96
673.904	15553.14
674.253	15688.73
674.602	15591.33
674.951	15440.6
675.3	15407.6
675.649	15639.91
675.998	15622.96
676.346	15625.9
676.695	15604.89
677.044	15560.14
677.393	15547.03
677.741	15557.88
678.09	15512.23
678.438	15532.8
678.787	15506.81
679.135	15608.28
679.484	15532.8
679.832	15499.13
680.181	15409.86
680.529	15525.79
680.877	15482.86
681.225	15477.66
681.573	15538.45
681.922	15460.94
682.27	15438.34
682.618	15470.65
682.966	15339.13
683.314	15488.96
683.661	15341.16
684.009	15291.67
684.357	15262.07
684.705	15309.75
685.053	15228.63
685.4	15249.64
685.748	15196.76
686.095	15168.97
686.443	15177.33
686.79	15070.44
687.138	15144.33
687.485	15158.34
687.832	15094.62
688.18	15129.19
688.527	15030.89
688.874	15074.28
689.221	15040.83
689.568	14981.85
689.915	15031.34
690.262	15075.18
690.609	14912.25
690.956	14903.44
691.303	14888.75
691.65	14822.99
691.997	14882.19
692.344	14747.73
692.69	14715.64
693.037	14781.63
693.383	14706.83
693.73	14750.67
694.077	14592.48
694.423	14554.29
694.769	14614.86
695.116	14645.82
695.462	14552.94
695.808	14535.76
696.155	14547.29
696.501	14463.22
696.847	14425.03
697.193	14325.6
697.539	14437.01
697.885	14408.99
698.231	14272.94
698.577	14225.04
698.923	14209.89
699.269	14229.78
699.614	14149.11
699.96	14133.29
700.306	14151.59
700.651	14084.25
700.997	14166.05
701.342	14002.89
701.688	14013.29
702.033	13960.86
702.379	14001.99
702.724	13947.53
703.069	13905.5
703.415	13839.06
703.76	13847.64
704.105	13865.95
704.45	13780.75
704.795	13748.89
705.14	13744.14
705.485	13649.01
705.83	13517.48
706.175	13670.93
706.52	13635.9
706.865	13586.63
707.209	13573.3
707.554	13576.24
707.899	13525.84
708.243	13442.91
708.588	13526.07
708.932	13464.38
709.277	13482.91
709.621	13440.88
709.966	13294.44
710.31	13344.83
710.654	13261.67
710.998	13311.39
711.342	13326.98
711.687	13239.98
712.031	13159.3
712.375	13174.44
712.719	13256.7
713.063	13204.27
713.407	13307.09
713.75	13172.86
714.094	13140.32
714.438	13078.85
714.782	13113.65
715.125	13040.89
715.469	13035.24
715.812	12983.71
716.156	12935.58
716.499	12989.81
716.843	13023.49
717.186	12959.31
717.53	12950.49
717.873	12990.94
718.216	12937.61
718.559	12868.46
718.902	12791.63
719.246	12810.38
719.589	12772.64
719.932	12749.14
720.275	12748.92
720.617	12743.72
720.96	12753.66
721.303	12740.55
721.646	12792.98
721.989	12697.84
722.331	12654.46
722.674	12691.97
723.016	12722.48
723.359	12595.93
723.701	12635.92
724.044	12694.91
724.386	12569.49
724.729	12616.72
725.071	12592.99
725.413	12571.29
725.755	12550.5
726.097	12502.37
726.439	12522.93
726.782	12508.7
727.124	12541.01
727.465	12483.16
727.807	12457.85
728.149	12490.39
728.491	12395.93
728.833	12530.39
729.175	12531.52
729.516	12442.26
729.858	12420.11
730.199	12465.76
730.541	12475.25
730.882	12392.99
731.224	12385.54
731.565	12359.77
731.906	12331.98
732.248	12387.57
732.589	12353.67
732.93	12327.23
733.271	12395.71
733.612	12332.43
733.953	12331.75
734.294	12341.92
734.635	12271.41
734.976	12279.78
735.317	12264.18
735.658	12238.65
735.999	12269.83
736.339	12208.14
736.68	12174.02
737.021	12259.21
737.361	12065.09
737.702	12269.61
738.042	12278.42
738.383	12233.22
738.723	12214.47
739.063	12143.96
739.404	12176.28
739.744	12119.1
740.084	12167.01
740.424	12186.45
740.764	12125.2
741.104	12136.05
741.444	12147.35
741.784	12027.58
742.124	12136.5
742.464	12078.65
742.804	12122.94
743.143	12112.77
743.483	12068.26
743.823	12014.47
744.162	12026.68
744.502	12055.38
744.841	12032.78
745.181	12096.96
745.52	12026.9
745.86	12065.54
746.199	12081.36
746.538	12008.82
746.877	12095.37
747.216	12009.95
747.556	12004.53
747.895	12082.04
748.234	11945.55
748.573	11928.82
748.911	11962.27
749.25	12001.37
749.589	11917.3
749.928	11938.09
750.267	11974.7
750.605	11889.05
750.944	11856.28
751.283	11873.01
751.621	11831.2
751.96	11857.41
752.298	11769.28
752.636	11797.3
752.975	11827.36
753.313	11751.65
753.651	11842.5
753.989	11769.51
754.327	11834.14
754.666	11793.46
755.004	11773.35
755.342	11781.94
755.679	11766.57
756.017	11746.68
756.355	11698.55
756.693	11622.39
757.031	11721.37
757.368	11657.19
757.706	11562.96
758.044	11564.09
758.381	11539
758.719	11524.09
759.056	11582.39
759.394	11489.06
759.731	11544.65
760.068	11458.55
760.405	11514.37
760.743	11405.22
761.08	11378.1
761.417	11362.74
761.754	11295.62
762.091	11320.48
762.428	11349.86
762.765	11281.61
763.102	11310.99
763.438	11149.86
763.775	11296.53
764.112	11206.36
764.449	11225.79
764.785	11160.94
765.122	11101.28
765.458	11054.05
765.795	11069.64
766.131	11053.59
766.467	11011.79
766.804	10970.66
767.14	10990.09
767.476	10949.64
767.812	10990.77
768.148	10842.3
768.485	10867.84
768.821	10798.01
769.157	10829.64
769.492	10783.09
769.828	10708.97
770.164	10708.74
770.5	10666.71
770.836	10677.33
771.171	10587.62
771.507	10590.1
771.842	10542.87
772.178	10446.6
772.513	10537.22
772.849	10452.48
773.184	10342.65
773.519	10346.04
773.855	10318.02
774.19	10343.56
774.525	10304.46
774.86	10281.41
775.195	10247.97
775.53	10282.09
775.865	10171.36
776.2	10145.82
776.535	10011.36
776.87	10064.47
777.205	10065.6
777.539	9981.31
777.874	9999.38
778.209	9893.85
778.543	9901.53
778.878	9882.78
779.212	9859.27
779.547	9748.32
779.881	9811.59
780.215	9758.26
780.55	9770.01
780.884	9701.31
781.218	9699.28
781.552	9676
781.886	9567.08
782.22	9596.91
782.554	9539.28
782.888	9537.48
783.222	9516.23
783.556	9433.75
783.889	9444.14
784.223	9385.61
784.557	9409.57
784.89	9389.68
785.224	9304.94
785.557	9202.79
785.891	9273.98
786.224	9200.08
786.558	9259.06
786.891	9124.15
787.224	9101.78
787.557	9076.47
787.891	9069.01
788.224	9055
788.557	9054.78
788.89	9014.33
789.223	8992.63
789.556	8965.74
789.888	8933.65
790.221	8936.36
790.554	8889.81
790.887	8855.46
791.219	8791.73
791.552	8809.13
791.884	8735.69
792.217	8743.82
792.549	8646.2
792.882	8712.64
793.214	8648.23
793.546	8634.22
793.879	8541.34
794.211	8496.15
794.543	8549.03
794.875	8522.13
795.207	8529.37
795.539	8481.23
795.871	8493.21
796.203	8457.5
796.535	8435.36
796.867	8377.51
797.198	8369.14
797.53	8297.28
797.862	8301.58
798.193	8317.85
798.525	8273.1
798.856	8357.85
799.188	8167.34
799.519	8196.72
799.85	8195.59
800.182	8157.4
800.513	8168.92
800.844	8079.89
801.175	8141.58
801.506	8113.78
801.837	8030.17
802.168	8073.56
802.499	7991.3
802.83	7970.74
803.161	7928.7
803.491	7914.69
803.822	7939.33
804.153	7848.25
804.483	7841.7
804.814	7846.22
805.145	7827.46
805.475	7806.45
805.805	7784.3
806.136	7808.71
806.466	7802.61
806.796	7762.83
807.126	7710.86
807.457	7697.3
807.787	7671.31
808.117	7671.54
808.447	7632.67
808.777	7658.43
809.107	7671.08
809.436	7567.36
809.766	7570.75
810.096	7551.99
810.426	7572.78
810.755	7509.51
811.085	7465.21
811.414	7559.9
811.744	7425.44
812.073	7473.12
812.403	7403.97
812.732	7391.77
813.061	7401.71
813.39	7382.5
813.719	7334.14
814.049	7389.28
814.378	7327.82
814.707	7277.87
815.036	7297.99
815.365	7255.28
815.693	7213.24
816.022	7253.24
816.351	7226.8
816.68	7201.27
817.008	7203.75
817.337	7155.16
817.665	7152.68
817.994	7149.74
818.322	7147.71
818.651	7082.4
818.979	7040.14
819.307	7087.82
819.636	7070.42
819.964	7059.35
820.292	7035.62
820.62	7099.57
820.948	7005.56
821.276	7046.69
821.604	7046.02
821.932	7030.87
822.259	7062.74
822.587	7029.52
822.915	7001.72
823.243	7047.82
823.57	7032
823.898	7007.37
824.225	7043.98
824.553	7074.72
824.88	7029.52
825.207	7014.15
825.535	7048.5
825.862	7023.19
826.189	6997.43
826.516	7038.11
826.843	7066.13
827.17	7035.39
827.497	7053.02
827.824	6986.58
828.151	7065.45
828.478	7057.54
828.805	7047.15
829.131	7003.98
829.458	7006.92
829.785	7010.54
830.111	7018.67
830.438	7060.48
830.764	7058.44
831.09	6992.01
831.417	7023.19
831.743	7041.27
832.069	7054.6
832.395	6962.4
832.722	7026.13
833.048	7008.95
833.374	6924.44
833.7	7000.82
834.026	6949.75
834.351	7039.24
834.677	6961.95
835.003	6985.45
835.329	6968.5
835.654	6930.31
835.98	6977.32
836.306	6954.72
836.631	6913.14
836.956	6947.03
837.282	6940.03
837.607	6880.37
837.932	6911.33
838.258	6902.74
838.583	6886.25
838.908	6834.95
839.233	6859.13
839.558	6832.01
839.883	6769.64
840.208	6782.52
840.533	6863.42
840.858	6797.43
841.182	6754.5
841.507	6774.38
841.832	6745.91
842.156	6810.09
842.481	6742.52
842.805	6758.57
843.13	6709.75
843.454	6694.16
843.778	6656.87
844.103	6689.87
844.427	6642.18
844.751	6697.32
845.075	6651.45
845.399	6605.57
845.723	6608.51
846.047	6586.82
846.371	6555.41
846.695	6553.82
847.019	6505.69
847.343	6504.33
847.666	6417.11
847.99	6396.77
848.313	6386.15
848.637	6377.56
848.96	6381.63
849.284	6355.41
849.607	6377.78
849.931	6339.14
850.254	6261.86
850.577	6330.1
850.9	6213.49
851.223	6166.94
851.546	6193.16
851.869	6167.17
852.192	6152.03
852.515	6118.58
852.838	6066.38
853.161	6060.28
853.483	6085.59
853.806	5988.87
854.129	5980.96
854.451	5985.25
854.774	5960.17
855.096	5911.13
855.419	5929.43
855.741	5920.4
856.063	5915.42
856.385	5916.55
856.708	5856.22
857.03	5847.4
857.352	5898.02
857.674	5868.42
857.996	5826.16
858.318	5762.89
858.64	5787.29
858.961	5781.19
859.283	5731.7
859.605	5748.42
859.926	5763.79
860.248	5718.14
860.57	5717.24
860.891	5718.37
861.212	5681.31
861.534	5696.45
861.855	5641.98
862.176	5639.27
862.498	5622.1
862.819	5685.6
863.14	5584.13
863.461	5590.46
863.782	5570.8
864.103	5655.09
864.424	5576.22
864.745	5581.65
865.065	5564.02
865.386	5509.33
865.707	5535.32
866.027	5543
866.348	5525.6
866.668	5559.05
866.989	5533.51
867.309	5496.23
867.63	5520.63
867.95	5477.92
868.27	5458.03
868.59	5432.5
868.91	5441.99
869.23	5485.83
869.55	5393.4
869.87	5433.63
870.19	5432.05
870.51	5449.67
870.83	5432.05
871.15	5397.7
871.469	5375.32
871.789	5411.71
872.109	5349.11
872.428	5370.13
872.748	5405.61
873.067	5381.2
873.386	5350.69
873.706	5349.11
874.025	5361.99
874.344	5329
874.663	5315.89
874.982	5303.24
875.301	5317.47
875.62	5306.85
875.939	5317.93
876.258	5294.42
876.577	5264.59
876.896	5288.55
877.214	5261.66
877.533	5303.46
877.852	5285.38
878.17	5283.35
878.489	5245.61
878.807	5250.81
879.125	5236.12
879.444	5180.53
879.762	5222.11
880.08	5178.95
880.398	5218.27
880.716	5182.56
881.034	5148.44
881.352	5173.07
881.67	5166.97
881.988	5136.01
882.306	5103.69
882.624	5137.36
882.941	5129.46
883.259	5122
883.577	5073.86
883.894	5068.67
884.212	5049.91
884.529	5012.62
884.846	5044.71
885.164	5060.08
885.481	5009.91
885.798	5042.68
886.115	4959.06
886.432	4988.67
886.75	4998.39
887.067	4959.06
887.383	4958.16
887.7	5013.3
888.017	4950.03
888.334	4947.09
888.651	4949.12
888.967	4932.4
889.284	4923.81
889.6	4929.69
889.917	4866.86
890.233	4841.55
890.55	4867.77
890.866	4811.27
891.182	4793.65
891.498	4795.9
891.815	4783.02
892.131	4800.88
892.447	4772.63
892.763	4742.12
893.079	4747.09
893.395	4741.9
893.71	4729.69
894.026	4688.11
894.342	4716.36
894.657	4684.5
894.973	4688.56
895.289	4696.92
895.604	4654.67
895.92	4647.89
896.235	4607.44
896.55	4605.4
896.865	4581
897.181	4543.48
897.496	4579.19
897.811	4541.22
898.126	4546.19
898.441	4515.91
898.756	4518.85
899.071	4471.17
899.386	4466.42
899.7	4462.35
900.015	4428.23
900.33	4410.15
900.644	4433.88
900.959	4437.95
901.273	4362.02
901.588	4368.12
901.902	4370.38
902.216	4350.04
902.531	4364.96
902.845	4343.26
903.159	4282.25
903.473	4237.5
903.787	4226.65
904.101	4221.46
904.415	4242.47
904.729	4214.45
905.042	4174.23
905.356	4172.42
905.67	4186.2
905.984	4163.83
906.297	4177.16
906.611	4119.99
906.924	4150.72
907.237	4133.32
907.551	4125.41
907.864	4082.25
908.177	4079.54
908.491	4084.96
908.804	4038.41
909.117	4021.24
909.43	4023.72
909.743	3996.15
910.056	3992.54
910.368	3959.09
910.681	3978.07
910.994	3936.27
911.307	3971.75
911.619	3882.26
911.932	3872.99
912.244	3884.06
912.557	3894.69
912.869	3860.56
913.181	3819.21
913.494	3868.02
913.806	3800.9
914.118	3792.77
914.43	3756.16
914.742	3796.61
915.054	3749.38
915.366	3735.59
915.678	3761.58
915.99	3724.52
916.302	3687.69
916.613	3704.41
916.925	3680
917.236	3642.26
917.548	3633.68
917.859	3654.24
918.171	3621.92
918.482	3643.62
918.794	3614.69
919.105	3572.21
919.416	3539.44
919.727	3563.4
920.038	3521.81
920.349	3517.07
920.66	3492.66
920.971	3479.78
921.282	3526.79
921.593	3448.14
921.903	3416.73
922.214	3449.5
922.525	3497.41
922.835	3403.63
923.146	3395.94
923.456	3401.59
923.767	3368.15
924.077	3361.37
924.387	3336.06
924.697	3306
925.008	3334.47
925.318	3290.63
925.628	3258.32
925.938	3297.87
926.248	3228.04
926.558	3289.96
926.867	3233.46
927.177	3231.2
927.487	3244.31
927.796	3196.62
928.106	3166.57
928.416	3181.94
928.725	3140.36
929.034	3146.46
929.344	3141.94
929.653	3124.31
929.962	3111.43
930.271	3102.16
930.581	3077.08
930.89	3117.31
931.199	3014.93
931.508	3082.96
931.817	3077.98
932.125	3029.17
932.434	3017.87
932.743	3015.39
933.051	2990.3
933.36	3006.35
933.669	2958.21
933.977	2987.36
934.286	2971.09
934.594	2920.25
934.902	2922.28
935.21	2895.16
935.519	2870.98
935.827	2907.14
936.135	2856.52
936.443	2879.57
936.751	2888.16
937.059	2869.4
937.367	2852.45
937.674	2807.93
937.982	2854.04
938.29	2807.93
938.597	2816.97
938.905	2742.17
939.213	2794.38
939.52	2766.13
939.827	2758.22
940.135	2716.41
940.442	2726.35
940.749	2667.6
941.056	2708.95
941.363	2692.68
941.67	2691.33
941.977	2681.84
942.284	2689.97
942.591	2662.18
942.898	2631.44
943.205	2657.88
943.511	2646.58
943.818	2618.79
944.125	2588.73
944.431	2630.09
944.738	2605
945.044	2559.13
945.35	2560.71
945.657	2541.05
945.963	2566.59
946.269	2526.59
946.575	2539.69
946.881	2519.35
947.187	2519.13
947.493	2484.1
947.799	2462.86
948.105	2485.91
948.41	2468.73
948.716	2460.37
949.022	2441.39
949.327	2437.55
949.633	2428.06
949.938	2423.76
950.244	2420.83
950.549	2390.77
950.854	2393.93
951.16	2366.14
951.465	2342.64
951.77	2342.64
952.075	2335.4
952.38	2359.81
952.685	2343.09
952.99	2325.46
953.294	2330.66
953.599	2327.72
953.904	2329.98
954.209	2289.08
954.513	2271.9
954.818	2287.5
955.122	2269.19
955.426	2235.97
955.731	2232.36
956.035	2243.43
956.339	2209.76
956.643	2209.08
956.948	2192.81
957.252	2170.44
957.556	2174.73
957.86	2177.89
958.163	2159.14
958.467	2159.14
958.771	2144.9
959.075	2159.82
959.378	2104.68
959.682	2127.73
959.985	2138.35
960.289	2127.73
960.592	2111.91
960.896	2106.94
961.199	2090.44
961.502	2107.39
961.805	2051.34
962.108	2059.71
962.411	2071.23
962.714	2031.91
963.017	2021.06
963.32	1999.14
963.623	2007.5
963.926	2017.45
964.228	2026.49
964.531	2012.02
964.833	2001.18
965.136	1987.84
965.438	1990.78
965.741	1955.3
966.043	1935.42
966.345	1941.52
966.648	1949.43
966.95	1930.67
967.252	1929.77
967.554	1940.84
967.856	1912.36
968.158	1911.69
968.46	1887.73
968.761	1890.44
969.063	1911.69
969.365	1865.13
969.666	1873.5
969.968	1882.54
970.269	1865.13
970.571	1861.52
970.872	1823.78
971.174	1820.39
971.475	1830.79
971.776	1812.48
972.077	1828.07
972.378	1834.63
972.679	1806.38
972.98	1805.93
973.281	1779.71
973.582	1799.83
973.883	1766.61
974.183	1754.85
974.484	1749.21
974.785	1732.26
975.085	1769.54
975.386	1752.82
975.686	1753.95
975.986	1719.6
976.287	1690.9
976.587	1709.88
976.887	1740.84
977.187	1710.79
977.487	1684.35
977.787	1685.7
978.087	1661.75
978.387	1690.68
978.687	1657.23
978.987	1707.17
979.286	1653.39
979.586	1638.7
979.885	1623.56
980.185	1633.5
980.484	1630.11
980.784	1615.65
981.083	1619.27
981.382	1624.69
981.682	1610.9
981.981	1588.08
982.28	1588.98
982.579	1560.74
982.878	1594.41
983.177	1583.79
983.475	1584.01
983.774	1530.68
984.073	1549.44
984.372	1564.13
984.67	1540.85
984.969	1535.2
985.267	1553.28
985.566	1524.13
985.864	1525.93
986.162	1518.03
986.461	1487.29
986.759	1501.3
987.057	1516.67
987.355	1495.2
987.653	1486.16
987.951	1471.92
988.249	1467.18
988.547	1444.81
988.844	1445.26
989.142	1444.35
989.44	1459.27
989.737	1432.83
990.035	1422.89
990.332	1437.58
990.63	1439.84
990.927	1423.11
991.224	1416.56
991.521	1394.41
991.819	1412.72
992.116	1380.18
992.413	1362.77
992.71	1372.49
993.006	1371.81
993.303	1360.52
993.6	1375.66
993.897	1389.44
994.193	1346.96
994.49	1353.51
994.787	1338.14
995.083	1341.08
995.379	1362.1
995.676	1335.21
995.972	1335.88
996.268	1306.73
996.565	1298.6
996.861	1331.36
997.157	1298.6
997.453	1292.27
997.749	1283.68
998.044	1285.49
998.34	1305.6
998.636	1288.2
998.932	1242.78
999.227	1240.52
999.523	1267.86
999.818	1243.68
1000.114	1243.68
1000.409	1214.76
1000.704	1221.99
1001	1235.55
1001.295	1204.14
1001.59	1214.3
1001.885	1212.04
1002.18	1218.6
1002.475	1206.39
1002.77	1202.78
1003.065	1184.47
1003.359	1195.77
1003.654	1174.98
1003.949	1160.97
1004.243	1183.8
1004.538	1160.52
1004.832	1169.33
1005.127	1154.64
1005.421	1134.53
1005.715	1114.87
1006.009	1144.7
1006.304	1092.73
1006.598	1142.89
1006.892	1109.67
1007.186	1101.31
1007.48	1096.34
1007.773	1098.83
1008.067	1119.39
1008.361	1109
1008.655	1079.62
1008.948	1059.05
1009.242	1082.56
1009.535	1044.59
1009.829	1088.88
1010.122	1056.79
1010.415	1087.75
1010.708	1057.7
1011.001	1040.3
1011.295	1055.89
1011.588	1041.88
1011.881	1016.57
1012.173	1043.24
1012.466	1050.24
1012.759	1004.82
1013.052	1017.7
1013.344	1015.67
1013.637	1004.59
1013.93	995.55
1014.222	985.16
1014.514	998.72
1014.807	992.39
1015.099	990.36
1015.391	983.58
1015.683	984.03
1015.976	969.56
1016.268	959.4
1016.56	923.24
1016.851	951.94
1017.143	949
1017.435	941.54
1017.727	940.19
1018.018	938.61
1018.31	932.05
1018.602	931.37
1018.893	914.43
1019.185	925.05
1019.476	889.12
1019.767	907.65
1020.058	891.37
1020.35	892.05
1020.641	871.94
1020.932	879.85
1021.223	896.12
1021.514	873.3
1021.804	879.17
1022.095	862
1022.386	854.09
1022.677	865.16
1022.967	845.73
1023.258	843.69
1023.548	845.95
1023.839	827.2
1024.129	820.19
1024.419	809.8
1024.709	810.7
1025	840.3
1025.29	804.15
1025.58	802.34
1025.87	752.62
1026.16	787.65
1026.449	823.58
1026.739	788.78
1027.029	776.8
1027.319	782
1027.608	785.84
1027.898	779.51
1028.187	798.72
1028.477	750.36
1028.766	790.59
1029.055	765.95
1029.344	784.49
1029.634	780.87
1029.923	739.97
1030.212	756.01
1030.501	709.01
1030.79	719.85
1031.078	744.03
1031.367	734.54
1031.656	726.86
1031.945	721.44
1032.233	731.61
1032.522	710.59
1032.81	719.85
1033.099	707.2
1033.387	708.1
1033.675	693.64
1033.963	683.47
1034.251	699.06
1034.54	688.22
1034.828	666.3
1035.116	713.75
1035.403	679.86
1035.691	686.18
1035.979	677.6
1036.267	665.39
1036.554	657.93
1036.842	652.96
1037.129	687.09
1037.417	675.79
1037.704	640.53
1037.992	640.08
1038.279	662.45
1038.566	648.67
1038.853	648.67
1039.14	648.67
