Data from cardboard_FLMS001491_006.txt Node
Date: Tue Feb 07 11:38:51 GMT 2017
User: dcchb
Spectrometer: FLMS00149
Trigger mode: 0
Integration Time (sec): 2.000000E-2
Scans to average: 10
Electric dark correction enabled: true
Nonlinearity correction enabled: false
Boxcar width: 0
XAxis mode: Wavelengths
Number of Pixels in Spectrum: 2048
>>>>>Begin Spectral Data<<<<<
341.393	-22.12
341.776	-22.12
342.16	-22.12
342.543	-46.75
342.927	-43.36
343.31	-68.9
343.693	-77.71
344.077	-55.79
344.46	-59.18
344.843	-65.96
345.226	-49.69
345.61	-13.98
345.993	-22.57
346.376	-11.04
346.759	21.27
347.142	19.91
347.525	45
347.908	49.52
348.291	81.16
348.674	91.1
349.057	116.86
349.44	128.16
349.823	139.91
350.206	166.58
350.588	176.52
350.971	214.49
351.354	219.91
351.737	230.76
352.119	242.96
352.502	256.97
352.884	253.81
353.267	280.7
353.65	295.84
354.032	270.3
354.414	310.53
354.797	304.88
355.179	312.79
355.562	301.94
355.944	300.13
356.326	304.43
356.709	306.23
357.091	319.57
357.473	348.95
357.855	324.99
358.238	323.64
358.62	313.24
359.002	323.64
359.384	332.67
359.766	339.45
360.148	332.67
360.53	323.64
360.912	346.69
361.294	325.9
361.676	305.33
362.057	330.42
362.439	329.29
362.821	330.87
363.203	314.14
363.584	331.32
363.966	323.64
364.348	320.25
364.729	322.96
365.111	289.06
365.493	310.98
365.874	302.62
366.256	302.62
366.637	305.1
367.019	303.75
367.4	315.95
367.781	307.82
368.163	314.6
368.544	294.71
368.925	294.26
369.306	297.42
369.688	307.82
370.069	322.05
370.45	302.39
370.831	299.91
371.212	300.81
371.593	308.72
371.974	286.8
372.355	305.56
372.736	306.69
373.117	308.04
373.498	295.84
373.879	303.98
374.26	275.28
374.641	282.05
375.021	312.34
375.402	308.49
375.783	294.48
376.163	315.5
376.544	310.08
376.925	316.4
377.305	315.05
377.686	327.7
378.066	312.34
378.447	316.63
378.827	315.95
379.208	320.25
379.588	315.05
379.968	300.59
380.349	307.82
380.729	322.51
381.109	313.01
381.489	324.54
381.87	307.14
382.25	326.8
382.63	313.92
383.01	310.3
383.39	332
383.77	350.98
384.15	313.92
384.53	322.73
384.91	331.54
385.29	348.27
385.67	343.52
386.049	324.99
386.429	335.39
386.809	342.39
387.189	341.26
387.568	341.49
387.948	328.38
388.328	329.96
388.707	343.3
389.087	324.77
389.466	335.16
389.846	320.47
390.225	328.61
390.605	338.78
390.984	341.04
391.363	324.54
391.743	344.65
392.122	357.98
392.501	320.47
392.881	345.56
393.26	344.43
393.639	355.27
394.018	344.43
394.397	355.95
394.776	348.27
395.155	350.53
395.534	341.71
395.913	349.62
396.292	355.27
396.671	345.78
397.05	345.33
397.429	381.94
397.808	369.96
398.186	377.65
398.565	359.57
398.944	353.92
399.323	376.29
399.701	361.6
400.08	362.05
400.458	372.22
400.837	377.87
401.215	391.88
401.594	369.28
401.972	388.72
402.351	357.76
402.729	391.2
403.107	384.88
403.486	389.85
403.864	369.96
404.242	372.45
404.62	362.73
404.999	381.49
405.377	388.49
405.755	399.11
406.133	371.77
406.511	397.98
406.889	425.1
407.267	392.56
407.645	413.12
408.023	396.18
408.401	401.83
408.779	400.02
409.156	384.65
409.534	402.73
409.912	426.46
410.29	420.81
410.667	426.91
411.045	415.61
411.422	425.1
411.8	420.81
412.178	418.55
412.555	411.99
412.933	431.2
413.31	449.51
413.687	443.18
414.065	439.56
414.442	440.02
414.819	446.57
415.197	456.29
415.574	438.89
415.951	447.7
416.328	442.95
416.705	453.58
417.082	454.71
417.46	434.59
417.837	451.09
418.214	452.22
418.591	456.97
418.967	452.22
419.344	477.76
419.721	466.68
420.098	464.42
420.475	432.79
420.852	461.03
421.228	476.85
421.605	466.68
421.982	467.36
422.358	500.13
422.735	497.64
423.111	491.54
423.488	501.71
423.864	499.22
424.241	489.28
424.617	489.73
424.994	493.8
425.37	509.62
425.746	520.01
426.123	523.63
426.499	520.92
426.875	484.31
427.251	539.45
427.627	523.63
428.003	522.73
428.379	526.12
428.756	539
429.132	527.25
429.507	548.04
429.883	524.31
430.259	554.14
430.635	556.62
431.011	561.6
431.387	568.83
431.763	565.66
432.138	557.08
432.514	601.59
432.89	594.14
433.265	574.48
433.641	590.75
434.016	583.06
434.392	587.13
434.767	613.8
435.143	608.37
435.518	581.71
435.894	606.57
436.269	604.76
436.644	629.39
437.02	623.29
437.395	621.03
437.77	613.57
438.145	629.39
438.52	628.94
438.895	647.24
439.271	637.98
439.646	661.93
440.021	672.55
440.395	675.72
440.77	649.73
441.145	654.47
441.52	679.56
441.895	667.13
442.27	666.45
442.645	683.4
443.019	695.6
443.394	686.56
443.769	672.55
444.143	673.46
444.518	700.57
444.892	682.72
445.267	667.58
445.641	705.55
446.016	713.68
446.39	732.44
446.764	709.84
447.139	718.88
447.513	732.66
447.887	715.49
448.262	733.57
448.636	718.43
449.01	732.66
449.384	725.88
449.758	731.08
450.132	748.71
450.506	751.87
450.88	746
451.254	781.02
451.628	787.58
452.002	790.97
452.376	787.35
452.75	766.56
453.123	797.52
453.497	816.73
453.871	778.76
454.244	805.2
454.618	807.92
454.992	822.83
455.365	828.71
455.739	855.37
456.112	850.4
456.486	848.14
456.859	860.34
457.232	855.6
457.606	840.68
457.979	870.06
458.352	885.65
458.725	892.89
459.099	894.92
459.472	908.25
459.845	941.92
460.218	926.33
460.591	948.25
460.964	929.04
461.337	944.86
461.71	974.92
462.083	977.18
462.456	980.79
462.829	1014.92
463.201	1011.3
463.574	1005.65
463.947	996.61
464.32	1033.22
464.692	1010.62
465.065	1004.75
465.438	1058.76
465.81	1061.02
466.183	1091.3
466.555	1075.48
466.928	1098.98
467.3	1086.1
467.672	1110.96
468.045	1132.43
468.417	1173.56
468.789	1135.59
469.161	1138.3
469.534	1170.17
469.906	1176.04
470.278	1201.13
470.65	1215.59
471.022	1220.11
471.394	1223.72
471.766	1248.81
472.138	1256.72
472.51	1289.26
472.882	1303.04
473.253	1310.28
473.625	1300.56
473.997	1331.29
474.369	1363.38
474.74	1361.8
475.112	1402.93
475.484	1404.51
475.855	1442.02
476.227	1452.65
476.598	1476.83
476.97	1501.68
477.341	1510.5
477.713	1529.71
478.084	1564.96
478.455	1584.62
478.827	1602.92
479.198	1633.66
479.569	1659.65
479.94	1686.09
480.311	1664.17
480.682	1735.58
481.053	1740.55
481.424	1789.59
481.795	1795.69
482.166	1829.36
482.537	1842.92
482.908	1884.95
483.279	1899.87
483.65	1935.8
484.021	1967.66
484.391	2009.01
484.762	2036.58
485.133	2016.7
485.503	2044.27
485.874	2098.96
486.244	2152.74
486.615	2134.66
486.985	2165.4
487.356	2228.22
487.726	2224.6
488.097	2257.6
488.467	2275.45
488.837	2320.42
489.207	2349.57
489.578	2382.11
489.948	2438.83
490.318	2465.27
490.688	2460.53
491.058	2487.42
491.428	2557.25
491.798	2562.45
492.168	2613.29
492.538	2617.59
492.908	2658.04
493.278	2705.27
493.648	2701.88
494.017	2726.28
494.387	2748.88
494.757	2792.72
495.126	2823.46
495.496	2848.31
495.866	2850.57
496.235	2936
496.605	2934.87
496.974	2945.94
497.344	2995.43
497.713	2997.46
498.082	3050.34
498.452	3046.28
498.821	3090.34
499.19	3120.62
499.559	3139.61
499.928	3166.27
500.298	3221.86
500.667	3233.62
501.036	3229.55
501.405	3258.93
501.774	3255.76
502.143	3326.49
502.512	3371.01
502.88	3382.54
503.249	3381.63
503.618	3435.42
503.987	3471.58
504.356	3521.74
504.724	3493.5
505.093	3541.63
505.462	3532.82
505.83	3609.65
506.199	3638.35
506.567	3640.38
506.936	3688.29
507.304	3685.13
507.672	3762.42
508.041	3804.67
508.409	3791.57
508.777	3808.29
509.145	3859.81
509.514	3876.99
509.882	3961.05
510.25	3958.57
510.618	4008.51
510.986	4025.91
511.354	4097.1
511.722	4096.87
512.09	4148.17
512.458	4105.23
512.826	4206.7
513.193	4252.12
513.561	4286.24
513.929	4313.59
514.297	4350.65
514.664	4357.88
515.032	4399.91
515.4	4451.66
515.767	4496.63
516.135	4544.32
516.502	4515.39
516.869	4607.14
517.237	4658.44
517.604	4624.99
517.972	4649.85
518.339	4779.34
518.706	4762.84
519.073	4810.07
519.44	4825.44
519.808	4903.63
520.175	4923.06
520.542	4984.76
520.909	5006.9
521.276	5034.92
521.643	5097.07
522.009	5170.29
522.376	5186.78
522.743	5251.64
523.11	5327.8
523.477	5404.86
523.843	5382.49
524.21	5492.09
524.577	5525.76
524.943	5546.32
525.31	5545.42
525.676	5669.26
526.043	5723.04
526.409	5761.91
526.776	5758.07
527.142	5852.76
527.508	5881.46
527.874	5975.24
528.241	5997.16
528.607	5978.4
528.973	6144.73
529.339	6093.65
529.705	6158.28
530.071	6222.01
530.437	6295.46
530.803	6352.4
531.169	6352.18
531.535	6435.79
531.901	6448.9
532.267	6507.65
532.632	6608.44
532.998	6590.82
533.364	6584.71
533.73	6686.18
534.095	6724.82
534.461	6785.39
534.826	6857.02
535.192	6824.26
535.557	6976.34
535.923	7002.56
536.288	6973.18
536.653	7002.56
537.019	7026.28
537.384	7061.31
537.749	7164.13
538.114	7125.72
538.479	7196.9
538.845	7233.96
539.21	7250.91
539.575	7340.63
539.94	7396.67
540.305	7436.67
540.67	7436.22
541.034	7472.37
541.399	7548.08
541.764	7645.93
542.129	7666.04
542.494	7703.78
542.858	7772.03
543.223	7805.47
543.587	7794.85
543.952	7819.03
544.316	7909.2
544.681	7848.41
545.045	7965.69
545.41	8002.08
545.774	8042.08
546.138	8063.55
546.503	8102.41
546.867	8132.47
547.231	8195.07
547.595	8285.46
547.959	8275.06
548.324	8342.86
548.688	8370.2
549.052	8388.73
549.416	8451.56
549.779	8476.19
550.143	8488.17
550.507	8600.25
550.871	8606.36
551.235	8619.24
551.599	8726.35
551.962	8766.35
552.326	8765.22
552.689	8825.78
553.053	8843.86
553.417	8806.35
553.78	8970.87
554.143	8978.1
554.507	9070.07
554.87	9066.46
555.234	9196.62
555.597	9154.59
555.96	9247.92
556.323	9287.02
556.686	9347.35
557.05	9421.02
557.413	9388.48
557.776	9484.3
558.139	9572.66
558.502	9649.04
558.865	9633.67
559.228	9849.71
559.59	9859.2
559.953	9828.47
560.316	10038.18
560.679	9943.72
561.041	10037.5
561.404	10124.51
561.767	10199.99
562.129	10155.24
562.492	10260.32
562.854	10255.35
563.217	10313.2
563.579	10377.61
563.941	10473.2
564.304	10511.39
564.666	10554.55
565.028	10657.83
565.39	10693.31
565.753	10765.85
566.115	10859.63
566.477	10851.49
566.839	10903.02
567.201	10949.8
567.563	10974.65
567.925	11154.54
568.287	11147.76
568.648	11215.1
569.01	11242.44
569.372	11425.26
569.734	11355.21
570.095	11448.99
570.457	11448.99
570.819	11527.63
571.18	11540.29
571.542	11618.93
571.903	11663.9
572.265	11746.84
572.626	11792.94
572.987	11811.02
573.349	11895.99
573.71	11929.88
574.071	12008.98
574.432	12065.7
574.794	12174.4
575.155	12149.54
575.516	12161.74
575.877	12206.03
576.238	12246.94
576.599	12357.67
576.96	12323.55
577.32	12325.58
577.681	12455.75
578.042	12472.02
578.403	12586.59
578.763	12473.15
579.124	12569.19
579.485	12684.44
579.845	12695.97
580.206	12691.22
580.566	12668.62
580.927	12759.69
581.287	12789.3
581.648	12785.68
582.008	12886.47
582.368	12846.02
582.728	12963.76
583.089	12941.61
583.449	12907.49
583.809	12978.22
584.169	13008.73
584.529	13035.84
584.889	13162.17
585.249	13050.08
585.609	13135.5
585.969	13172.79
586.329	13133.47
586.688	13137.08
587.048	13233.58
587.408	13288.94
587.768	13195.61
588.127	13262.05
588.487	13262.5
588.846	13354.71
589.206	13276.52
589.565	13306.35
589.925	13410.07
590.284	13377.98
590.643	13427.92
591.003	13552.21
591.362	13520.58
591.721	13457.3
592.08	13580.46
592.44	13540.46
592.799	13583.85
593.158	13597.64
593.517	13597.64
593.876	13672.21
594.235	13644.64
594.593	13692.1
594.952	13713.79
595.311	13718.09
595.67	13814.13
596.029	13822.49
596.387	13881.92
596.746	13949.94
597.104	13829.72
597.463	13833.34
597.822	13911.3
598.18	13869.27
598.538	13904.3
598.897	14026.1
599.255	13979.1
599.613	14133.89
599.972	14097.96
600.33	14128.47
600.688	14001.92
601.046	14119.88
601.404	14197.85
601.762	14139.54
602.12	14246.43
602.478	14335.92
602.836	14304.74
603.194	14292.76
603.552	14120.79
603.91	14246.21
604.268	14426.09
604.625	14329.37
604.983	14412.76
605.341	14358.29
605.698	14370.5
606.056	14389.03
606.413	14367.56
606.771	14433.1
607.128	14531.62
607.485	14454.34
607.843	14440.33
608.2	14572.07
608.557	14613.43
608.914	14686.87
609.272	14692.3
609.629	14840.54
609.986	14745.86
610.343	14733.43
610.7	14888.45
611.057	14810.26
611.414	14815.91
611.771	14871.28
612.127	14923.93
612.484	14902.01
612.841	15017.26
613.198	15020.2
613.554	14999.86
613.911	15014.1
614.267	15152.85
614.624	15086.86
614.98	15125.28
615.337	15235.33
615.693	15131.38
616.05	15217.93
616.406	15376.35
616.762	15248.21
617.118	15295.45
617.475	15316.46
617.831	15372.05
618.187	15419.74
618.543	15413.41
618.899	15514.87
619.255	15442.56
619.611	15436.91
619.967	15559.17
620.323	15524.37
620.678	15570.69
621.034	15507.87
621.39	15556.91
621.746	15538.15
622.101	15768.43
622.457	15639.17
622.812	15581.54
623.168	15705.6
623.523	15784.25
623.879	15761.42
624.234	15735.66
624.589	15701.99
624.945	15768.43
625.3	15769.33
625.655	15793.06
626.01	15735.66
626.365	15852.49
626.72	15792.61
627.075	15766.62
627.43	15790.8
627.785	15788.99
628.14	15836.9
628.495	15866.73
628.85	15810.91
629.205	15774.08
629.559	15852.72
629.914	15863.79
630.269	15859.95
630.623	15855.88
630.978	15803.45
631.332	15816.56
631.687	15877.58
632.041	15803.23
632.396	15863.11
632.75	15836.67
633.104	15783.34
633.459	15799.16
633.813	15808.65
634.167	15817.92
634.521	15871.25
634.875	15868.76
635.229	15762.1
635.583	15712.61
635.937	15832.61
636.291	15790.8
636.645	15747.18
636.999	15732.95
637.352	15773.62
637.706	15673.29
638.06	15777.69
638.413	15731.59
638.767	15737.69
639.121	15766.85
639.474	15641.65
639.828	15714.19
640.181	15738.82
640.534	15792.38
640.888	15683.23
641.241	15672.61
641.594	15655.21
641.947	15751.7
642.301	15777.92
642.654	15721.2
643.007	15820.86
643.36	15658.37
643.713	15623.57
644.066	15769.33
644.419	15625.61
644.771	15555.1
645.124	15430.13
645.477	15353.97
645.83	15243.02
646.182	15305.84
646.535	15226.07
646.888	15318.95
647.24	15209.12
647.593	15236.24
647.945	15247.99
648.298	15168.22
648.65	15092.29
649.002	15136.13
649.355	15215.67
649.707	15232.85
650.059	15320.3
650.411	15491.15
650.763	15323.47
651.115	15724.13
651.467	15610.47
651.819	15551.26
652.171	15559.62
652.523	15624.25
652.875	15636
653.227	15524.59
653.578	15659.96
653.93	15553.97
654.282	15552.61
654.633	15534.08
654.985	15519.62
655.337	15546.96
655.688	15525.5
656.039	15562.78
656.391	15488.66
656.742	15506.29
657.094	15466.29
657.445	15665.15
657.796	15551.48
658.147	15508.55
658.498	15539.73
658.849	15561.43
659.2	15625.83
659.551	15555.78
659.902	15635.78
660.253	15586.29
660.604	15643.68
660.955	15518.04
661.306	15637.13
661.656	15576.79
662.007	15569.34
662.358	15625.15
662.708	15614.53
663.059	15628.32
663.409	15457.7
663.76	15609.34
664.11	15626.28
664.461	15598.94
664.811	15571.82
665.161	15631.48
665.511	15625.83
665.862	15589.45
666.212	15634.65
666.562	15707.64
666.912	15659.05
667.262	15653.63
667.612	15670.8
667.962	15612.5
668.312	15685.72
668.662	15729.56
669.011	15721.42
669.361	15587.42
669.711	15565.49
670.06	15648.2
670.41	15607.98
670.76	15632.39
671.109	15613.4
671.459	15687.53
671.808	15699.28
672.157	15686.17
672.507	15536.34
672.856	15584.03
673.205	15602.56
673.554	15648.88
673.904	15594.19
674.253	15688.66
674.602	15629.9
674.951	15395.78
675.3	15335.9
675.649	15562.1
675.998	15605.95
676.346	15677.81
676.695	15641.65
677.044	15596.68
677.393	15539.96
677.741	15585.16
678.09	15520.75
678.438	15586.96
678.787	15532.28
679.135	15629.45
679.484	15486.17
679.832	15619.5
680.181	15487.3
680.529	15579.73
680.877	15520.98
681.225	15425.61
681.573	15581.77
681.922	15522.11
682.27	15422.9
682.618	15398.95
682.966	15329.57
683.314	15423.35
683.661	15426.06
684.009	15241.89
684.357	15271.49
684.705	15249.57
685.053	15261.55
685.4	15217.26
685.748	15243.92
686.095	15242.11
686.443	15174.32
686.79	15131.61
687.138	15134.55
687.485	15132.29
687.832	15197.59
688.18	15130.93
688.527	15089.35
688.874	15085.96
689.221	14998.73
689.568	15046.19
689.915	14992.63
690.262	14982.46
690.609	14981.78
690.956	14833.54
691.303	14938.39
691.65	14846.64
691.997	14796.93
692.344	14796.25
692.69	14826.08
693.037	14749.02
693.383	14670.6
693.73	14649.13
694.077	14591.28
694.423	14596.93
694.769	14650.94
695.116	14547.89
695.462	14561.45
695.808	14484.62
696.155	14619.76
696.501	14388.35
696.847	14441.46
697.193	14273.33
697.539	14408.46
697.885	14316.04
698.231	14336.6
698.577	14278.07
698.923	14292.76
699.269	14134.35
699.614	14185.87
699.96	14181.58
700.306	14198.75
700.651	14073.78
700.997	14090.96
701.342	14004.86
701.688	13973.45
702.033	13902.49
702.379	13954.46
702.724	13936.38
703.069	13920.79
703.415	13775.03
703.76	13841.47
704.105	13860.45
704.45	13859.78
704.795	13742.27
705.14	13665.88
705.485	13746.79
705.83	13638.54
706.175	13650.97
706.52	13627.92
706.865	13605.32
707.209	13581.14
707.554	13521.03
707.899	13490.97
708.243	13486.68
708.588	13449.84
708.932	13414.82
709.277	13420.24
709.621	13447.36
709.966	13363.52
710.31	13338.43
710.654	13267.25
710.998	13288.72
711.342	13287.81
711.687	13236.06
712.031	13252.79
712.375	13149.74
712.719	13160.13
713.063	13201.49
713.407	13252.34
713.75	13119.23
714.094	13119.23
714.438	13090.98
714.782	13159.68
715.125	13005.56
715.469	13055.05
715.812	12993.58
716.156	12907.94
716.499	12950.42
716.843	12933.47
717.186	12818.9
717.53	13009.18
717.873	12952.91
718.216	12877.66
718.559	12844.21
718.902	12807.38
719.246	12888.28
719.589	12802.63
719.932	12758.79
720.275	12770.77
720.617	12784.55
720.96	12771.22
721.303	12688.73
721.646	12746.36
721.989	12697.55
722.331	12759.24
722.674	12668.85
723.016	12729.86
723.359	12700.03
723.701	12691.22
724.044	12533.26
724.386	12597.66
724.729	12611.22
725.071	12649.19
725.413	12638.34
725.755	12631.11
726.097	12570.09
726.439	12446.25
726.782	12470.89
727.124	12631.11
727.465	12534.16
727.807	12529.87
728.149	12445.35
728.491	12440.15
728.833	12578.45
729.175	12428.85
729.516	12387.5
729.858	12420.94
730.199	12385.01
730.541	12465.01
730.882	12382.08
731.224	12446.48
731.565	12332.36
731.906	12356.54
732.248	12363.54
732.589	12312.7
732.93	12309.31
733.271	12348.63
733.612	12335.07
733.953	12297.56
734.294	12365.13
734.635	12198.58
734.976	12300.5
735.317	12183.44
735.658	12260.95
735.999	12271.34
736.339	12196.09
736.68	12317.22
737.021	12134.62
737.361	12160.39
737.702	12302.53
738.042	12201.52
738.383	12141.18
738.723	12227.5
739.063	12133.72
739.404	12267.5
739.744	12172.59
740.084	12052.82
740.424	12149.99
740.764	12178.69
741.104	12179.37
741.444	12139.37
741.784	12041.97
742.124	12112.25
742.464	12041.97
742.804	12083.78
743.143	12070.22
743.483	12042.88
743.823	12020.96
744.162	12019.37
744.502	12128.3
744.841	11951.8
745.181	12054.17
745.52	12031.35
745.86	12000.39
746.199	12020.96
746.538	12073.38
746.877	12055.08
747.216	12077.22
747.556	12034.97
747.895	11955.42
748.234	11968.75
748.573	11996.1
748.911	11944.8
749.25	11957.45
749.589	11855.31
749.928	11924.46
750.267	11900.51
750.605	11914.74
750.944	11885.37
751.283	11856.89
751.621	11894.63
751.96	11787.29
752.298	11819.38
752.636	11855.08
752.975	11805.59
753.313	11750.45
753.651	11834.52
753.989	11804.92
754.327	11801.75
754.666	11735.54
755.004	11764.69
755.342	11789.77
755.679	11818.93
756.017	11631.36
756.355	11734.18
756.693	11682.43
757.031	11668.65
757.368	11625.03
757.706	11672.04
758.044	11632.94
758.381	11664.13
758.719	11585.03
759.056	11564.7
759.394	11466.85
759.731	11497.13
760.068	11458.94
760.405	11391.59
760.743	11450.8
761.08	11415.1
761.417	11452.61
761.754	11390.69
762.091	11381.42
762.428	11338.49
762.765	11277.7
763.102	11287.64
763.438	11221.88
763.775	11162.22
764.112	11153.18
764.449	11218.94
764.785	11170.58
765.122	11108.44
765.458	11061.43
765.795	11031.38
766.131	11141.66
766.467	10988.21
766.804	10975.33
767.14	10925.62
767.476	10991.83
767.812	10905.28
768.148	10887.65
768.485	10834.09
768.821	10776.24
769.157	10703.93
769.492	10800.42
769.828	10813.53
770.164	10671.84
770.5	10688.79
770.836	10628.9
771.171	10622.8
771.507	10541.45
771.842	10510.71
772.178	10467.32
772.513	10535.8
772.849	10427.55
773.184	10388.46
773.519	10447.44
773.855	10251.06
774.19	10345.52
774.525	10291.28
774.86	10320.66
775.195	10241.11
775.53	10234.79
775.865	10195.92
776.2	10151.85
776.535	10038.41
776.87	10075.92
777.205	9995.47
777.539	10021.91
777.874	10042.7
778.209	9971.07
778.543	9965.19
778.878	9869.15
779.212	9858.07
779.547	9775.59
779.881	9814.69
780.215	9743.95
780.55	9814.69
780.884	9643.39
781.218	9677.74
781.552	9656.27
781.886	9637.51
782.22	9565.43
782.554	9571.75
782.888	9490.85
783.222	9430.29
783.556	9425.54
783.889	9454.92
784.223	9349.16
784.557	9263.97
784.89	9377.63
785.224	9315.72
785.557	9274.36
785.891	9251.08
786.224	9234.59
786.558	9223.29
786.891	9110.98
787.224	9126.79
787.557	9076.17
787.891	9065.33
788.224	9050.64
788.557	9050.41
788.89	9041.37
789.223	9094.03
789.556	8931.09
789.888	8893.35
790.221	8899.91
790.554	8816.97
790.887	8842.06
791.219	8785.11
791.552	8801.38
791.884	8754.83
792.217	8704.43
792.549	8668.27
792.882	8702.62
793.214	8627.15
793.546	8632.8
793.879	8555.74
794.211	8483.42
794.543	8569.07
794.875	8525.23
795.207	8542.63
795.539	8488.17
795.871	8452.24
796.203	8408.39
796.535	8465.79
796.867	8405.68
797.198	8318.68
797.53	8309.64
797.862	8319.58
798.193	8298.34
798.525	8246.59
798.856	8291.11
799.188	8171.11
799.519	8199.81
799.85	8094.96
800.182	8118.46
800.513	8096.54
800.844	8081.85
801.175	8046.37
801.506	8156.65
801.837	8161.17
802.168	8046.6
802.499	7968.18
802.83	7991.23
803.161	7964.79
803.491	7930.22
803.822	7932.7
804.153	7907.62
804.483	7840.05
804.814	7771.8
805.145	7777.22
805.475	7820.39
805.805	7838.69
806.136	7793.27
806.466	7789.88
806.796	7779.03
807.126	7724.12
807.457	7654.29
807.787	7666.04
808.117	7679.83
808.447	7592.82
808.777	7676.66
809.107	7595.08
809.436	7636.21
809.766	7601.64
810.096	7582.2
810.426	7541.07
810.755	7563.67
811.085	7517.8
811.414	7544.46
811.744	7435.54
812.073	7483.22
812.403	7387.63
812.732	7363.22
813.061	7380.63
813.39	7364.13
813.719	7337.46
814.049	7397.8
814.378	7321.87
814.707	7335.88
815.036	7332.26
815.365	7228.31
815.693	7212.95
816.022	7189.22
816.351	7194.19
816.68	7164.59
817.008	7230.57
817.337	7108.77
817.665	7158.48
817.994	7139.28
818.322	7184.7
818.651	7080.75
818.979	7084.81
819.307	7078.94
819.636	7100.41
819.964	7032.16
820.292	7072.84
820.62	7047.53
820.948	7043.01
821.276	7105.83
821.604	7077.13
821.932	7071.71
822.259	7090.46
822.587	7053.4
822.915	7038.94
823.243	7063.12
823.57	6964.14
823.898	7043.46
824.225	6985.38
824.553	7036.23
824.88	7067.19
825.207	7071.03
825.535	7050.24
825.862	7033.52
826.189	7018.83
826.516	7026.28
826.843	7049.11
827.17	7084.36
827.497	7032.84
827.824	7042.55
828.151	7029.45
828.478	7015.44
828.805	7027.41
829.131	6999.84
829.458	7014.08
829.785	6973.63
830.111	7025.61
830.438	7043.23
830.764	7044.59
831.09	7032.16
831.417	6917.81
831.743	7042.33
832.069	7041.88
832.395	6928.89
832.722	7027.19
833.048	6992.16
833.374	7012.95
833.7	6930.47
834.026	7006.62
834.351	6980.18
834.677	6947.87
835.003	7031.93
835.329	6998.94
835.654	6969.56
835.98	6941.99
836.306	6970.92
836.631	6933.18
836.956	6954.87
837.282	6958.49
837.607	6918.94
837.932	6857.25
838.258	6876.01
838.583	6894.54
838.908	6816.57
839.233	6874.2
839.558	6857.02
839.883	6810.47
840.208	6827.42
840.533	6760.53
840.858	6787.19
841.182	6767.76
841.507	6805.95
841.832	6753.07
842.156	6718.04
842.481	6749
842.805	6727.53
843.13	6726.63
843.454	6736.57
843.778	6701.09
844.103	6636.46
844.427	6660.87
844.751	6664.49
845.075	6676.01
845.399	6648.22
845.723	6580.19
846.047	6619.52
846.371	6571.61
846.695	6514.21
847.019	6526.64
847.343	6447.99
847.666	6466.07
847.99	6431.27
848.313	6372.29
848.637	6453.42
848.96	6387.88
849.284	6414.77
849.607	6296.36
849.931	6302.91
850.254	6256.13
850.577	6251.39
850.9	6223.37
851.223	6217.04
851.546	6171.39
851.869	6139.08
852.192	6198.96
852.515	6125.97
852.838	6070.15
853.161	6082.58
853.483	6015.01
853.806	6056.37
854.129	5989.7
854.451	6018.18
854.774	6025.41
855.096	5949.25
855.419	5981.57
855.741	5928.01
856.063	5914.9
856.385	5920.78
856.708	5863.6
857.03	5904.51
857.352	5902.25
857.674	5820.21
857.996	5835.36
858.318	5799.88
858.64	5801.91
858.961	5835.13
859.283	5705.19
859.605	5762.36
859.926	5718.07
860.248	5676.49
860.57	5736.6
860.891	5714
861.212	5642.59
861.534	5653.66
861.855	5625.87
862.176	5659.31
862.498	5609.82
862.819	5649.37
863.14	5606.21
863.461	5598.75
863.782	5569.83
864.103	5580.9
864.424	5598.98
864.745	5552.88
865.065	5556.49
865.386	5536.38
865.707	5551.29
866.027	5538.64
866.348	5514.23
866.668	5511.52
866.989	5535.7
867.309	5457.74
867.63	5457.51
867.95	5528.92
868.27	5416.83
868.59	5462.26
868.91	5409.15
869.23	5448.47
869.55	5368.02
869.87	5445.76
870.19	5407.12
870.51	5445.99
870.83	5437.63
871.15	5393.78
871.469	5392.65
871.789	5433.78
872.109	5398.3
872.428	5346.1
872.748	5382.71
873.067	5421.13
873.386	5368.47
873.706	5386.1
874.025	5336.61
874.344	5332.32
874.663	5358.31
874.982	5293
875.301	5303.62
875.62	5272.43
875.939	5252.32
876.258	5316.95
876.577	5281.02
876.896	5239.21
877.214	5257.52
877.533	5262.04
877.852	5264.52
878.17	5218.65
878.489	5217.52
878.807	5303.17
879.125	5244.18
879.444	5198.08
879.762	5174.13
880.08	5169.38
880.398	5142.27
880.716	5153.57
881.034	5163.73
881.352	5160.12
881.67	5108.82
881.988	5077.63
882.306	5135.49
882.624	5108.59
882.941	5097.3
883.259	5087.58
883.577	5054.81
883.894	5082.38
884.212	5077.18
884.529	5064.3
884.846	5067.92
885.164	4996.06
885.481	5027.92
885.798	5030.63
886.115	5003.06
886.432	4982.95
886.75	4977.3
887.067	4976.39
887.383	4935.72
887.7	5023.4
888.017	4933.46
888.334	4946.56
888.651	4947.69
888.967	4979.11
889.284	4923.51
889.6	4933.01
889.917	4873.8
890.233	4824.76
890.55	4841.48
890.866	4865.89
891.182	4837.42
891.498	4795.83
891.815	4813.01
892.131	4802.39
892.447	4757.19
892.763	4726.91
893.079	4722.84
893.395	4781.6
893.71	4706.8
894.026	4766.46
894.342	4750.86
894.657	4686.91
894.973	4670.64
895.289	4690.07
895.604	4657.76
895.92	4653.92
896.235	4595.16
896.55	4633.35
896.865	4604.65
897.181	4562.85
897.496	4551.1
897.811	4559.68
898.126	4601.04
898.441	4511.55
898.756	4468.16
899.071	4461.61
899.386	4480.14
899.7	4441.72
900.015	4393.59
900.33	4401.27
900.644	4413.25
900.959	4398.78
901.273	4331.21
901.588	4342.96
901.902	4362.85
902.216	4375.73
902.531	4310.65
902.845	4310.88
903.159	4319.01
903.473	4275.62
903.787	4285.57
904.101	4235.62
904.415	4230.43
904.729	4241.05
905.042	4185
905.356	4196.3
905.67	4227.49
905.984	4175.96
906.297	4138.9
906.611	4132.12
906.924	4142.07
907.237	4102.75
907.551	4116.08
907.864	4102.75
908.177	4084.89
908.491	4117.21
908.804	4028.17
909.117	4014.16
909.43	4003.31
909.743	3971.45
910.056	3989.75
910.368	3945.91
910.681	3952.92
910.994	3938.68
911.307	3909.53
911.619	3913.37
911.932	3900.49
912.244	3858.68
912.557	3902.75
912.869	3832.7
913.181	3806.03
913.494	3831.79
913.806	3815.52
914.118	3777.1
914.43	3789.99
914.742	3743.66
915.054	3774.62
915.366	3744.79
915.678	3783.43
915.99	3706.37
916.302	3653.72
916.613	3679.71
916.925	3686.71
917.236	3655.98
917.548	3666.37
917.859	3654.62
918.171	3628.63
918.482	3624.11
918.794	3629.99
919.105	3591.12
919.416	3544.57
919.727	3561.06
920.038	3529.65
920.349	3502.31
920.66	3508.64
920.971	3478.35
921.282	3495.3
921.593	3462.99
921.903	3446.94
922.214	3412.37
922.525	3431.35
922.835	3413.27
923.146	3389.54
923.456	3401.75
923.767	3405.36
924.077	3379.37
924.387	3350.67
924.697	3302.99
925.008	3308.19
925.318	3311.81
925.628	3333.05
925.938	3277.23
926.248	3253.73
926.558	3227.29
926.867	3238.36
927.177	3199.72
927.487	3216.21
927.796	3201.98
928.106	3192.03
928.416	3160.62
928.725	3187.06
929.034	3159.04
929.344	3177.8
929.653	3166.27
929.962	3128.76
930.271	3108.87
930.581	3109.33
930.89	3073.62
931.199	3078.82
931.508	3055.99
931.817	3055.99
932.125	3061.64
932.434	3030.68
932.743	2985.03
933.051	2969.67
933.36	2992.04
933.669	2984.81
933.977	2952.94
934.286	2940.74
934.594	2941.19
934.902	2907.07
935.21	2890.8
935.519	2897.58
935.827	2881.76
936.135	2864.13
936.443	2819.84
936.751	2835.21
937.059	2827.75
937.367	2829.33
937.674	2832.04
937.982	2794.31
938.29	2800.41
938.597	2794.08
938.905	2766.51
939.213	2750.69
939.52	2754.31
939.827	2750.01
940.135	2739.17
940.442	2712.5
940.749	2706.85
941.056	2712.05
941.363	2701.2
941.67	2705.72
941.977	2682.67
942.284	2652.84
942.591	2610.13
942.898	2674.76
943.205	2645.38
943.511	2638.15
943.818	2632.05
944.125	2581.2
944.431	2586.17
944.738	2591.6
945.044	2587.53
945.35	2576.68
945.657	2529.91
945.963	2556.35
946.269	2512.05
946.575	2538.94
946.881	2505.05
947.187	2499.17
947.493	2481.09
947.799	2507.53
948.105	2467.31
948.41	2479.29
948.716	2469.57
949.022	2449.68
949.327	2420.08
949.633	2427.76
949.938	2441.77
950.244	2396.35
950.549	2419.17
950.854	2412.17
951.16	2383.24
951.465	2392.96
951.77	2347.99
952.075	2343.02
952.38	2334.66
952.685	2324.94
952.99	2335.79
953.294	2333.53
953.599	2316.58
953.904	2278.16
954.209	2258.95
954.513	2287.65
954.818	2249.23
955.122	2246.3
955.426	2264.83
955.731	2235.45
956.035	2200.2
956.339	2199.07
956.643	2225.28
956.948	2212.17
957.252	2185.28
957.556	2203.59
957.86	2176.24
958.163	2162.68
958.467	2157.71
958.771	2153.64
959.075	2153.64
959.378	2090.37
959.682	2152.29
959.985	2120.42
960.289	2098.28
960.592	2081.1
960.896	2080.88
961.199	2115.68
961.502	2093.53
961.805	2075.91
962.108	2060.77
962.411	2023.25
962.714	2047.43
963.017	2046.3
963.32	2027.77
963.623	2027.32
963.926	2045.4
964.228	2030.71
964.531	2020.54
964.833	1999.52
965.136	1983.03
965.438	2006.76
965.741	1962.01
966.043	1999.07
966.345	1970.6
966.648	1958.62
966.95	1954.55
967.252	1907.55
967.554	1938.28
967.856	1913.88
968.158	1932.41
968.46	1916.81
968.761	1895.8
969.063	1906.64
969.365	1863.03
969.666	1887.89
969.968	1844.05
970.269	1850.6
970.571	1840.43
970.872	1836.14
971.174	1858.06
971.475	1828.91
971.776	1843.37
972.077	1813.99
972.378	1801.11
972.679	1810.83
972.98	1775.35
973.281	1811.28
973.582	1773.31
973.883	1766.08
974.183	1773.09
974.484	1774.44
974.785	1771.73
975.085	1785.52
975.386	1745.52
975.686	1738.74
975.986	1735.58
976.287	1751.17
976.587	1714.56
976.887	1726.31
977.187	1740.55
977.487	1696.93
977.787	1676.59
978.087	1701
978.387	1681.79
978.687	1658.52
978.987	1677.05
979.286	1664.17
979.586	1656.26
979.885	1645.41
980.185	1634.79
980.484	1640.44
980.784	1616.03
981.083	1627.33
981.382	1615.13
981.682	1607.44
981.981	1585.98
982.28	1591.4
982.579	1606.54
982.878	1576.26
983.177	1563.6
983.475	1569.03
983.774	1573.09
984.073	1565.64
984.372	1559.76
984.67	1550.04
984.969	1560.89
985.267	1551.17
985.566	1502.36
985.864	1502.36
986.162	1539.42
986.461	1501.46
986.759	1506.88
987.057	1486.99
987.355	1508.69
987.653	1468.24
987.951	1463.04
988.249	1474.34
988.547	1476.83
988.844	1489.03
989.142	1439.54
989.44	1447.9
989.737	1416.71
990.035	1432.31
990.332	1445.41
990.63	1401.8
990.927	1413.1
991.224	1425.98
991.521	1408.58
991.819	1391.63
992.116	1368.81
992.413	1403.16
992.71	1389.37
993.006	1381.69
993.303	1371.74
993.6	1355.47
993.897	1392.99
994.193	1371.52
994.49	1350.5
994.787	1334.23
995.083	1341.01
995.379	1338.52
995.676	1322.48
995.972	1352.76
996.268	1303.5
996.565	1290.84
996.861	1316.38
997.157	1289.03
997.453	1291.97
997.749	1285.42
998.044	1273.67
998.34	1277.06
998.636	1276.6
998.932	1252.42
999.227	1247.45
999.523	1250.84
999.818	1254.01
1000.114	1240.22
1000.409	1257.85
1000.704	1245.87
1001	1209.04
1001.295	1202.26
1001.59	1232.31
1001.885	1222.82
1002.18	1217.17
1002.475	1200.9
1002.77	1207.45
1003.065	1196.38
1003.359	1185.31
1003.654	1173.33
1003.949	1182.14
1004.243	1192.54
1004.538	1169.26
1004.832	1142.6
1005.127	1150.05
1005.421	1147.12
1005.715	1153.67
1006.009	1154.35
1006.304	1131.07
1006.598	1140.79
1006.892	1119.32
1007.186	1105.08
1007.48	1126.33
1007.773	1095.14
1008.067	1104.18
1008.361	1099.43
1008.655	1086.55
1008.948	1095.82
1009.242	1073.45
1009.535	1071.19
1009.829	1095.37
1010.122	1068.25
1010.415	1051.98
1010.708	1068.93
1011.001	1065.31
1011.295	1044.75
1011.588	1029.61
1011.881	1006.1
1012.173	1046.55
1012.466	1009.49
1012.759	1037.06
1013.052	1050.62
1013.344	993.22
1013.637	995.48
1013.93	998.42
1014.222	996.84
1014.514	998.87
1014.807	999.55
1015.099	988.48
1015.391	968.36
1015.683	979.66
1015.976	960
1016.268	970.85
1016.56	958.87
1016.851	946.22
1017.143	929.04
1017.435	963.39
1017.727	942.38
1018.018	940.12
1018.31	896.73
1018.602	922.49
1018.893	924.98
1019.185	912.77
1019.476	900.8
1019.767	913.45
1020.058	917.97
1020.35	891.53
1020.641	902.15
1020.932	875.71
1021.223	862.6
1021.514	895.15
1021.804	868.93
1022.095	870.97
1022.386	864.64
1022.677	849.05
1022.967	854.7
1023.258	866.67
1023.548	851.76
1023.839	820.35
1024.129	823.74
1024.419	827.35
1024.709	820.57
1025	800.01
1025.29	829.61
1025.58	808.37
1025.87	801.36
1026.16	789.84
1026.449	783.96
1026.739	796.17
1027.029	792.32
1027.319	783.96
1027.608	790.52
1027.898	747.81
1028.187	780.12
1028.477	768.14
1028.766	759.1
1029.055	758.43
1029.344	773.34
1029.634	751.87
1029.923	743.51
1030.212	748.48
1030.501	735.38
1030.79	743.51
1031.078	735.6
1031.367	724.75
1031.656	738.99
1031.945	707.81
1032.233	720.01
1032.522	724.98
1032.81	711.87
1033.099	717.52
1033.387	714.36
1033.675	706
1033.963	694.02
1034.251	700.8
1034.54	691.76
1034.828	687.24
1035.116	709.16
1035.403	677.98
1035.691	710.74
1035.979	667.13
1036.267	676.62
1036.554	679.33
1036.842	672.33
1037.129	665.77
1037.417	662.38
1037.704	666
1037.992	674.36
1038.279	656.06
1038.566	643.85
1038.853	643.85
1039.14	643.85
