Data from cardboard_FLMS001491_033.txt Node
Date: Tue Feb 07 11:39:20 GMT 2017
User: dcchb
Spectrometer: FLMS00149
Trigger mode: 0
Integration Time (sec): 2.000000E-2
Scans to average: 10
Electric dark correction enabled: true
Nonlinearity correction enabled: false
Boxcar width: 0
XAxis mode: Wavelengths
Number of Pixels in Spectrum: 2048
>>>>>Begin Spectral Data<<<<<
341.393	-14.36
341.776	-14.36
342.16	-14.36
342.543	-55.04
342.927	-56.17
343.31	-88.49
343.693	-64.08
344.077	-48.71
344.46	-67.7
344.843	-31.09
345.226	-23.63
345.61	-20.47
345.993	-39.9
346.376	-15.95
346.759	-15.49
347.142	19.99
347.525	30.15
347.908	59.08
348.291	85.29
348.674	105.41
349.057	115.58
349.44	133.65
349.823	157.16
350.206	182.47
350.588	204.84
350.971	209.58
351.354	223.37
351.737	225.86
352.119	252.07
352.502	238.74
352.884	272.41
353.267	262.01
353.65	279.87
354.032	306.53
354.414	288.45
354.797	333.42
355.179	304.5
355.562	330.49
355.944	334.33
356.326	331.16
356.709	320.09
357.091	329.13
357.473	363.25
357.855	335.68
358.238	353.54
358.62	315.34
359.002	337.27
359.384	351.5
359.766	339.07
360.148	337.72
360.53	323.93
360.912	331.16
361.294	326.64
361.676	334.33
362.057	318.96
362.439	325.51
362.821	320.54
363.203	309.7
363.584	312.41
363.966	324.38
364.348	317.15
364.729	306.76
365.111	320.32
365.493	305.18
365.874	315.34
366.256	298.4
366.637	326.19
367.019	313.99
367.4	304.27
367.781	316.02
368.163	315.57
368.544	304.05
368.925	313.54
369.306	315.57
369.688	292.07
370.069	304.05
370.45	317.6
370.831	304.27
371.212	325.06
371.593	309.7
371.974	295.46
372.355	322.35
372.736	306.53
373.117	329.13
373.498	295.46
373.879	305.63
374.26	324.38
374.641	318.73
375.021	305.63
375.402	296.36
375.783	304.05
376.163	311.05
376.544	321.9
376.925	331.84
377.305	316.93
377.686	327.1
378.066	291.16
378.447	321.67
378.827	344.5
379.208	330.71
379.588	314.67
379.968	341.33
380.349	322.35
380.729	325.29
381.109	323.03
381.489	327.77
381.87	328.68
382.25	332.52
382.63	311.5
383.01	353.99
383.39	343.82
383.77	322.58
384.15	339.98
384.53	344.72
384.91	342.69
385.29	348.11
385.67	339.75
386.049	357.15
386.429	332.97
386.809	341.78
387.189	363.48
387.568	348.11
387.948	363.93
388.328	342.46
388.707	347.21
389.087	367.09
389.466	378.85
389.846	361.45
390.225	360.32
390.605	348.34
390.984	357.83
391.363	345.17
391.743	354.21
392.122	358.51
392.501	362.35
392.881	379.98
393.26	365.74
393.639	361.45
394.018	370.94
394.397	375
394.776	389.69
395.155	374.78
395.534	398.05
395.913	369.81
396.292	377.72
396.671	390.15
397.05	399.41
397.429	393.08
397.808	369.35
398.186	372.97
398.565	376.81
398.944	380.2
399.323	387.21
399.701	397.38
400.08	397.6
400.458	386.53
400.837	415.23
401.215	394.89
401.594	405.29
401.972	388.11
402.351	410.71
402.729	403.25
403.107	390.15
403.486	411.39
403.864	416.59
404.242	433.76
404.62	396.47
404.999	420.43
405.377	427.21
405.755	403.93
406.133	421.56
406.511	435.79
406.889	438.73
407.267	431.05
407.645	424.49
408.023	429.47
408.401	454.32
408.779	445.74
409.156	457.94
409.534	468.56
409.912	443.93
410.29	462.23
410.667	450.48
411.045	476.47
411.422	460.65
411.8	466.08
412.178	481.89
412.555	469.24
412.933	485.74
413.31	484.61
413.687	466.98
414.065	484.15
414.442	482.35
414.819	464.04
415.197	502.46
415.574	506.07
415.951	505.17
416.328	511.27
416.705	490.93
417.082	504.27
417.46	521.89
417.837	533.42
418.214	516.02
418.591	515.79
418.967	539.07
419.344	513.76
419.721	522.57
420.098	526.64
420.475	553.08
420.852	541.33
421.228	535.68
421.605	545.85
421.982	558.95
422.358	538.84
422.735	565.73
423.111	559.18
423.488	575.45
423.864	579.07
424.241	571.16
424.617	570.48
424.994	575.45
425.37	577.94
425.746	574.55
426.123	593.3
426.499	580.65
426.875	592.17
427.251	599.41
427.627	599.18
428.003	615
428.379	615.68
428.756	624.94
429.132	633.75
429.507	644.83
429.883	632.62
430.259	627.2
430.635	644.83
431.011	624.49
431.387	656.35
431.763	652.51
432.138	656.35
432.514	657.71
432.89	647.99
433.265	692.74
433.641	678.27
434.016	676.01
434.392	692.06
434.767	695.9
435.143	713.98
435.518	710.59
435.894	721.66
436.269	697.48
436.644	735.67
437.02	704.94
437.395	718.27
437.77	739.06
438.145	743.36
438.52	761.21
438.895	760.98
439.271	767.31
439.646	795.56
440.021	783.13
440.395	776.58
440.77	765.95
441.145	786.74
441.52	795.11
441.895	803.24
442.27	808.44
442.645	788.33
443.019	813.86
443.394	822
443.769	821.09
444.143	810.7
444.518	816.35
444.892	809.57
445.267	826.97
445.641	842.34
446.016	854.31
446.39	824.26
446.764	856.35
447.139	867.87
447.513	855.9
447.887	877.59
448.262	883.47
448.636	859.29
449.01	881.43
449.384	883.47
449.758	897.93
450.132	908.55
450.506	924.59
450.88	889.79
451.254	902.22
451.628	928.21
452.002	955.55
452.376	956.68
452.75	935.22
453.123	934.31
453.497	995.55
453.871	988.1
454.244	988.77
454.618	983.35
454.992	1004.14
455.365	1009.11
455.739	1044.37
456.112	1057.92
456.486	1037.36
456.859	1058.6
457.232	1046.85
457.606	1078.71
457.979	1060.86
458.352	1080.52
458.725	1104.48
459.099	1116.23
459.472	1142.89
459.845	1141.99
460.218	1149.9
460.591	1171.59
460.964	1151.71
461.337	1187.19
461.71	1184.02
462.083	1200.29
462.456	1194.64
462.829	1208.88
463.201	1214.98
463.574	1231.48
463.947	1270.35
464.32	1269.44
464.692	1280.97
465.065	1316.67
465.438	1294.08
465.81	1305.38
466.183	1321.42
466.555	1356.45
466.928	1359.39
467.3	1368.2
467.672	1402.32
468.045	1415.43
468.417	1453.62
468.789	1419.72
469.161	1483.9
469.534	1479.83
469.906	1503.34
470.278	1505.14
470.65	1535.88
471.022	1525.71
471.394	1581.53
471.766	1554.86
472.138	1605.71
472.51	1631.24
472.882	1669.66
473.253	1685.03
473.625	1716.66
473.997	1716.89
474.369	1745.14
474.74	1730.45
475.112	1778.58
475.484	1774.52
475.855	1872.14
476.227	1869.2
476.598	1921.18
476.97	1904.68
477.341	1960.73
477.713	1961.86
478.084	1968.63
478.455	2007.5
478.827	2053.15
479.198	2142.42
479.569	2129.53
479.94	2183.77
480.311	2195.07
480.682	2214.05
481.053	2289.08
481.424	2318.68
481.795	2355.52
482.166	2395.52
482.537	2432.35
482.908	2466.02
483.279	2479.58
483.65	2507.38
484.021	2576.75
484.391	2623.31
484.762	2621.5
485.133	2654.27
485.503	2706.47
485.874	2761.83
486.244	2796.86
486.615	2822.17
486.985	2866.69
487.356	2934.26
487.726	2946.69
488.097	3011.77
488.467	3002.96
488.837	3089.96
489.207	3110.75
489.578	3204.53
489.948	3196.17
490.318	3279.11
490.688	3277.3
491.058	3361.37
491.428	3365.66
491.798	3390.07
492.168	3475.49
492.538	3486.79
492.908	3504.19
493.278	3544.86
493.648	3658.08
494.017	3615.82
494.387	3664.18
494.757	3699.21
495.126	3774.69
495.496	3805.87
495.866	3818.76
496.235	3909.37
496.605	3943.72
496.974	3917.96
497.344	3990.73
497.713	3984.85
498.082	4056.72
498.452	4127.45
498.821	4107.34
499.19	4131.97
499.559	4157.73
499.928	4202.47
500.298	4283.38
500.667	4331.06
501.036	4309.59
501.405	4385.52
501.774	4376.71
502.143	4425.07
502.512	4470.72
502.88	4531.28
503.249	4556.36
503.618	4597.49
503.987	4610.6
504.356	4673.2
504.724	4697.6
505.093	4753.42
505.462	4804.72
505.83	4801.1
506.199	4868.45
506.567	4922.46
506.936	4902.79
507.304	5001.55
507.672	5039.29
508.041	5039.97
508.409	5147.76
508.777	5188.66
509.145	5205.61
509.514	5239.96
509.882	5325.83
510.25	5339.17
510.618	5384.36
510.986	5435.66
511.354	5494.19
511.722	5563.79
512.09	5601.76
512.458	5587.75
512.826	5667.29
513.193	5712.27
513.561	5657.58
513.929	5777.35
514.297	5870.68
514.664	5880.17
515.032	5951.81
515.4	6013.5
515.767	6116.55
516.135	6104.8
516.502	6101.18
516.869	6231.8
517.237	6314.96
517.604	6279.93
517.972	6358.35
518.339	6442.42
518.706	6507.5
519.073	6499.59
519.44	6577.78
519.808	6650.09
520.175	6666.14
520.542	6799.69
520.909	6871.56
521.276	6905.23
521.643	6962.18
522.009	7017.77
522.376	7128.95
522.743	7143.41
523.11	7244.88
523.477	7341.6
523.843	7421.15
524.21	7468.83
524.577	7547.25
524.943	7615.94
525.31	7649.84
525.676	7746.79
526.043	7845.99
526.409	7855.49
526.776	8007.12
527.142	8051.41
527.508	8075.82
527.874	8163.5
528.241	8237.17
528.607	8245.53
528.973	8410.95
529.339	8377.51
529.705	8504.28
530.071	8616.82
530.437	8651.85
530.803	8773.43
531.169	8846.42
531.535	8809.36
531.901	8845.52
532.267	8983.82
532.632	9064.04
532.998	9104.27
533.364	9198.05
533.73	9244.6
534.095	9293.64
534.461	9379.97
534.826	9440.53
535.192	9475.56
535.557	9562.79
535.923	9609.56
536.288	9673.29
536.653	9709.22
537.019	9760.75
537.384	9830.35
537.749	9897.24
538.114	9893.17
538.479	9989.67
538.845	10059.5
539.21	10000.97
539.575	10180.62
539.94	10214.52
540.305	10277.57
540.67	10309.88
541.034	10439.15
541.399	10435.76
541.764	10491.12
542.129	10529.31
542.494	10629.88
542.858	10696.31
543.223	10697.22
543.587	10785.8
543.952	10850.21
544.316	10934.5
544.681	10922.07
545.045	11042.52
545.41	11082.75
545.774	11174.27
546.138	11176.08
546.503	11263.98
546.867	11333.81
547.231	11469.63
547.595	11430.31
547.959	11491.55
548.324	11531.32
548.688	11619
549.052	11633.92
549.416	11700.36
549.779	11826.45
550.143	11817.19
550.507	11943.29
550.871	12023.51
551.235	12081.59
551.599	12193
551.962	12179.67
552.326	12282.04
552.689	12368.59
553.053	12404.74
553.417	12473.22
553.78	12645.42
554.143	12597.73
554.507	12629.15
554.87	12748.92
555.234	12954.33
555.597	12823.49
555.96	12937.84
556.323	13074.11
556.686	13099.87
557.05	13285.4
557.413	13255.57
557.776	13371.72
558.139	13470.03
558.502	13439.75
558.865	13608.55
559.228	13695.78
559.59	13721.32
559.953	13861.43
560.316	13906.17
560.679	14014.19
561.041	14054.64
561.404	14224.13
561.767	14377.57
562.129	14295.99
562.492	14413.51
562.854	14488.98
563.217	14549.55
563.579	14652.14
563.941	14849.65
564.304	14719.49
564.666	14948.41
565.028	15009.2
565.39	15047.84
565.753	15246.25
566.115	15215.07
566.477	15336.19
566.839	15410.54
567.201	15598.78
567.563	15540.26
567.925	15747.48
568.287	15789.06
568.648	15808.27
569.01	15898.44
569.372	15999.23
569.734	16071.77
570.095	16186.57
570.457	16264.76
570.819	16273.57
571.18	16301.37
571.542	16454.58
571.903	16629.94
572.265	16667.01
572.626	16713.33
572.987	16721.69
573.349	16929.82
573.71	16912.87
574.071	17025.19
574.432	17103.6
574.794	17266.99
575.155	17269.48
575.516	17234.45
575.877	17339.3
576.238	17360.32
576.599	17498.17
576.96	17533.42
577.32	17588.56
577.681	17711.05
578.042	17833.3
578.403	17755.11
578.763	17867.65
579.124	17888.67
579.485	17964.15
579.845	18085.95
580.206	18156.23
580.566	18149.23
580.927	18162.11
581.287	18178.6
581.648	18192.16
582.008	18386.51
582.368	18295.66
582.728	18359.39
583.089	18370.24
583.449	18424.93
583.809	18518.26
584.169	18595.54
584.529	18618.37
584.889	18752.6
585.249	18714.41
585.609	18585.6
585.969	18793.73
586.329	18748.98
586.688	18831.24
587.048	18953.27
587.408	18870.56
587.768	18938.13
588.127	18934.06
588.487	18829.89
588.846	19134.96
589.206	19027.85
589.565	19078.69
589.925	19128.64
590.284	19175.41
590.643	19258.12
591.003	19272.59
591.362	19317.78
591.721	19305.81
592.08	19261.06
592.44	19428.06
592.799	19444.56
593.158	19442.53
593.517	19457.21
593.876	19576.76
594.235	19549.42
594.593	19606.36
594.952	19728.17
595.311	19578.12
595.67	19681.84
596.029	19821.05
596.387	19830.76
596.746	19875.28
597.104	19801.16
597.463	19823.76
597.822	19925.68
598.18	19942.63
598.538	19901.72
598.897	20062.4
599.255	19867.83
599.613	20253.58
599.972	19976.07
600.33	20043.64
600.688	20113.69
601.046	20223.75
601.404	20269.4
601.762	20279.79
602.12	20381.48
602.478	20433.23
602.836	20503.29
603.194	20390.98
603.552	20348.72
603.91	20391.43
604.268	20487.02
604.625	20564.3
604.983	20602.27
605.341	20502.16
605.698	20545.55
606.056	20731.08
606.413	20770.63
606.771	20870.06
607.128	20756.16
607.485	20765.65
607.843	20813.79
608.2	20981.02
608.557	20980.79
608.914	20998.19
609.272	21209.48
609.629	21120.45
609.986	21236.83
610.343	21180.56
610.7	21320.67
611.057	21328.58
611.414	21261.23
611.771	21428.69
612.127	21422.81
612.484	21414
612.841	21518.63
613.198	21435.47
613.554	21482.92
613.911	21633.65
614.267	21526.09
614.624	21701
614.98	21709.81
615.337	21808.11
615.693	21814.67
616.05	21703.93
616.406	21936.02
616.762	21874.1
617.118	21869.81
617.475	21888.11
617.831	21954.1
618.187	22011.5
618.543	22182.34
618.899	22205.84
619.255	22176.24
619.611	22228.89
619.967	22296.01
620.323	22375.78
620.678	22300.76
621.034	22258.27
621.39	22331.72
621.746	22292.39
622.101	22678.37
622.457	22380.08
622.812	22392.28
623.168	22506.85
623.523	22539.17
623.879	22650.12
624.234	22379.85
624.589	22501.65
624.945	22579.17
625.3	22590.47
625.655	22580.52
626.01	22696
626.365	22755.88
626.72	22618.04
627.075	22674.3
627.43	22650.58
627.785	22674.3
628.14	22666.17
628.495	22752.72
628.85	22733.51
629.205	22711.37
629.559	22830.23
629.914	22740.74
630.269	22735.09
630.623	22686.73
630.978	22681.54
631.332	22740.52
631.687	22811.7
632.041	22754.53
632.396	22808.76
632.75	22740.52
633.104	22850.35
633.459	22547.75
633.813	22649.45
634.167	22680.41
634.521	22693.06
634.875	22740.52
635.229	22762.21
635.583	22672.05
635.937	22638.83
636.291	22678.15
636.645	22623.91
636.999	22629.33
637.352	22714.98
637.706	22480.19
638.06	22639.5
638.413	22588.88
638.767	22573.74
639.121	22700.29
639.474	22484.48
639.828	22514.76
640.181	22537.59
640.534	22606.96
640.888	22491.03
641.241	22479.51
641.594	22570.8
641.947	22530.81
642.301	22473.18
642.654	22473.63
643.007	22503.69
643.36	22550.92
643.713	22532.61
644.066	22601.31
644.419	22514.31
644.771	22291.26
645.124	22072.74
645.477	22155.22
645.83	22046.52
646.182	21901.22
646.535	21913.42
646.888	21975.11
647.24	21782.8
647.593	21900.54
647.945	21868.68
648.298	21823.93
648.65	21822.8
649.002	21830.49
649.355	21844.27
649.707	21790.49
650.059	21935.12
650.411	22157.48
650.763	22137.14
651.115	22369.91
651.467	22445.16
651.819	22319.74
652.171	22280.42
652.523	22355.44
652.875	22337.59
653.227	22235.9
653.578	22335.33
653.93	22360.19
654.282	22227.99
654.633	22231.15
654.985	22345.5
655.337	22314.54
655.688	22238.61
656.039	22330.59
656.391	22314.31
656.742	22286.07
657.094	22185.05
657.445	22357.03
657.796	22283.35
658.147	22360.87
658.498	22362.67
658.849	22360.41
659.2	22357.93
659.551	22245.62
659.902	22314.31
660.253	22336.69
660.604	22327.65
660.955	22234.09
661.306	22357.03
661.656	22259.63
662.007	22348.44
662.358	22259.4
662.708	22365.16
663.059	22300.98
663.409	22263.02
663.76	22449.9
664.11	22329.91
664.461	22347.31
664.811	22420.53
665.161	22393.63
665.511	22355.44
665.862	22387.53
666.212	22353.41
666.562	22399.96
666.912	22461.88
667.262	22308.44
667.612	22365.39
667.962	22320.19
668.312	22374.2
668.662	22520.64
669.011	22425.95
669.361	22322.22
669.711	22398.83
670.06	22315.22
670.41	22466.4
670.76	22341.43
671.109	22327.87
671.459	22356.12
671.808	22340.08
672.157	22504.37
672.507	22283.58
672.856	22232.51
673.205	22293.52
673.554	22397.48
673.904	22328.33
674.253	22480.86
674.602	22282.9
674.951	22051.95
675.3	21925.4
675.649	22379.62
675.998	22338.49
676.346	22294.2
676.695	22393.86
677.044	22158.84
677.393	22277.48
677.741	22291.72
678.09	22293.07
678.438	22313.41
678.787	22215.33
679.135	22311.6
679.484	22064.38
679.832	22335.33
680.181	22107.09
680.529	22181.89
680.877	22090.82
681.225	22139.4
681.573	22268.67
681.922	21917.26
682.27	22069.58
682.618	22016.7
682.966	21995.23
683.314	22097.37
683.661	22064.38
684.009	21927.88
684.357	21844.5
684.705	21749.58
685.053	21821.22
685.4	21863.25
685.748	21674.78
686.095	21741.45
686.443	21805.4
686.79	21667.1
687.138	21795.46
687.485	21615.8
687.832	21688.57
688.18	21749.81
688.527	21637.27
688.874	21633.88
689.221	21483.6
689.568	21469.59
689.915	21495.13
690.262	21407.45
690.609	21317.96
690.956	21385.75
691.303	21331.52
691.65	21225.08
691.997	21068.47
692.344	21150.28
692.69	21129.26
693.037	21125.87
693.383	20917.06
693.73	21038.64
694.077	20873
694.423	20913.67
694.769	20848.36
695.116	20771.08
695.462	20817.63
695.808	20656.5
696.155	20796.84
696.501	20592.33
696.847	20585.55
697.193	20506.9
697.539	20552.55
697.885	20411.31
698.231	20366.12
698.577	20336.97
698.923	20231.66
699.269	20194.82
699.614	20151.66
699.96	20185.1
700.306	20134.94
700.651	20113.24
700.997	19946.02
701.342	19903.76
701.688	19933.59
702.033	19869.41
702.379	19966.81
702.724	19834.15
703.069	19925
703.415	19646.59
703.76	19743.53
704.105	19699.92
704.45	19619.7
704.795	19487.5
705.14	19527.5
705.485	19488.4
705.83	19352.81
706.175	19438.01
706.52	19300.38
706.865	19379.25
707.209	19379.25
707.554	19276.65
707.899	19389.87
708.243	19255.41
708.588	19174.51
708.932	19007.06
709.277	18972.71
709.621	19056.77
709.966	18871.47
710.31	18987.4
710.654	18813.84
710.998	19010.67
711.342	18952.37
711.687	18872.15
712.031	18727.29
712.375	18772.94
712.719	18770.68
713.063	18748.53
713.407	18765.03
713.75	18774.97
714.094	18735.65
714.438	18598.48
714.782	18694.52
715.125	18624.24
715.469	18692.49
715.812	18491.59
716.156	18467.18
716.499	18484.36
716.843	18473.74
717.186	18333.63
717.53	18402.55
717.873	18505.83
718.216	18339.96
718.559	18273.74
718.902	18222.44
719.246	18222.67
719.589	18170.69
719.932	18140.86
720.275	18086.4
720.617	18118.27
720.96	18151.94
721.303	18065.16
721.646	18024.48
721.989	17941.77
722.331	18055.44
722.674	18031.72
723.016	18048.66
723.359	18121.43
723.701	18058.38
724.044	17930.02
724.386	17837.37
724.729	17910.14
725.071	17885.96
725.413	17873.3
725.755	17838.95
726.097	17804.6
726.439	17751.72
726.782	17799.86
727.124	17762.57
727.465	17769.58
727.807	17649.35
728.149	17754.43
728.491	17735.23
728.833	17691.61
729.175	17722.12
729.516	17631.95
729.858	17663.82
730.199	17662.23
730.541	17671.5
730.882	17601.67
731.224	17590.37
731.565	17608.22
731.906	17606.42
732.248	17528.9
732.589	17509.24
732.93	17441.45
733.271	17526.87
733.612	17608.45
733.953	17565.96
734.294	17422.01
734.635	17447.55
734.976	17452.75
735.317	17429.47
735.658	17358.96
735.999	17388.34
736.339	17295.46
736.68	17441
737.021	17396.25
737.361	17320.32
737.702	17331.62
738.042	17289.59
738.383	17312.19
738.723	17384.27
739.063	17296.14
739.404	17241.68
739.744	17266.76
740.084	17259.08
740.424	17285.29
740.764	17247.1
741.104	17264.73
741.444	17180.21
741.784	17138.86
742.124	17279.42
742.464	17185.64
742.804	17111.51
743.143	17109.48
743.483	17114.68
743.823	17092.98
744.162	17125.07
744.502	17066.32
744.841	16972.08
745.181	17141.57
745.52	17057.05
745.86	17062.48
746.199	17007.56
746.538	16964.17
746.877	17054.79
747.216	17089.59
747.556	16967.11
747.895	16992.65
748.234	16988.13
748.573	16964.17
748.911	16937.05
749.25	16888.24
749.589	16931.18
749.928	16965.75
750.267	16885.98
750.605	16848.7
750.944	16717.17
751.283	16717.63
751.621	16786.1
751.96	16744.29
752.298	16823.16
752.636	16782.48
752.975	16699.77
753.313	16618.19
753.651	16678.53
753.989	16622.49
754.327	16655.71
754.666	16534.81
755.004	16650.06
755.342	16707
755.679	16568.7
756.017	16435.82
756.355	16574.8
756.693	16483.96
757.031	16511.08
757.368	16497.29
757.706	16454.58
758.044	16468.37
758.381	16404.87
758.719	16421.36
759.056	16379.33
759.394	16235.38
759.731	16302.95
760.068	16240.8
760.405	16103.18
760.743	16092.78
761.08	16129.62
761.417	16042.39
761.754	16046.46
762.091	16061.37
762.428	15989.06
762.765	15874.03
763.102	15960.13
763.438	15829.97
763.775	15809.85
764.112	15872.68
764.449	15870.87
764.785	15889.85
765.122	15718.78
765.458	15681.95
765.795	15687.82
766.131	15656.64
766.467	15565.11
766.804	15503.19
767.14	15416.87
767.476	15371.9
767.812	15510.65
768.148	15448.51
768.485	15326.02
768.821	15217.33
769.157	15213.26
769.492	15250.09
769.828	15141.62
770.164	15079.48
770.5	15068.4
770.836	15094.17
771.171	15018.69
771.507	14942.53
771.842	14780.28
772.178	14808.98
772.513	14814.17
772.849	14779.6
773.184	14705.47
773.519	14670.9
773.855	14613.5
774.19	14580.05
774.525	14594.07
774.86	14513.16
775.195	14502.32
775.53	14364.24
775.865	14327.86
776.2	14230.91
776.535	14251.93
776.87	14197.92
777.205	14151.14
777.539	14146.39
777.874	14030.24
778.209	13952.05
778.543	14047.19
778.878	13882.67
779.212	13934.65
779.547	13874.31
779.881	13864.37
780.215	13777.82
780.55	13688.1
780.884	13656.01
781.218	13611.49
781.552	13708.21
781.886	13629.35
782.22	13522.23
782.554	13491.95
782.888	13358.84
783.222	13303.93
783.556	13192.07
783.889	13263.48
784.223	13196.59
784.557	13088.57
784.89	13159.53
785.224	13084.73
785.557	13045.63
785.891	13047.89
786.224	12954.79
786.558	12902.81
786.891	12855.35
787.224	12831.85
787.557	12794.56
787.891	12774.68
788.224	12782.36
788.557	12740.78
788.89	12784.4
789.223	12674.34
789.556	12552.54
789.888	12468.47
790.221	12547.57
790.554	12339.44
790.887	12355.03
791.219	12344.86
791.552	12383.05
791.884	12303.28
792.217	12267.12
792.549	12190.51
792.882	12120.68
793.214	12073.68
793.546	12147.12
793.879	12060.57
794.211	12050.18
794.543	11991.87
794.875	11989.39
795.207	12033.23
795.539	12016.51
795.871	11908.71
796.203	11842.5
796.535	11738.32
796.867	11792.78
797.198	11767.25
797.53	11669.85
797.862	11701.49
798.193	11657.87
798.525	11552.79
798.856	11607.93
799.188	11620.58
799.519	11498.33
799.85	11438.67
800.182	11461.27
800.513	11450.42
800.844	11317.54
801.175	11384.88
801.506	11355.96
801.837	11256.75
802.168	11210.2
802.499	11239.58
802.83	11204.78
803.161	11074.61
803.491	11118.68
803.822	11070.99
804.153	11099.92
804.483	10993.26
804.814	10968.85
805.145	11024.22
805.475	10957.78
805.805	10889.98
806.136	10864.67
806.466	10882.52
806.796	10840.94
807.126	10832.81
807.457	10724.34
807.787	10741.29
808.117	10790.1
808.447	10689.76
808.777	10740.38
809.107	10709.42
809.436	10657.45
809.766	10671
810.096	10610.22
810.426	10525.25
810.755	10574.74
811.085	10494.06
811.414	10517.56
811.744	10390.79
812.073	10422.65
812.403	10380.39
812.732	10339.71
813.061	10362.76
813.39	10349.88
813.719	10252.94
814.049	10402.54
814.378	10258.81
814.707	10226.95
815.036	10214.97
815.365	10209.1
815.693	10083.9
816.022	10159.15
816.351	10054.98
816.68	10001.19
817.008	10081.19
817.337	9984.02
817.665	9992.15
817.994	9988.76
818.322	9964.36
818.651	9972.04
818.979	9883.45
819.307	9958.93
819.636	9924.81
819.964	9858.6
820.292	9853.85
820.62	9850.69
820.948	9761.42
821.276	9890.69
821.604	9892.27
821.932	9872.38
822.259	9844.13
822.587	9789.45
822.915	9796.9
823.243	9884.58
823.57	9782.21
823.898	9829.22
824.225	9804.13
824.553	9797.13
824.88	9763.23
825.207	9902.21
825.535	9799.62
825.862	9852.95
826.189	9794.87
826.516	9848.65
826.843	9894.53
827.17	9825.15
827.497	9907.18
827.824	9771.37
828.151	9833.29
828.478	9828.99
828.805	9860.86
829.131	9790.12
829.458	9798.49
829.785	9706.06
830.111	9797.13
830.438	9860.63
830.764	9782.21
831.09	9814.53
831.417	9742.89
831.743	9864.47
832.069	9814.3
832.395	9821.08
832.722	9788.77
833.048	9782.89
833.374	9795.1
833.7	9711.03
834.026	9760.52
834.351	9710.8
834.677	9682.56
835.003	9727.3
835.329	9710.8
835.654	9746.51
835.98	9671.48
836.306	9696.12
836.631	9637.81
836.956	9763.91
837.282	9699.28
837.607	9623.8
837.932	9628.32
838.258	9664.03
838.583	9569.11
838.908	9550.36
839.233	9645.95
839.558	9568.43
839.883	9567.76
840.208	9466.52
840.533	9533.41
840.858	9534.54
841.182	9526.18
841.507	9442.56
841.832	9512.84
842.156	9485.95
842.481	9447.76
842.805	9355.79
843.13	9380.19
843.454	9367.08
843.778	9328.22
844.103	9288.44
844.427	9332.06
844.751	9263.36
845.075	9250.25
845.399	9237.14
845.723	9243.92
846.047	9141.55
846.371	9121.89
846.695	9071.5
847.019	9148.78
847.343	9022.01
847.666	8977.49
847.99	8953.99
848.313	8955.57
848.637	8870.6
848.96	8895.01
849.284	8841.22
849.607	8770.49
849.931	8737.04
850.254	8721
850.577	8673.77
850.9	8630.61
851.223	8623.37
851.546	8616.37
851.869	8576.14
852.192	8544.51
852.515	8500.89
852.838	8383.38
853.161	8467.67
853.483	8403.27
853.806	8397.62
854.129	8368.47
854.451	8356.72
854.774	8344.51
855.096	8312.42
855.419	8244.18
855.741	8226.78
856.063	8233.1
856.385	8213.44
856.708	8196.95
857.03	8120.56
857.352	8146.1
857.674	8091.41
857.996	8088.02
858.318	8011.87
858.64	8059.77
858.961	8020.68
859.283	8031.07
859.605	7954.69
859.926	7945.65
860.248	7982.94
860.57	7938.65
860.891	7885.09
861.212	7885.54
861.534	7865.43
861.855	7828.14
862.176	7849.16
862.498	7875.37
862.819	7819.55
863.14	7779.78
863.461	7727.58
863.782	7746.11
864.103	7751.53
864.424	7764.19
864.745	7716.05
865.065	7676.51
865.386	7709.05
865.707	7651.65
866.027	7636.73
866.348	7643.74
866.668	7679.9
866.989	7624.08
867.309	7619.79
867.63	7612.1
867.95	7587.47
868.27	7513.12
868.59	7566.23
868.91	7515.61
869.23	7524.42
869.55	7502.95
869.87	7558.54
870.19	7516.74
870.51	7485.33
870.83	7532.56
871.15	7515.83
871.469	7455.5
871.789	7442.16
872.109	7427.47
872.428	7413.46
872.748	7459.79
873.067	7435.61
873.386	7432.67
873.706	7417.76
874.025	7370.53
874.344	7356.97
874.663	7385.44
874.982	7332.56
875.301	7347.93
875.62	7345.44
875.939	7283.3
876.258	7321.26
876.577	7322.62
876.896	7344.31
877.214	7275.61
877.533	7302.73
877.852	7232
878.17	7245.33
878.489	7233.58
878.807	7240.81
879.125	7279
879.444	7227.25
879.762	7175.73
880.08	7173.02
880.398	7147.03
880.716	7154.94
881.034	7135.5
881.352	7128.95
881.67	7071.55
881.988	7098.44
882.306	7100.25
882.624	7007.37
882.941	7045.11
883.259	7032
883.577	7028.16
883.894	6991.33
884.212	6981.84
884.529	7004.43
884.846	6967.6
885.164	6954.72
885.481	6933.02
885.798	6912.91
886.115	6911.1
886.432	6896.87
886.75	6879.69
887.067	6891.22
887.383	6869.97
887.7	6832.24
888.017	6866.58
888.334	6834.95
888.651	6754.27
888.967	6735.97
889.284	6737.55
889.6	6754.5
889.917	6681.73
890.233	6719.7
890.55	6725.12
890.866	6691.67
891.182	6674.95
891.498	6640.38
891.815	6573.94
892.131	6613.94
892.447	6539.81
892.763	6566.93
893.079	6543.66
893.395	6511.79
893.71	6426.6
894.026	6469.76
894.342	6470.44
894.657	6401.51
894.973	6409.87
895.289	6402.19
895.604	6417.11
895.92	6379.37
896.235	6312.25
896.55	6352.02
896.865	6274.51
897.181	6260.73
897.496	6288.97
897.811	6279.03
898.126	6249.2
898.441	6201.07
898.756	6219.14
899.071	6154.74
899.386	6182.54
899.7	6104.35
900.015	6093.05
900.33	6044.91
900.644	6013.5
900.959	6068.64
901.273	5988.19
901.588	5992.71
901.902	5964.69
902.216	5901.19
902.531	5924.46
902.845	5898.25
903.159	5906.61
903.473	5875.42
903.787	5904.8
904.101	5812.6
904.415	5778.03
904.729	5810.34
905.042	5749.1
905.356	5768.53
905.67	5757.69
905.984	5749.78
906.297	5679.27
906.611	5655.77
906.924	5646.96
907.237	5636.11
907.551	5659.39
907.864	5629.1
908.177	5588.65
908.491	5626.84
908.804	5555.43
909.117	5521.31
909.43	5460.97
909.743	5490.8
910.056	5451.93
910.368	5379.84
910.681	5407.87
910.994	5386.4
911.307	5416
911.619	5311.82
911.932	5294.87
912.244	5285.16
912.557	5289.9
912.869	5310.24
913.181	5265.95
913.494	5238.83
913.806	5187.31
914.118	5168.78
914.43	5159.06
914.742	5156.57
915.054	5122
915.366	5115.22
915.678	5137.36
915.99	5088.1
916.302	5040.19
916.613	5002.23
916.925	5006.07
917.236	5001.1
917.548	5024.6
917.859	5034.77
918.171	4923.13
918.482	4873.64
918.794	4885.85
919.105	4895.34
919.416	4834.77
919.727	4817.37
920.038	4843.81
920.349	4791.16
920.66	4775.34
920.971	4785.28
921.282	4770.14
921.593	4697.15
921.903	4726.75
922.214	4693.99
922.525	4645.4
922.835	4644.27
923.146	4644.27
923.456	4606.31
923.767	4585.29
924.077	4577.61
924.387	4537.83
924.697	4552.75
925.008	4498.96
925.318	4459.87
925.628	4517.95
925.938	4463.26
926.248	4472.52
926.558	4375.13
926.867	4374.45
927.177	4404.5
927.487	4358.18
927.796	4343.04
928.106	4332.19
928.416	4298.52
928.725	4304.62
929.034	4271.17
929.344	4325.41
929.653	4258.52
929.962	4194.11
930.271	4215.13
930.581	4188.92
930.89	4144.17
931.199	4155.92
931.508	4139.88
931.817	4148.92
932.125	4154.11
932.434	4108.69
932.743	4069.82
933.051	4030.05
933.36	4055.81
933.669	4004.51
933.977	4007.23
934.286	3979.66
934.594	3987.79
934.902	3951.41
935.21	3931.07
935.519	3936.49
935.827	3959.99
936.135	3911.41
936.443	3877.29
936.751	3868.47
937.059	3861.92
937.367	3894.01
937.674	3829.6
937.982	3802.26
938.29	3799.32
938.597	3812.88
938.905	3730.4
939.213	3729.04
939.52	3709.61
939.827	3686.33
940.135	3682.04
940.442	3692.21
940.749	3647.46
941.056	3689.49
941.363	3625.54
941.67	3622.15
941.977	3617.63
942.284	3562.04
942.591	3599.33
942.898	3581.93
943.205	3601.13
943.511	3553.9
943.818	3555.26
944.125	3538.31
944.431	3480.91
944.738	3478.2
945.044	3454.47
945.35	3448.37
945.657	3457.86
945.963	3425.55
946.269	3402.5
946.575	3397.98
946.881	3380.57
947.187	3344.64
947.493	3400.46
947.799	3368.15
948.105	3324.76
948.41	3295.61
948.716	3308.71
949.022	3261.48
949.327	3281.37
949.633	3209.73
949.938	3257.41
950.244	3228.04
950.549	3218.77
950.854	3203.86
951.16	3165.21
951.465	3171.54
951.77	3180.58
952.075	3162.28
952.38	3119.34
952.685	3109.4
952.99	3115.95
953.294	3093.8
953.599	3078.89
953.904	3052.9
954.209	3044.09
954.513	3057.19
954.818	3046.12
955.122	3041.15
955.426	3003.86
955.731	3002.28
956.035	3000.25
956.339	2967.93
956.643	2989.62
956.948	2925.9
957.252	2946.69
957.556	2927.93
957.86	2919.57
958.163	2900.36
958.467	2878.22
958.771	2891.77
959.075	2884.54
959.378	2838.44
959.682	2842.06
959.985	2858.33
960.289	2785.11
960.592	2780.14
960.896	2751.44
961.199	2791.66
961.502	2766.81
961.805	2754.83
962.108	2732.91
962.411	2739.24
962.714	2745.34
963.017	2695.62
963.32	2692.68
963.623	2715.06
963.926	2719.35
964.228	2661.27
964.531	2665.11
964.833	2649.97
965.136	2627.6
965.438	2623.31
965.741	2583.31
966.043	2604.55
966.345	2647.03
966.648	2614.04
966.95	2568.39
967.252	2572.01
967.554	2567.71
967.856	2550.99
968.158	2508.96
968.46	2489.98
968.761	2505.12
969.063	2512.35
969.365	2520.48
969.666	2473.25
969.968	2463.54
970.269	2482.52
970.571	2453.82
970.872	2455.18
971.174	2449.75
971.475	2481.39
971.776	2373.37
972.077	2415.85
972.378	2378.79
972.679	2383.54
972.98	2396.87
973.281	2379.02
973.582	2378.12
973.883	2356.87
974.183	2331.34
974.484	2325.46
974.785	2313.26
975.085	2293.6
975.386	2304.67
975.686	2287.04
975.986	2284.33
976.287	2256.31
976.587	2288.17
976.887	2254.73
977.187	2269.19
977.487	2253.15
977.787	2248.18
978.087	2202.3
978.387	2241.17
978.687	2192.36
978.987	2175.63
979.286	2149.65
979.586	2173.38
979.885	2149.65
980.185	2162.53
980.484	2131.57
980.784	2161.85
981.083	2110.33
981.382	2104
981.682	2086.37
981.981	2072.59
982.28	2095.19
982.579	2081.4
982.878	2083.43
983.177	2027.62
983.475	2040.72
983.774	2079.14
984.073	2062.42
984.372	2006.83
984.67	2019.71
984.969	2008.63
985.267	2014.96
985.566	2005.7
985.864	1995.53
986.162	1993.49
986.461	1981.97
986.759	2001.4
987.057	1960.27
987.355	1947.39
987.653	1935.42
987.951	1962.31
988.249	1922.08
988.547	1899.26
988.844	1897.45
989.142	1922.53
989.44	1888.18
989.737	1885.7
990.035	1876.89
990.332	1890.22
990.63	1860.16
990.927	1890.44
991.224	1832.82
991.521	1814.97
991.819	1806.83
992.116	1832.59
992.413	1794.18
992.71	1789.43
993.006	1785.81
993.303	1785.59
993.6	1776.78
993.897	1778.13
994.193	1758.02
994.49	1766.38
994.787	1767.96
995.083	1738.58
995.379	1748.3
995.676	1704.69
995.972	1708.98
996.268	1724.57
996.565	1694.29
996.861	1704.01
997.157	1709.43
997.453	1683.44
997.749	1693.39
998.044	1654.07
998.34	1654.97
998.636	1667.85
998.932	1667.63
999.227	1628.53
999.523	1647.06
999.818	1641.86
1000.114	1617.46
1000.409	1605.25
1000.704	1576.78
1001	1568.19
1001.295	1595.09
1001.59	1583.56
1001.885	1570.45
1002.18	1523.45
1002.475	1536.78
1002.77	1540.85
1003.065	1544.24
1003.359	1505.82
1003.654	1483.45
1003.949	1510.34
1004.243	1521.41
1004.538	1478.48
1004.832	1484.58
1005.127	1474.41
1005.421	1470.12
1005.715	1462.21
1006.009	1461.98
1006.304	1458.37
1006.598	1430.57
1006.892	1424.24
1007.186	1404.58
1007.48	1411.81
1007.773	1412.49
1008.067	1431.7
1008.361	1405.03
1008.655	1387.63
1008.948	1377.24
1009.242	1365.03
1009.535	1365.26
1009.829	1367.75
1010.122	1361.64
1010.415	1322.32
1010.708	1322.55
1011.001	1310.12
1011.295	1333.17
1011.588	1301.99
1011.881	1316.22
1012.173	1289.1
1012.466	1276.9
1012.759	1325.94
1013.052	1306.05
1013.344	1287.75
1013.637	1271.7
1013.93	1255.21
1014.222	1264.92
1014.514	1254.08
1014.807	1259.95
1015.099	1215.21
1015.391	1239.39
1015.683	1233.06
1015.976	1219.5
1016.268	1187.64
1016.56	1210.01
1016.851	1193.51
1017.143	1184.02
1017.435	1172.72
1017.727	1184.47
1018.018	1204.59
1018.31	1155.77
1018.602	1161.65
1018.893	1151.71
1019.185	1151.26
1019.476	1151.71
1019.767	1134.31
1020.058	1116.68
1020.35	1107.87
1020.641	1129.11
1020.932	1092.27
1021.223	1077.58
1021.514	1095.89
1021.804	1085.27
1022.095	1085.72
1022.386	1073.97
1022.677	1058.15
1022.967	1060.64
1023.258	1039.62
1023.548	1036.23
1023.839	1028.32
1024.129	1051.6
1024.419	1026.51
1024.709	1027.87
1025	1024.25
1025.29	1020.41
1025.58	986.97
1025.87	994.2
1026.16	986.29
1026.449	987.19
1026.739	981.99
1027.029	975.89
1027.319	954.88
1027.608	973.41
1027.898	951.03
1028.187	960.07
1028.477	955.33
1028.766	914.88
1029.055	930.92
1029.344	933.41
1029.634	925.05
1029.923	902.67
1030.212	924.37
1030.501	913.07
1030.79	909.45
1031.078	873.07
1031.367	879.62
1031.656	874.65
1031.945	893.63
1032.233	885.5
1032.522	890.92
1032.81	857.48
1033.099	869
1033.387	858.61
1033.675	850.7
1033.963	840.53
1034.251	862.22
1034.54	807.76
1034.828	811.15
1035.116	824.26
1035.403	818.61
1035.691	822.68
1035.979	811.83
1036.267	813.18
1036.554	810.25
1036.842	796.01
1037.129	794.88
1037.417	807.76
1037.704	813.41
1037.992	779.06
1038.279	813.18
1038.566	776.8
1038.853	776.8
1039.14	776.8
