Data from cardboard_FLMS001491_010.txt Node
Date: Tue Feb 07 11:38:51 GMT 2017
User: dcchb
Spectrometer: FLMS00149
Trigger mode: 0
Integration Time (sec): 2.000000E-2
Scans to average: 10
Electric dark correction enabled: true
Nonlinearity correction enabled: false
Boxcar width: 0
XAxis mode: Wavelengths
Number of Pixels in Spectrum: 2048
>>>>>Begin Spectral Data<<<<<
341.393	-3.16
341.776	-3.16
342.16	-3.16
342.543	-51.07
342.927	-46.78
343.31	-76.16
343.693	-62.15
344.077	-64.86
344.46	-68.7
344.843	-45.42
345.226	-66.89
345.61	-32.99
345.993	-29.15
346.376	-12.2
346.759	18.76
347.142	18.98
347.525	49.72
347.908	69.6
348.291	80.45
348.674	102.14
349.057	118.87
349.44	148.92
349.823	121.35
350.206	173.33
350.588	185.31
350.971	219.66
351.354	220.33
351.737	227.79
352.119	234.8
352.502	246.32
352.884	272.31
353.267	275.25
353.65	293.1
354.032	284.29
354.414	291.97
354.797	308.24
355.179	322.48
355.562	314.34
355.944	310.5
356.326	314.79
356.709	313.21
357.091	308.69
357.473	338.97
357.855	340.1
358.238	338.3
358.62	317.05
359.002	320.22
359.384	322.93
359.766	319.99
360.148	338.52
360.53	329.71
360.912	342.82
361.294	301.24
361.676	331.97
362.057	344.17
362.439	312.08
362.821	311.4
363.203	312.08
363.584	308.92
363.966	298.52
364.348	311.4
364.729	311.86
365.111	290.84
365.493	295.13
365.874	294.46
366.256	296.72
366.637	312.99
367.019	308.92
367.4	283.38
367.781	308.69
368.163	290.39
368.544	305.3
368.925	299.2
369.306	306.21
369.688	303.95
370.069	301.91
370.45	310.05
370.831	307.79
371.212	297.62
371.593	291.52
371.974	298.3
372.355	300.33
372.736	292.65
373.117	316.15
373.498	308.24
373.879	311.86
374.26	290.84
374.641	299.65
375.021	286.32
375.402	302.36
375.783	314.34
376.163	309.82
376.544	319.09
376.925	322.03
377.305	319.54
377.686	305.98
378.066	322.7
378.447	315.47
378.827	310.27
379.208	308.01
379.588	303.04
379.968	331.29
380.349	314.12
380.729	301.01
381.109	320.22
381.489	312.53
381.87	322.93
382.25	328.8
382.63	322.25
383.01	312.76
383.39	299.43
383.77	312.08
384.15	330.16
384.53	331.29
384.91	339.88
385.29	335.36
385.67	333.78
386.049	331.29
386.429	320.22
386.809	330.39
387.189	345.08
387.568	337.84
387.948	342.36
388.328	320.67
388.707	346.88
389.087	342.36
389.466	344.17
389.846	321.12
390.225	345.08
390.605	352.08
390.984	341.01
391.363	344.62
391.743	346.66
392.122	338.75
392.501	356.37
392.881	348.69
393.26	349.6
393.639	370.39
394.018	351.86
394.397	326.32
394.776	348.24
395.155	346.88
395.534	355.02
395.913	363.83
396.292	357.73
396.671	358.86
397.05	358.86
397.429	355.7
397.808	359.76
398.186	350.27
398.565	360.67
398.944	389.82
399.323	379.65
399.701	371.52
400.08	372.42
400.458	371.97
400.837	369.26
401.215	381.23
401.594	366.54
401.972	376.94
402.351	381.01
402.729	383.94
403.107	400.44
403.486	380.55
403.864	369.93
404.242	383.49
404.62	378.75
404.999	384.85
405.377	401.8
405.755	376.26
406.133	384.62
406.511	391.4
406.889	398.18
407.267	393.89
407.645	401.8
408.023	404.96
408.401	420.1
408.779	392.31
409.156	413.55
409.534	397.96
409.912	403.61
410.29	410.84
410.667	416.03
411.045	402.48
411.422	432.53
411.8	420.33
412.178	427.11
412.555	438.18
412.933	423.04
413.31	428.01
413.687	435.47
414.065	429.14
414.442	444.96
414.819	430.27
415.197	463.94
415.574	457.62
415.951	460.1
416.328	462.36
416.705	461
417.082	461.91
417.46	455.13
417.837	454.23
418.214	471.4
418.591	461.91
418.967	451.51
419.344	461.23
419.721	476.37
420.098	464.85
420.475	470.72
420.852	468.01
421.228	480.89
421.605	477.28
421.982	470.04
422.358	484.28
422.735	492.42
423.111	491.96
423.488	503.94
423.864	486.31
424.241	480.89
424.617	514.11
424.994	498.29
425.37	503.49
425.746	488.57
426.123	517.5
426.499	526.99
426.875	506.2
427.251	530.61
427.627	510.95
428.003	525.64
428.379	559.31
428.756	537.39
429.132	559.76
429.507	534.45
429.883	556.14
430.259	556.6
430.635	564.28
431.011	545.3
431.387	576.93
431.763	573.32
432.138	559.76
432.514	576.03
432.89	575.58
433.265	593.2
433.641	595.69
434.016	603.15
434.392	597.27
434.767	597.05
435.143	608.8
435.518	599.31
435.894	604.05
436.269	610.61
436.644	611.28
437.02	599.53
437.395	657.84
437.77	629.59
438.145	650.6
438.52	636.37
438.895	630.49
439.271	650.38
439.646	675.24
440.021	671.62
440.395	654.45
440.77	663.03
441.145	674.78
441.52	684.73
441.895	672.3
442.27	672.07
442.645	696.48
443.019	673.88
443.394	684.5
443.769	687.21
444.143	698.06
444.518	681.11
444.892	683.6
445.267	715.91
445.641	714.78
446.016	715.69
446.39	724.95
446.764	718.4
447.139	718.17
447.513	716.14
447.887	725.4
448.262	730.38
448.636	735.35
449.01	744.39
449.384	742.58
449.758	739.87
450.132	747.78
450.506	750.26
450.88	763.82
451.254	752.3
451.628	764.95
452.002	781.22
452.376	792.97
452.75	803.82
453.123	785.97
453.497	812.41
453.871	784.84
454.244	795.01
454.618	811.28
454.992	840.66
455.365	835.01
455.739	833.2
456.112	847.21
456.486	867.32
456.859	852.63
457.232	875.46
457.606	871.84
457.979	876.36
458.352	874.78
458.725	888.11
459.099	910.71
459.472	936.47
459.845	917.26
460.218	925.85
460.591	904.83
460.964	955
461.337	971.95
461.71	973.53
462.083	969.47
462.456	957.71
462.829	963.82
463.201	988.67
463.574	995.45
463.947	998.62
464.32	1008.56
464.692	1042.91
465.065	1030.48
465.438	1028.9
465.81	1066.64
466.183	1101.67
466.555	1076.81
466.928	1091.5
467.3	1088.78
467.672	1101.21
468.045	1147.31
468.417	1132.4
468.789	1152.96
469.161	1145.96
469.534	1193.19
469.906	1189.12
470.278	1210.82
470.65	1224.6
471.022	1248.1
471.394	1243.58
471.766	1269.8
472.138	1274.09
472.51	1280.87
472.882	1289.46
473.253	1318.61
473.625	1338.72
473.997	1361.55
474.369	1376.01
474.74	1387.08
475.112	1414.2
475.484	1418.04
475.855	1416.46
476.227	1471.37
476.598	1472.28
476.97	1503.92
477.341	1511.37
477.713	1542.78
478.084	1548.43
478.455	1592.05
478.827	1568.09
479.198	1639.5
479.569	1625.95
479.94	1679.5
480.311	1694.64
480.682	1739.84
481.053	1792.72
481.424	1781.87
481.795	1805.6
482.166	1842.89
482.537	1837.24
482.908	1878.37
483.279	1922.89
483.65	1929.44
484.021	1974.64
484.391	1946.84
484.762	2006.27
485.133	2045.82
485.503	2053.05
485.874	2093.5
486.244	2116.78
486.615	2166.95
486.985	2145.93
487.356	2225.25
487.726	2225.03
488.097	2282.65
488.467	2299.15
488.837	2320.39
489.207	2361.29
489.578	2420.28
489.948	2444.91
490.318	2434.29
490.688	2480.61
491.058	2498.92
491.428	2535.98
491.798	2584.79
492.168	2598.8
492.538	2625.92
492.908	2634.96
493.278	2671.34
493.648	2705.92
494.017	2706.37
494.387	2732.13
494.757	2759.7
495.126	2851.45
495.496	2837.44
495.866	2843.99
496.235	2939.36
496.605	2924.44
496.974	2916.99
497.344	2999.7
497.713	3017.77
498.082	3048.73
498.452	3128.28
498.821	3086.7
499.19	3145
499.559	3120.37
499.928	3182.06
500.298	3169.18
500.667	3223.42
501.036	3257.77
501.405	3283.3
501.774	3274.49
502.143	3359.01
502.512	3331.21
502.88	3397.42
503.249	3416.86
503.618	3438.1
503.987	3445.56
504.356	3476.29
504.724	3518.78
505.093	3518.78
505.462	3559.45
505.83	3604.65
506.199	3648.04
506.567	3690.07
506.936	3674.25
507.304	3695.72
507.672	3736.17
508.041	3784.76
508.409	3803.52
508.777	3810.97
509.145	3904.76
509.514	3858.66
509.882	3937.07
510.25	3975.04
510.618	3958.77
510.986	4013.91
511.354	4034.7
511.722	4073.79
512.09	4156.95
512.458	4217.52
512.826	4219.78
513.193	4244.86
513.561	4260.23
513.929	4316.72
514.297	4313.11
514.664	4381.81
515.032	4380.9
515.4	4435.82
515.767	4498.86
516.135	4533.44
516.502	4536.6
516.869	4593.1
517.237	4641.91
517.604	4622.7
517.972	4685.53
518.339	4741.8
518.706	4768.91
519.073	4799.87
519.44	4807.11
519.808	4952.86
520.175	4899.53
520.542	5003.48
520.909	5046.19
521.276	5058.62
521.643	5166.19
522.009	5179.75
522.376	5233.76
522.743	5250.94
523.11	5301.56
523.477	5380.88
523.843	5415
524.21	5475.79
524.577	5509.91
524.943	5551.72
525.31	5607.08
525.676	5678.27
526.043	5712.62
526.409	5716.01
526.776	5865.83
527.142	5889.56
527.508	5896.57
527.874	5995.32
528.241	6020.41
528.607	6038.03
528.973	6130.23
529.339	6125.49
529.705	6242.1
530.071	6248.2
530.437	6316.44
530.803	6329.1
531.169	6397.8
531.535	6424.46
531.901	6453.62
532.267	6522.09
532.632	6607.96
532.998	6569.09
533.364	6610.67
533.73	6635.98
534.095	6737.45
534.461	6817.45
534.826	6875.3
535.192	6822.19
535.557	6910.33
535.923	6927.05
536.288	6969.53
536.653	7041.17
537.019	7000.27
537.384	7124.56
537.749	7171.11
538.114	7181.28
538.479	7252.01
538.845	7263.76
539.21	7290.2
539.575	7315.51
539.94	7365.46
540.305	7499.92
540.67	7485
541.034	7520.93
541.399	7586.24
541.764	7602.06
542.129	7661.49
542.494	7668.72
542.858	7729.74
543.223	7737.42
543.587	7796.18
543.952	7837.76
544.316	7922.96
544.681	7873.92
545.045	7986.23
545.41	7995.27
545.774	8001.82
546.138	8071.88
546.503	8121.37
546.867	8115.49
547.231	8204.08
547.595	8263.51
547.959	8272.32
548.324	8328.37
548.688	8369.5
549.052	8381.25
549.416	8453.56
549.779	8460.79
550.143	8518.19
550.507	8584.41
550.871	8635.03
551.235	8665.08
551.599	8711.64
551.962	8740.11
552.326	8821.24
552.689	8870.28
553.053	8810.39
553.417	8944.85
553.78	9002.25
554.143	8927.45
554.507	8996.83
554.87	9040.44
555.234	9237.95
555.597	9171.51
555.96	9191.62
556.323	9307.33
556.686	9382.13
557.05	9415.35
557.413	9412.18
557.776	9568.11
558.139	9585.74
558.502	9661.44
558.865	9650.59
559.228	9782.34
559.59	9846.29
559.953	9838.16
560.316	9973.75
560.679	10007.42
561.041	10079.06
561.404	10081.32
561.767	10185.04
562.129	10171.03
562.492	10274.98
562.854	10279.28
563.217	10273.63
563.579	10376
563.941	10517.01
564.304	10507.52
564.666	10627.07
565.028	10689.44
565.39	10759.49
565.753	10755.2
566.115	10860.73
566.477	10931.01
566.839	10870
567.201	11022.08
567.563	11060.95
567.925	11163.1
568.287	11171.01
568.648	11220.27
569.01	11252.13
569.372	11391.34
569.734	11353.37
570.095	11478.34
570.457	11497.78
570.819	11526.7
571.18	11553.14
571.542	11636.08
571.903	11653.48
572.265	11752.69
572.626	11924.43
572.987	11799.24
573.349	11867.48
573.71	11955.17
574.071	11967.14
574.432	12018.89
574.794	12103.18
575.155	12130.75
575.516	12183.86
575.877	12215.05
576.238	12301.37
576.599	12286.91
576.96	12355.38
577.32	12436.06
577.681	12432.44
578.042	12463.18
578.403	12483.06
578.763	12474.47
579.124	12656.16
579.485	12717.86
579.845	12709.04
580.206	12671.98
580.566	12723.28
580.927	12791.75
581.287	12849.38
581.648	12786.1
582.008	12845.99
582.368	12941.13
582.728	12956.27
583.089	12959.66
583.449	12939.32
583.809	12970.28
584.169	13045.31
584.529	13022.93
584.889	13121.69
585.249	13097.96
585.609	13148.13
585.969	13118.53
586.329	13217.73
586.688	13258.41
587.048	13206.43
587.408	13212.99
587.768	13238.52
588.127	13238.97
588.487	13226.32
588.846	13401.23
589.206	13256.37
589.565	13445.97
589.925	13375.02
590.284	13431.06
590.643	13427.22
591.003	13507.67
591.362	13514.67
591.721	13537.27
592.08	13504.05
592.44	13586.54
592.799	13573.43
593.158	13581.34
593.517	13666.53
593.876	13607.78
594.235	13666.08
594.593	13676.02
594.952	13754.89
595.311	13762.58
595.67	13752.86
596.029	13839.18
596.387	13914.44
596.746	13867.21
597.104	13917.15
597.463	13905.17
597.822	13842.35
598.18	13929.35
598.538	13901.33
598.897	14004.38
599.255	13919.18
599.613	14174.77
599.972	14055.68
600.33	14119.85
600.688	14086.86
601.046	14090.48
601.404	14191.72
601.762	14118.95
602.12	14254.77
602.478	14227.42
602.836	14360.53
603.194	14226.74
603.552	14190.36
603.91	14181.1
604.268	14363.46
604.625	14295.67
604.983	14355.55
605.341	14354.2
605.698	14424.93
606.056	14478.26
606.413	14454.99
606.771	14534.53
607.128	14554.42
607.485	14484.59
607.843	14473.07
608.2	14628.32
608.557	14661.99
608.914	14647.75
609.272	14721.42
609.629	14781.98
609.986	14794.41
610.343	14724.13
610.7	14845.94
611.057	14801.42
611.414	14766.62
611.771	14868.31
612.127	14859.04
612.484	14996.22
612.841	15050.9
613.198	14978.82
613.554	14992.6
613.911	15029.89
614.267	15053.16
614.624	15078.7
614.98	15121.18
615.337	15176.32
615.693	15240.28
616.05	15249.99
616.406	15366.15
616.762	15161.41
617.118	15408.86
617.475	15313.72
617.831	15454.28
618.187	15408.86
618.543	15404.11
618.899	15475.07
619.255	15447.28
619.611	15564.11
619.967	15551.46
620.323	15640.27
620.678	15549.87
621.034	15443.21
621.39	15568.4
621.746	15550.1
622.101	15813.6
622.457	15629.19
622.812	15698.12
623.168	15722.75
623.523	15677.1
623.879	15782.64
624.234	15682.75
624.589	15776.08
624.945	15738.57
625.3	15759.59
625.655	15722.98
626.01	15787.16
626.365	15832.35
626.72	15854.5
627.075	15807.95
627.43	15807.04
627.785	15769.08
628.14	15888.85
628.495	15870.54
628.85	15830.77
629.205	15804.33
629.559	15867.83
629.914	15896.76
630.269	15864.22
630.623	15720.49
630.978	15768.62
631.332	15863.54
631.687	15883.42
632.041	15829.41
632.396	15879.36
632.75	15805.46
633.104	15852.24
633.459	15782.41
633.813	15805.91
634.167	15810.21
634.521	15853.59
634.875	15907.83
635.229	15841.84
635.583	15803.43
635.937	15807.49
636.291	15882.75
636.645	15786.93
636.999	15766.82
637.352	15755.07
637.706	15685.92
638.06	15912.58
638.413	15791.22
638.767	15641.4
639.121	15767.04
639.474	15698.34
639.828	15751.22
640.181	15782.18
640.534	15721.39
640.888	15696.54
641.241	15626.03
641.594	15703.99
641.947	15736.54
642.301	15719.59
642.654	15698.8
643.007	15692.69
643.36	15793.48
643.713	15702.19
644.066	15677.1
644.419	15604.34
644.771	15544.45
645.124	15451.57
645.477	15387.39
645.83	15378.8
646.182	15233.95
646.535	15262.2
646.888	15232.59
647.24	15191.24
647.593	15267.85
647.945	15200.28
648.298	15232.59
648.65	15238.02
649.002	15150.56
649.355	15219.71
649.707	15149.21
650.059	15287.28
650.411	15456.09
650.763	15420.61
651.115	15578.57
651.467	15617.44
651.819	15652.24
652.171	15636.43
652.523	15583.77
652.875	15598.23
653.227	15506.03
653.578	15681.62
653.93	15591.23
654.282	15632.13
654.633	15481.4
654.985	15563.21
655.337	15522.98
655.688	15510.33
656.039	15664.45
656.391	15459.03
656.742	15534.05
657.094	15505.81
657.445	15601.17
657.796	15618.8
658.147	15547.16
658.498	15545.58
658.849	15682.53
659.2	15586.48
659.551	15591.23
659.902	15649.31
660.253	15563.66
660.604	15480.5
660.955	15543.77
661.306	15541.51
661.656	15650.89
662.007	15516.43
662.358	15645.24
662.708	15575.64
663.059	15652.7
663.409	15463.1
663.76	15574.73
664.11	15663.54
664.461	15717.33
664.811	15642.53
665.161	15665.8
665.511	15633.26
665.862	15638.68
666.212	15706.71
666.562	15597.33
666.912	15674.16
667.262	15616.76
667.612	15711.45
667.962	15654.5
668.312	15647.05
668.662	15746.7
669.011	15631.68
669.361	15637.55
669.711	15578.12
670.06	15594.84
670.41	15658.12
670.76	15619.7
671.109	15691.79
671.459	15636.65
671.808	15656.54
672.157	15711.9
672.507	15520.5
672.856	15589.19
673.205	15621.74
673.554	15619.25
673.904	15622.87
674.253	15725.91
674.602	15599.36
674.951	15412.93
675.3	15378.35
675.649	15616.54
675.998	15654.28
676.346	15546.26
676.695	15676.65
677.044	15539.48
677.393	15568.86
677.741	15557.33
678.09	15607.5
678.438	15524.56
678.787	15656.76
679.135	15609.31
679.484	15574.05
679.832	15525.24
680.181	15442.76
680.529	15519.14
680.877	15437.56
681.225	15442.08
681.573	15599.36
681.922	15515.3
682.27	15376.32
682.618	15382.42
682.966	15466.71
683.314	15449.54
683.661	15381.29
684.009	15239.15
684.357	15264.23
684.705	15289.54
685.053	15261.52
685.4	15246.15
685.748	15223.78
686.095	15236.66
686.443	15252.48
686.79	15132.71
687.138	15216.55
687.485	15219.49
687.832	15095.87
688.18	15204.35
688.527	15119.6
688.874	15057.46
689.221	14991.47
689.568	14979.95
689.915	15038.02
690.262	14982.66
690.609	14966.61
690.956	14808.2
691.303	14897.01
691.65	14901.98
691.997	14864.69
692.344	14789.67
692.69	14768.65
693.037	14777.92
693.383	14732.49
693.73	14777.01
694.077	14625.6
694.423	14612.72
694.769	14629.9
695.116	14571.82
695.462	14559.39
695.808	14519.39
696.155	14566.4
696.501	14439.85
696.847	14417.7
697.193	14383.35
697.539	14381.09
697.885	14304.93
698.231	14337.02
698.577	14229.91
698.923	14229.46
699.269	14247.76
699.614	14165.96
699.96	14055
700.306	14114.88
700.651	14082.34
700.997	14078.05
701.342	14039.63
701.688	14081.89
702.033	13914.21
702.379	13930.26
702.724	13907.43
703.069	14013.64
703.415	13717.38
703.76	13879.86
704.105	13808.22
704.45	13891.16
704.795	13759.19
705.14	13629.92
705.485	13729.13
705.83	13640.55
706.175	13629.25
706.52	13704.05
706.865	13602.58
707.209	13616.59
707.554	13570.26
707.899	13567.55
708.243	13488.91
708.588	13504.73
708.932	13455.24
709.277	13393.09
709.621	13439.87
709.966	13370.04
710.31	13415.69
710.654	13228.58
710.998	13300.89
711.342	13338.41
711.687	13243.27
712.031	13234.23
712.375	13256.6
712.719	13278.97
713.063	13218.41
713.407	13221.57
713.75	13129.82
714.094	13156.94
714.438	13079.43
714.782	13095.7
715.125	13121.01
715.469	13068.81
715.812	12974.8
716.156	12983.16
716.499	12911.98
716.843	13008.92
717.186	12996.49
717.53	13020.9
717.873	12901.36
718.216	12919.21
718.559	12806.44
718.902	12799.66
719.246	12845.54
719.589	12817.97
719.932	12787.46
720.275	12752.21
720.617	12768.93
720.96	12747.46
721.303	12752.21
721.646	12771.64
721.989	12684.64
722.331	12743.85
722.674	12629.5
723.016	12714.47
723.359	12753.79
723.701	12680.34
724.044	12596.28
724.386	12518.31
724.729	12610.52
725.071	12606.67
725.413	12546.56
725.755	12575.94
726.097	12523.74
726.439	12432.22
726.782	12482.84
727.124	12547.24
727.465	12553.34
727.807	12582.04
728.149	12404.42
728.491	12465.89
728.833	12418.2
729.175	12467.92
729.516	12418.66
729.858	12469.95
730.199	12429.28
730.541	12412.33
730.882	12368.04
731.224	12460.92
731.565	12310.86
731.906	12399.22
732.248	12358.32
732.589	12269.51
732.93	12342.05
733.271	12361.03
733.612	12315.38
733.953	12384.76
734.294	12344.53
734.635	12286.23
734.976	12280.36
735.317	12253.92
735.658	12243.29
735.999	12240.36
736.339	12254.82
736.68	12274.71
737.021	12241.26
737.361	12162.62
737.702	12277.87
738.042	12231.54
738.383	12258.89
738.723	12212.11
739.063	12143.64
739.404	12226.12
739.744	12231.09
740.084	12144.09
740.424	12156.74
740.764	12159.23
741.104	12092.56
741.444	12024.32
741.784	12093.92
742.124	12108.83
742.464	12132.11
742.804	12143.18
743.143	12113.13
743.483	12148.16
743.823	12056.63
744.162	12046.01
744.502	12039.91
744.841	11988.39
745.181	12068.38
745.52	12058.67
745.86	12103.18
746.199	12018.89
746.538	12008.05
746.877	12046.01
747.216	12081.49
747.556	12051.21
747.895	12024.77
748.234	11901.61
748.573	11929.63
748.911	11938.22
749.25	11920.82
749.589	11965.34
749.928	11909.52
750.267	11987.93
750.605	11914.94
750.944	11952
751.283	11897.31
751.621	11835.4
751.96	11810.54
752.298	11832.01
752.636	11830.42
752.975	11805.11
753.313	11813.93
753.651	11838.56
753.989	11769.63
754.327	11816.41
754.666	11755.85
755.004	11757.66
755.342	11808.5
755.679	11749.3
756.017	11673.82
756.355	11720.14
756.693	11634.72
757.031	11685.57
757.368	11655.51
757.706	11633.37
758.044	11641.95
758.381	11619.58
758.719	11555.63
759.056	11644.89
759.394	11542.3
759.731	11440.83
760.068	11478.57
760.405	11460.49
760.743	11413.49
761.08	11416.65
761.417	11411.9
761.754	11383.88
762.091	11314.96
762.428	11388.85
762.765	11190.44
763.102	11280.83
763.438	11239.25
763.775	11232.92
764.112	11215.75
764.449	11161.74
764.785	11192.93
765.122	11076.77
765.458	11108.63
765.795	11029.09
766.131	11090.33
766.467	11031.8
766.804	10962.88
767.14	10938.47
767.476	11020.73
767.812	10925.36
768.148	10911.58
768.485	10775.31
768.821	10853.27
769.157	10790.9
769.492	10786.61
769.828	10764.46
770.164	10698.02
770.5	10659.38
770.836	10627.07
771.171	10538.93
771.507	10607.63
771.842	10554.98
772.178	10544.13
772.513	10484.92
772.849	10492.15
773.184	10431.59
773.519	10356.79
773.855	10340.07
774.19	10235.89
774.525	10341.87
774.86	10255.78
775.195	10304.36
775.53	10214.65
775.865	10183.69
776.2	10117.02
776.535	10059.85
776.87	10053.52
777.205	10015.78
777.539	9959.74
777.874	9965.61
778.209	9967.2
778.543	9899.4
778.878	9836.35
779.212	9874.32
779.547	9781.21
779.881	9868.89
780.215	9750.7
780.55	9773.75
780.884	9758.61
781.218	9722.91
781.552	9733.08
781.886	9633.19
782.22	9576.92
782.554	9516.81
782.888	9490.6
783.222	9488.34
783.556	9444.05
783.889	9411.96
784.223	9347.55
784.557	9406.76
784.89	9432.75
785.224	9296.25
785.557	9288.12
785.891	9256.93
786.224	9252.64
786.558	9243.37
786.891	9189.14
787.224	9134.68
787.557	9113.66
787.891	9110.04
788.224	9103.94
788.557	9096.03
788.89	8978.75
789.223	9056.26
789.556	8975.13
789.888	8932.87
790.221	8884.51
790.554	8835.47
790.887	8871.18
791.219	8863.95
791.552	8736.72
791.884	8734.01
792.217	8746.44
792.549	8737.62
792.882	8632.32
793.214	8589.6
793.546	8655.82
793.879	8608.59
794.211	8553.9
794.543	8592.32
794.875	8581.02
795.207	8568.81
795.539	8547.57
795.871	8487.01
796.203	8395.49
796.535	8370.18
796.867	8416.28
797.198	8325.43
797.53	8374.47
797.862	8330.63
798.193	8353.9
798.525	8264.42
798.856	8310.97
799.188	8222.38
799.519	8185.1
799.85	8107.81
800.182	8152.1
800.513	8175.6
800.844	8085.21
801.175	8056.51
801.506	8101.93
801.837	8030.3
802.168	8072.1
802.499	8034.59
802.83	8030.07
803.161	7988.04
803.491	7970.64
803.822	7932.67
804.153	7942.62
804.483	7814.03
804.814	7856.74
805.145	7853.58
805.475	7828.04
805.805	7806.57
806.136	7797.99
806.466	7808.16
806.796	7799.34
807.126	7725.22
807.457	7720.25
807.787	7654.49
808.117	7653.58
808.447	7618.1
808.777	7709.18
809.107	7593.25
809.436	7607.26
809.766	7594.83
810.096	7515.06
810.426	7545.56
810.755	7503.76
811.085	7490.2
811.414	7547.15
811.744	7433.25
812.073	7369.3
812.403	7410.43
812.732	7411.78
813.061	7411.33
813.39	7374.72
813.719	7287.04
814.049	7370.65
814.378	7348.06
814.707	7315.29
815.036	7342.41
815.365	7260.15
815.693	7240.04
816.022	7225.57
816.351	7187.38
816.68	7154.16
817.008	7236.87
817.337	7146.03
817.665	7129.08
817.994	7122.3
818.322	7147.83
818.651	7101.96
818.979	7116.65
819.307	7125.01
819.636	7049.08
819.964	7075.29
820.292	7014.5
820.62	7080.04
820.948	6991.45
821.276	7058.8
821.604	7077.78
821.932	7033.71
822.259	7074.84
822.587	7055.86
822.915	7021.06
823.243	7044.56
823.57	7083.2
823.898	7022.19
824.225	6994.62
824.553	6971.34
824.88	7016.99
825.207	7056.31
825.535	7025.8
825.862	7057.89
826.189	7024.67
826.516	7036.88
826.843	7090.89
827.17	7006.6
827.497	7120.49
827.824	7065.35
828.151	7029.65
828.478	7064.67
828.805	7047.95
829.131	7074.39
829.458	6994.84
829.785	7035.97
830.111	7000.95
830.438	7062.87
830.764	7025.13
831.09	7024.22
831.417	7001.17
831.743	7031.45
832.069	7005.69
832.395	7013.83
832.722	6973.6
833.048	7005.69
833.374	6965.24
833.7	7022.87
834.026	6991.45
834.351	7022.19
834.677	7015.86
835.003	7010.21
835.329	6965.69
835.654	6953.26
835.98	6993.94
836.306	6937.67
836.631	6922.98
836.956	6957.78
837.282	6931.12
837.607	6916.65
837.932	6937.67
838.258	6915.75
838.583	6907.61
838.908	6795.3
839.233	6828.75
839.558	6822.42
839.883	6885.24
840.208	6803.44
840.533	6813.15
840.858	6800.73
841.182	6847.5
841.507	6798.01
841.832	6770.67
842.156	6781.97
842.481	6811.57
842.805	6724.12
843.13	6728.41
843.454	6722.08
843.778	6706.72
844.103	6659.26
844.427	6698.81
844.751	6692.25
845.075	6632.82
845.399	6659.26
845.723	6545.82
846.047	6593.72
846.371	6612.48
846.695	6563.67
847.019	6463.56
847.343	6520.05
847.666	6478.7
847.99	6392.6
848.313	6421.75
848.637	6417.68
848.96	6404.58
849.284	6371.36
849.607	6329.33
849.931	6267.86
850.254	6283
850.577	6248.42
850.9	6159.16
851.223	6221.76
851.546	6128.43
851.869	6103.79
852.192	6212.49
852.515	6145.6
852.838	6080.29
853.161	6058.82
853.483	6066.51
853.806	5973.4
854.129	6015.21
854.451	6038.94
854.774	5917.58
855.096	5956.91
855.419	5898.83
855.741	5918.04
856.063	5876.68
856.385	5893.4
856.708	5807.98
857.03	5861.77
857.352	5818.38
857.674	5838.49
857.996	5796.68
858.318	5765.5
858.64	5823.8
858.961	5807.98
859.283	5796.68
859.605	5725.95
859.926	5724.14
860.248	5744.03
860.57	5740.41
860.891	5714.88
861.212	5696.35
861.534	5637.82
861.855	5628.1
862.176	5642.79
862.498	5693.41
862.819	5671.26
863.14	5633.98
863.461	5598.95
863.782	5588.33
864.103	5553.75
864.424	5564.15
864.745	5601.43
865.065	5565.5
865.386	5544.26
865.707	5554.88
866.027	5513.53
866.348	5500.42
866.668	5526.86
866.989	5484.38
867.309	5499.29
867.63	5505.84
867.95	5486.64
868.27	5438.28
868.59	5457.03
868.91	5474.66
869.23	5455.45
869.55	5433.08
869.87	5492.51
870.19	5414.32
870.51	5424.49
870.83	5472.17
871.15	5391.27
871.469	5383.81
871.789	5398.73
872.109	5407.32
872.428	5349.46
872.748	5363.93
873.067	5370.25
873.386	5372.06
873.706	5366.64
874.025	5373.64
874.344	5319.41
874.663	5361.44
874.982	5306.53
875.301	5317.83
875.62	5310.14
875.939	5272.86
876.258	5316.92
876.577	5302.01
876.896	5299.07
877.214	5236.02
877.533	5255.46
877.852	5270.82
878.17	5250.03
878.489	5284.38
878.807	5235.34
879.125	5219.07
879.444	5255.91
879.762	5195.34
880.08	5251.84
880.398	5213.87
880.716	5227.43
881.034	5212.29
881.352	5161.22
881.67	5149.92
881.988	5134.55
882.306	5125.97
882.624	5134.55
882.941	5144.95
883.259	5118.51
883.577	5051.62
883.894	5098.62
884.212	5028.12
884.529	5067.44
884.846	5055.91
885.164	5035.35
885.481	5015.91
885.798	5033.77
886.115	5038.74
886.432	4990.15
886.75	4973.65
887.067	4986.76
887.383	4968.91
887.7	5016.37
888.017	4906.31
888.334	5003.48
888.651	4970.04
888.967	4889.81
889.284	4926.42
889.6	4863.6
889.917	4854.11
890.233	4880.1
890.55	4891.4
890.866	4853.43
891.182	4831.51
891.498	4806.65
891.815	4760.33
892.131	4761
892.447	4780.89
892.763	4754.23
893.079	4786.99
893.395	4709.93
893.71	4722.59
894.026	4714
894.342	4703.15
894.657	4664.51
894.973	4680.1
895.289	4654.11
895.604	4697.05
895.92	4631.52
896.235	4612.53
896.55	4612.08
896.865	4587
897.181	4572.76
897.496	4575.02
897.811	4541.12
898.126	4516.72
898.441	4526.21
898.756	4528.24
899.071	4459.09
899.386	4511.52
899.7	4514.46
900.015	4451.18
900.33	4405.31
900.644	4434.69
900.959	4391.97
901.273	4383.61
901.588	4378.42
901.902	4350.17
902.216	4362.6
902.531	4320.34
902.845	4361.69
903.159	4283.73
903.473	4277.85
903.787	4282.15
904.101	4259.77
904.415	4228.14
904.729	4271.3
905.042	4258.42
905.356	4226.33
905.67	4221.13
905.984	4212.09
906.297	4197.18
906.611	4147.91
906.924	4138.42
907.237	4158.53
907.551	4143.85
907.864	4107.01
908.177	4088.93
908.491	4092.32
908.804	4092.32
909.117	4032.21
909.43	4030.4
909.743	4018.65
910.056	4019.1
910.368	3997.18
910.681	3952.44
910.994	3950.63
911.307	3917.19
911.619	3886.45
911.932	3914.47
912.244	3897.3
912.557	3884.19
912.869	3843.29
913.181	3858.66
913.494	3824.53
913.806	3842.16
914.118	3809.84
914.43	3804.65
914.742	3793.12
915.054	3755.38
915.366	3720.13
915.678	3713.12
915.99	3740.24
916.302	3678.55
916.613	3690.75
916.925	3692.11
917.236	3636.74
917.548	3646.68
917.859	3660.69
918.171	3638.32
918.482	3614.82
918.794	3607.59
919.105	3605.33
919.416	3527.14
919.727	3527.82
920.038	3526.91
920.349	3512.22
920.66	3446.92
920.971	3486.01
921.282	3502.28
921.593	3470.87
921.903	3455.05
922.214	3427.71
922.525	3415.96
922.835	3434.26
923.146	3426.35
923.456	3391.32
923.767	3327.14
924.077	3393.58
924.387	3363.3
924.697	3331.21
925.008	3351.1
925.318	3298.67
925.628	3303.19
925.938	3306.13
926.248	3249.63
926.558	3223.19
926.867	3224.55
927.177	3183.19
927.487	3213.93
927.796	3191.55
928.106	3179.58
928.416	3203.98
928.725	3160.37
929.034	3166.47
929.344	3188.39
929.653	3129.86
929.962	3090.54
930.271	3088.51
930.581	3092.8
930.89	3096.19
931.199	3045.8
931.508	3084.66
931.817	3089.64
932.125	3040.82
932.434	3028.17
932.743	3035.63
933.051	3010.77
933.36	2998.34
933.669	2979.58
933.977	3017.77
934.286	2971
934.594	2925.12
934.902	2915.18
935.21	2932.35
935.519	2937.32
935.827	2879.92
936.135	2853.94
936.443	2899.58
936.751	2866.82
937.059	2853.71
937.367	2832.02
937.674	2837.67
937.982	2866.59
938.29	2847.38
938.597	2820.04
938.905	2775.52
939.213	2761.06
939.52	2728.74
939.827	2740.04
940.135	2739.81
940.442	2721.28
940.749	2715.63
941.056	2714.28
941.363	2702.98
941.67	2695.97
941.977	2697.1
942.284	2648.07
942.591	2658.01
942.898	2675.86
943.205	2658.24
943.511	2631.34
943.818	2618.91
944.125	2641.06
944.431	2608.52
944.738	2598.58
945.044	2539.59
945.35	2591.57
945.657	2534.85
945.963	2534.62
946.269	2515.64
946.575	2552.93
946.881	2512.02
947.187	2511.35
947.493	2479.93
947.799	2506.37
948.105	2507.73
948.41	2459.82
948.716	2471.35
949.022	2436.77
949.327	2455.98
949.633	2422.54
949.938	2404.23
950.244	2420.73
950.549	2410.33
950.854	2385.02
951.16	2375.3
951.465	2375.08
951.77	2378.47
952.075	2335.08
952.38	2336.66
952.685	2330.79
952.99	2332.14
953.294	2293.27
953.599	2324.91
953.904	2328.75
954.209	2300.73
954.513	2292.6
954.818	2268.87
955.122	2243.33
955.426	2250.11
955.731	2236.33
956.035	2234.29
956.339	2241.75
956.643	2236.33
956.948	2224.12
957.252	2200.17
957.556	2213.5
957.86	2175.54
958.163	2174.86
958.467	2185.03
958.771	2175.31
959.075	2180.28
959.378	2146.16
959.682	2154.29
959.985	2121.07
960.289	2115.2
960.592	2107.29
960.896	2069.78
961.199	2097.35
961.502	2083.34
961.805	2098.02
962.108	2068.65
962.411	2023.9
962.714	2069.55
963.017	2036.78
963.32	2014.86
963.623	2035.88
963.926	2031.59
964.228	2063.9
964.531	2005.6
964.833	2018.03
965.136	1966.95
965.438	1977.58
965.741	1972.38
966.043	1975.09
966.345	1961.76
966.648	1975.09
966.95	1972.15
967.252	1952.04
967.554	1952.72
967.856	1941.42
968.158	1939.84
968.46	1899.39
968.761	1870.91
969.063	1897.58
969.365	1886.5
969.666	1871.82
969.968	1861.65
970.269	1861.42
970.571	1874.98
970.872	1898.48
971.174	1853.51
971.475	1868.43
971.776	1810.8
972.077	1814.64
972.378	1832.27
972.679	1792.04
972.98	1807.41
973.281	1810.57
973.582	1782.33
973.883	1791.37
974.183	1751.14
974.484	1794.3
974.785	1746.39
975.085	1777.58
975.386	1769.9
975.686	1741.65
975.986	1722.67
976.287	1731.03
976.587	1736.68
976.887	1699.16
977.187	1715.66
977.487	1711.37
977.787	1676.11
978.087	1707.75
978.387	1679.5
978.687	1675.89
978.987	1657.36
979.286	1662.1
979.586	1665.04
979.885	1643.8
980.185	1664.81
980.484	1630.01
980.784	1630.01
981.083	1614.19
981.382	1607.42
981.682	1623.23
981.981	1628.43
982.28	1615.55
982.579	1573.52
982.878	1582.78
983.177	1594.99
983.475	1574.2
983.774	1567.42
984.073	1597.25
984.372	1557.02
984.67	1547.76
984.969	1566.29
985.267	1561.31
985.566	1516.57
985.864	1533.29
986.162	1520.41
986.461	1500.53
986.759	1508.66
987.057	1488.55
987.355	1480.41
987.653	1492.39
987.951	1491.49
988.249	1485.16
988.547	1476.8
988.844	1457.14
989.142	1454.88
989.44	1431.83
989.737	1445.16
990.035	1465.05
990.332	1432.73
990.63	1400.64
990.927	1420.98
991.224	1449.23
991.521	1423.92
991.819	1405.84
992.116	1406.97
992.413	1400.64
992.71	1390.92
993.006	1365.16
993.303	1360.64
993.6	1366.07
993.897	1380.08
994.193	1401.09
994.49	1358.83
994.787	1367.42
995.083	1334.88
995.379	1341.89
995.676	1338.72
995.972	1349.34
996.268	1329
996.565	1326.29
996.861	1313.41
997.157	1280.64
997.453	1320.42
997.749	1298.27
998.044	1261.66
998.34	1275.67
998.636	1283.81
998.932	1291.04
999.227	1263.7
999.523	1258.5
999.818	1276.58
1000.114	1228.89
1000.409	1241.1
1000.704	1227.76
1001	1209.01
1001.295	1233.41
1001.59	1227.31
1001.885	1210.14
1002.18	1202.45
1002.475	1205.84
1002.77	1185.28
1003.065	1187.09
1003.359	1209.23
1003.654	1160.65
1003.949	1199.97
1004.243	1188.44
1004.538	1172.4
1004.832	1155.22
1005.127	1143.92
1005.421	1154.77
1005.715	1165.85
1006.009	1153.42
1006.304	1154.77
1006.598	1148.44
1006.892	1115.22
1007.186	1117.26
1007.48	1125.85
1007.773	1133.53
1008.067	1111.38
1008.361	1098.5
1008.655	1089.46
1008.948	1074.55
1009.242	1063.47
1009.535	1082.46
1009.829	1063.25
1010.122	1074.55
1010.415	1044.72
1010.708	1072.97
1011.001	1044.94
1011.295	1060.31
1011.588	1037.49
1011.881	1027.77
1012.173	1037.03
1012.466	1023.25
1012.759	1006.53
1013.052	1015.34
1013.344	998.62
1013.637	1010.14
1013.93	1005.17
1014.222	990.93
1014.514	991.61
1014.807	994.1
1015.099	981.44
1015.391	988.22
1015.683	988.67
1015.976	986.87
1016.268	962.69
1016.56	950.71
1016.851	960.65
1017.143	960.2
1017.435	937.15
1017.727	948.45
1018.018	963.82
1018.31	918.85
1018.602	944.83
1018.893	932.18
1019.185	932.86
1019.476	930.15
1019.767	912.74
1020.058	909.81
1020.35	868
1020.641	900.32
1020.932	878.17
1021.223	877.04
1021.514	874.1
1021.804	901.9
1022.095	867.77
1022.386	876.81
1022.677	844.95
1022.967	852.41
1023.258	839.3
1023.548	847.66
1023.839	838.85
1024.129	836.59
1024.419	823.48
1024.709	831.39
1025	818.51
1025.29	784.61
1025.58	816.7
1025.87	818.28
1026.16	786.42
1026.449	842.92
1026.739	825.52
1027.029	788.91
1027.319	780.54
1027.608	796.82
1027.898	772.86
1028.187	778.06
1028.477	774.89
1028.766	768.79
1029.055	760.21
1029.344	787.78
1029.634	764.27
1029.923	743.03
1030.212	759.75
1030.501	755.23
1030.79	750.04
1031.078	723.82
1031.367	728.12
1031.656	741.22
1031.945	736.03
1032.233	721.56
1032.522	693.77
1032.81	734.9
1033.099	707.33
1033.387	726.08
1033.675	708.68
1033.963	698.06
1034.251	684.5
1034.54	710.26
1034.828	696.7
1035.116	675.24
1035.403	665.97
1035.691	684.5
1035.979	663.49
1036.267	679.3
1036.554	681.56
1036.842	691.51
1037.129	682.24
1037.417	652.41
1037.704	673.88
1037.992	661.45
1038.279	666.65
1038.566	641.11
1038.853	641.11
1039.14	641.11
