Data from cardboard_FLMS001491_017.txt Node
Date: Tue Feb 07 11:39:01 GMT 2017
User: dcchb
Spectrometer: FLMS00149
Trigger mode: 0
Integration Time (sec): 2.000000E-2
Scans to average: 10
Electric dark correction enabled: true
Nonlinearity correction enabled: false
Boxcar width: 0
XAxis mode: Wavelengths
Number of Pixels in Spectrum: 2048
>>>>>Begin Spectral Data<<<<<
341.393	-26.81
341.776	-26.81
342.16	-26.81
342.543	-62.96
342.927	-73.36
343.31	-47.82
343.693	-80.59
344.077	-60.7
344.46	-52.34
344.843	-48.95
345.226	-50.31
345.61	-27.94
345.993	-9.18
346.376	3.25
346.759	1.67
347.142	20.42
347.525	37.6
347.908	49.35
348.291	80.31
348.674	83.7
349.057	101.55
349.44	96.58
349.823	153.75
350.206	140.42
350.588	169.8
350.971	205.73
351.354	228.33
351.737	217.93
352.119	246.41
352.502	264.94
352.884	274.88
353.267	279.85
353.65	282.56
354.032	262.22
354.414	279.4
354.797	293.64
355.179	317.14
355.562	317.14
355.944	322.79
356.326	314.88
356.709	313.52
357.091	326.86
357.473	337.03
357.855	327.76
358.238	349.45
358.62	340.41
359.002	330.02
359.384	311.49
359.766	337.48
360.148	341.09
360.53	336.35
360.912	318.27
361.294	321.43
361.676	317.36
362.057	321.88
362.439	325.05
362.821	330.02
363.203	338.83
363.584	332.96
363.966	333.86
364.348	333.86
364.729	327.31
365.111	331.38
365.493	318.72
365.874	294.31
366.256	305.39
366.637	320.98
367.019	321.21
367.4	313.75
367.781	311.49
368.163	324.37
368.544	309.46
368.925	294.77
369.306	307.2
369.688	331.15
370.069	295.22
370.45	303.35
370.831	312.39
371.212	312.84
371.593	313.07
371.974	328.44
372.355	301.32
372.736	308.78
373.117	314.43
373.498	323.01
373.879	302.68
374.26	312.84
374.641	306.74
375.021	311.94
375.402	314.43
375.783	311.26
376.163	297.48
376.544	324.14
376.925	321.66
377.305	334.54
377.686	321.88
378.066	318.27
378.447	333.18
378.827	323.92
379.208	313.97
379.588	319.62
379.968	342
380.349	329.79
380.729	325.73
381.109	345.61
381.489	338.61
381.87	308.33
382.25	346.52
382.63	338.38
383.01	343.58
383.39	326.63
383.77	338.38
384.15	320.08
384.53	342.67
384.91	346.06
385.29	334.54
385.67	355.33
386.049	328.66
386.429	348.78
386.809	335.44
387.189	338.38
387.568	352.84
387.948	329.57
388.328	346.29
388.707	357.14
389.087	342.45
389.466	369.79
389.846	356.01
390.225	385.84
390.605	365.27
390.984	359.17
391.363	360.75
391.743	352.62
392.122	370.24
392.501	386.06
392.881	370.02
393.26	375.22
393.639	359.85
394.018	378.83
394.397	364.14
394.776	368.66
395.155	363.47
395.534	394.42
395.913	361.21
396.292	362.11
396.671	377.25
397.05	385.39
397.429	377.7
397.808	386.97
398.186	383.58
398.565	388.78
398.944	384.71
399.323	407.76
399.701	424.25
400.08	407.31
400.458	401.66
400.837	405.95
401.215	407.08
401.594	389.68
401.972	427.19
402.351	401.2
402.729	428.77
403.107	406.18
403.486	442.11
403.864	422.67
404.242	417.93
404.62	413.18
404.999	426.74
405.377	413.41
405.755	413.86
406.133	434.65
406.511	420.86
406.889	431.94
407.267	451.6
407.645	444.14
408.023	465.38
408.401	449.79
408.779	459.51
409.156	448.21
409.534	461.32
409.912	478.94
410.29	467.87
410.667	456.57
411.045	456.8
411.422	480.75
411.8	478.49
412.178	483.91
412.555	499.05
412.933	509
413.31	503.57
413.687	495.89
414.065	489.34
414.442	510.13
414.819	522.33
415.197	516.23
415.574	514.65
415.951	505.16
416.328	525.27
416.705	515.33
417.082	526.62
417.46	522.56
417.837	534.53
418.214	512.61
418.591	532.27
418.967	546.29
419.344	554.19
419.721	553.52
420.098	560.75
420.475	560.52
420.852	549
421.228	577.02
421.605	563.46
421.982	574.98
422.358	595.1
422.735	563.01
423.111	571.14
423.488	600.52
423.864	598.04
424.241	574.53
424.617	589
424.994	593.29
425.37	610.01
425.746	613.4
426.123	608.66
426.499	625.15
426.875	622.22
427.251	636.9
427.627	648.66
428.003	645.49
428.379	656.79
428.756	656.79
429.132	637.81
429.507	654.98
429.883	672.84
430.259	674.19
430.635	667.64
431.011	697.47
431.387	681.87
431.763	711.93
432.138	702.21
432.514	710.35
432.89	703.12
433.265	725.72
433.641	729.78
434.016	738.6
434.392	734.98
434.767	754.19
435.143	740.18
435.518	741.53
435.894	772.49
436.269	777.24
436.644	770.69
437.02	774.3
437.395	779.73
437.77	805.49
438.145	815.66
438.52	788.54
438.895	812.27
439.271	809.78
439.646	831.25
440.021	813.62
440.395	851.81
440.77	848.88
441.145	842.77
441.52	876.45
441.895	841.19
442.27	851.36
442.645	888.42
443.019	892.72
443.394	862.66
443.769	879.84
444.143	897.46
444.518	897.24
444.892	917.8
445.267	883.23
445.641	915.09
446.016	947.4
446.39	906.5
446.764	935.43
447.139	943.79
447.513	924.35
447.887	940.4
448.262	944.24
448.636	941.53
449.01	968.65
449.384	957.57
449.758	950.34
450.132	993.5
450.506	996.22
450.88	1008.19
451.254	988.99
451.628	1012.49
452.002	1003.9
452.376	1007.74
452.75	1015.88
453.123	1029.21
453.497	1045.26
453.871	1050.23
454.244	1070.57
454.618	1075.54
454.992	1082.09
455.365	1073.05
455.739	1109.89
456.112	1112.82
456.486	1121.86
456.859	1128.19
457.232	1151.01
457.606	1157.79
457.979	1165.93
458.352	1176.55
458.725	1193.05
459.099	1219.04
459.472	1236.66
459.845	1247.06
460.218	1265.81
460.591	1251.35
460.964	1250.45
461.337	1297.23
461.71	1331.58
462.083	1331.12
462.456	1324.57
462.829	1308.52
463.201	1332.25
463.574	1370.67
463.947	1352.37
464.32	1400.27
464.692	1421.97
465.065	1428.07
465.438	1442.53
465.81	1440.72
466.183	1472.81
466.555	1490.89
466.928	1494.28
467.3	1517.56
467.672	1541.29
468.045	1548.29
468.417	1569.54
468.789	1607.95
469.161	1607.95
469.534	1624.22
469.906	1661.28
470.278	1677.1
470.65	1684.33
471.022	1721.17
471.394	1730.89
471.766	1726.14
472.138	1749.64
472.51	1815.4
472.882	1831.68
473.253	1875.06
473.625	1881.84
473.997	1897.66
474.369	1952.58
474.74	1960.71
475.112	1982.18
475.484	2005.46
475.855	2031.44
476.227	2074.38
476.598	2120.25
476.97	2139.46
477.341	2170.88
477.713	2212.46
478.084	2213.36
478.455	2266.69
478.827	2300.59
479.198	2343.75
479.569	2359.34
479.94	2442.73
480.311	2414.03
480.682	2465.56
481.053	2554.82
481.424	2582.39
481.795	2643.63
482.166	2661.26
482.537	2675.49
482.908	2739.67
483.279	2776.06
483.65	2811.76
484.021	2858.54
484.391	2939.67
484.762	2927.47
485.133	2980.35
485.503	3030.74
485.874	3076.16
486.244	3099.89
486.615	3202.26
486.985	3207.68
487.356	3252.2
487.726	3296.27
488.097	3387.34
488.467	3396.38
488.837	3460.78
489.207	3505.53
489.578	3557.28
489.948	3576.49
490.318	3633.66
490.688	3687.67
491.058	3723.15
491.428	3766.77
491.798	3792.3
492.168	3872.53
492.538	3876.14
492.908	3944.84
493.278	4021
493.648	4070.71
494.017	4030.71
494.387	4136.7
494.757	4198.17
495.126	4263.02
495.496	4298.73
495.866	4298.73
496.235	4364.49
496.605	4401.32
496.974	4471.83
497.344	4465.73
497.713	4497.14
498.082	4536.46
498.452	4585.95
498.821	4677.25
499.19	4640.19
499.559	4715.22
499.928	4743.24
500.298	4771.26
500.667	4816.23
501.036	4859.39
501.405	4923.57
501.774	4969.67
502.143	5011.93
502.512	5039.5
502.88	5083.79
503.249	5135.32
503.618	5162.66
503.987	5167.63
504.356	5267.52
504.724	5332.37
505.093	5324.24
505.462	5365.37
505.83	5482.88
506.199	5469.32
506.567	5536.66
506.936	5541.41
507.304	5695.98
507.672	5664.12
508.041	5721.97
508.409	5749.54
508.777	5821.17
509.145	5917.67
509.514	5933.94
509.882	5993.37
510.25	6039.47
510.618	6101.85
510.986	6126.7
511.354	6175.74
511.722	6288.96
512.09	6273.59
512.458	6303.42
512.826	6457.09
513.193	6454.38
513.561	6578.22
513.929	6561.72
514.297	6623.64
514.664	6690.53
515.032	6732.34
515.4	6777.08
515.767	6870.41
516.135	6940.24
516.502	6936.63
516.869	7050.07
517.237	7100.01
517.604	7102.27
517.972	7211.19
518.339	7323.06
518.706	7282.83
519.073	7349.5
519.44	7417.06
519.808	7524.41
520.175	7548.81
520.542	7712.2
520.909	7791.07
521.276	7755.36
521.643	7879.65
522.009	7949.48
522.376	8054.34
522.743	8164.16
523.11	8189.47
523.477	8279.42
523.843	8359.64
524.21	8418.85
524.577	8541.78
524.943	8532.52
525.31	8685.73
525.676	8757.59
526.043	8807.31
526.409	8851.6
526.776	8958.27
527.142	9044.82
527.508	9197.13
527.874	9147.19
528.241	9288.88
528.607	9403.23
528.973	9439.38
529.339	9519.83
529.705	9639.38
530.071	9742.88
530.437	9748.75
530.803	9875.76
531.169	9915.3
531.535	9922.08
531.901	9949.88
532.267	10049.76
532.632	10147.84
532.998	10274.84
533.364	10278.91
533.73	10360.72
534.095	10487.04
534.461	10547.6
534.826	10568.85
535.192	10719.58
535.557	10801.83
535.923	10820.14
536.288	10817.43
536.653	10964.32
537.019	10905.33
537.384	11034.37
537.749	11093.35
538.114	11148.04
538.479	11257.87
538.845	11303.74
539.21	11349.16
539.575	11444.53
539.94	11448.82
540.305	11566.56
540.67	11581.02
541.034	11668.48
541.399	11737.63
541.764	11794.58
542.129	11840.9
542.494	11930.84
542.858	11938.53
543.223	12075.93
543.587	12109.82
543.952	12224.4
544.316	12287.45
544.681	12235.92
545.045	12442.92
545.41	12479.3
545.774	12487.67
546.138	12500.1
546.503	12618.74
546.867	12715.91
547.231	12782.12
547.595	12853.08
547.959	12945.73
548.324	12926.3
548.688	12962.46
549.052	13134.65
549.416	13116.35
549.779	13161.09
550.143	13288.55
550.507	13347.3
550.871	13500.07
551.235	13533.29
551.599	13604.7
551.962	13732.83
552.326	13696.9
552.689	13844.24
553.053	13872.49
553.417	13874.3
553.78	14061.64
554.143	14040.17
554.507	14158.58
554.87	14239.71
555.234	14366.26
555.597	14296.88
555.96	14442.87
556.323	14512.7
556.686	14546.14
557.05	14737.78
557.413	14771
557.776	14885.8
558.139	14998.33
558.502	15014.83
558.865	15084.43
559.228	15303.41
559.59	15297.54
559.953	15309.06
560.316	15529.62
560.679	15550.41
561.041	15741.14
561.404	15785.66
561.767	15959.44
562.129	15839.67
562.492	16094.12
562.854	16077.4
563.217	16106.1
563.579	16195.82
563.941	16253.89
564.304	16494.57
564.666	16539.99
565.028	16693.66
565.39	16695.92
565.753	16962.12
566.115	16895.23
566.477	16957.6
566.839	17115.34
567.201	17262.91
567.563	17338.16
567.925	17419.29
568.287	17414.99
568.648	17461.55
569.01	17611.83
569.372	17802.33
569.734	17734.76
570.095	17934.08
570.457	17937.01
570.819	18014.53
571.18	18133.17
571.542	18211.58
571.903	18287.74
572.265	18339.72
572.626	18419.71
572.987	18514.4
573.349	18461.75
573.71	18769.31
574.071	18743.09
574.432	18919.81
574.794	19028.28
575.155	18958
575.516	19022.41
575.877	19178.11
576.238	19145.57
576.599	19323.87
576.96	19353.25
577.32	19375.39
577.681	19479.12
578.042	19490.19
578.403	19510.98
578.763	19618.55
579.124	19693.8
579.485	19864.2
579.845	19960.46
580.206	19891.99
580.566	19861.94
580.927	20054.92
581.287	20077.75
581.648	19992.1
582.008	20089.05
582.368	20084.3
582.728	20281.13
583.089	20256.05
583.449	20151.87
583.809	20370.4
584.169	20421.69
584.529	20303.73
584.889	20501.47
585.249	20467.57
585.609	20470.28
585.969	20633.67
586.329	20455.59
586.688	20573.78
587.048	20608.13
587.408	20644.74
587.768	20632.08
588.127	20745.53
588.487	20736.26
588.846	20873.66
589.206	20820.78
589.565	20955.92
589.925	20895.13
590.284	20915.47
590.643	20895.13
591.003	21078.17
591.362	21082.69
591.721	21129.25
592.08	21125.18
592.44	21132.18
592.799	21291.73
593.158	21215.57
593.517	21210.15
593.876	21420.76
594.235	21407.66
594.593	21368.56
594.952	21452.85
595.311	21327.21
595.67	21458.05
596.029	21613.98
596.387	21667.54
596.746	21616.01
597.104	21620.99
597.463	21636.58
597.822	21810.81
598.18	21739.4
598.538	21752.51
598.897	21906.85
599.255	21734.65
599.613	22022.56
599.972	21953.41
600.33	21982.11
600.688	21954.54
601.046	22003.12
601.404	22096.45
601.762	22125.83
602.12	22210.12
602.478	22246.51
602.836	22275.66
603.194	22192.5
603.552	22255.77
603.91	22152.95
604.268	22290.12
604.625	22202.21
604.983	22378.48
605.341	22331.47
605.698	22647.62
606.056	22545.48
606.413	22458.48
606.771	22644.24
607.128	22618.02
607.485	22498.7
607.843	22620.96
608.2	22736.44
608.557	22860.73
608.914	22894.85
609.272	22970.78
609.629	23075.18
609.986	23134.39
610.343	22992.93
610.7	23164.9
611.057	23005.13
611.414	23074.96
611.771	23207.38
612.127	23277.66
612.484	23243.09
612.841	23338.23
613.198	23338.45
613.554	23305.46
613.911	23538.67
614.267	23571.89
614.624	23451.9
614.98	23494.38
615.337	23659.58
615.693	23632.68
616.05	23585.91
616.406	23770.76
616.762	23678.11
617.118	23784.54
617.475	23770.08
617.831	23800.14
618.187	23873.36
618.543	23837.42
618.899	24116.06
619.255	24017.76
619.611	24065.44
619.967	24169.39
620.323	24204.19
620.678	24050.3
621.034	24139.34
621.39	24195.61
621.746	24083.75
622.101	24433.11
622.457	24257.07
622.812	24381.36
623.168	24373.23
623.523	24363.29
623.879	24412.32
624.234	24273.8
624.589	24450.29
624.945	24421.36
625.3	24550.63
625.655	24555.37
626.01	24440.35
626.365	24608.25
626.72	24456.39
627.075	24462.49
627.43	24434.47
627.785	24355.6
628.14	24594.47
628.495	24601.25
628.85	24535.26
629.205	24543.62
629.559	24587.01
629.914	24540.46
630.269	24646.22
630.623	24499.55
630.978	24519.89
631.332	24667.91
631.687	24663.17
632.041	24546.78
632.396	24572.32
632.75	24595.14
633.104	24601.25
633.459	24448.93
633.813	24614.13
634.167	24479.67
634.521	24503.85
634.875	24605.99
635.229	24588.14
635.583	24337.98
635.937	24529.61
636.291	24514.24
636.645	24508.14
636.999	24311.99
637.352	24500.91
637.706	24326.45
638.06	24447.35
638.413	24435.37
638.767	24322.38
639.121	24471.31
639.474	24191.54
639.828	24423.62
640.181	24334.13
640.534	24345.43
640.888	24271.31
641.241	24277.86
641.594	24244.42
641.947	24362.38
642.301	24162.39
642.654	24247.13
643.007	24277.41
643.36	24335.26
643.713	24247.58
644.066	24315.6
644.419	24241.48
644.771	24025.44
645.124	23758.78
645.477	23825.45
645.83	23721.72
646.182	23535.74
646.535	23627.49
646.888	23594.04
647.24	23585.68
647.593	23577.77
647.945	23556.3
648.298	23442.41
648.65	23483.76
649.002	23405.35
649.355	23493.93
649.707	23525.12
650.059	23677.88
650.411	23854.37
650.763	23981.83
651.115	24128.04
651.467	24131.88
651.819	24150.64
652.171	24035.38
652.523	24057.98
652.875	23978.66
653.227	23991.09
653.578	24096.63
653.93	24151.54
654.282	24005.33
654.633	23949.51
654.985	24002.84
655.337	24096.17
655.688	24098.21
656.039	24105.67
656.391	23948.38
656.742	24013.46
657.094	23990.87
657.445	24076.51
657.796	23984.09
658.147	24044.42
658.498	24038.1
658.849	23978.66
659.2	23952.9
659.551	24021.37
659.902	24129.17
660.253	24082.39
660.604	24127.59
660.955	23951.55
661.306	24021.83
661.656	24006.46
662.007	24005.1
662.358	24100.02
662.708	24084.88
663.059	24041.03
663.409	23886.91
663.76	24082.84
664.11	24070.86
664.461	24149.28
664.811	24125.1
665.161	24119.45
665.511	24013.92
665.862	24092.78
666.212	24220.92
666.562	24221.82
666.912	24163.29
667.262	24036.51
667.612	24103.41
667.962	24179.56
668.312	24071.77
668.662	24225.44
669.011	24121.03
669.361	24127.36
669.711	24080.58
670.06	24073.12
670.41	24067.02
670.76	24067.47
671.109	24093.69
671.459	24086.91
671.808	24005.33
672.157	24142.05
672.507	24007.82
672.856	23953.58
673.205	23976.18
673.554	24131.65
673.904	23974.37
674.253	24135.95
674.602	24087.59
674.951	23762.62
675.3	23727.37
675.649	24110.19
675.998	24073.58
676.346	23961.94
676.695	24148.83
677.044	24018.89
677.393	23972.11
677.741	23962.39
678.09	24035.84
678.438	23911.32
678.787	23999.23
679.135	23967.36
679.484	23869.97
679.832	24009.85
680.181	23982.28
680.529	23954.03
680.877	23782.06
681.225	23801.49
681.573	24022.96
681.922	23776.41
682.27	23789.52
682.618	23888.04
682.966	23700.25
683.314	23777.99
683.661	23696.18
684.009	23599.01
684.357	23544.1
684.705	23463.87
685.053	23564.89
685.4	23591.1
685.748	23555.4
686.095	23452.35
686.443	23403.09
686.79	23398.11
687.138	23399.02
687.485	23328.51
687.832	23243.32
688.18	23289.42
688.527	23180.49
688.874	23273.6
689.221	23211.9
689.568	23079.03
689.915	23116.99
690.262	23049.2
690.609	23053.72
690.956	22968.75
691.303	22984.11
691.65	22948.63
691.997	22905.92
692.344	22708.19
692.69	22771.69
693.037	22829.77
693.383	22590.45
693.73	22605.59
694.077	22515.2
694.423	22411.25
694.769	22427.52
695.116	22399.5
695.462	22350.91
695.808	22290.35
696.155	22370.34
696.501	22225.49
696.847	22156.56
697.193	22083.35
697.539	22225.26
697.885	22066.85
698.231	21886.97
698.577	21926.74
698.923	21956.12
699.269	21897.59
699.614	21666.86
699.96	21719.51
700.306	21694.66
700.651	21558.61
700.997	21634.54
701.342	21471.38
701.688	21499.63
702.033	21441.55
702.379	21444.49
702.724	21341.9
703.069	21471.84
703.415	21197.49
703.76	21150.49
704.105	21151.39
704.45	21157.04
704.795	20975.8
705.14	20997.27
705.485	20968.35
705.83	20912.76
706.175	20882.93
706.52	20852.87
706.865	20873.89
707.209	20728.13
707.554	20697.62
707.899	20731.74
708.243	20643.84
708.588	20643.16
708.932	20470.96
709.277	20503.27
709.621	20584.85
709.966	20397.06
710.31	20547.79
710.654	20249.95
710.998	20313.45
711.342	20306.67
711.687	20305.09
712.031	20203.17
712.375	20093.79
712.719	20212.89
713.063	20149.84
713.407	20236.61
713.75	20121.14
714.094	20116.84
714.438	20046.56
714.782	20185.09
715.125	20052.66
715.469	19984.42
715.812	19908.04
716.156	19785.55
716.499	19939
716.843	19953.46
717.186	19703.52
717.53	19864.65
717.873	19882.27
718.216	19816.51
718.559	19623.07
718.902	19513.02
719.246	19656.07
719.589	19604.54
719.932	19473.47
720.275	19443.19
720.617	19488.39
720.96	19520.02
721.303	19465.79
721.646	19437.77
721.989	19361.16
722.331	19440.7
722.674	19377.2
723.016	19357.09
723.359	19497.88
723.701	19353.7
724.044	19218.79
724.386	19163.2
724.729	19240.48
725.071	19236.87
725.413	19202.97
725.755	19209.07
726.097	19152.35
726.439	18998.46
726.782	19130.88
727.124	19155.29
727.465	19089.53
727.807	19111.45
728.149	18967.27
728.491	19025.12
728.833	19021.96
729.175	19005.23
729.516	19007.72
729.858	19082.29
730.199	19041.84
730.541	18890.44
730.882	18832.36
731.224	18941.06
731.565	18850.21
731.906	18902.86
732.248	18874.39
732.589	18820.83
732.93	18750.78
733.271	18789.42
733.612	18769.31
733.953	18811.12
734.294	18788.74
734.635	18678.69
734.976	18782.64
735.317	18692.47
735.658	18708.29
735.999	18824.22
736.339	18667.62
736.68	18812.7
737.021	18607.28
737.361	18532.7
737.702	18616.09
738.042	18647.05
738.383	18562.76
738.723	18592.59
739.063	18480.5
739.404	18575.87
739.744	18534.06
740.084	18513.95
740.424	18533.16
740.764	18461.52
741.104	18515.3
741.444	18487.51
741.784	18443.67
742.124	18480.28
742.464	18486.83
742.804	18438.02
743.143	18416.55
743.483	18405.93
743.823	18418.58
744.162	18357.57
744.502	18366.16
744.841	18371.81
745.181	18329.55
745.52	18247.74
745.86	18394.86
746.199	18315.99
746.538	18340.17
746.877	18310.56
747.216	18304.46
747.556	18242.77
747.895	18304.46
748.234	18202.32
748.573	18088.2
748.911	18204.35
749.25	18285.93
749.589	18119.16
749.928	18233.5
750.267	18224.92
750.605	18115.77
750.944	18182.66
751.283	18074.64
751.621	18201.41
751.96	18072.38
752.298	18026.5
752.636	18047.52
752.975	18025.83
753.313	17860.41
753.651	18084.13
753.989	17928.43
754.327	17972.27
754.666	17926.17
755.004	17967.3
755.342	18016.11
755.679	17983.79
756.017	17867.19
756.355	17892.27
756.693	17797.13
757.031	17856.11
757.368	17741.77
757.706	17749.22
758.044	17667.64
758.381	17709.68
758.719	17700.64
759.056	17679.39
759.394	17596.46
759.731	17556.01
760.068	17513.07
760.405	17506.97
760.743	17453.41
761.08	17494.77
761.417	17374.77
761.754	17360.76
762.091	17377.48
762.428	17284.6
762.765	17090.71
763.102	17306.97
763.438	17144.72
763.775	17129.13
764.112	17080.77
764.449	17080.54
764.785	17017.49
765.122	17004.84
765.458	16818.63
765.795	16913.09
766.131	16910.6
766.467	16781.11
766.804	16752.41
767.14	16693.88
767.476	16664.51
767.812	16546.09
768.148	16598.52
768.485	16474.45
768.821	16514.68
769.157	16394.68
769.492	16424.29
769.828	16410.27
770.164	16325.76
770.5	16181.81
770.836	16194.69
771.171	16139.32
771.507	16150.39
771.842	15998.31
772.178	15984.3
772.513	15961.25
772.849	15977.74
773.184	15843.74
773.519	15851.65
773.855	15825.21
774.19	15697.98
774.525	15727.81
774.86	15734.36
775.195	15665.89
775.53	15547.25
775.865	15533.46
776.2	15441.71
776.535	15390.41
776.87	15318.1
777.205	15290.98
777.539	15276.29
777.874	15279.46
778.209	15122.4
778.543	15157.43
778.878	15029.07
779.212	14994.72
779.547	14913.59
779.881	14897.09
780.215	14824.78
780.55	14912.69
780.884	14749.75
781.218	14740.71
781.552	14667.5
781.886	14718.34
782.22	14553.83
782.554	14502.75
782.888	14429.31
783.222	14394.51
783.556	14285.36
783.889	14284.45
784.223	14287.84
784.557	14201.07
784.89	14232.25
785.224	14176.21
785.557	14074.29
785.891	14063.44
786.224	14074.74
786.558	14029.32
786.891	13908.65
787.224	13837.91
787.557	13789.1
787.891	13821.19
788.224	13775.99
788.557	13670.69
788.89	13728.76
789.223	13614.42
789.556	13595.89
789.888	13598.6
790.221	13533.97
790.554	13466.17
790.887	13385.95
791.219	13336.01
791.552	13288.77
791.884	13312.96
792.217	13162.45
792.549	13177.59
792.882	13123.58
793.214	13067.99
793.546	13054.43
793.879	12935.11
794.211	12894.89
794.543	12991.38
794.875	12835.68
795.207	12946.86
795.539	12863.48
795.871	12772.63
796.203	12785.06
796.535	12713.65
796.867	12672.07
797.198	12667.32
797.53	12619.87
797.862	12525.86
798.193	12493.99
798.525	12473.88
798.856	12548.68
799.188	12345.3
799.519	12374.45
799.85	12282.25
800.182	12360.44
800.513	12215.36
800.844	12189.82
801.175	12271.4
801.506	12296.26
801.837	12221.46
802.168	12155.7
802.499	12083.83
802.83	12039.54
803.161	11967.91
803.491	12057.17
803.822	11962.93
804.153	11975.14
804.483	11819.21
804.814	11860.34
805.145	11882.03
805.475	11838.19
805.805	11779.66
806.136	11736.05
806.466	11785.09
806.796	11696.5
807.126	11624.86
807.457	11663.73
807.787	11622.38
808.117	11538.09
808.447	11582.15
808.777	11530.18
809.107	11489.95
809.436	11492.66
809.766	11487.24
810.096	11517.75
810.426	11457.18
810.755	11397.75
811.085	11327.92
811.414	11358.43
811.744	11313.91
812.073	11251.31
812.403	11226
812.732	11218.32
813.061	11180.13
813.39	11143.29
813.719	11054.03
814.049	11203.41
814.378	11155.95
814.707	11074.82
815.036	11127.48
815.365	10958.44
815.693	10933.36
816.022	10896.97
816.351	10933.36
816.68	10822.4
817.008	10900.14
817.337	10830.76
817.665	10763.42
817.994	10843.19
818.322	10722.97
818.651	10765.68
818.979	10722.74
819.307	10709.18
819.636	10678.67
819.964	10589.86
820.292	10696.07
820.62	10634.38
820.948	10589.41
821.276	10663.53
821.604	10633.48
821.932	10675.96
822.259	10670.09
822.587	10641.61
822.915	10599.13
823.243	10567.49
823.57	10522.07
823.898	10634.16
824.225	10608.62
824.553	10600.48
824.88	10548.73
825.207	10746.02
825.535	10628.73
825.862	10594.16
826.189	10546.93
826.516	10647.71
826.843	10653.14
827.17	10628.51
827.497	10600.94
827.824	10614.04
828.151	10658.34
828.478	10576.08
828.805	10614.49
829.131	10568.62
829.458	10653.14
829.785	10632.57
830.111	10597.32
830.438	10628.96
830.764	10619.24
831.09	10654.49
831.417	10536.3
831.743	10613.37
832.069	10605
832.395	10567.94
832.722	10630.54
833.048	10560.49
833.374	10544.67
833.7	10494.72
834.026	10590.31
834.351	10597.55
834.677	10546.47
835.003	10571.33
835.329	10515.97
835.654	10528.62
835.98	10487.04
836.306	10512.58
836.631	10464.22
836.956	10479.36
837.282	10505.8
837.607	10415.4
837.932	10414.05
838.258	10408.62
838.583	10350.55
838.908	10325.24
839.233	10379.25
839.558	10294.96
839.883	10359.59
840.208	10327.72
840.533	10341.73
840.858	10325.91
841.182	10272.81
841.507	10280.49
841.832	10212.02
842.156	10223.54
842.481	10226.03
842.805	10116.65
843.13	10079.14
843.454	10112.59
843.778	10104.9
844.103	10082.53
844.427	10026.04
844.751	10032.36
845.075	10007.73
845.399	10026.49
845.723	9965.25
846.047	9996.43
846.371	9872.82
846.695	9935.19
847.019	9805.48
847.343	9706.5
847.666	9684.12
847.99	9626.72
848.313	9702.65
848.637	9590.57
848.96	9554.64
849.284	9560.06
849.607	9550.34
849.931	9517.12
850.254	9450.01
850.577	9395.09
850.9	9311.03
851.223	9312.16
851.546	9264.25
851.869	9194.65
852.192	9282.33
852.515	9156.91
852.838	9093.86
853.161	9134.76
853.483	9119.84
853.806	8990.81
854.129	9106.06
854.451	9069.68
854.774	8990.81
855.096	8934.77
855.419	8943.35
855.741	8877.14
856.063	8896.35
856.385	8899.96
856.708	8831.04
857.03	8761.44
857.352	8816.8
857.674	8727.76
857.996	8678.73
858.318	8703.58
858.64	8694.77
858.961	8670.37
859.283	8643.02
859.605	8603.47
859.926	8648.9
860.248	8600.31
860.57	8599.63
860.891	8594.21
861.212	8557.37
861.534	8536.81
861.855	8456.36
862.176	8538.62
862.498	8515.34
862.819	8461.11
863.14	8485.29
863.461	8434.67
863.782	8375.91
864.103	8486.42
864.424	8440.54
864.745	8370.26
865.065	8344.27
865.386	8365.74
865.707	8332.07
866.027	8325.06
866.348	8279.19
866.668	8337.94
866.989	8292.07
867.309	8287.1
867.63	8254.56
867.95	8206.87
868.27	8172.07
868.59	8210.94
868.91	8200.55
869.23	8170.49
869.55	8117.61
869.87	8143.37
870.19	8124.62
870.51	8128.46
870.83	8107.22
871.15	8114.45
871.469	8117.84
871.789	8106.31
872.109	8058.86
872.428	8006.43
872.748	8049.82
873.067	7993.32
873.386	8061.12
873.706	8018.86
874.025	7934.79
874.344	7986.09
874.663	8017.28
874.982	7975.69
875.301	7932.76
875.62	7924.17
875.939	7939.31
876.258	7901.57
876.577	7898.86
876.896	7894.34
877.214	7906.54
877.533	7886.43
877.852	7954.68
878.17	7922.36
878.489	7886.66
878.807	7841.23
879.125	7796.94
879.444	7816.6
879.762	7879.2
880.08	7707
880.398	7757.17
880.716	7733.89
881.034	7754.68
881.352	7707.9
881.67	7662.48
881.988	7649.83
882.306	7664.97
882.624	7655.93
882.941	7630.84
883.259	7587.68
883.577	7548.36
883.894	7614.12
884.212	7580.45
884.529	7564.86
884.846	7504.29
885.164	7525.76
885.481	7547.23
885.798	7459.78
886.115	7409.38
886.432	7480.57
886.75	7452.54
887.067	7424.97
887.383	7425.65
887.7	7436.95
888.017	7360.12
888.334	7391.08
888.651	7306.56
888.967	7300.68
889.284	7174.59
889.6	7290.06
889.917	7285.32
890.233	7234.7
890.55	7183.62
890.866	7208.48
891.182	7139.33
891.498	7175.26
891.815	7177.75
892.131	7132.1
892.447	7083.74
892.763	7094.36
893.079	6997.19
893.395	7016.62
893.71	7027.24
894.026	7033.35
894.342	6956.51
894.657	6945.21
894.973	6954.25
895.289	6890.98
895.604	6881.03
895.92	6875.16
896.235	6854.14
896.55	6861.6
896.865	6838.77
897.181	6789.96
897.496	6739.57
897.811	6742.96
898.126	6736.63
898.441	6730.08
898.756	6717.65
899.071	6622.28
899.386	6681.72
899.7	6683.98
900.015	6586.35
900.33	6503.64
900.644	6533.02
900.959	6568.95
901.273	6563.98
901.588	6465.68
901.902	6443.31
902.216	6402.63
902.531	6378.22
902.845	6441.05
903.159	6359.47
903.473	6336.19
903.787	6307.49
904.101	6329.41
904.415	6315.85
904.729	6248.06
905.042	6231.79
905.356	6204.67
905.67	6192.92
905.984	6205.57
906.297	6196.53
906.611	6088.29
906.924	6152.92
907.237	6093.48
907.551	6076.76
907.864	6015.97
908.177	5997.44
908.491	6017.55
908.804	5947.5
909.117	6012.13
909.43	5928.29
909.743	5919.93
910.056	5906.14
910.368	5866.15
910.681	5871.79
910.994	5862.3
911.307	5814.62
911.619	5779.59
911.932	5745.92
912.244	5726.04
912.557	5696.21
912.869	5709.31
913.181	5688.07
913.494	5683.78
913.806	5606.94
914.118	5601.29
914.43	5551.35
914.742	5607.17
915.054	5519.26
915.366	5534.4
915.678	5518.81
915.99	5464.12
916.302	5390.45
916.613	5412.37
916.925	5429.77
917.236	5400.39
917.548	5384.12
917.859	5364.46
918.171	5321.53
918.482	5299.83
918.794	5314.07
919.105	5266.84
919.416	5235.43
919.727	5220.29
920.038	5209.44
920.349	5152.72
920.66	5126.5
920.971	5175.99
921.282	5076.56
921.593	5100.74
921.903	5101.65
922.214	5053.29
922.525	5022.55
922.835	4997.47
923.146	4951.59
923.456	4978.71
923.767	4933.29
924.077	4901.65
924.387	4948.88
924.697	4869.79
925.008	4842.67
925.318	4851.71
925.628	4848.54
925.938	4847.87
926.248	4806.96
926.558	4797.02
926.867	4785.5
927.177	4758.38
927.487	4733.75
927.796	4665.27
928.106	4677.7
928.416	4666.63
928.725	4651.04
929.034	4598.16
929.344	4593.41
929.653	4552.96
929.962	4555.45
930.271	4558.61
930.581	4509.8
930.89	4465.73
931.199	4452.85
931.508	4487.88
931.817	4476.58
932.125	4459.18
932.434	4404.04
932.743	4413.75
933.051	4371.95
933.36	4357.03
933.669	4364.26
933.977	4351.38
934.286	4278.39
934.594	4350.7
934.902	4307.99
935.21	4251.05
935.519	4261.89
935.827	4207.88
936.135	4225.96
936.443	4202.01
936.751	4140.77
937.059	4147.77
937.367	4129.92
937.674	4130.82
937.982	4102.12
938.29	4057.61
938.597	4141.44
938.905	4023.03
939.213	4004.73
939.52	4009.92
939.827	4004.95
940.135	3972.86
940.442	3968.57
940.749	3988.45
941.056	3976.93
941.363	3919.08
941.67	3889.25
941.977	3901.68
942.284	3847.44
942.591	3909.81
942.898	3846.99
943.205	3803.15
943.511	3836.14
943.818	3783.94
944.125	3752.53
944.431	3731.06
944.738	3749.14
945.044	3731.96
945.35	3696.03
945.657	3702.13
945.963	3678.18
946.269	3667.33
946.575	3646.09
946.881	3658.52
947.187	3665.75
947.493	3625.07
947.799	3585.98
948.105	3562.25
948.41	3577.62
948.716	3589.37
949.022	3527.9
949.327	3545.53
949.633	3483.38
949.938	3528.58
950.244	3496.04
950.549	3469.6
950.854	3438.19
951.16	3437.96
951.465	3408.81
951.77	3421.69
952.075	3359.77
952.38	3354.57
952.685	3402.03
952.99	3308.25
953.294	3308.47
953.599	3338.53
953.904	3321.35
954.209	3321.35
954.513	3277.51
954.818	3269.15
955.122	3239.77
955.426	3249.04
955.731	3213.56
956.035	3222.6
956.339	3205.65
956.643	3198.42
956.948	3188.93
957.252	3180.34
957.556	3155.71
957.86	3117.97
958.163	3120.23
958.467	3117.97
958.771	3115.48
959.075	3091.98
959.378	3051.98
959.682	3079.78
959.985	3009.72
960.289	3056.95
960.592	3022.83
960.896	2986.9
961.199	3030.51
961.502	2981.48
961.805	2965.66
962.108	2987.58
962.411	2946.45
962.714	2981.25
963.017	2925.21
963.32	2945.77
963.623	2928.14
963.926	2891.76
964.228	2863.51
964.531	2884.53
964.833	2877.3
965.136	2843.17
965.438	2822.84
965.741	2851.31
966.043	2797.75
966.345	2790.52
966.648	2803.17
966.95	2764.76
967.252	2738.09
967.554	2746
967.856	2711.2
968.158	2707.58
968.46	2695.16
968.761	2715.49
969.063	2718.88
969.365	2701.71
969.666	2690.18
969.968	2651.09
970.269	2633.91
970.571	2652.67
970.872	2595.72
971.174	2624.42
971.475	2587.59
971.776	2583.52
972.077	2604.54
972.378	2572.45
972.679	2579.68
972.98	2580.58
973.281	2550.3
973.582	2535.61
973.883	2527.48
974.183	2507.82
974.484	2517.76
974.785	2494.71
975.085	2469.4
975.386	2459.46
975.686	2458.78
975.986	2449.51
976.287	2430.76
976.587	2423.07
976.887	2408.61
977.187	2426.69
977.487	2412.9
977.787	2360.25
978.087	2365.67
978.387	2379.68
978.687	2344.43
978.987	2335.16
979.286	2324.77
979.586	2341.72
979.885	2301.95
980.185	2288.16
980.484	2294.94
980.784	2291.55
981.083	2293.13
981.382	2252.91
981.682	2247.26
981.981	2256.75
982.28	2227.6
982.579	2212.46
982.878	2244.77
983.177	2224.66
983.475	2236.64
983.774	2194.38
984.073	2193.25
984.372	2192.57
984.67	2162.29
984.969	2181.95
985.267	2144.66
985.566	2158.9
985.864	2134.04
986.162	2138.33
986.461	2122.74
986.759	2102.63
987.057	2106.47
987.355	2101.72
987.653	2074.61
987.951	2093.14
988.249	2073.7
988.547	2087.94
988.844	2047.04
989.142	2056.98
989.44	1994.83
989.737	2015.62
990.035	2007.94
990.332	2000.71
990.63	1994.83
990.927	1977.21
991.224	2004.55
991.521	1953.48
991.819	1967.49
992.116	1953.25
992.413	1924.1
992.71	1920.94
993.006	1925.91
993.303	1902.63
993.6	1909.87
993.897	1853.37
994.193	1891.56
994.49	1903.99
994.787	1870.32
995.083	1859.7
995.379	1851.79
995.676	1836.87
995.972	1853.6
996.268	1818.12
996.565	1820.83
996.861	1812.47
997.157	1774.95
997.453	1796.65
997.749	1817.21
998.044	1768.85
998.34	1769.3
998.636	1772.02
998.932	1747.84
999.227	1733.37
999.523	1740.83
999.818	1743.09
1000.114	1728.17
1000.409	1686.59
1000.704	1718.23
1001	1700.38
1001.295	1673.04
1001.59	1701.06
1001.885	1684.33
1002.18	1675.07
1002.475	1633.71
1002.77	1634.17
1003.065	1634.62
1003.359	1622.64
1003.654	1619.7
1003.949	1601.62
1004.243	1619.25
1004.538	1583.55
1004.832	1581.74
1005.127	1572.47
1005.421	1572.25
1005.715	1554.17
1006.009	1569.76
1006.304	1558.24
1006.598	1551
1006.892	1528.63
1007.186	1505.13
1007.48	1494.06
1007.773	1509.2
1008.067	1484.79
1008.361	1447.5
1008.655	1469.65
1008.948	1480.27
1009.242	1475.75
1009.535	1454.28
1009.829	1436.21
1010.122	1414.28
1010.415	1440.95
1010.708	1424.45
1011.001	1413.38
1011.295	1417
1011.588	1396.43
1011.881	1406.6
1012.173	1376.32
1012.466	1383.55
1012.759	1338.81
1013.052	1363.21
1013.344	1361.4
1013.637	1362.08
1013.93	1332.93
1014.222	1365.92
1014.514	1340.16
1014.807	1328.41
1015.099	1307.85
1015.391	1302.2
1015.683	1325.47
1015.976	1302.65
1016.268	1267.17
1016.56	1271.92
1016.851	1265.81
1017.143	1249.77
1017.435	1250.22
1017.727	1242.09
1018.018	1222.2
1018.31	1228.08
1018.602	1215.42
1018.893	1198.92
1019.185	1209.09
1019.476	1186.04
1019.767	1191.92
1020.058	1210.22
1020.35	1181.07
1020.641	1174.74
1020.932	1170
1021.223	1143.56
1021.514	1146.04
1021.804	1132.71
1022.095	1126.61
1022.386	1148.76
1022.677	1126.16
1022.967	1120.73
1023.258	1110.79
1023.548	1118.47
1023.839	1099.72
1024.129	1087.74
1024.419	1093.39
1024.709	1068.98
1025	1081.19
1025.29	1058.36
1025.58	1078.02
1025.87	1049.55
1026.16	1018.59
1026.449	1029.89
1026.739	1044.13
1027.029	1025.14
1027.319	1033.73
1027.608	1024.69
1027.898	1008.19
1028.187	998.7
1028.477	995.54
1028.766	995.31
1029.055	975.2
1029.344	947.86
1029.634	962.32
1029.923	944.69
1030.212	974.75
1030.501	960.51
1030.79	952.15
1031.078	939.27
1031.367	929.1
1031.656	921.42
1031.945	921.19
1032.233	910.8
1032.522	919.38
1032.81	922.32
1033.099	910.8
1033.387	901.98
1033.675	891.13
1033.963	917.12
1034.251	888.42
1034.54	877.58
1034.828	887.07
1035.116	862.66
1035.403	891.36
1035.691	886.16
1035.979	849.33
1036.267	857.69
1036.554	831.02
1036.842	820.85
1037.129	833.74
1037.417	842.77
1037.704	817.46
1037.992	819.05
1038.279	852.94
1038.566	819.27
1038.853	819.27
1039.14	819.27
