Data from cardboard_FLMS001491_028.txt Node
Date: Tue Feb 07 11:39:11 GMT 2017
User: dcchb
Spectrometer: FLMS00149
Trigger mode: 0
Integration Time (sec): 2.000000E-2
Scans to average: 10
Electric dark correction enabled: true
Nonlinearity correction enabled: false
Boxcar width: 0
XAxis mode: Wavelengths
Number of Pixels in Spectrum: 2048
>>>>>Begin Spectral Data<<<<<
341.393	10.06
341.776	10.06
342.16	10.06
342.543	-55.93
342.927	-69.49
343.31	-49.38
343.693	-67.23
344.077	-87.57
344.46	-62.03
344.843	-45.08
345.226	-48.7
345.61	-48.02
345.993	-31.07
346.376	1.47
346.759	0.34
347.142	23.84
347.525	61.81
347.908	62.94
348.291	84.18
348.674	100
349.057	104.52
349.44	118.3
349.823	151.52
350.206	155.82
350.588	207.11
350.971	216.83
351.354	211.86
351.737	235.36
352.119	237.17
352.502	261.58
352.884	269.71
353.267	277.85
353.65	287.34
354.032	268.81
354.414	292.31
354.797	292.76
355.179	281.91
355.562	312.87
355.944	318.3
356.326	330.95
356.709	320.1
357.091	316.04
357.473	332.08
357.855	306.55
358.238	301.8
358.62	306.55
359.002	315.13
359.384	330.05
359.766	316.71
360.148	316.49
360.53	328.01
360.912	332.08
361.294	350.61
361.676	318.97
362.057	320.33
362.439	328.47
362.821	312.2
363.203	316.26
363.584	329.37
363.966	310.16
364.348	317.39
364.729	313.33
365.111	305.87
365.493	327.11
365.874	301.12
366.256	309.94
366.637	303.83
367.019	299.77
367.4	281.91
367.781	293.89
368.163	287.56
368.544	296.38
368.925	291.18
369.306	274.23
369.688	307.9
370.069	293.21
370.45	291.4
370.831	289.6
371.212	309.03
371.593	307.68
371.974	283.72
372.355	283.5
372.736	302.03
373.117	312.87
373.498	308.81
373.879	298.41
374.26	297.73
374.641	305.87
375.021	301.57
375.402	296.38
375.783	304.96
376.163	317.62
376.544	307.22
376.925	289.6
377.305	304.51
377.686	302.03
378.066	316.04
378.447	302.93
378.827	315.36
379.208	315.13
379.588	313.55
379.968	320.78
380.349	320.33
380.729	296.15
381.109	331.4
381.489	335.47
381.87	337.51
382.25	312.2
382.63	327.34
383.01	325.53
383.39	318.07
383.77	317.62
384.15	312.65
384.53	323.27
384.91	331.18
385.29	325.3
385.67	313.55
386.049	324.17
386.429	343.61
386.809	333.66
387.189	331.86
387.568	335.7
387.948	330.5
388.328	331.63
388.707	342.7
389.087	321.46
389.466	339.99
389.846	335.47
390.225	341.35
390.605	332.31
390.984	350.61
391.363	338.18
391.743	340.67
392.122	344.51
392.501	332.76
392.881	329.6
393.26	325.3
393.639	337.05
394.018	325.08
394.397	328.69
394.776	357.17
395.155	351.29
395.534	339.31
395.913	348.58
396.292	376.37
396.671	354.91
397.05	352.19
397.429	360.56
397.808	349.48
398.186	358.3
398.565	365.98
398.944	343.38
399.323	336.83
399.701	361.91
400.08	378.86
400.458	372.53
400.837	375.47
401.215	387
401.594	331.4
401.972	353.1
402.351	359.2
402.729	393.32
403.107	385.19
403.486	373.21
403.864	353.1
404.242	372.76
404.62	383.38
404.999	394.68
405.377	379.99
405.755	360.56
406.133	396.71
406.511	384.28
406.889	396.71
407.267	390.61
407.645	394.68
408.023	390.39
408.401	417.28
408.779	405.3
409.156	395.36
409.534	401.23
409.912	422.02
410.29	400.1
410.667	409.59
411.045	412.98
411.422	395.81
411.8	427.9
412.178	410.72
412.555	430.38
412.933	423.15
413.31	405.75
413.687	444.17
414.065	434.9
414.442	427.22
414.819	444.4
415.197	423.38
415.574	450.27
415.951	451.85
416.328	445.07
416.705	436.49
417.082	451.63
417.46	455.92
417.837	429.93
418.214	457.73
418.591	466.09
418.967	455.69
419.344	466.77
419.721	458.41
420.098	444.4
420.475	452.76
420.852	458.86
421.228	458.41
421.605	474
421.982	473.77
422.358	462.25
422.735	488.24
423.111	516.71
423.488	489.14
423.864	475.35
424.241	493.66
424.617	498.86
424.994	501.79
425.37	500.44
425.746	473.55
426.123	493.21
426.499	511.29
426.875	507.22
427.251	538.18
427.627	493.43
428.003	523.26
428.379	521.46
428.756	530.49
429.132	526.88
429.507	538.18
429.883	514.22
430.259	530.04
430.635	532.53
431.011	547.9
431.387	557.61
431.763	548.8
432.138	551.06
432.514	577.05
432.89	585.41
433.265	582.7
433.641	585.63
434.016	568.46
434.392	584.73
434.767	605.52
435.143	591.74
435.518	604.84
435.894	602.13
436.269	616.14
436.644	612.3
437.02	628.12
437.395	604.16
437.77	614.11
438.145	637.61
438.52	640.77
438.895	636.03
439.271	636.93
439.646	636.71
440.021	657.04
440.395	655.24
440.77	647.1
441.145	648.01
441.52	665.63
441.895	673.32
442.27	680.32
442.645	661.79
443.019	691.39
443.394	693.88
443.769	674.45
444.143	692.98
444.518	687.33
444.892	673.99
445.267	681.68
445.641	706.08
446.016	695.91
446.39	700.43
446.764	711.73
447.139	712.41
447.513	726.87
447.887	702.69
448.262	745.86
448.636	679.87
449.01	734.33
449.384	727.55
449.758	761
450.132	756.93
450.506	743.6
450.88	729.13
451.254	751.05
451.628	769.58
452.002	804.84
452.376	775.69
452.75	769.36
453.123	777.27
453.497	807.55
453.871	795.12
454.244	818.17
454.618	794.67
454.992	813.2
455.365	804.16
455.739	826.31
456.112	844.16
456.486	844.16
456.859	838.28
457.232	859.53
457.606	857.04
457.979	860.66
458.352	877.6
458.725	899.52
459.099	896.36
459.472	907.89
459.845	930.26
460.218	904.95
460.591	931.16
460.964	927.55
461.337	911.95
461.71	936.13
462.083	927.77
462.456	944.27
462.829	995.79
463.201	978.84
463.574	980.65
463.947	999.18
464.32	992.63
464.692	1018.39
465.065	1022.91
465.438	1038.05
465.81	1031.5
466.183	1047.77
466.555	1085.06
466.928	1094.1
467.3	1085.06
467.672	1091.84
468.045	1114.89
468.417	1122.57
468.789	1099.29
469.161	1137.03
469.534	1174.32
469.906	1174.55
470.278	1169.8
470.65	1177.48
471.022	1207.99
471.394	1230.14
471.766	1224.94
472.138	1261.1
472.51	1275.56
472.882	1264.71
473.253	1295.45
473.625	1315.33
473.997	1330.02
474.369	1361.66
474.74	1332.28
475.112	1366.86
475.484	1398.49
475.855	1421.77
476.227	1443.92
476.598	1469.23
476.97	1484.82
477.341	1497.25
477.713	1511.03
478.084	1535.44
478.455	1549
478.827	1576.34
479.198	1612.05
479.569	1604.14
479.94	1671.26
480.311	1678.71
480.682	1691.82
481.053	1719.16
481.424	1745.38
481.795	1772.5
482.166	1840.97
482.537	1821.99
482.908	1856.34
483.279	1860.4
483.65	1892.94
484.021	1895.88
484.391	1944.47
484.762	1971.59
485.133	2000.96
485.503	2003
485.874	2046.16
486.244	2086.16
486.615	2121.19
486.985	2132.49
487.356	2194.86
487.726	2220.85
488.097	2253.84
488.467	2258.58
488.837	2276.89
489.207	2324.8
489.578	2338.58
489.948	2381.52
490.318	2417.68
490.688	2390.56
491.058	2470.56
491.428	2476.66
491.798	2509.2
492.168	2570.89
492.538	2586.03
492.908	2604.11
493.278	2635.52
493.648	2650.44
494.017	2704.9
494.387	2711
494.757	2720.95
495.126	2774.5
495.496	2799.14
495.866	2819.02
496.235	2841.62
496.605	2863.09
496.974	2890.66
497.344	2915.52
497.713	2973.82
498.082	2970.88
498.452	2997.1
498.821	3066.47
499.19	3039.81
499.559	3068.05
499.928	3116.87
500.298	3123.42
500.667	3160.93
501.036	3194.38
501.405	3195.74
501.774	3223.08
502.143	3257.2
502.512	3264.43
502.88	3337.2
503.249	3281.61
503.618	3356.63
503.987	3402.74
504.356	3394.37
504.724	3461.26
505.093	3439.57
505.462	3492.45
505.83	3517.99
506.199	3558.44
506.567	3587.82
506.936	3600.7
507.304	3620.81
507.672	3652.22
508.041	3731.09
508.409	3730.41
508.777	3764.99
509.145	3801.59
509.514	3805.89
509.882	3855.83
510.25	3869.62
510.618	3941.48
510.986	3958.88
511.354	3973.12
511.722	4012.44
512.09	4075.26
512.458	4077.29
512.826	4131.08
513.193	4131.98
513.561	4158.87
513.929	4198.42
514.297	4271.87
514.664	4272.77
515.032	4275.93
515.4	4368.59
515.767	4374.69
516.135	4409.94
516.502	4426.21
516.869	4519.77
517.237	4532.65
517.604	4558.86
517.972	4586.89
518.339	4578.52
518.706	4613.55
519.073	4672.76
519.44	4743.27
519.808	4828.69
520.175	4793.66
520.542	4861.45
520.909	4883.15
521.276	4931.51
521.643	4990.72
522.009	5038.4
522.376	5049.92
522.743	5119.75
523.11	5120.88
523.477	5224.61
523.843	5277.26
524.21	5328.33
524.577	5391.16
524.943	5392.74
525.31	5399.29
525.676	5509.12
526.043	5524.94
526.409	5613.52
526.776	5663.92
527.142	5663.01
527.508	5706.63
527.874	5770.13
528.241	5823.69
528.607	5831.82
528.973	5932.61
529.339	5948.66
529.705	6013.74
530.071	6063.23
530.437	6089.67
530.803	6168.09
531.169	6192.49
531.535	6226.39
531.901	6212.38
532.267	6256.9
532.632	6302.32
532.998	6409.89
533.364	6457.12
533.73	6500.06
534.095	6507.06
534.461	6592.26
534.826	6599.26
535.192	6702.31
535.557	6783.44
535.923	6732.37
536.288	6749.77
536.653	6820.05
537.019	6835.64
537.384	6917.45
537.749	6951.34
538.114	6974.17
538.479	6968.74
538.845	7017.33
539.21	7036.09
539.575	7136.2
539.94	7159.92
540.305	7177.78
540.67	7163.09
541.034	7269.3
541.399	7294.16
541.764	7291.22
542.129	7428.84
542.494	7388.62
542.858	7452.12
543.223	7504.77
543.587	7514.72
543.952	7566.92
544.316	7600.14
544.681	7673.36
545.045	7654.15
545.41	7714.49
545.774	7772.56
546.138	7790.64
546.503	7869.74
546.867	7819.34
547.231	7982.5
547.595	7984.99
547.959	8006.23
548.324	8030.64
548.688	8083.97
549.052	8130.75
549.416	8170.75
549.779	8185.21
550.143	8280.35
550.507	8290.29
550.871	8366.67
551.235	8359.89
551.599	8428.59
551.962	8408.71
552.326	8577.29
552.689	8611.19
553.053	8536.16
553.417	8605.31
553.78	8747.91
554.143	8756.72
554.507	8765.53
554.87	8798.07
555.234	8962.59
555.597	8874.23
555.96	9001.46
556.323	8994.68
556.686	9020.67
557.05	9142.02
557.413	9162.13
557.776	9162.58
558.139	9309.02
558.502	9337.27
558.865	9354.44
559.228	9495.68
559.59	9456.81
559.953	9501.56
560.316	9587.43
560.679	9652.06
561.041	9617.26
561.404	9719.41
561.767	9775.22
562.129	9821.55
562.492	9946.52
562.854	9933.64
563.217	10032.39
563.579	10005.27
563.941	10207.53
564.304	10199.84
564.666	10220.18
565.028	10338.6
565.39	10271.48
565.753	10396.9
566.115	10506.96
566.477	10471.25
566.839	10525.49
567.201	10592.6
567.563	10719.38
567.925	10764.58
568.287	10779.72
568.648	10789.21
569.01	10903.1
569.372	11002.99
569.734	10997.79
570.095	11096.54
570.457	11080.5
570.819	11184
571.18	11121.18
571.542	11200.04
571.903	11311.23
572.265	11334.5
572.626	11403.65
572.987	11436.42
573.349	11500.38
573.71	11580.15
574.071	11578.11
574.432	11661.05
574.794	11735.85
575.155	11765.68
575.516	11691.78
575.877	11830.54
576.238	11785.79
576.599	11833.02
576.96	11866.92
577.32	11904.66
577.681	11965
578.042	12093.13
578.403	12064.88
578.763	12121.6
579.124	12160.25
579.485	12223.07
579.845	12245.21
580.206	12223.29
580.566	12233.01
580.927	12304.65
581.287	12376.51
581.648	12304.42
582.008	12413.8
582.368	12374.02
582.728	12413.35
583.089	12501.71
583.449	12489.95
583.809	12577.86
584.169	12691.3
584.529	12565.21
584.889	12730.17
585.249	12618.31
585.609	12589.39
585.969	12731.98
586.329	12662.83
586.688	12779.44
587.048	12737.41
587.408	12738.54
587.768	12722.04
588.127	12759.55
588.487	12771.98
588.846	12913.67
589.206	12763.39
589.565	12842.94
589.925	12917.29
590.284	12871.19
590.643	12923.84
591.003	12978.3
591.362	13116.6
591.721	12963.61
592.08	13098.53
592.44	13014.91
592.799	13118.64
593.158	13127
593.517	13054.68
593.876	13091.97
594.235	13184.85
594.593	13157.28
594.952	13250.16
595.311	13171.74
595.67	13191.4
596.029	13305.75
596.387	13347.78
596.746	13352.3
597.104	13253.55
597.463	13331.06
597.822	13387.56
598.18	13335.81
598.538	13384.39
598.897	13478.85
599.255	13399.76
599.613	13584.16
599.972	13458.06
600.33	13615.8
600.688	13522.7
601.046	13606.31
601.404	13638.85
601.762	13607.21
602.12	13631.17
602.478	13699.87
602.836	13735.12
603.194	13635.23
603.552	13704.61
603.91	13712.52
604.268	13770.15
604.625	13738.73
604.983	13894.89
605.341	13788.45
605.698	13863.93
606.056	13879.3
606.413	13978.28
606.771	13898.28
607.128	14010.14
607.485	13992.29
607.843	14007.65
608.2	14088.1
608.557	14112.51
608.914	14094.43
609.272	14162.68
609.629	14177.14
609.986	14239.51
610.343	14220.08
610.7	14296.01
611.057	14281.55
611.414	14259.17
611.771	14294.65
612.127	14329.23
612.484	14318.38
612.841	14406.97
613.198	14408.32
613.554	14430.24
613.911	14587.75
614.267	14548.21
614.624	14468.66
614.98	14550.24
615.337	14629.11
615.693	14547.3
616.05	14552.05
616.406	14728.99
616.762	14697.81
617.118	14676.56
617.475	14674.76
617.831	14738.03
618.187	14752.04
618.543	14775.09
618.899	14877.24
619.255	14798.82
619.611	14862.77
619.967	14869.33
620.323	14940.96
620.678	14948.87
621.034	14805.83
621.39	14910.46
621.746	14890.79
622.101	15065.48
622.457	14960.85
622.812	15025.48
623.168	15050.79
623.523	15096.89
623.879	15126.72
624.234	15054.41
624.589	15081.98
624.945	15148.64
625.3	15063.45
625.655	15122.2
626.01	15128.53
626.365	15168.75
626.72	15178.7
627.075	15094.86
627.43	15083.33
627.785	15141.41
628.14	15217.34
628.495	15198.81
628.85	15150.9
629.205	15163.56
629.559	15255.76
629.914	15117.91
630.269	15186.15
630.623	15166.04
630.978	15212.82
631.332	15169.66
631.687	15227.51
632.041	15094.63
632.396	15175.53
632.75	15079.49
633.104	15221.63
633.459	15187.28
633.813	15109.77
634.167	15252.82
634.521	15168.75
634.875	15218.24
635.229	15170.56
635.583	15104.8
635.937	15088.3
636.291	15182.09
636.645	15081.07
636.999	15049.89
637.352	15215.76
637.706	15056.21
638.06	15107.74
638.413	15139.15
638.767	15023.22
639.121	15052.37
639.474	15012.37
639.828	15041.98
640.181	15045.82
640.534	15139.15
640.888	15037.23
641.241	14947.29
641.594	15009.21
641.947	14997.01
642.301	15024.58
642.654	15084.24
643.007	15138.92
643.36	15101.64
643.713	15099.38
644.066	15167.62
644.419	14968.31
644.771	14860.97
645.124	14782.1
645.477	14766.5
645.83	14634.53
646.182	14618.49
646.535	14649.45
646.888	14577.36
647.24	14558.37
647.593	14682.21
647.945	14714.75
648.298	14615.32
648.65	14590.01
649.002	14445.16
649.355	14644.25
649.707	14584.36
650.059	14592.95
650.411	14829.78
650.763	14832.04
651.115	14879.72
651.467	14938.93
651.819	14935.77
652.171	14917.01
652.523	14881.08
652.875	14918.36
653.227	14856.67
653.578	14992.94
653.93	14972.6
654.282	14890.34
654.633	14877.01
654.985	14870.46
655.337	14896.44
655.688	14856.45
656.039	14977.57
656.391	14728.99
656.742	14805.15
657.094	14958.14
657.445	15012.15
657.796	14991.13
658.147	14920.4
658.498	14916.56
658.849	14958.82
659.2	14883.34
659.551	14916.33
659.902	14925.82
660.253	14933.73
660.604	14934.86
660.955	14898.7
661.306	14952.94
661.656	14883.11
662.007	14896.44
662.358	14988.19
662.708	14891.25
663.059	14962.43
663.409	14861.19
663.76	14981.19
664.11	14946.61
664.461	14977.35
664.811	15003.33
665.161	14941.64
665.511	14924.47
665.862	14923.11
666.212	14941.19
666.562	15053.73
666.912	14967.63
667.262	14963.79
667.612	15010.57
667.962	14962.88
668.312	14900.74
668.662	14981.64
669.011	14950.68
669.361	14957.91
669.711	14952.71
670.06	14984.35
670.41	14980.28
670.76	14935.54
671.109	14956.78
671.459	14935.09
671.808	14994.75
672.157	14932.38
672.507	14919.27
672.856	14873.17
673.205	14955.88
673.554	15014.41
673.904	14829.78
674.253	14995.2
674.602	14948.42
674.951	14740.29
675.3	14669.11
675.649	14973.28
675.998	14905.48
676.346	14868.2
676.695	14939.16
677.044	14853.51
677.393	14906.16
677.741	14887.86
678.09	14903.22
678.438	14890.34
678.787	14859.16
679.135	14862.77
679.484	14821.19
679.832	14858.71
680.181	14789.55
680.529	14927.4
680.877	14698.26
681.225	14792.94
681.573	14825.26
681.922	14819.84
682.27	14712.72
682.618	14801.31
682.966	14675.89
683.314	14739.84
683.661	14675.89
684.009	14647.41
684.357	14651.03
684.705	14617.81
685.053	14651.71
685.4	14629.78
685.748	14549.56
686.095	14620.97
686.443	14489.22
686.79	14516.79
687.138	14539.17
687.485	14572.16
687.832	14467.3
688.18	14478.15
688.527	14441.99
688.874	14434.54
689.221	14396.34
689.568	14400.41
689.915	14274.99
690.262	14326.74
690.609	14325.16
690.956	14278.83
691.303	14212.62
691.65	14269.34
691.997	14233.41
692.344	14155.22
692.69	14162.45
693.037	14180.31
693.383	14032.96
693.73	14107.09
694.077	13946.19
694.423	14037.26
694.769	13919.52
695.116	13956.81
695.462	13969.46
695.808	13945.28
696.155	13926.3
696.501	13880.43
696.847	13802.46
697.193	13811.95
697.539	13738.73
697.885	13760.88
698.231	13678.4
698.577	13632.75
698.923	13695.57
699.269	13609.7
699.614	13540.55
699.96	13534.45
700.306	13511.17
700.651	13477.27
700.997	13448.8
701.342	13416.26
701.688	13392.08
702.033	13353.89
702.379	13401.12
702.724	13285.64
703.069	13373.09
703.415	13215.81
703.76	13219.2
704.105	13220.78
704.45	13143.5
704.795	13124.51
705.14	13050.17
705.485	13106.44
705.83	13055.59
706.175	13055.59
706.52	13022.14
706.865	12964.97
707.209	12978.53
707.554	12966.55
707.899	12944.63
708.243	12877.29
708.588	12887.91
708.932	12758.42
709.277	12792.54
709.621	12846.1
709.966	12674.58
710.31	12718.87
710.654	12700.34
710.998	12635.04
711.342	12699.21
711.687	12656.73
712.031	12650.4
712.375	12645.2
712.719	12609.95
713.063	12577.18
713.407	12606.79
713.75	12560.01
714.094	12528.15
714.438	12485.21
714.782	12487.92
715.125	12503.97
715.469	12389.17
715.812	12433.01
716.156	12424.42
716.499	12430.29
716.843	12383.52
717.186	12355.04
717.53	12364.99
717.873	12396.85
718.216	12382.61
718.559	12301.71
718.902	12258.77
719.246	12272.33
719.589	12172.67
719.932	12166.57
720.275	12230.75
720.617	12166.35
720.96	12134.71
721.303	12155.73
721.646	12186.46
721.989	12098.1
722.331	12162.96
722.674	12117.76
723.016	12162.96
723.359	12142.17
723.701	12114.37
724.044	12007.25
724.386	11992.57
724.729	12087.48
725.071	12044.09
725.413	11988.5
725.755	11991.44
726.097	11933.13
726.439	11939.23
726.782	12015.39
727.124	12021.94
727.465	11930.42
727.807	11910.08
728.149	11852.23
728.491	11889.97
728.833	11902.4
729.175	11865.11
729.516	11885.22
729.858	11837.77
730.199	11833.25
730.541	11809.52
730.882	11806.13
731.224	11830.31
731.565	11723.65
731.906	11831.89
732.248	11841.61
732.589	11758
732.93	11706.25
733.271	11730.43
733.612	11739.92
733.953	11741.5
734.294	11740.14
734.635	11715.06
734.976	11737.66
735.317	11706.7
735.658	11695.62
735.999	11686.59
736.339	11694.49
736.68	11747.15
737.021	11686.59
737.361	11661.95
737.702	11720.03
738.042	11658.56
738.383	11638
738.723	11747.15
739.063	11573.82
739.404	11660.15
739.744	11645.68
740.084	11651.56
740.424	11609.07
740.764	11599.13
741.104	11639.81
741.444	11592.8
741.784	11501.73
742.124	11537.21
742.464	11581.28
742.804	11524.56
743.143	11431.9
743.483	11562.97
743.823	11528.17
744.162	11450.89
744.502	11586.93
744.841	11458.57
745.181	11498.34
745.52	11485.69
745.86	11446.37
746.199	11496.99
746.538	11491.34
746.877	11463.09
747.216	11463.31
747.556	11477.1
747.895	11493.37
748.234	11401.17
748.573	11344.22
748.911	11385.35
749.25	11321.85
749.589	11313.94
749.928	11300.15
750.267	11352.13
750.605	11329.31
750.944	11235.52
751.283	11293.15
751.621	11364.56
751.96	11251.57
752.298	11224.9
752.636	11175.64
752.975	11282.75
753.313	11229.42
753.651	11214.96
753.989	11183.55
754.327	11126.83
754.666	11080.05
755.004	11149.2
755.342	11236.65
755.679	11187.62
756.017	11101.97
756.355	11144
756.693	11144.68
757.031	11111.01
757.368	10995.53
757.706	11071.23
758.044	11057.68
758.381	10958.69
758.719	11043.44
759.056	10991.24
759.394	10959.82
759.731	10965.02
760.068	10869.21
760.405	10852.48
760.743	10819.04
761.08	10822.2
761.417	10845.48
761.754	10771.58
762.091	10752.37
762.428	10820.39
762.765	10677.12
763.102	10752.6
763.438	10676.89
763.775	10599.38
764.112	10635.54
764.449	10698.36
764.785	10590.57
765.122	10532.27
765.458	10581.76
765.795	10427.86
766.131	10511.02
766.467	10471.02
766.804	10473.96
767.14	10367.75
767.476	10372.04
767.812	10365.04
768.148	10320.07
768.485	10292.05
768.821	10305.83
769.157	10256.34
769.492	10163.91
769.828	10255.66
770.164	10135.67
770.5	10154.87
770.836	10158.04
771.171	10004.14
771.507	10107.64
771.842	9961.43
772.178	10026.97
772.513	9920.76
772.849	9989.68
773.184	9925.5
773.519	9955.78
773.855	9891.6
774.19	9822
774.525	9812.96
774.86	9779.97
775.195	9768.22
775.53	9715.11
775.865	9623.14
776.2	9649.8
776.535	9605.96
776.87	9576.36
777.205	9549.92
777.539	9493.87
777.874	9531.39
778.209	9466.3
778.543	9434.67
778.878	9361.67
779.212	9423.37
779.547	9241
779.881	9341.34
780.215	9277.61
780.55	9337.72
780.884	9191.28
781.218	9221.34
781.552	9178.85
781.886	9128.69
782.22	9145.41
782.554	9013.44
782.888	9015.02
783.222	8998.07
783.556	8918.07
783.889	8992.87
784.223	8896.15
784.557	8831.29
784.89	8923.04
785.224	8883.04
785.557	8837.17
785.891	8750.39
786.224	8767.79
786.558	8768.47
786.891	8656.61
787.224	8621.58
787.557	8615.03
787.891	8659.55
788.224	8665.42
788.557	8679.21
788.89	8644.86
789.223	8547.68
789.556	8546.1
789.888	8491.87
790.221	8478.99
790.554	8335.04
790.887	8408.71
791.219	8328.71
791.552	8352.44
791.884	8342.72
792.217	8392.66
792.549	8281.7
792.882	8280.35
793.214	8188.6
793.546	8208.48
793.879	8175.49
794.211	8137.3
794.543	8158.09
794.875	8080.8
795.207	8135.49
795.539	8031.31
795.871	8094.14
796.203	7954.25
796.535	7958.32
796.867	8008.94
797.198	7949.28
797.53	7995.16
797.862	7948.15
798.193	7912
798.525	7849.85
798.856	7881.94
799.188	7725.33
799.519	7741.83
799.85	7698.44
800.182	7692.34
800.513	7739.12
800.844	7675.62
801.175	7711.77
801.506	7736.86
801.837	7716.07
802.168	7597.65
802.499	7638.56
802.83	7550.65
803.161	7572.8
803.491	7555.85
803.822	7552.91
804.153	7505
804.483	7413.93
804.814	7387.04
805.145	7436.3
805.475	7435.85
805.805	7350.88
806.136	7467.04
806.466	7368.73
806.796	7412.57
807.126	7283.76
807.457	7294.16
807.787	7319.02
808.117	7302.52
808.447	7233.6
808.777	7283.31
809.107	7255.06
809.436	7240.15
809.766	7185.46
810.096	7127.38
810.426	7109.3
810.755	7163.54
811.085	7140.04
811.414	7089.87
811.744	7075.86
812.073	7075.41
812.403	7099.81
812.732	7028.63
813.061	7019.82
813.39	6954.73
813.719	6940.5
814.049	7039.93
814.378	6974.39
814.707	6947.95
815.036	6965.13
815.365	6927.39
815.693	6907.28
816.022	6857.56
816.351	6842.19
816.68	6815.3
817.008	6808.52
817.337	6780.05
817.665	6781.4
817.994	6808.52
818.322	6765.81
818.651	6711.12
818.979	6698.02
819.307	6721.52
819.636	6759.03
819.964	6658.47
820.292	6761.74
820.62	6680.39
820.948	6746.83
821.276	6711.35
821.604	6714.96
821.932	6706.38
822.259	6666.6
822.587	6700.73
822.915	6660.5
823.243	6698.47
823.57	6689.2
823.898	6701.86
824.225	6635.87
824.553	6719.48
824.88	6670.9
825.207	6696.21
825.535	6673.38
825.862	6702.76
826.189	6709.99
826.516	6682.65
826.843	6711.57
827.17	6613.72
827.497	6660.95
827.824	6684.01
828.151	6709.99
828.478	6675.64
828.805	6723.1
829.131	6692.37
829.458	6654.18
829.785	6663.44
830.111	6681.52
830.438	6688.3
830.764	6679.71
831.09	6680.62
831.417	6621.41
831.743	6728.75
832.069	6630.9
832.395	6642.2
832.722	6646.94
833.048	6624.57
833.374	6681.97
833.7	6617.34
834.026	6649.88
834.351	6608.98
834.677	6684.91
835.003	6608.98
835.329	6582.76
835.654	6644.46
835.98	6587.06
836.306	6626.15
836.631	6585.25
836.956	6595.87
837.282	6603.1
837.607	6565.36
837.932	6539.83
838.258	6531.24
838.583	6529.43
838.908	6484.01
839.233	6552.03
839.558	6483.78
839.883	6515.42
840.208	6520.85
840.533	6500.51
840.858	6458.25
841.182	6527.17
841.507	6457.34
841.832	6459.15
842.156	6484.46
842.481	6413.73
842.805	6395.43
843.13	6361.08
843.454	6378.93
843.778	6384.35
844.103	6355.2
844.427	6311.13
844.751	6347.29
845.075	6314.3
845.399	6266.84
845.723	6277.91
846.047	6251.7
846.371	6210.8
846.695	6206.28
847.019	6159.95
847.343	6165.6
847.666	6114.08
847.99	6075.43
848.313	6078.37
848.637	6079.95
848.96	6062.1
849.284	6019.84
849.607	5985.04
849.931	5982.55
850.254	5929.22
850.577	5934.65
850.9	5853.97
851.223	5883.12
851.546	5844.25
851.869	5804.48
852.192	5847.19
852.515	5807.19
852.838	5764.03
853.161	5814.2
853.483	5744.82
853.806	5758.15
854.129	5677.93
854.451	5679.29
854.774	5699.62
855.096	5666.63
855.419	5675.67
855.741	5609.46
856.063	5599.97
856.385	5612.17
856.708	5617.82
857.03	5547.31
857.352	5557.93
857.674	5579.18
857.996	5529.91
858.318	5461.44
858.64	5499.86
858.961	5491.49
859.283	5503.7
859.605	5418.05
859.926	5451.72
860.248	5384.6
860.57	5376.92
860.891	5427.99
861.212	5401.55
861.534	5362.01
861.855	5351.38
862.176	5352.51
862.498	5357.49
862.819	5354.1
863.14	5328.33
863.461	5320.65
863.782	5272.74
864.103	5319.3
864.424	5305.51
864.745	5284.49
865.065	5312.52
865.386	5248.79
865.707	5305.28
866.027	5282.01
866.348	5270.03
866.668	5234.1
866.989	5229.58
867.309	5195.46
867.63	5231.84
867.95	5202.69
868.27	5212.63
868.59	5150.49
868.91	5226.19
869.23	5170.6
869.55	5173.99
869.87	5187.55
870.19	5155.23
870.51	5177.38
870.83	5164.05
871.15	5189.81
871.469	5142.12
871.789	5151.84
872.109	5171.73
872.428	5083.82
872.748	5087.21
873.067	5145.29
873.386	5096.25
873.706	5113.65
874.025	5073.2
874.344	5013.99
874.663	5115.23
874.982	5013.31
875.301	5054.22
875.62	5028.91
875.939	4994.56
876.258	5005.41
876.577	5003.6
876.896	5022.81
877.214	4998.63
877.533	4972.64
877.852	5021.22
878.17	4943.26
878.489	4984.16
878.807	5003.15
879.125	4949.36
879.444	4999.98
879.762	4977.84
880.08	4965.41
880.398	4948.68
880.716	4929.25
881.034	4924.73
881.352	4909.14
881.67	4881.79
881.988	4844.28
882.306	4853.09
882.624	4894.67
882.941	4870.49
883.259	4835.92
883.577	4855.35
883.894	4856.03
884.212	4847.67
884.529	4796.82
884.846	4838.4
885.164	4790.04
885.481	4756.6
885.798	4806.09
886.115	4724.51
886.432	4797.05
886.75	4777.16
887.067	4763.83
887.383	4761.12
887.7	4739.42
888.017	4705.75
888.334	4686.09
888.651	4714.79
888.967	4687.22
889.284	4694
889.6	4682.02
889.917	4598.64
890.233	4612.2
890.55	4637.05
890.866	4634.79
891.182	4564.74
891.498	4595.25
891.815	4614.45
892.131	4586.66
892.447	4529.49
892.763	4513.44
893.079	4507.34
893.395	4519.77
893.71	4467.11
894.026	4508.24
894.342	4497.62
894.657	4466.89
894.973	4464.18
895.289	4402.48
895.604	4476.83
895.92	4345.54
896.235	4364.29
896.55	4381.01
896.865	4360
897.181	4319.77
897.496	4343.5
897.811	4329.72
898.126	4295.82
898.441	4334.01
898.756	4290.85
899.071	4217.86
899.386	4289.72
899.7	4255.82
900.015	4214.24
900.33	4175.82
900.644	4181.7
900.959	4213.56
901.273	4162.49
901.588	4154.58
901.902	4126.11
902.216	4128.37
902.531	4120.91
902.845	4095.37
903.159	4068.71
903.473	4109.61
903.787	4069.84
904.101	4007.69
904.415	4025.54
904.729	4018.76
905.042	3960.01
905.356	4022.38
905.67	3979.9
905.984	4022.15
906.297	4012.89
906.611	3938.09
906.924	3969.5
907.237	3940.12
907.551	3939.67
907.864	3933.12
908.177	3914.59
908.491	3891.31
908.804	3863.97
909.117	3825.55
909.43	3846.79
909.743	3833.91
910.056	3806.34
910.368	3790.97
910.681	3759.11
910.994	3753.91
911.307	3748.49
911.619	3735.38
911.932	3716.63
912.244	3724.53
912.557	3721.37
912.869	3658.77
913.181	3666.23
913.494	3624.88
913.806	3645.21
914.118	3613.35
914.43	3602.73
914.742	3607.25
915.054	3562.96
915.366	3593.92
915.678	3560.92
915.99	3571.32
916.302	3521.83
916.613	3521.83
916.925	3505.11
917.236	3492.45
917.548	3502.39
917.859	3488.61
918.171	3468.27
918.482	3452.23
918.794	3399.35
919.105	3409.06
919.416	3405.9
919.727	3431.66
920.038	3372
920.349	3305.34
920.66	3342.17
920.971	3348.5
921.282	3329.52
921.593	3301.95
921.903	3324.77
922.214	3281.38
922.525	3244.77
922.835	3231.21
923.146	3251.1
923.456	3232.57
923.767	3209.97
924.077	3204.77
924.387	3182.18
924.697	3177.43
925.008	3176.98
925.318	3193.93
925.628	3123.65
925.938	3133.36
926.248	3130.43
926.558	3106.92
926.867	3136.53
927.177	3093.82
927.487	3064.21
927.796	3019.02
928.106	3068.05
928.416	3062.41
928.725	3008.85
929.034	3005.23
929.344	3039.58
929.653	3018.56
929.962	2981.96
930.271	2973.37
930.581	2963.88
930.89	2925.23
931.199	2905.8
931.508	2908.74
931.817	2946.93
932.125	2917.78
932.434	2896.08
932.743	2878.23
933.051	2892.69
933.36	2823.32
933.669	2817.89
933.977	2842.75
934.286	2792.36
934.594	2839.59
934.902	2803.88
935.21	2800.27
935.519	2765.24
935.827	2771.34
936.135	2731.34
936.443	2747.61
936.751	2727.27
937.059	2725.47
937.367	2719.82
937.674	2696.09
937.982	2726.82
938.29	2686.37
938.597	2705.8
938.905	2682.53
939.213	2639.82
939.52	2649.76
939.827	2642.3
940.135	2626.71
940.442	2598.01
940.749	2603.89
941.056	2607.5
941.363	2594.17
941.67	2584.68
941.977	2554.17
942.284	2547.39
942.591	2524.57
942.898	2514.85
943.205	2513.72
943.511	2527.96
943.818	2518.24
944.125	2489.09
944.431	2472.14
944.738	2478.47
945.044	2471.23
945.35	2433.5
945.657	2438.24
945.963	2450.9
946.269	2422.42
946.575	2429.2
946.881	2409.77
947.187	2400.95
947.493	2415.19
947.799	2371.58
948.105	2389.2
948.41	2377.45
948.716	2341.07
949.022	2382.42
949.327	2358.7
949.633	2343.33
949.938	2328.64
950.244	2336.32
950.549	2312.37
950.854	2295.19
951.16	2231.47
951.465	2280.96
951.77	2255.87
952.075	2255.87
952.38	2218.59
952.685	2236.66
952.99	2219.72
953.294	2232.6
953.599	2223.56
953.904	2214.74
954.209	2188.3
954.513	2161.41
954.818	2154.86
955.122	2126.16
955.426	2158.7
955.731	2143.11
956.035	2136.55
956.339	2139.49
956.643	2115.09
956.948	2143.79
957.252	2084.58
957.556	2129.1
957.86	2100.62
958.163	2089.55
958.467	2085.71
958.771	2065.37
959.075	2045.48
959.378	2052.49
959.682	2037.35
959.985	2057.23
960.289	2027.86
960.592	2024.69
960.896	2021.08
961.199	1993.28
961.502	1996.44
961.805	1981.08
962.108	1993.05
962.411	1987.18
962.714	1946.95
963.017	1976.56
963.32	1965.49
963.623	1960.97
963.926	1960.29
964.228	1907.63
964.531	1901.98
964.833	1924.81
965.136	1915.77
965.438	1911.7
965.741	1880.29
966.043	1891.14
966.345	1884.13
966.648	1891.81
966.95	1877.13
967.252	1876.45
967.554	1855.21
967.856	1842.78
968.158	1875.77
968.46	1849.1
968.761	1846.84
969.063	1828.31
969.365	1811.14
969.666	1796.68
969.968	1796.9
970.269	1791.48
970.571	1777.47
970.872	1792.38
971.174	1765.49
971.475	1770.01
971.776	1770.69
972.077	1760.97
972.378	1727.53
972.679	1704.02
972.98	1711.03
973.281	1688.2
973.582	1686.17
973.883	1676.23
974.183	1706.06
974.484	1673.52
974.785	1675.1
975.085	1701.76
975.386	1665.38
975.686	1663.57
975.986	1659.96
976.287	1649.11
976.587	1645.72
976.887	1647.98
977.187	1605.95
977.487	1643.69
977.787	1629.45
978.087	1596.46
978.387	1605.72
978.687	1600.3
978.987	1595.33
979.286	1568.43
979.586	1628.54
979.885	1565.5
980.185	1586.51
980.484	1561.43
980.784	1566.63
981.083	1556.91
981.382	1551.26
981.682	1532.73
981.981	1526.17
982.28	1549
982.579	1513.75
982.878	1515.78
983.177	1490.24
983.475	1534.99
983.774	1494.31
984.073	1475.78
984.372	1486.85
984.67	1471.03
984.969	1473.75
985.267	1489.79
985.566	1461.32
985.864	1469.9
986.162	1453.63
986.461	1463.35
986.759	1437.59
987.057	1417.02
987.355	1447.31
987.653	1399.85
987.951	1440.08
988.249	1414.99
988.547	1399.62
988.844	1376.57
989.142	1419.51
989.44	1410.02
989.737	1385.61
990.035	1370.7
990.332	1364.14
990.63	1367.99
990.927	1372.73
991.224	1323.92
991.521	1355.11
991.819	1310.81
992.116	1350.13
992.413	1350.59
992.71	1356.24
993.006	1361.89
993.303	1319.4
993.6	1301.55
993.897	1307.2
994.193	1317.14
994.49	1280.76
994.787	1314.88
995.083	1269.23
995.379	1285.95
995.676	1277.14
995.972	1280.76
996.268	1241.89
996.565	1279.85
996.861	1255.67
997.157	1248.67
997.453	1253.87
997.749	1243.24
998.044	1210.48
998.34	1256.35
998.636	1198.95
998.932	1209.8
999.227	1218.16
999.523	1199.4
999.818	1230.14
1000.114	1205.28
1000.409	1190.36
1000.704	1198.5
1001	1189.01
1001.295	1172.74
1001.59	1193.53
1001.885	1172.96
1002.18	1171.61
1002.475	1158.95
1002.77	1168.44
1003.065	1160.08
1003.359	1149.01
1003.654	1122.57
1003.949	1163.92
1004.243	1121.44
1004.538	1107.43
1004.832	1112.4
1005.127	1098.62
1005.421	1088.45
1005.715	1104.26
1006.009	1089.12
1006.304	1088.67
1006.598	1082.57
1006.892	1050.25
1007.186	1080.54
1007.48	1069.69
1007.773	1085.06
1008.067	1048
1008.361	1060.42
1008.655	1050.03
1008.948	1042.35
1009.242	1065.17
1009.535	1045.51
1009.829	1045.28
1010.122	1035.11
1010.415	1008
1010.708	1057.94
1011.001	998.5
1011.295	1019.97
1011.588	1004.83
1011.881	991.05
1012.173	984.27
1012.466	998.73
1012.759	975.45
1013.052	986.53
1013.344	975.68
1013.637	949.01
1013.93	965.06
1014.222	973.87
1014.514	984.72
1014.807	964.16
1015.099	957.38
1015.391	944.72
1015.683	948.34
1015.976	925.51
1016.268	943.82
1016.56	930.26
1016.851	927.32
1017.143	906.08
1017.435	897.94
1017.727	880.54
1018.018	900.43
1018.31	908.56
1018.602	913.76
1018.893	903.14
1019.185	884.61
1019.476	884.38
1019.767	877.6
1020.058	869.69
1020.35	850.71
1020.641	859.53
1020.932	834.67
1021.223	859.98
1021.514	832.63
1021.804	838.06
1022.095	813.42
1022.386	809.13
1022.677	822.46
1022.967	813.42
1023.258	832.86
1023.548	801.45
1023.839	809.13
1024.129	808.23
1024.419	777.95
1024.709	811.39
1025	802.8
1025.29	800.77
1025.58	795.35
1025.87	793.54
1026.16	793.31
1026.449	784.95
1026.739	782.92
1027.029	770.49
1027.319	763.48
1027.608	762.58
1027.898	762.58
1028.187	747.66
1028.477	735.69
1028.766	742.01
1029.055	761.67
1029.344	742.01
1029.634	722.35
1029.923	708.79
1030.212	714.22
1030.501	736.82
1030.79	732.98
1031.078	707.67
1031.367	707.67
1031.656	703.37
1031.945	704.28
1032.233	709.25
1032.522	691.62
1032.81	665.18
1033.099	681.68
1033.387	695.24
1033.675	671.28
1033.963	681.45
1034.251	674.9
1034.54	696.82
1034.828	670.38
1035.116	671.73
1035.403	668.8
1035.691	674.67
1035.979	665.41
1036.267	669.7
1036.554	651.85
1036.842	652.53
1037.129	651.85
1037.417	642.81
1037.704	668.12
1037.992	636.03
1038.279	626.54
1038.566	631.51
1038.853	631.51
1039.14	631.51
