Data from cardboard_FLMS001491_059.txt Node
Date: Tue Feb 07 11:39:45 GMT 2017
User: dcchb
Spectrometer: FLMS00149
Trigger mode: 0
Integration Time (sec): 2.000000E-2
Scans to average: 10
Electric dark correction enabled: true
Nonlinearity correction enabled: false
Boxcar width: 0
XAxis mode: Wavelengths
Number of Pixels in Spectrum: 2048
>>>>>Begin Spectral Data<<<<<
341.393	-12.53
341.776	-12.53
342.16	-12.53
342.543	-69.25
342.927	-64.5
343.31	-77.84
343.693	-64.5
344.077	-52.98
344.46	-68.57
344.843	-51.4
345.226	-52.53
345.61	-43.04
345.993	-16.82
346.376	-1
346.759	25.44
347.142	51.65
347.525	35.38
347.908	64.76
348.291	86
348.674	75.61
349.057	89.84
349.44	152.21
349.823	143.4
350.206	163.74
350.588	204.19
350.971	200.8
351.354	233.57
351.737	244.41
352.119	257.3
352.502	250.06
352.884	271.31
353.267	280.12
353.65	287.8
354.032	306.56
354.414	315.6
354.797	317.18
355.179	321.93
355.562	329.61
355.944	312.89
356.326	332.1
356.709	328.48
357.091	346.11
357.473	338.65
357.855	316.5
358.238	331.64
358.62	323.73
359.002	333.9
359.384	325.32
359.766	336.39
360.148	332.1
360.53	338.42
360.912	325.99
361.294	327.35
361.676	336.84
362.057	333.23
362.439	336.62
362.821	338.2
363.203	335.26
363.584	331.64
363.966	315.37
364.348	321.47
364.729	332.77
365.111	323.28
365.493	313.79
365.874	317.41
366.256	301.59
366.637	298.2
367.019	337.97
367.4	316.05
367.781	309.95
368.163	309.05
368.544	335.26
368.925	311.76
369.306	320.8
369.688	320.12
370.069	299.78
370.45	327.58
370.831	330.06
371.212	320.34
371.593	298.42
371.974	311.31
372.355	314.24
372.736	328.25
373.117	315.6
373.498	298.88
373.879	314.92
374.26	314.02
374.641	306.79
375.021	317.41
375.402	310.18
375.783	320.8
376.163	332.55
376.544	302.72
376.925	341.36
377.305	324.41
377.686	320.8
378.066	329.16
378.447	304.3
378.827	324.86
379.208	326.67
379.588	327.35
379.968	311.08
380.349	308.37
380.729	346.33
381.109	333.9
381.489	344.52
381.87	327.58
382.25	321.02
382.63	340.46
383.01	335.03
383.39	334.13
383.77	318.76
384.15	339.78
384.53	361.25
384.91	335.94
385.29	325.99
385.67	367.35
386.049	367.8
386.429	338.42
386.809	372.09
387.189	344.75
387.568	332.77
387.948	338.88
388.328	344.07
388.707	349.04
389.087	346.56
389.466	352.21
389.846	346.11
390.225	357.63
390.605	338.65
390.984	359.67
391.363	358.54
391.743	348.82
392.122	354.24
392.501	354.02
392.881	355.6
393.26	354.24
393.639	363.06
394.018	363.06
394.397	377.52
394.776	373.9
395.155	376.16
395.534	361.02
395.913	345.43
396.292	375.71
396.671	376.16
397.05	361.93
397.429	385.88
397.808	373.68
398.186	378.87
398.565	373.9
398.944	381.81
399.323	388.59
399.701	395.37
400.08	404.64
400.458	376.39
400.837	401.7
401.215	407.57
401.594	381.81
401.972	395.37
402.351	395.14
402.729	378.87
403.107	403.51
403.486	403.51
403.864	408.25
404.242	413.9
404.62	406.67
404.999	406.44
405.377	390.17
405.755	426.33
406.133	415.03
406.511	421.36
406.889	418.2
407.267	425.65
407.645	430.85
408.023	434.01
408.401	438.99
408.779	429.27
409.156	426.56
409.534	433.56
409.912	445.09
410.29	431.98
410.667	445.77
411.045	443.05
411.422	447.8
411.8	438.08
412.178	461.36
412.555	478.53
412.933	467.69
413.31	454.13
413.687	458.87
414.065	476.95
414.442	475.82
414.819	467.23
415.197	482.6
415.574	497.29
415.951	488.48
416.328	488.48
416.705	488.7
417.082	476.5
417.46	471.08
417.837	499.77
418.214	528.7
418.591	510.62
418.967	510.17
419.344	501.36
419.721	501.13
420.098	492.09
420.475	534.8
420.852	515.59
421.228	528.93
421.605	533.22
421.982	535.71
422.358	543.39
422.735	521.92
423.111	537.51
423.488	537.51
423.864	531.19
424.241	559.43
424.617	535.48
424.994	550.85
425.37	548.81
425.746	575.93
426.123	560.11
426.499	585.42
426.875	570.06
427.251	599.66
427.627	590.39
428.003	592.43
428.379	594.24
428.756	573.9
429.132	615.93
429.507	611.18
429.883	598.08
430.259	630.17
430.635	629.04
431.011	620.9
431.387	608.25
431.763	643.95
432.138	646.89
432.514	643.27
432.89	662.71
433.265	669.94
433.641	684.4
434.016	658.64
434.392	682.14
434.767	681.01
435.143	685.53
435.518	696.61
435.894	698.19
436.269	702.93
436.644	705.87
437.02	682.6
437.395	711.75
437.77	727.34
438.145	718.75
438.52	729.6
438.895	713.78
439.271	716.94
439.646	743.16
440.021	759.2
440.395	751.29
440.77	740.45
441.145	763.95
441.52	744.29
441.895	755.14
442.27	758.75
442.645	775.47
443.019	769.82
443.394	783.84
443.769	779.09
444.143	777.73
444.518	787.9
444.892	776.6
445.267	813.21
445.641	823.16
446.016	796.49
446.39	847.34
446.764	803.72
447.139	817.96
447.513	835.13
447.887	830.16
448.262	833.55
448.636	824.29
449.01	864.96
449.384	853.89
449.758	843.49
450.132	881.01
450.506	860.22
450.88	864.96
451.254	870.61
451.628	902.7
452.002	868.13
452.376	932.53
452.75	889.82
453.123	902.25
453.497	936.6
453.871	930.05
454.244	941.8
454.618	955.13
454.992	945.41
455.365	983.6
455.739	968.46
456.112	1004.39
456.486	975.47
456.859	987.9
457.232	1002.36
457.606	1024.05
457.979	1017.05
458.352	1066.77
458.725	1051.62
459.099	1041
459.472	1071.51
459.845	1077.84
460.218	1103.15
460.591	1107.67
460.964	1114.67
461.337	1138.63
461.71	1165.52
462.083	1156.93
462.456	1133.2
462.829	1170.04
463.201	1179.98
463.574	1164.84
463.947	1227.21
464.32	1226.76
464.692	1209.36
465.065	1244.16
465.438	1247.1
465.81	1269.7
466.183	1262.01
466.555	1305.4
466.928	1317.38
467.3	1284.84
467.672	1307.66
468.045	1335.01
468.417	1346.08
468.789	1352.18
469.161	1373.2
469.534	1378.62
469.906	1423.14
470.278	1426.53
470.65	1451.61
471.022	1495.46
471.394	1504.49
471.766	1501.33
472.138	1546.3
472.51	1539.97
472.882	1539.07
473.253	1604.6
473.625	1621.1
473.997	1621.33
474.369	1620.88
474.74	1651.84
475.112	1691.38
475.484	1709.46
475.855	1749.46
476.227	1769.35
476.598	1795.33
476.97	1779.52
477.341	1819.74
477.713	1855.22
478.084	1859.29
478.455	1907.65
478.827	1920.98
479.198	1973.18
479.569	1992.84
479.94	2044.14
480.311	2039.4
480.682	2097.25
481.053	2153.29
481.424	2153.97
481.795	2192.61
482.166	2247.98
482.537	2255.66
482.908	2306.73
483.279	2337.47
483.65	2354.64
484.021	2419.27
484.391	2462.89
484.762	2454.07
485.133	2490.01
485.503	2526.16
485.874	2589.89
486.244	2611.13
486.615	2642.77
486.985	2672.6
487.356	2710.34
487.726	2760.73
488.097	2797.34
488.467	2810
488.837	2875.31
489.207	2894.51
489.578	2961.86
489.948	2978.81
490.318	2998.92
490.688	3045.7
491.058	3139.48
491.428	3136.54
491.798	3197.11
492.168	3240.49
492.538	3248.4
492.908	3308.74
493.278	3361.85
493.648	3360.26
494.017	3379.02
494.387	3436.19
494.757	3470.54
495.126	3500.37
495.496	3561.62
495.866	3546.93
496.235	3656.3
496.605	3666.47
496.974	3680.93
497.344	3720.48
497.713	3802.74
498.082	3796.86
498.452	3861.49
498.821	3799.8
499.19	3906.47
499.559	3892.91
499.928	3931.1
500.298	4020.81
500.667	4056.97
501.036	4074.37
501.405	4114.37
501.774	4102.17
502.143	4144.65
502.512	4245.44
502.88	4232.11
503.249	4279.79
503.618	4326.79
503.987	4339.22
504.356	4386.68
504.724	4397.07
505.093	4451.08
505.462	4446.79
505.83	4484.98
506.199	4592.55
506.567	4633.45
506.936	4638.65
507.304	4698.31
507.672	4764.75
508.041	4756.61
508.409	4838.64
508.777	4840.9
509.145	4900.56
509.514	4923.61
509.882	4986.44
510.25	4984.85
510.618	5063.27
510.986	5115.02
511.354	5110.28
511.722	5159.99
512.09	5217.84
512.458	5224.85
512.826	5312.53
513.193	5318.86
513.561	5378.74
513.929	5463.03
514.297	5544.16
514.664	5526.54
515.032	5559.98
515.4	5632.3
515.767	5686.31
516.135	5712.29
516.502	5726.53
516.869	5848.11
517.237	5920.42
517.604	5880.88
517.972	5991.61
518.339	6037.03
518.706	6065.28
519.073	6107.99
519.44	6175.33
519.808	6279.51
520.175	6287.42
520.542	6369.23
520.909	6395.44
521.276	6438.83
521.643	6548.2
522.009	6583.68
522.376	6618.26
522.743	6688.99
523.11	6766.5
523.477	6898.25
523.843	6942.32
524.21	6950.23
524.577	7055.76
524.943	7146.83
525.31	7156.55
525.676	7252.37
526.043	7311.57
526.409	7389.54
526.776	7460.04
527.142	7506.82
527.508	7591.11
527.874	7626.37
528.241	7705.01
528.607	7764.67
528.973	7886.47
529.339	7938.22
529.705	7968.05
530.071	8066.36
530.437	8099.12
530.803	8201.95
531.169	8220.93
531.535	8333.47
531.901	8371.88
532.267	8404.43
532.632	8482.16
532.998	8500.24
533.364	8576.17
533.73	8692.1
534.095	8789.05
534.461	8740.24
534.826	8842.83
535.192	8896.84
535.557	9006.22
535.923	8974.58
536.288	9047.57
536.653	9083.5
537.019	9070.62
537.384	9170.28
537.749	9246.21
538.114	9302.71
538.479	9376.83
538.845	9405.08
539.21	9434.68
539.575	9463.83
539.94	9583.38
540.305	9635.81
540.67	9629.48
541.034	9728.01
541.399	9859.53
541.764	9863.37
542.129	9888.45
542.494	9962.58
542.858	10007.55
543.223	9994.89
543.587	10203.25
543.952	10146.3
544.316	10197.83
544.681	10258.61
545.045	10334.77
545.41	10407.54
545.774	10427.65
546.138	10523.24
546.503	10566.85
546.867	10593.75
547.231	10677.59
547.595	10702.22
547.959	10789
548.324	10791.93
548.688	10914.19
549.052	10977.24
549.416	11042.32
549.779	11011.36
550.143	11130.46
550.507	11189.66
550.871	11321.64
551.235	11226.5
551.599	11378.81
551.962	11454.06
552.326	11456.32
552.689	11600.27
553.053	11641.63
553.417	11663.78
553.78	11793.04
554.143	11712.59
554.507	11873.26
554.87	11941.96
555.234	12093.82
555.597	12075.74
555.96	12128.4
556.323	12188.51
556.686	12182.63
557.05	12372.68
557.413	12417.65
557.776	12538.33
558.139	12603.86
558.502	12552.34
558.865	12738.32
559.228	12790.3
559.59	12878.88
559.953	12951.88
560.316	13026.68
560.679	13112.32
561.041	13162.49
561.404	13273.68
561.767	13379.66
562.129	13361.81
562.492	13565.87
562.854	13578.53
563.217	13581.24
563.579	13717.96
563.941	13784.62
564.304	13849.25
564.666	14022.81
565.028	13990.72
565.39	14068.23
565.753	14226.87
566.115	14303.48
566.477	14323.14
566.839	14444.49
567.201	14543.93
567.563	14587.31
567.925	14707.99
568.287	14696.92
568.648	14759.06
569.01	14870.02
569.372	14987.3
569.734	14970.13
570.095	15094.65
570.457	15146.85
570.819	15219.84
571.18	15300.97
571.542	15346.62
571.903	15444.47
572.265	15484.24
572.626	15533.28
572.987	15533.96
573.349	15749.77
573.71	15785.93
574.071	15859.37
574.432	15897.34
574.794	16109.99
575.155	16003.55
575.516	15986.6
575.877	16121.06
576.238	16166.48
576.599	16294.61
576.96	16315.63
577.32	16345.91
577.681	16507.94
578.042	16574.83
578.403	16552.23
578.763	16592.23
579.124	16627.49
579.485	16712.23
579.845	16854.6
580.206	16857.99
580.566	16727.14
580.927	16911.55
581.287	16944.77
581.648	16916.07
582.008	17104.08
582.368	17013.01
582.728	17169.17
583.089	17093.24
583.449	17082.16
583.809	17144.54
584.169	17192.44
584.529	17337.52
584.889	17435.6
585.249	17321.03
585.609	17265.44
585.969	17458.2
586.329	17426.11
586.688	17416.17
587.048	17441.93
587.408	17517.63
587.768	17554.02
588.127	17496.84
588.487	17540.68
588.846	17710.62
589.206	17586.33
589.565	17604.41
589.925	17791.52
590.284	17679.44
590.643	17702.03
591.003	17782.94
591.362	17937.96
591.721	17844.18
592.08	17848.7
592.44	17982.71
592.799	18036.49
593.158	17961.24
593.517	18012.31
593.876	18016.15
594.235	18047.56
594.593	17956.27
594.952	18120.1
595.311	18071.97
595.67	18102.93
596.029	18290.72
596.387	18262.47
596.746	18322.36
597.104	18237.16
597.463	18249.82
597.822	18415.24
598.18	18384.5
598.538	18379.98
598.897	18462.24
599.255	18375.92
599.613	18601.67
599.972	18537.94
600.33	18647.09
600.688	18608.45
601.046	18713.08
601.404	18727.32
601.762	18787.66
602.12	18856.35
602.478	18858.61
602.836	18899.29
603.194	18827.88
603.552	18893.19
603.91	18814.55
604.268	18884.15
604.625	18863.81
604.983	18951.95
605.341	18887.99
605.698	19087.08
606.056	19120.3
606.413	19104.94
606.771	19227.87
607.128	19178.61
607.485	19184.71
607.843	19211.83
608.2	19387.87
608.557	19406.85
608.914	19442.33
609.272	19430.58
609.629	19474.42
609.986	19569.56
610.343	19519.16
610.7	19709.67
611.057	19579.5
611.414	19626.73
611.771	19828.31
612.127	19786.27
612.484	19896.78
612.841	19796.89
613.198	19746.95
613.554	19833.96
613.911	19948.98
614.267	20004.8
614.624	19924.12
614.98	20043.67
615.337	20132.93
615.693	20131.58
616.05	20092.03
616.406	20278.92
616.762	20234.4
617.118	20265.36
617.475	20258.58
617.831	20336.32
618.187	20388.52
618.543	20392.81
618.899	20493.37
619.255	20492.02
619.611	20489.98
619.967	20655.4
620.323	20642.3
620.678	20583.99
621.034	20576.54
621.39	20567.5
621.746	20604.33
622.101	20848.39
622.457	20617.44
622.812	20713.71
623.168	20764.33
623.523	20842.29
623.879	20877.54
624.234	20784.89
624.589	20793.25
624.945	20829.86
625.3	20910.54
625.655	20903.98
626.01	20788.28
626.365	20927.71
626.72	20900.82
627.075	20939.46
627.43	20985.56
627.785	20823.53
628.14	20965.9
628.495	20982.85
628.85	20950.99
629.205	20939.69
629.559	20999.57
629.914	21087.48
630.269	20988.95
630.623	21027.6
630.978	21025.34
631.332	21072.12
631.687	21057.2
632.041	21021.5
632.396	21013.81
632.75	21023.76
633.104	21123.87
633.459	21010.87
633.813	20976.98
634.167	20892.01
634.521	20978.78
634.875	21065.34
635.229	20996.41
635.583	20896.07
635.937	20913.48
636.291	20964.32
636.645	21047.03
636.999	20861.27
637.352	20910.09
637.706	20886.13
638.06	20904.21
638.413	21009.07
638.767	20840.26
639.121	20863.53
639.474	20852.46
639.828	20830.77
640.181	20917.32
640.534	20866.7
640.888	20753.03
641.241	20780.6
641.594	20784.67
641.947	20884.32
642.301	20823.31
642.654	20832.12
643.007	20885.68
643.36	20763.2
643.713	20727.49
644.066	20862.18
644.419	20670.09
644.771	20600.26
645.124	20385.35
645.477	20388.07
645.83	20308.52
646.182	20251.12
646.535	20204.34
646.888	20336.54
647.24	20143.78
647.593	20251.12
647.945	20180.16
648.298	20160.5
648.65	20080.73
649.002	20081.41
649.355	20172.25
649.707	20256.32
650.059	20274.85
650.411	20495.18
650.763	20458.57
651.115	20764.55
651.467	20699.7
651.819	20748.73
652.171	20622.18
652.523	20593.03
652.875	20662.41
653.227	20584.22
653.578	20650.88
653.93	20682.75
654.282	20611.56
654.633	20544.45
654.985	20601.17
655.337	20612.92
655.688	20620.38
656.039	20678.68
656.391	20601.39
656.742	20659.47
657.094	20570.21
657.445	20720.49
657.796	20631.68
658.147	20634.16
658.498	20636.87
658.849	20612.92
659.2	20633.26
659.551	20580.6
659.902	20652.92
660.253	20763.2
660.604	20685.91
660.955	20671
661.306	20700.37
661.656	20683.65
662.007	20672.58
662.358	20741.73
662.708	20684.33
663.059	20582.86
663.409	20490.21
663.76	20769.75
664.11	20702.41
664.461	20837.55
664.811	20803.87
665.161	20765.68
665.511	20706.02
665.862	20749.86
666.212	20681.39
666.562	20784.67
666.912	20775.4
667.262	20658.57
667.612	20709.19
667.962	20798.22
668.312	20722.07
668.662	20846.36
669.011	20754.61
669.361	20740.15
669.711	20751.22
670.06	20719.58
670.41	20649.98
670.76	20733.59
671.109	20717.32
671.459	20762.29
671.808	20726.81
672.157	20677.1
672.507	20649.08
672.856	20707.61
673.205	20700.37
673.554	20754.38
673.904	20604.78
674.253	20743.31
674.602	20714.61
674.951	20375.18
675.3	20387.16
675.649	20654.5
675.998	20770.65
676.346	20605.24
676.695	20701.96
677.044	20618.57
677.393	20588.51
677.741	20651.34
678.09	20541.96
678.438	20596.87
678.787	20615.86
679.135	20664.44
679.484	20575.63
679.832	20689.53
680.181	20542.41
680.529	20577.67
680.877	20479.14
681.225	20452.24
681.573	20602.98
681.922	20467.61
682.27	20432.36
682.618	20398.01
682.966	20427.84
683.314	20343.32
683.661	20372.7
684.009	20344.9
684.357	20174.74
684.705	20202.53
685.053	20305.81
685.4	20295.86
685.748	20221.06
686.095	20148.75
686.443	20147.85
686.79	20082.54
687.138	20018.81
687.485	20188.75
687.832	20016.55
688.18	20135.19
688.527	20047.51
688.874	20051.13
689.221	19984.46
689.568	19918.25
689.915	19857.01
690.262	19812.49
690.609	19893.62
690.956	19834.86
691.303	19770.23
691.65	19651.14
691.997	19691.59
692.344	19582.44
692.69	19537.24
693.037	19559.61
693.383	19376.57
693.73	19461.76
694.077	19437.81
694.423	19389.9
694.769	19274.2
695.116	19387.64
695.462	19331.82
695.808	19273.74
696.155	19226.29
696.501	19087.08
696.847	19109.23
697.193	18979.74
697.539	19116.46
697.885	18898.61
698.231	18937.93
698.577	18996.92
698.923	18789.69
699.269	18855.68
699.614	18826.52
699.96	18787.88
700.306	18850.03
700.651	18700.43
700.997	18561.9
701.342	18685.06
701.688	18544.27
702.033	18463.37
702.379	18453.65
702.724	18428.8
703.069	18496.36
703.415	18229.48
703.76	18236.71
704.105	18321
704.45	18318.06
704.795	18145.64
705.14	18081.23
705.485	18125.07
705.83	18013.21
706.175	18134.79
706.52	17968.24
706.865	17982.71
707.209	17938.86
707.554	17906.77
707.899	17977.96
708.243	17838.08
708.588	17767.12
708.932	17740
709.277	17687.8
709.621	17765.76
709.966	17625.2
710.31	17644.86
710.654	17557.41
710.998	17541.13
711.342	17509.5
711.687	17534.36
712.031	17414.58
712.375	17423.4
712.719	17548.14
713.063	17437.18
713.407	17490.97
713.75	17352.89
714.094	17318.77
714.438	17271.09
714.782	17273.8
715.125	17294.81
715.469	17270.18
715.812	17209.84
716.156	17090.98
716.499	17209.62
716.843	17211.88
717.186	17055.27
717.53	17138.43
717.873	17117.19
718.216	17076.97
718.559	17045.33
718.902	16913.13
719.246	16902.96
719.589	16899.34
719.932	16834.94
720.275	16867.93
720.617	16828.84
720.96	16796.52
721.303	16869.97
721.646	16788.16
721.989	16779.8
722.331	16724.89
722.674	16803.53
723.016	16768.27
723.359	16761.72
723.701	16722.17
724.044	16589.3
724.386	16568.28
724.729	16681.95
725.071	16710.65
725.413	16650.99
725.755	16643.53
726.097	16516.98
726.439	16417.77
726.782	16532.8
727.124	16607.83
727.465	16456.87
727.807	16538.9
728.149	16422.52
728.491	16449.64
728.833	16447.15
729.175	16336.19
729.516	16451.45
729.858	16394.95
730.199	16400.37
730.541	16285.35
730.882	16370.77
731.224	16420.26
731.565	16297.78
731.906	16304.11
732.248	16311.79
732.589	16324.22
732.93	16267.5
733.271	16311.34
733.612	16313.82
733.953	16259.81
734.294	16327.61
734.635	16224.56
734.976	16289.42
735.317	16142.98
735.658	16170.78
735.999	16256.2
736.339	16139.14
736.68	16159.02
737.021	16080.83
737.361	16067.05
737.702	16156.31
738.042	16145.24
738.383	16155.63
738.723	16211.9
739.063	16090.1
739.404	16188.63
739.744	16037.9
740.084	16080.16
740.424	16097.56
740.764	16029.31
741.104	16052.81
741.444	15996.77
741.784	16002.64
742.124	15996.99
742.464	15964.91
742.804	15897.11
743.143	15910.44
743.483	15961.74
743.823	15840.61
744.162	15914.96
744.502	15939.82
744.841	15854.17
745.181	15941.63
745.52	15902.53
745.86	15829.54
746.199	15901.4
746.538	15867.05
746.877	15844.91
747.216	15862.08
747.556	15771.69
747.895	15837
748.234	15763.55
748.573	15804.01
748.911	15764.46
749.25	15774.85
749.589	15761.52
749.928	15787.28
750.267	15735.31
750.605	15706.83
750.944	15730.11
751.283	15612.15
751.621	15760.84
751.96	15665.7
752.298	15702.09
752.636	15595.88
752.975	15581.19
753.313	15525.59
753.651	15537.12
753.989	15517.01
754.327	15625.7
754.666	15495.99
755.004	15494.63
755.342	15499.83
755.679	15478.36
756.017	15461.42
756.355	15476.78
756.693	15487.4
757.031	15371.25
757.368	15347.52
757.706	15372.38
758.044	15266.39
758.381	15335.77
758.719	15333.51
759.056	15326.73
759.394	15288.76
759.731	15103.68
760.068	15173.74
760.405	15080.18
760.743	15039.28
761.08	15056.23
761.417	15021.88
761.754	15014.87
762.091	15055.78
762.428	14963.8
762.765	14869.79
763.102	14812.17
763.438	14809.23
763.775	14857.82
764.112	14809
764.449	14792.51
764.785	14779.63
765.122	14642.45
765.458	14596.58
765.795	14592.06
766.131	14617.37
766.467	14556.58
766.804	14437.49
767.14	14428.22
767.476	14431.84
767.812	14379.86
768.148	14334.21
768.485	14325.4
768.821	14204.73
769.157	14168.57
769.492	14315
769.828	14200.43
770.164	14130.6
770.5	14056.93
770.836	14077.72
771.171	13983.94
771.507	13990.95
771.842	13888.8
772.178	13865.3
772.513	13881.8
772.849	13875.92
773.184	13834.11
773.519	13753.44
773.855	13604.74
774.19	13554.8
774.525	13597.06
774.86	13573.78
775.195	13552.77
775.53	13496.95
775.865	13372.43
776.2	13324.52
776.535	13282.49
776.87	13317.52
777.205	13247.24
777.539	13081.14
777.874	13205.88
778.209	13103.96
778.543	13033.91
778.878	13013.8
779.212	12981.25
779.547	12945.78
779.881	12944.42
780.215	12880.24
780.55	12959.11
780.884	12869.62
781.218	12775.61
781.552	12888.6
781.886	12685.22
782.22	12612.22
782.554	12553.02
782.888	12418.33
783.222	12506.92
783.556	12472.79
783.889	12380.37
784.223	12307.15
784.557	12282.97
784.89	12355.51
785.224	12306.47
785.557	12207.94
785.891	12129.07
786.224	12146.93
786.558	12166.13
786.891	12071
787.224	12041.84
787.557	11983.99
787.891	12004.33
788.224	11911.23
788.557	11915.29
788.89	11810.21
789.223	11839.59
789.556	11772.02
789.888	11766.6
790.221	11745.36
790.554	11642.08
790.887	11611.12
791.219	11628.97
791.552	11489.77
791.884	11458.13
792.217	11493.84
792.549	11432.14
792.882	11417.45
793.214	11306.72
793.546	11321.19
793.879	11357.57
794.211	11206.16
794.543	11245.48
794.875	11160.74
795.207	11260.4
795.539	11195.54
795.871	11146.27
796.203	11071.47
796.535	11037.13
796.867	11031.02
797.198	10932.72
797.53	10944.92
797.862	10870.8
798.193	10937.01
798.525	10860.86
798.856	10958.26
799.188	10779.05
799.519	10753.97
799.85	10721.2
800.182	10782.44
800.513	10734.99
800.844	10585.61
801.175	10598.72
801.506	10640.75
801.837	10605.5
802.168	10527.31
802.499	10506.29
802.83	10466.74
803.161	10485.05
803.491	10382.9
803.822	10454.99
804.153	10380.65
804.483	10313.75
804.814	10338.61
805.145	10288.67
805.475	10287.77
805.805	10183.14
806.136	10201.89
806.466	10217.26
806.796	10215.45
807.126	10142.69
807.457	10180.65
807.787	10159.63
808.117	10083.25
808.447	10016.13
808.777	10048.68
809.107	10022.24
809.436	10048.9
809.766	10026.53
810.096	9910.6
810.426	9860.66
810.755	9870.38
811.085	9822.02
811.414	9855.46
811.744	9779.98
812.073	9715.58
812.403	9761.23
812.732	9711.96
813.061	9777.27
813.39	9661.12
813.719	9589.71
814.049	9676.26
814.378	9638.07
814.707	9676.48
815.036	9570.5
815.365	9546.99
815.693	9487.56
816.022	9502.7
816.351	9498.41
816.68	9441.69
817.008	9525.07
817.337	9395.36
817.665	9352.2
817.994	9377.96
818.322	9368.69
818.651	9335.47
818.979	9282.82
819.307	9307.45
819.636	9269.04
819.964	9223.39
820.292	9278.08
820.62	9277.62
820.948	9250.51
821.276	9366.66
821.604	9230.39
821.932	9230.84
822.259	9287.34
822.587	9192.65
822.915	9185.65
823.243	9281.01
823.57	9165.99
823.898	9211.18
824.225	9223.39
824.553	9211.41
824.88	9177.06
825.207	9264.97
825.535	9214.12
825.862	9265.65
826.189	9153.33
826.516	9232.88
826.843	9297.74
827.17	9286.66
827.497	9295.48
827.824	9243.5
828.151	9323.05
828.478	9269.26
828.805	9217.51
829.131	9262.26
829.458	9220.22
829.785	9187.23
830.111	9275.59
830.438	9243.5
830.764	9193.33
831.09	9159.21
831.417	9243.27
831.743	9132.09
832.069	9163.73
832.395	9149.04
832.722	9215.03
833.048	9196.95
833.374	9174.8
833.7	9177.29
834.026	9188.81
834.351	9225.87
834.677	9113.56
835.003	9163.05
835.329	9139.32
835.654	9103.84
835.98	9061.58
836.306	9090.96
836.631	9014.13
836.956	9134.12
837.282	9086.44
837.607	9085.54
837.932	9035.37
838.258	9038.53
838.583	8980.68
838.908	8914.69
839.233	8972.77
839.558	8930.06
839.883	8892.55
840.208	8913.34
840.533	8852.1
840.858	8879.89
841.182	8903.17
841.507	8926.22
841.832	8848.48
842.156	8898.65
842.481	8860.01
842.805	8861.82
843.13	8804.42
843.454	8798.31
843.778	8738.43
844.103	8723.97
844.427	8647.81
844.751	8754.02
845.075	8677.41
845.399	8686.68
845.723	8675.38
846.047	8629.73
846.371	8635.38
846.695	8563.74
847.019	8428.61
847.343	8528.26
847.666	8475.84
847.99	8409.17
848.313	8393.58
848.637	8339.57
848.96	8319.46
849.284	8416.4
849.607	8288.27
849.931	8298.21
850.254	8140.48
850.577	8159.91
850.9	8080.14
851.223	8063.42
851.546	8072.46
851.869	7990.88
852.192	8104.55
852.515	7973.93
852.838	7967.15
853.161	7952.01
853.483	7994.04
853.806	7897.55
854.129	7917.89
854.451	7915.17
854.774	7846.7
855.096	7785.01
855.419	7775.06
855.741	7808.74
856.063	7735.06
856.385	7672.24
856.708	7686.25
857.03	7661.17
857.352	7617.1
857.674	7636.76
857.996	7497.78
858.318	7591.79
858.64	7561.96
858.961	7461.17
859.283	7554.05
859.605	7419.37
859.926	7513.6
860.248	7415.98
860.57	7489.65
860.891	7481.74
861.212	7399.25
861.534	7375.3
861.855	7433.6
862.176	7347.5
862.498	7344.79
862.819	7316.77
863.14	7317.45
863.461	7285.81
863.782	7305.92
864.103	7289.43
864.424	7292.36
864.745	7272.25
865.065	7201.75
865.386	7217.79
865.707	7178.24
866.027	7237.22
866.348	7172.82
866.668	7153.39
866.989	7148.64
867.309	7134.4
867.63	7144.8
867.95	7162.88
868.27	7064.57
868.59	7076.78
868.91	7155.65
869.23	7056.66
869.55	7057.57
869.87	7083.78
870.19	7117.23
870.51	7105.93
870.83	7054.63
871.15	7023.9
871.469	6988.87
871.789	7062.09
872.109	7020.28
872.428	7006.72
872.748	7018.47
873.067	7011.47
873.386	7017.8
873.706	6950.23
874.025	6942.09
874.344	6892.38
874.663	6943
874.982	6943.22
875.301	6937.35
875.62	6881.75
875.939	6925.82
876.258	6925.14
876.577	6826.61
876.896	6852.15
877.214	6844.01
877.533	6844.47
877.852	6818.03
878.17	6838.37
878.489	6783.45
878.807	6836.56
879.125	6795.65
879.444	6775.54
879.762	6774.64
880.08	6708.2
880.398	6726.73
880.716	6725.15
881.034	6732.61
881.352	6724.02
881.67	6716.56
881.988	6633.17
882.306	6665.71
882.624	6657.58
882.941	6619.16
883.259	6576.9
883.577	6632.5
883.894	6631.59
884.212	6567.19
884.529	6526.06
884.846	6571.25
885.164	6541.88
885.481	6555.21
885.798	6546.62
886.115	6500.75
886.432	6466.85
886.75	6458.94
887.067	6521.09
887.383	6442.67
887.7	6485.83
888.017	6377.59
888.334	6431.82
888.651	6425.04
888.967	6403.8
889.284	6325.61
889.6	6343.92
889.917	6264.14
890.233	6364.71
890.55	6302.33
890.866	6316.8
891.182	6263.92
891.498	6254.43
891.815	6315.44
892.131	6247.87
892.447	6175.33
892.763	6144.6
893.079	6164.71
893.395	6117.03
893.71	6146.63
894.026	6074.32
894.342	6087.2
894.657	6067.31
894.973	6078.16
895.289	6049.01
895.604	6072.74
895.92	5966.75
896.235	5962.68
896.55	5981.89
896.865	5934.21
897.181	5921.78
897.496	5941.89
897.811	5900.99
898.126	5936.02
898.441	5893.98
898.756	5852.4
899.071	5853.53
899.386	5823.93
899.7	5794.1
900.015	5742.57
900.33	5725.4
900.644	5743.7
900.959	5754.78
901.273	5668
901.588	5678.17
901.902	5601.34
902.216	5617.61
902.531	5611.5
902.845	5585.97
903.159	5545.52
903.473	5584.84
903.787	5480.43
904.101	5472.53
904.415	5521.34
904.729	5468.46
905.042	5486.54
905.356	5425.3
905.67	5502.81
905.984	5444.5
906.297	5442.02
906.611	5354.34
906.924	5307.11
907.237	5325.86
907.551	5333.77
907.864	5270.27
908.177	5279.31
908.491	5293.32
908.804	5236.6
909.117	5176.94
909.43	5194.11
909.743	5167.67
910.056	5204.96
910.368	5159.99
910.681	5084.74
910.994	5118.18
911.307	5064.4
911.619	5042.25
911.932	5051.07
912.244	5007
912.557	5036.15
912.869	5006.32
913.181	4986.89
913.494	4964.52
913.806	4925.87
914.118	4946.21
914.43	4865.08
914.742	4901.24
915.054	4885.2
915.366	4812.66
915.678	4786.89
915.99	4799.55
916.302	4762.04
916.613	4768.36
916.925	4749.61
917.236	4711.42
917.548	4687.01
917.859	4662.38
918.171	4618.31
918.482	4666.45
918.794	4631.42
919.105	4610.4
919.416	4612.44
919.727	4611.76
920.038	4526.11
920.349	4497.64
920.66	4488.37
920.971	4473
921.282	4517.3
921.593	4458.31
921.903	4436.85
922.214	4427.81
922.525	4421.03
922.835	4416.73
923.146	4380.8
923.456	4376.28
923.767	4348.49
924.077	4356.85
924.387	4302.61
924.697	4274.59
925.008	4287.25
925.318	4300.13
925.628	4265.33
925.938	4264.87
926.248	4218.77
926.558	4199.34
926.867	4183.52
927.177	4168.38
927.487	4112.79
927.796	4120.24
928.106	4127.48
928.416	4083.64
928.725	4090.64
929.034	4041.83
929.344	4035.73
929.653	4035.28
929.962	4010.64
930.271	4005.22
930.581	4014.71
930.89	3970.42
931.199	3915.28
931.508	3935.84
931.817	3907.14
932.125	3898.78
932.434	3902.4
932.743	3826.92
933.051	3837.09
933.36	3841.16
933.669	3805.45
933.977	3830.53
934.286	3798.9
934.594	3811.78
934.902	3747.37
935.21	3741.5
935.519	3796.19
935.827	3715.28
936.135	3697.43
936.443	3690.43
936.751	3635.51
937.059	3658.79
937.367	3627.6
937.674	3659.92
937.982	3630.99
938.29	3629.86
938.597	3615.17
938.905	3538.57
939.213	3497.21
939.52	3525.01
939.827	3509.19
940.135	3476.65
940.442	3501.05
940.749	3523.65
941.056	3479.81
941.363	3452.92
941.67	3435.29
941.977	3400.94
942.284	3436.87
942.591	3397.33
942.898	3409.3
943.205	3372.02
943.511	3371.79
943.818	3332.47
944.125	3330.89
944.431	3282.98
944.738	3290.89
945.044	3296.54
945.35	3302.41
945.657	3283.2
945.963	3259.25
946.269	3225.35
946.575	3243.21
946.881	3218.57
947.187	3240.49
947.493	3194.39
947.799	3151.46
948.105	3160.72
948.41	3162.98
948.716	3148.52
949.022	3148.07
949.327	3128.86
949.633	3122.3
949.938	3095.19
950.244	3082.08
950.549	3037.56
950.854	3072.36
951.16	3033.27
951.465	3043.89
951.77	3005.92
952.075	3003.21
952.38	2995.08
952.685	3027.39
952.99	2955.53
953.294	2969.54
953.599	2950.78
953.904	2949.2
954.209	2939.03
954.513	2890.9
954.818	2875.53
955.122	2902.65
955.426	2861.97
955.731	2860.39
956.035	2860.62
956.339	2830.56
956.643	2837.79
956.948	2794.18
957.252	2783.33
957.556	2809.54
957.86	2766.83
958.163	2733.39
958.467	2784.91
958.771	2698.81
959.075	2721.19
959.378	2716.44
959.682	2736.33
959.985	2739.49
960.289	2671.24
960.592	2676.89
960.896	2679.83
961.199	2638.7
961.502	2670.11
961.805	2621.08
962.108	2603.22
962.411	2625.14
962.714	2616.78
963.017	2579.95
963.32	2589.21
963.623	2554.41
963.926	2537.91
964.228	2554.18
964.531	2550.12
964.833	2527.52
965.136	2521.19
965.438	2545.14
965.741	2533.17
966.043	2454.3
966.345	2439.16
966.648	2444.81
966.95	2444.58
967.252	2423.57
967.554	2430.12
967.856	2442.32
968.158	2403.91
968.46	2436.45
968.761	2379.27
969.063	2411.36
969.365	2372.49
969.666	2346.73
969.968	2353.06
970.269	2324.36
970.571	2324.81
970.872	2339.5
971.174	2313.29
971.475	2332.5
971.776	2309.44
972.077	2304.93
972.378	2307.41
972.679	2248.88
972.98	2280.29
973.281	2261.76
973.582	2227.87
973.883	2245.04
974.183	2217.47
974.484	2200.97
974.785	2193.52
975.085	2190.13
975.386	2201.65
975.686	2152.84
975.986	2169.11
976.287	2175.66
976.587	2140.41
976.887	2130.24
977.187	2131.14
977.487	2158.49
977.787	2152.39
978.087	2122.33
978.387	2104.48
978.687	2117.13
978.987	2096.8
979.286	2071.71
979.586	2058.83
979.885	2069.45
980.185	2064.25
980.484	2064.48
980.784	2042.33
981.083	2022.22
981.382	2015.67
981.682	2032.16
981.981	1988.78
982.28	2002.11
982.579	1972.5
982.878	1983.8
983.177	1966.63
983.475	1975.44
983.774	1966.18
984.073	1933.41
984.372	1926.63
984.67	1934.99
984.969	1902.45
985.267	1903.58
985.566	1891.6
985.864	1913.3
986.162	1873.3
986.461	1892.96
986.759	1860.42
987.057	1888.89
987.355	1862.45
987.653	1862.45
987.951	1831.72
988.249	1838.72
988.547	1814.09
988.844	1808.22
989.142	1829.46
989.44	1801.89
989.737	1787.65
990.035	1793.07
990.332	1765.73
990.63	1790.81
990.927	1761.66
991.224	1785.16
991.521	1773.64
991.819	1760.76
992.116	1733.19
992.413	1726.86
992.71	1724.6
993.006	1714.21
993.303	1708.33
993.6	1693.19
993.897	1688.22
994.193	1708.56
994.49	1710.82
994.787	1664.26
995.083	1650.48
995.379	1654.55
995.676	1646.64
995.972	1638.28
996.268	1652.97
996.565	1613.19
996.861	1632.85
997.157	1601.67
997.453	1601.89
997.749	1584.94
998.044	1599.86
998.34	1590.37
998.636	1594.89
998.932	1598.73
999.227	1572.74
999.523	1570.03
999.818	1542.91
1000.114	1545.4
1000.409	1572.06
1000.704	1532.74
1001	1520.77
1001.295	1487.77
1001.59	1503.82
1001.885	1518.28
1002.18	1472.86
1002.475	1448.45
1002.77	1503.82
1003.065	1480.09
1003.359	1442.58
1003.654	1435.12
1003.949	1433.54
1004.243	1438.06
1004.538	1461.56
1004.832	1455
1005.127	1409.58
1005.421	1398.96
1005.715	1378.4
1006.009	1375.23
1006.304	1365.06
1006.598	1354.67
1006.892	1351.5
1007.186	1371.84
1007.48	1355.12
1007.773	1342.46
1008.067	1336.82
1008.361	1346.53
1008.655	1329.58
1008.948	1306.31
1009.242	1307.89
1009.535	1313.31
1009.829	1335.91
1010.122	1284.39
1010.415	1280.77
1010.708	1274.9
1011.001	1271.05
1011.295	1281
1011.588	1264.05
1011.881	1266.08
1012.173	1246.65
1012.466	1273.09
1012.759	1257.27
1013.052	1228.57
1013.344	1243.48
1013.637	1239.64
1013.93	1222.47
1014.222	1223.37
1014.514	1177.05
1014.807	1212.07
1015.099	1170.27
1015.391	1177.05
1015.683	1183.82
1015.976	1185.41
1016.268	1160.77
1016.56	1163.26
1016.851	1149.25
1017.143	1152.41
1017.435	1146.76
1017.727	1153.09
1018.018	1122.58
1018.31	1105.86
1018.602	1125.75
1018.893	1108.12
1019.185	1097.95
1019.476	1094.11
1019.767	1115.58
1020.058	1067.9
1020.35	1062.25
1020.641	1094.34
1020.932	1078.52
1021.223	1075.58
1021.514	1005.3
1021.804	1026.31
1022.095	1030.61
1022.386	1016.15
1022.677	1025.41
1022.967	1037.39
1023.258	1015.02
1023.548	1010.72
1023.839	984.96
1024.129	1008.01
1024.419	989.25
1024.709	994.45
1025	968.24
1025.29	1013.66
1025.58	985.41
1025.87	968.92
1026.16	952.42
1026.449	972.3
1026.739	939.76
1027.029	950.84
1027.319	918.52
1027.608	945.64
1027.898	925.53
1028.187	928.46
1028.477	916.71
1028.766	893.44
1029.055	925.07
1029.344	901.12
1029.634	900.44
1029.923	909.93
1030.212	874
1030.501	857.96
1030.79	867.9
1031.078	857.73
1031.367	890.73
1031.656	844.17
1031.945	875.36
1032.233	838.98
1032.522	838.52
1032.81	847.34
1033.099	806.89
1033.387	834.91
1033.675	814.79
1033.963	846.88
1034.251	824.29
1034.54	824.74
1034.828	803.04
1035.116	806.21
1035.403	780.67
1035.691	816.83
1035.979	814.57
1036.267	794.23
1036.554	789.03
1036.842	777.28
1037.129	766.89
1037.417	781.35
1037.704	747.68
1037.992	768.92
1038.279	779.09
1038.566	718.75
1038.853	718.75
1039.14	718.75
