Data from cardboard_FLMS001491_071.txt Node
Date: Tue Feb 07 11:40:06 GMT 2017
User: dcchb
Spectrometer: FLMS00149
Trigger mode: 0
Integration Time (sec): 2.000000E-2
Scans to average: 10
Electric dark correction enabled: true
Nonlinearity correction enabled: false
Boxcar width: 0
XAxis mode: Wavelengths
Number of Pixels in Spectrum: 2048
>>>>>Begin Spectral Data<<<<<
341.393	-2.13
341.776	-2.13
342.16	-2.13
342.543	-70.15
342.927	-73.09
343.31	-73.54
343.693	-71.06
344.077	-51.85
344.46	-37.39
344.843	-59.76
345.226	-30.61
345.61	-26.31
345.993	-22.25
346.376	-9.82
346.759	25.66
347.142	15.27
347.525	34.93
347.908	50.3
348.291	63.4
348.674	87.13
349.057	105.89
349.44	123.06
349.823	144.98
350.206	164.19
350.588	218.43
350.971	205.55
351.354	221.59
351.737	234.92
352.119	268.59
352.502	284.87
352.884	264.98
353.267	249.16
353.65	288.03
354.032	295.94
354.414	290.29
354.797	299.33
355.179	332.77
355.562	313.79
355.944	333.68
356.326	323.96
356.709	333.45
357.091	317.18
357.473	344.52
357.855	343.17
358.238	344.98
358.62	349.95
359.002	325.99
359.384	335.94
359.766	337.29
360.148	345.2
360.53	343.39
360.912	315.6
361.294	343.39
361.676	322.38
362.057	337.29
362.439	303.62
362.821	316.5
363.203	324.19
363.584	333.9
363.966	318.76
364.348	325.54
364.729	311.76
365.111	318.99
365.493	316.73
365.874	325.77
366.256	309.5
366.637	294.58
367.019	317.41
367.4	315.15
367.781	297.52
368.163	315.6
368.544	298.2
368.925	315.37
369.306	303.4
369.688	306.56
370.069	321.25
370.45	309.27
370.831	301.14
371.212	321.02
371.593	316.05
371.974	287.13
372.355	293.9
372.736	302.94
373.117	327.35
373.498	328.48
373.879	312.21
374.26	324.64
374.641	315.6
375.021	320.12
375.402	320.34
375.783	324.86
376.163	314.02
376.544	341.81
376.925	318.54
377.305	300.91
377.686	324.19
378.066	332.55
378.447	298.88
378.827	306.56
379.208	307.46
379.588	310.4
379.968	317.41
380.349	332.77
380.729	325.54
381.109	303.4
381.489	327.8
381.87	349.27
382.25	332.1
382.63	351.76
383.01	333
383.39	338.88
383.77	330.74
384.15	336.16
384.53	357.86
384.91	357.41
385.29	342.27
385.67	335.49
386.049	362.15
386.429	348.14
386.809	340.23
387.189	349.5
387.568	340.68
387.948	350.63
388.328	353.56
388.707	340.01
389.087	365.99
389.466	357.63
389.846	363.96
390.225	367.35
390.605	349.72
390.984	361.7
391.363	357.18
391.743	364.41
392.122	347.46
392.501	375.71
392.881	372.09
393.26	374.81
393.639	366.45
394.018	372.32
394.397	374.58
394.776	367.58
395.155	376.39
395.534	378.87
395.913	379.55
396.292	374.81
396.671	377.52
397.05	391.76
397.429	394.69
397.808	378.42
398.186	381.13
398.565	401.92
398.944	381.81
399.323	387.46
399.701	389.5
400.08	372.77
400.458	424.75
400.837	402.83
401.215	402.83
401.594	400.34
401.972	393.56
402.351	412.55
402.729	408.93
403.107	394.47
403.486	416.84
403.864	417.07
404.242	424.3
404.62	432.88
404.999	409.16
405.377	423.17
405.755	429.49
406.133	435.82
406.511	426.1
406.889	418.65
407.267	427.46
407.645	432.21
408.023	447.8
408.401	446.67
408.779	456.84
409.156	460.45
409.534	447.35
409.912	448.02
410.29	464.07
410.667	456.84
411.045	483.73
411.422	489.61
411.8	495.26
412.178	472.43
412.555	466.56
412.933	476.72
413.31	469.04
413.687	487.57
414.065	501.13
414.442	483.28
414.819	495.71
415.197	509.49
415.574	495.71
415.951	509.72
416.328	510.17
416.705	519.66
417.082	500.23
417.46	515.37
417.837	511.53
418.214	503.84
418.591	514.46
418.967	528.93
419.344	531.64
419.721	552.2
420.098	532.09
420.475	552.88
420.852	537.51
421.228	542.94
421.605	554.46
421.982	557.17
422.358	580
422.735	581.13
423.111	581.35
423.488	581.58
423.864	588.81
424.241	575.03
424.617	588.36
424.994	576.84
425.37	581.81
425.746	575.71
426.123	603.05
426.499	579.09
426.875	599.43
427.251	597.4
427.627	615.48
428.003	623.61
428.379	608.92
428.756	626.1
429.132	634.46
429.507	630.17
429.883	652.54
430.259	650.73
430.635	640.56
431.011	663.16
431.387	668.81
431.763	668.36
432.138	667.68
432.514	700.67
432.89	693.89
433.265	671.07
433.641	700.67
434.016	720.11
434.392	707.91
434.767	712.88
435.143	723.95
435.518	703.16
435.894	729.37
436.269	742.03
436.644	747.9
437.02	718.53
437.395	768.47
437.77	744.51
438.145	768.69
438.52	770.28
438.895	791.97
439.271	776.83
439.646	787.45
440.021	801.69
440.395	801.01
440.77	795.81
441.145	799.43
441.52	817.05
441.895	831.29
442.27	809.6
442.645	823.38
443.019	825.42
443.394	841.46
443.769	840.56
444.143	847.79
444.518	871.06
444.892	831.74
445.267	843.95
445.641	851.86
446.016	854.12
446.39	879.65
446.764	892.76
447.139	884.17
447.513	871.52
447.887	894.11
448.262	887.56
448.636	902.48
449.01	924.62
449.384	939.31
449.758	926.43
450.132	956.26
450.506	922.81
450.88	967.33
451.254	945.64
451.628	977.05
452.002	958.29
452.376	958.97
452.75	980.67
453.123	995.58
453.497	1004.17
453.871	991.51
454.244	1012.76
454.618	1029.25
454.992	1037.16
455.365	1025.41
455.739	1064.96
456.112	1062.25
456.486	1079.19
456.859	1088.23
457.232	1114.45
457.606	1086.43
457.979	1135.01
458.352	1128.23
458.725	1131.17
459.099	1146.54
459.472	1168.68
459.845	1169.81
460.218	1178.85
460.591	1181.79
460.964	1222.69
461.337	1216.14
461.71	1220.89
462.083	1263.37
462.456	1262.01
462.829	1248.23
463.201	1282.35
463.574	1288.68
463.947	1284.16
464.32	1307.44
464.692	1319.41
465.065	1321.9
465.438	1351.28
465.81	1385.4
466.183	1382.01
466.555	1391.05
466.928	1421.11
467.3	1429.02
467.672	1450.26
468.045	1467.89
468.417	1474.21
468.789	1477.15
469.161	1533.65
469.534	1516.25
469.906	1534.32
470.278	1572.06
470.65	1596.7
471.022	1631.5
471.394	1610.03
471.766	1653.87
472.138	1686.64
472.51	1682.12
472.882	1720.76
473.253	1720.08
473.625	1733.41
473.997	1762.34
474.369	1788.55
474.74	1799.85
475.112	1850.93
475.484	1853.19
475.855	1908.33
476.227	1948.32
476.598	1945.39
476.97	1974.99
477.341	2021.54
477.713	2038.04
478.084	2088.89
478.455	2121.65
478.827	2123.01
479.198	2219.28
479.569	2216.57
479.94	2244.81
480.311	2262.67
480.682	2304.47
481.053	2337.24
481.424	2386.51
481.795	2415.66
482.166	2444.81
482.537	2533.17
482.908	2515.77
483.279	2552.83
483.65	2605.26
484.021	2687.51
484.391	2689.55
484.762	2737.23
485.133	2756.89
485.503	2780.62
485.874	2856.1
486.244	2899.94
486.615	2929.09
486.985	2933.38
487.356	3017.67
487.726	3040.05
488.097	3109.42
488.467	3147.61
488.837	3170.89
489.207	3226.93
489.578	3281.4
489.948	3327.5
490.318	3343.77
490.688	3386.48
491.058	3449.75
491.428	3499.24
491.798	3512.58
492.168	3579.69
492.538	3646.36
492.908	3651.1
493.278	3691.56
493.648	3783.76
494.017	3782.63
494.387	3803.19
494.757	3847.03
495.126	3876.64
495.496	3934.26
495.866	3930.19
496.235	3984.88
496.605	4049.51
496.974	4085.67
497.344	4135.61
497.713	4112.56
498.082	4238.43
498.452	4247.02
498.821	4295.38
499.19	4299.45
499.559	4352.56
499.928	4406.79
500.298	4428.71
500.667	4492.89
501.036	4517.75
501.405	4570.18
501.774	4595.26
502.143	4610.18
502.512	4627.8
502.88	4682.94
503.249	4757.06
503.618	4802.71
503.987	4838.42
504.356	4824.63
504.724	4884.07
505.093	4917.06
505.462	4917.74
505.83	5033.89
506.199	5039.09
506.567	5166.32
506.936	5117.96
507.304	5162.48
507.672	5186.21
508.041	5290.16
508.409	5331.51
508.777	5374.68
509.145	5417.16
509.514	5477.5
509.882	5487.67
510.25	5550.49
510.618	5523.37
510.986	5609.47
511.354	5662.8
511.722	5787.09
512.09	5813.76
512.458	5844.27
512.826	5887.88
513.193	5908.22
513.561	5954.77
513.929	6065.73
514.297	6075.45
514.664	6141.89
515.032	6167.65
515.4	6230.47
515.767	6302.79
516.135	6355.67
516.502	6332.16
516.869	6480.41
517.237	6468.66
517.604	6525.61
517.972	6653.06
518.339	6654.42
518.706	6733.74
519.073	6757.69
519.44	6889.21
519.808	6948.42
520.175	6970.34
520.542	7050.56
520.909	7105.93
521.276	7178.7
521.643	7178.02
522.009	7313.61
522.376	7387.05
522.743	7428.63
523.11	7507.95
523.477	7568.74
523.843	7636.99
524.21	7784.78
524.577	7816.87
524.943	7814.16
525.31	7942.07
525.676	8055.51
526.043	8068.62
526.409	8152.68
526.776	8252.79
527.142	8321.04
527.508	8402.39
527.874	8475.38
528.241	8561.48
528.607	8600.58
528.973	8731.87
529.339	8665.21
529.705	8814.81
530.071	8902.72
530.437	9022.26
530.803	9036.5
531.169	9127.57
531.535	9142.03
531.901	9217.51
532.267	9301.35
532.632	9377.06
532.998	9444.85
533.364	9495.02
533.73	9564.17
534.095	9667.67
534.461	9728.23
534.826	9755.58
535.192	9802.58
535.557	9951.28
535.923	10016.36
536.288	10055.46
536.653	10060.65
537.019	10142.46
537.384	10148.33
537.749	10205.06
538.114	10242.57
538.479	10401.21
538.845	10463.35
539.21	10460.19
539.575	10508.78
539.94	10486.41
540.305	10704.25
540.67	10728.88
541.034	10768.21
541.399	10849.79
541.764	10901.99
542.129	10949.9
542.494	11020.85
542.858	11103.34
543.223	11122.32
543.587	11193.28
543.952	11235.99
544.316	11245.26
544.681	11337.68
545.045	11381.97
545.41	11407.96
545.774	11484.34
546.138	11560.28
546.503	11589.2
546.867	11698.58
547.231	11751.91
547.595	11828.97
547.959	11820.38
548.324	11928.85
548.688	11995.29
549.052	12103.54
549.416	12154.38
549.779	12102.41
550.143	12187.83
550.507	12356.64
550.871	12389.18
551.235	12398.67
551.599	12464.21
551.962	12563.64
552.326	12648.83
552.689	12775.16
553.053	12755.95
553.417	12760.47
553.78	12914.36
554.143	12896.74
554.507	13054.7
554.87	13102.16
555.234	13252.21
555.597	13154.81
555.96	13297.63
556.323	13447.23
556.686	13432.54
557.05	13628.92
557.413	13652.2
557.776	13668.02
558.139	13836.37
558.502	13906.43
558.865	13904.17
559.228	14081.79
559.59	14133.09
559.953	14136.7
560.316	14355.68
560.679	14280.43
561.041	14511.61
561.404	14562
561.767	14643.81
562.129	14629.57
562.492	14843.58
562.854	14876.8
563.217	14880.87
563.579	15000.64
563.941	15139.84
564.304	15177.36
564.666	15318.37
565.028	15341.64
565.39	15423.22
565.753	15496.22
566.115	15659.38
566.477	15730.11
566.839	15775.31
567.201	15863.21
567.563	15885.13
567.925	16022.53
568.287	16113.6
568.648	16156.54
569.01	16224.11
569.372	16351.11
569.734	16367.61
570.095	16507.26
570.457	16540.26
570.819	16674.72
571.18	16662.74
571.542	16816.63
571.903	16991.77
572.265	16979.12
572.626	17092.11
572.987	17018.66
573.349	17182.95
573.71	17275.83
574.071	17266.57
574.432	17382.72
574.794	17485.09
575.155	17633.56
575.516	17644.86
575.877	17638.53
576.238	17636.27
576.599	17787
576.96	17778.64
577.32	17947.45
577.681	17937.73
578.042	17942.03
578.403	18041.01
578.763	18168.91
579.124	18247.33
579.485	18158.97
579.845	18299.53
580.206	18302.02
580.566	18407.55
580.927	18415.69
581.287	18472.86
581.648	18427.44
582.008	18671.95
582.368	18672.18
582.728	18545.18
583.089	18620.2
583.449	18678.96
583.809	18677.83
584.169	18824.04
584.529	18771.38
584.889	18846.64
585.249	18750.59
585.609	18803.93
585.969	18973.87
586.329	18904.94
586.688	18928.67
587.048	19043.92
587.408	18983.58
587.768	19051.38
588.127	19087.99
588.487	18997.59
588.846	19200.53
589.206	19034.65
589.565	19142.22
589.925	19356.45
590.284	19417.92
590.643	19321.43
591.003	19359.39
591.362	19408.43
591.721	19433.97
592.08	19417.02
592.44	19538.82
592.799	19502.21
593.158	19602.1
593.517	19552.16
593.876	19640.97
594.235	19588.09
594.593	19630.35
594.952	19733.85
595.311	19622.66
595.67	19711.93
596.029	19819.49
596.387	19828.76
596.746	19887.51
597.104	19786.27
597.463	19847.74
597.822	19942.2
598.18	20024.46
598.538	19899.04
598.897	20046.83
599.255	19925.93
599.613	20148.3
599.972	19975.42
600.33	20163.89
600.688	20009.54
601.046	20203.66
601.404	20323.43
601.762	20236.43
602.12	20406.82
602.478	20397.33
602.836	20435.97
603.194	20419.7
603.552	20378.12
603.91	20376.77
604.268	20502.64
604.625	20544.9
604.983	20553.94
605.341	20558.23
605.698	20664.89
606.056	20810.43
606.413	20680.04
606.771	20783.08
607.128	20842.52
607.485	20752.35
607.843	20835.74
608.2	21000.03
608.557	20972.68
608.914	20960.93
609.272	21076.18
609.629	21134.94
609.986	21120.7
610.343	21189.4
610.7	21281.15
611.057	21291.09
611.414	21178.55
611.771	21318.89
612.127	21292.45
612.484	21387.14
612.841	21405.21
613.198	21290.87
613.554	21477.3
613.911	21513.46
614.267	21506.68
614.624	21554.14
614.98	21651.99
615.337	21754.13
615.693	21781.93
616.05	21717.75
616.406	21893.56
616.762	21771.31
617.118	21799.1
617.475	21802.49
617.831	21919.32
618.187	21892.21
618.543	21983.05
618.899	22117.96
619.255	21951.64
619.611	22140.34
619.967	22110.28
620.323	22280.45
620.678	22087.68
621.034	22110.05
621.39	22124.52
621.746	22236.15
622.101	22393.89
622.457	22319.09
622.812	22343.72
623.168	22315.25
623.523	22349.37
623.879	22486.99
624.234	22218.07
624.589	22406.54
624.945	22417.16
625.3	22446.32
625.655	22370.39
626.01	22520.21
626.365	22459.88
626.72	22411.52
627.075	22399.31
627.43	22479.99
627.785	22411.74
628.14	22609.48
628.495	22468.01
628.85	22444.51
629.205	22512.08
629.559	22531.74
629.914	22430.72
630.269	22496.48
630.623	22522.47
630.978	22529.25
631.332	22569.93
631.687	22648.12
632.041	22491.29
632.396	22465.3
632.75	22515.02
633.104	22567.22
633.459	22470.95
633.813	22450.16
634.167	22612.87
634.521	22490.84
634.875	22543.94
635.229	22411.52
635.583	22422.36
635.937	22354.34
636.291	22317.51
636.645	22409.71
636.999	22421.91
637.352	22523.83
637.706	22348.69
638.06	22473.43
638.413	22324.29
638.767	22315.02
639.121	22318.86
639.474	22199.77
639.828	22218.75
640.181	22221.24
640.534	22388.46
640.888	22308.69
641.241	22238.41
641.594	22219.88
641.947	22354.34
642.301	22164.52
642.654	22251.52
643.007	22275.93
643.36	22256.49
643.713	22181.46
644.066	22294.23
644.419	22148.7
644.771	21956.39
645.124	21804.53
645.477	21809.27
645.83	21595.04
646.182	21626.9
646.535	21498.54
646.888	21612.67
647.24	21512.56
647.593	21628.48
647.945	21576.06
648.298	21448.83
648.65	21551.65
649.002	21487.02
649.355	21459
649.707	21455.83
650.059	21600.24
650.411	21884.3
650.763	21901.25
651.115	22075.25
651.467	22098.98
651.819	22048.13
652.171	22009.72
652.523	22012.66
652.875	21944.18
653.227	21973.79
653.578	22051.75
653.93	22084.52
654.282	21897.63
654.633	21892.43
654.985	21949.38
655.337	21978.08
655.688	21956.16
656.039	22014.92
656.391	21856.28
656.742	21850.85
657.094	21886.33
657.445	21865.77
657.796	21974.01
658.147	21955.26
658.498	21939.21
658.849	22000.9
659.2	21933.11
659.551	21872.09
659.902	21977.4
660.253	21865.31
660.604	21994.13
660.955	21888.59
661.306	21975.82
661.656	21947.8
662.007	21927.46
662.358	21931.08
662.708	22004.07
663.059	22000
663.409	21772.21
663.76	21993.67
664.11	21937.86
664.461	22025.31
664.811	22037.74
665.161	22038.87
665.511	22046.33
665.862	21907.57
666.212	22132.2
666.562	22128.13
666.912	21952.09
667.262	22110.96
667.612	21955.71
667.962	22031.19
668.312	22056.95
668.662	22024.18
669.011	21988.02
669.361	22044.52
669.711	21974.24
670.06	21974.24
670.41	22089.26
670.76	22035.93
671.109	22053.11
671.459	22061.92
671.808	22026.89
672.157	22061.02
672.507	21930.17
672.856	21926.1
673.205	21953.22
673.554	22131.52
673.904	21884.98
674.253	22115.7
674.602	21999.77
674.951	21604.08
675.3	21644.53
675.649	21987.35
675.998	21888.59
676.346	21907.12
676.695	21965.88
677.044	21793.23
677.393	21876.84
677.741	21898.99
678.09	21829.61
678.438	21843.39
678.787	21799.1
679.135	21844.3
679.484	21715.71
679.832	21862.38
680.181	21716.84
680.529	21738.31
680.877	21706.45
681.225	21772.89
681.573	21819.67
681.922	21736.28
682.27	21650.41
682.618	21699.22
682.966	21575.83
683.314	21697.86
683.661	21583.97
684.009	21520.01
684.357	21386.91
684.705	21483.4
685.053	21468.04
685.4	21362.73
685.748	21411.32
686.095	21356.85
686.443	21261.49
686.79	21283.41
687.138	21310.53
687.485	21346.91
687.832	21283.18
688.18	21322.5
688.527	21214.03
688.874	21139.91
689.221	21123.19
689.568	21094.71
689.915	21081.61
690.262	21050.2
690.609	20980.37
690.956	20958.22
691.303	20959.12
691.65	20859.47
691.997	20805.91
692.344	20751.45
692.69	20689.3
693.037	20647.04
693.383	20456.31
693.73	20645.46
694.077	20461.51
694.423	20505.35
694.769	20450.89
695.116	20456.54
695.462	20453.6
695.808	20349.2
696.155	20357.56
696.501	20215.19
696.847	20219.71
697.193	20113.5
697.539	20137.45
697.885	19961.41
698.231	20047.51
698.577	20002.77
698.923	19951.01
699.269	19791.02
699.614	19808.87
699.96	19730.46
700.306	19769.32
700.651	19675.77
700.997	19662.43
701.342	19606.84
701.688	19581.76
702.033	19551.03
702.379	19552.38
702.724	19377.24
703.069	19483.68
703.415	19242.11
703.76	19327.53
704.105	19341.31
704.45	19314.2
704.795	19125.5
705.14	19098.83
705.485	19032.62
705.83	19000.76
706.175	19095.67
706.52	19045.05
706.865	18998.27
707.209	18939.29
707.554	18816.81
707.899	18825.85
708.243	18861.78
708.588	18771.84
708.932	18644.38
709.277	18632.86
709.621	18750.59
709.966	18575.23
710.31	18620.88
710.654	18426.76
710.998	18547.21
711.342	18587.66
711.687	18477.83
712.031	18276.03
712.375	18347.67
712.719	18363.26
713.063	18366.65
713.407	18416.82
713.75	18279.87
714.094	18300.89
714.438	18144.96
714.782	18109.93
715.125	18141.12
715.469	18197.39
715.812	18163.49
716.156	18107.45
716.499	18010.28
716.843	18017.51
717.186	18014.57
717.53	18020.44
717.873	18014.34
718.216	17974.57
718.559	17887.57
718.902	17780.22
719.246	17854.57
719.589	17763.28
719.932	17786.33
720.275	17728.25
720.617	17652.32
720.96	17701.81
721.303	17716.5
721.646	17670.85
721.989	17594.01
722.331	17756.04
722.674	17655.48
723.016	17620
723.359	17592.66
723.701	17655.93
724.044	17586.56
724.386	17498.42
724.729	17574.13
725.071	17494.13
725.413	17503.85
725.755	17430.4
726.097	17346.11
726.439	17300.92
726.782	17382.49
727.124	17428.37
727.465	17324.64
727.807	17317.41
728.149	17262.27
728.491	17289.62
728.833	17221.37
729.175	17175.27
729.516	17292.1
729.858	17313.34
730.199	17189.73
730.541	17199
730.882	17132.56
731.224	17199.22
731.565	17112.45
731.906	17178.66
732.248	17164.87
732.589	17075.16
732.93	17029.28
733.271	17006.23
733.612	17108.6
733.953	17123.74
734.294	17065.89
734.635	16957.42
734.976	17140.24
735.317	16951.09
735.658	16904.32
735.999	16924.2
736.339	16807.59
736.68	16982.05
737.021	16968.04
737.361	16911.55
737.702	16982.73
738.042	16847.59
738.383	16902.73
738.723	16973.24
739.063	16766.47
739.404	16886.91
739.744	16830.42
740.084	16734.83
740.424	16841.94
740.764	16848.5
741.104	16862.96
741.444	16704.77
741.784	16688.05
742.124	16824.77
742.464	16781.83
742.804	16812.79
743.143	16662.97
743.483	16717.43
743.823	16629.07
744.162	16648.28
744.502	16657.32
744.841	16604.89
745.181	16678.33
745.52	16636.75
745.86	16677.88
746.199	16679.46
746.538	16626.81
746.877	16622.97
747.216	16574.15
747.556	16563.76
747.895	16574.38
748.234	16535.74
748.573	16528.28
748.911	16492.57
749.25	16598.56
749.589	16410.77
749.928	16451.9
750.267	16528.96
750.605	16444.89
750.944	16419.81
751.283	16324.44
751.621	16398.11
751.96	16381.17
752.298	16425.23
752.636	16397.66
752.975	16286.03
753.313	16253.49
753.651	16355.63
753.989	16272.69
754.327	16307.27
754.666	16209.42
755.004	16169.87
755.342	16262.07
755.679	16221.17
756.017	16082.19
756.355	16236.54
756.693	16063.89
757.031	16128.06
757.368	16014.17
757.706	16052.59
758.044	15991.35
758.381	16045.81
758.719	16012.59
759.056	16060.04
759.394	15909.99
759.731	15918.35
760.068	15839.71
760.405	15780.73
760.743	15823.89
761.08	15808.07
761.417	15656.44
761.754	15750.22
762.091	15646.5
762.428	15701.64
762.765	15527.85
763.102	15556.33
763.438	15529.21
763.775	15398.82
764.112	15505.26
764.449	15470.68
764.785	15391.81
765.122	15252.16
765.458	15302.1
765.795	15226.85
766.131	15176
766.467	15245.38
766.804	15086.96
767.14	15120.41
767.476	15064.36
767.812	15046.51
768.148	15083.12
768.485	14908.66
768.821	14875.67
769.157	14844.48
769.492	14836.12
769.828	14776.24
770.164	14731.94
770.5	14606.97
770.836	14683.81
771.171	14612.85
771.507	14490.14
771.842	14437.04
772.178	14496.24
772.513	14477.94
772.849	14384.38
773.184	14350.48
773.519	14345.74
773.855	14290.6
774.19	14239.98
774.525	14203.6
774.86	14145.52
775.195	14067.78
775.53	14092.19
775.865	14000.44
776.2	13921.12
776.535	13857.39
776.87	13839.09
777.205	13862.36
777.539	13795.47
777.874	13851.06
778.209	13623.05
778.543	13736.04
778.878	13567
779.212	13564.52
779.547	13509.83
779.881	13470.06
780.215	13464.41
780.55	13454.91
780.884	13431.41
781.218	13402.49
781.552	13413.79
781.886	13228.93
782.22	13197.97
782.554	13108.48
782.888	13143.96
783.222	13003.18
783.556	12944.19
783.889	13004.3
784.223	12833.69
784.557	12867.13
784.89	12892.9
785.224	12859.22
785.557	12820.81
785.891	12705.56
786.224	12696.97
786.558	12706.01
786.891	12526.58
787.224	12564.99
787.557	12503.53
787.891	12458.33
788.224	12442.96
788.557	12474.83
788.89	12451.78
789.223	12386.69
789.556	12350.76
789.888	12236.87
790.221	12210.43
790.554	12098.34
790.887	12119.36
791.219	12136.31
791.552	12073.48
791.884	12064.22
792.217	12007.72
792.549	12020.38
792.882	11943.54
793.214	11876.65
793.546	11850.21
793.879	11842.08
794.211	11711.91
794.543	11793.26
794.875	11728.18
795.207	11689.31
795.539	11640.05
795.871	11727.5
796.203	11585.13
796.535	11547.62
796.867	11532.25
797.198	11523.21
797.53	11453.84
797.862	11322.09
798.193	11457
798.525	11302.43
798.856	11375.65
799.188	11240.06
799.519	11235.76
799.85	11140.4
800.182	11191.25
800.513	11178.14
800.844	11066.28
801.175	11113.28
801.506	11050.91
801.837	11162.32
802.168	10988.76
802.499	10993.74
802.83	10955.77
803.161	10887.3
803.491	10883.68
803.822	10824.48
804.153	10799.39
804.483	10797.13
804.814	10741.31
805.145	10786.74
805.475	10744.93
805.805	10727.53
806.136	10623.8
806.466	10686.4
806.796	10583.13
807.126	10565.5
807.457	10538.61
807.787	10530.7
808.117	10498.38
808.447	10488.66
808.777	10526.63
809.107	10458.84
809.436	10462.9
809.766	10361.21
810.096	10436.91
810.426	10303.36
810.755	10359.4
811.085	10239.63
811.414	10299.74
811.744	10200.31
812.073	10247.09
812.403	10240.31
812.732	10139.75
813.061	10151.95
813.39	10123.93
813.719	10078.28
814.049	10159.18
814.378	10111.95
814.707	10097.94
815.036	10056.81
815.365	9967.55
815.693	9966.64
816.022	9934.33
816.351	9930.49
816.68	9803.26
817.008	9913.99
817.337	9807.1
817.665	9784.73
817.994	9854.33
818.322	9813.88
818.651	9791.51
818.979	9777.5
819.307	9789.93
819.636	9683.71
819.964	9611.17
820.292	9696.82
820.62	9757.38
820.948	9676.26
821.276	9625.18
821.604	9700.89
821.932	9652.53
822.259	9711.28
822.587	9654.79
822.915	9613.66
823.243	9703.83
823.57	9685.75
823.898	9699.53
824.225	9674.9
824.553	9666.31
824.88	9613.43
825.207	9622.92
825.535	9669.93
825.862	9721.45
826.189	9623.38
826.516	9701.11
826.843	9674.22
827.17	9723.26
827.497	9717.84
827.824	9671.74
828.151	9725.07
828.478	9642.59
828.805	9736.37
829.131	9685.52
829.458	9645.3
829.785	9645.52
830.111	9641.46
830.438	9652.98
830.764	9683.71
831.09	9647.78
831.417	9675.8
831.743	9642.81
832.069	9699.99
832.395	9594.45
832.722	9678.06
833.048	9658.63
833.374	9719.19
833.7	9588.58
834.026	9618.63
834.351	9638.29
834.677	9595.81
835.003	9617.73
835.329	9710.15
835.654	9625.41
835.98	9559.2
836.306	9543.6
836.631	9524.85
836.956	9518.07
837.282	9570.72
837.607	9477.39
837.932	9497.5
838.258	9498.18
838.583	9446.43
838.908	9433.78
839.233	9463.16
839.558	9401.01
839.883	9329.15
840.208	9359.2
840.533	9329.6
840.858	9431.74
841.182	9412.08
841.507	9342.71
841.832	9303.84
842.156	9353.55
842.481	9292.54
842.805	9324.4
843.13	9280.11
843.454	9257.51
843.778	9186.1
844.103	9243.27
844.427	9142.49
844.751	9145.2
845.075	9240.34
845.399	9114.24
845.723	9060
846.047	9055.71
846.371	9018.87
846.695	9033.79
847.019	8958.76
847.343	8946.33
847.666	8851.87
847.99	8773.68
848.313	8829.73
848.637	8796.28
848.96	8799.44
849.284	8766.68
849.607	8713.57
849.931	8689.84
850.254	8627.92
850.577	8575.49
850.9	8483.07
851.223	8520.36
851.546	8525.33
851.869	8423.18
852.192	8437.19
852.515	8432.22
852.838	8354.48
853.161	8390.19
853.483	8301.38
853.806	8292.79
854.129	8294.37
854.451	8256.41
854.774	8163.75
855.096	8231.55
855.419	8213.7
855.741	8154.94
856.063	8110.65
856.385	8061.16
856.708	8013.02
857.03	8066.13
857.352	8065.9
857.674	7970.31
857.996	7966.7
858.318	7958.79
858.64	7949.75
858.961	7950.43
859.283	7903.2
859.605	7902.74
859.926	7877.89
860.248	7920.82
860.57	7793.14
860.891	7854.16
861.212	7793.37
861.534	7764.22
861.855	7709.98
862.176	7731
862.498	7742.07
862.819	7752.47
863.14	7735.74
863.461	7752.01
863.782	7700.72
864.103	7687.83
864.424	7651.68
864.745	7624.56
865.065	7603.99
865.386	7646.93
865.707	7625.01
866.027	7608.06
866.348	7595.86
866.668	7531.23
866.989	7595.18
867.309	7496.88
867.63	7490.33
867.95	7526.03
868.27	7440.84
868.59	7471.57
868.91	7483.32
869.23	7532.58
869.55	7478.8
869.87	7495.98
870.19	7439.71
870.51	7514.05
870.83	7425.69
871.15	7341.4
871.469	7409.65
871.789	7383.66
872.109	7411.68
872.428	7404
872.748	7372.14
873.067	7411.46
873.386	7364.91
873.706	7320.84
874.025	7264.79
874.344	7250.11
874.663	7315.41
874.982	7293.49
875.301	7294.85
875.62	7255.3
875.939	7247.62
876.258	7258.69
876.577	7230.67
876.896	7232.93
877.214	7187.51
877.533	7204.01
877.852	7189.32
878.17	7190.22
878.489	7178.24
878.807	7184.57
879.125	7176.66
879.444	7192.48
879.762	7151.35
880.08	7101.64
880.398	7032.94
880.716	7117.45
881.034	7085.82
881.352	7082.88
881.67	7065.7
881.988	7044.69
882.306	7051.69
882.624	6982.09
882.941	6990.9
883.259	7004.24
883.577	6941.64
883.894	6873.84
884.212	6915.88
884.529	6906.16
884.846	6858.03
885.164	6862.32
885.481	6874.97
885.798	6865.71
886.115	6830.68
886.432	6842.66
886.75	6804.24
887.067	6780.97
887.383	6810.8
887.7	6834.75
888.017	6744.81
888.334	6825.48
888.651	6786.62
888.967	6751.59
889.284	6718.59
889.6	6653.96
889.917	6652.61
890.233	6670.23
890.55	6655.55
890.866	6585.26
891.182	6608.99
891.498	6603.12
891.815	6561.31
892.131	6524.02
892.447	6473.18
892.763	6548.2
893.079	6453.74
893.395	6449
893.71	6438.83
894.026	6502.1
894.342	6453.06
894.657	6412.39
894.973	6378.26
895.289	6351.82
895.604	6345.05
895.92	6289.68
896.235	6339.17
896.55	6305.72
896.865	6250.81
897.181	6229.57
897.496	6206.74
897.811	6202.45
898.126	6202.22
898.441	6126.97
898.756	6136.91
899.071	6135.11
899.386	6078.39
899.7	6034.32
900.015	6111.83
900.33	5983.47
900.644	6019.4
900.959	6023.02
901.273	6009.91
901.588	6022.79
901.902	5943.02
902.216	5900.08
902.531	5860.31
902.845	5882.91
903.159	5858.96
903.473	5824.15
903.787	5880.2
904.101	5783.25
904.415	5772.63
904.729	5812.86
905.042	5737.6
905.356	5748.9
905.67	5707.55
905.984	5738.51
906.297	5691.95
906.611	5628.45
906.924	5664.38
907.237	5625.29
907.551	5628.45
907.864	5564.95
908.177	5610.15
908.491	5545.52
908.804	5518.63
909.117	5474.79
909.43	5502.58
909.743	5431.85
910.056	5473.43
910.368	5415.58
910.681	5407.44
910.994	5372.87
911.307	5312.08
911.619	5330.16
911.932	5318.86
912.244	5305.52
912.557	5246.99
912.869	5275.47
913.181	5230.27
913.494	5164.74
913.806	5146.66
914.118	5181.23
914.43	5140.78
914.742	5109.15
915.054	5070.95
915.366	5066.89
915.678	5048.36
915.99	5041.12
916.302	5054.46
916.613	4990.73
916.925	5005.19
917.236	4918.64
917.548	4947.79
917.859	4945.31
918.171	4925.2
918.482	4900.34
918.794	4843.16
919.105	4884.29
919.416	4816.72
919.727	4798.19
920.038	4794.8
920.349	4787.35
920.66	4775.59
920.971	4771.3
921.282	4734.92
921.593	4678.87
921.903	4674.81
922.214	4629.84
922.525	4653.79
922.835	4652.21
923.146	4605.88
923.456	4608.59
923.767	4537.63
924.077	4590.51
924.387	4510.74
924.697	4503.74
925.008	4494.25
925.318	4481.82
925.628	4474.59
925.938	4473
926.248	4387.36
926.558	4393.01
926.867	4332.67
927.177	4306
927.487	4379.67
927.796	4323.63
928.106	4312.78
928.416	4326.79
928.725	4316.17
929.034	4262.39
929.344	4259.22
929.653	4258.55
929.962	4172.67
930.271	4209.28
930.581	4165.67
930.89	4175.38
931.199	4123.18
931.508	4141.94
931.817	4125.67
932.125	4105.33
932.434	4125.89
932.743	4045.67
933.051	4010.87
933.36	4050.42
933.669	3954.15
933.977	4013.13
934.286	3993.02
934.594	3943.53
934.902	3935.84
935.21	3897.88
935.519	3928.39
935.827	3848.39
936.135	3864.66
936.443	3833.47
936.751	3879.57
937.059	3851.1
937.367	3814.94
937.674	3764.1
937.982	3792.8
938.29	3775.62
938.597	3792.12
938.905	3726.81
939.213	3696.53
939.52	3719.35
939.827	3695.85
940.135	3672.35
940.442	3669.86
940.749	3667.83
941.056	3661.05
941.363	3618.79
941.67	3608.17
941.977	3602.07
942.284	3592.12
942.591	3609.3
942.898	3557.77
943.205	3509.19
943.511	3507.83
943.818	3506.02
944.125	3486.14
944.431	3482.3
944.738	3503.31
945.044	3468.96
945.35	3388.51
945.657	3454.05
945.963	3410.66
946.269	3374.05
946.575	3422.18
946.881	3353.94
947.187	3355.75
947.493	3295.86
947.799	3360.94
948.105	3329.76
948.41	3272.36
948.716	3265.8
949.022	3318.46
949.327	3268.06
949.633	3199.59
949.938	3231.45
950.244	3249.99
950.549	3202.08
950.854	3207.27
951.16	3144.68
951.465	3181.96
951.77	3135.41
952.075	3123.43
952.38	3131.34
952.685	3104.23
952.99	3101.06
953.294	3060.16
953.599	3065.58
953.904	3020.84
954.209	3055.19
954.513	3047.96
954.818	3028.07
955.122	2974.06
955.426	3007.28
955.731	2970.9
956.035	2968.41
956.339	2992.36
956.643	2942.2
956.948	2944.68
957.252	2923.67
957.556	2907.4
957.86	2887.28
958.163	2940.84
958.467	2889.09
958.771	2845.7
959.075	2865.59
959.378	2837.11
959.682	2837.34
959.985	2829.66
960.289	2826.49
960.592	2777.68
960.896	2805.03
961.199	2795.99
961.502	2749.89
961.805	2759.6
962.108	2742.65
962.411	2713.5
962.714	2682.77
963.017	2685.71
963.32	2731.13
963.623	2699.49
963.926	2678.02
964.228	2697.46
964.531	2658.14
964.833	2653.62
965.136	2603.22
965.438	2621.98
965.741	2614.07
966.043	2617.46
966.345	2576.56
966.648	2604.58
966.95	2568.42
967.252	2574.52
967.554	2532.72
967.856	2576.1
968.158	2532.26
968.46	2535.88
968.761	2555.99
969.063	2543.11
969.365	2484.58
969.666	2485.03
969.968	2433.06
970.269	2465.15
970.571	2440.29
970.872	2448.2
971.174	2410.23
971.475	2416.33
971.776	2400.29
972.077	2394.19
972.378	2397.58
972.679	2378.14
972.98	2398.93
973.281	2357.13
973.582	2342.89
973.883	2346.96
974.183	2322.78
974.484	2312.83
974.785	2322.1
975.085	2314.19
975.386	2293.63
975.686	2287.52
975.986	2297.24
976.287	2278.03
976.587	2243.01
976.887	2254.08
977.187	2235.55
977.487	2201.43
977.787	2206.85
978.087	2213.85
978.387	2173.18
978.687	2204.59
978.987	2186.06
979.286	2163.69
979.586	2163.46
979.885	2139.51
980.185	2158.71
980.484	2108.09
980.784	2110.35
981.083	2097.47
981.382	2119.85
981.682	2101.77
981.981	2106.06
982.28	2060.41
982.579	2091.6
982.878	2095.67
983.177	2046.85
983.475	2047.76
983.774	2034.88
984.073	2028.1
984.372	2011.6
984.67	2015.89
984.969	1982.22
985.267	2004.14
985.566	2021.09
985.864	1999.62
986.162	1992.84
986.461	1958.04
986.759	1975.22
987.057	1951.04
987.355	1942
987.653	1960.08
987.951	1925.95
988.249	1936.8
988.547	1930.47
988.844	1909.91
989.142	1910.36
989.44	1895.67
989.737	1890.25
990.035	1854.09
990.332	1853.41
990.63	1858.84
990.927	1831.94
991.224	1829.68
991.521	1826.75
991.819	1815.45
992.116	1796.46
992.413	1814.54
992.71	1765.5
993.006	1788.33
993.303	1773.19
993.6	1782
993.897	1763.92
994.193	1762.57
994.49	1745.39
994.787	1727.31
995.083	1756.24
995.379	1725.96
995.676	1740.42
995.972	1711.27
996.268	1689.8
996.565	1656.35
996.861	1680.31
997.157	1683.02
997.453	1677.37
997.749	1645.06
998.044	1633.98
998.34	1644.6
998.636	1616.58
998.932	1624.94
999.227	1612.06
999.523	1592.85
999.818	1591.72
1000.114	1588.11
1000.409	1625.85
1000.704	1584.49
1001	1591.95
1001.295	1556.7
1001.59	1589.24
1001.885	1577.94
1002.18	1546.75
1002.475	1549.24
1002.77	1534.55
1003.065	1506.53
1003.359	1525.74
1003.654	1485.74
1003.949	1487.77
1004.243	1459.98
1004.538	1468.79
1004.832	1483.25
1005.127	1464.5
1005.421	1477.15
1005.715	1457.72
1006.009	1451.16
1006.304	1440.32
1006.598	1425.63
1006.892	1440.54
1007.186	1427.89
1007.48	1407.77
1007.773	1399.41
1008.067	1391.05
1008.361	1384.95
1008.655	1401.22
1008.948	1375.23
1009.242	1378.17
1009.535	1363.26
1009.829	1361.9
1010.122	1356.48
1010.415	1319.19
1010.708	1327.32
1011.001	1304.73
1011.295	1342.01
1011.588	1318.51
1011.881	1289.36
1012.173	1301.11
1012.466	1292.07
1012.759	1279.42
1013.052	1305.86
1013.344	1279.42
1013.637	1270.38
1013.93	1263.14
1014.222	1271.05
1014.514	1247.33
1014.807	1227.44
1015.099	1182.92
1015.391	1227.21
1015.683	1228.57
1015.976	1214.56
1016.268	1192.19
1016.56	1171.17
1016.851	1208.91
1017.143	1210.72
1017.435	1186.31
1017.727	1170.49
1018.018	1156.48
1018.31	1186.54
1018.602	1134.33
1018.893	1148.35
1019.185	1163.49
1019.476	1109.02
1019.767	1138.18
1020.058	1105.18
1020.35	1098.18
1020.641	1089.59
1020.932	1116.48
1021.223	1081.23
1021.514	1103.83
1021.804	1090.04
1022.095	1067.9
1022.386	1059.99
1022.677	1074.68
1022.967	1057.27
1023.258	1049.82
1023.548	1014.34
1023.839	1031.74
1024.129	1011.63
1024.419	1005.3
1024.709	978.41
1025	1011.63
1025.29	999.87
1025.58	1005.3
1025.87	1004.39
1026.16	990.16
1026.449	1002.59
1026.739	984.96
1027.029	957.16
1027.319	961.46
1027.608	951.29
1027.898	967.56
1028.187	953.1
1028.477	945.86
1028.766	933.44
1029.055	948.8
1029.344	931.4
1029.634	925.07
1029.923	907.45
1030.212	911.52
1030.501	904.28
1030.79	902.25
1031.078	897.73
1031.367	894.57
1031.656	890.95
1031.945	872.65
1032.233	870.61
1032.522	860.44
1032.81	877.39
1033.099	848.01
1033.387	849.82
1033.675	845.75
1033.963	823.83
1034.251	836.26
1034.54	827.45
1034.828	820.44
1035.116	820.22
1035.403	796.26
1035.691	806.43
1035.979	803.5
1036.267	799.88
1036.554	801.46
1036.842	798.75
1037.129	805.76
1037.417	788.13
1037.704	811.63
1037.992	787.9
1038.279	775.93
1038.566	777.06
1038.853	777.06
1039.14	777.06
