Data from cardboard_FLMS001491_077.txt Node
Date: Tue Feb 07 11:40:07 GMT 2017
User: dcchb
Spectrometer: FLMS00149
Trigger mode: 0
Integration Time (sec): 2.000000E-2
Scans to average: 10
Electric dark correction enabled: true
Nonlinearity correction enabled: false
Boxcar width: 0
XAxis mode: Wavelengths
Number of Pixels in Spectrum: 2048
>>>>>Begin Spectral Data<<<<<
341.393	-27.65
341.776	-27.65
342.16	-27.65
342.543	-54.32
342.927	-73.08
343.31	-75.11
343.693	-73.3
344.077	-55
344.46	-62.46
344.843	-47.54
345.226	-45.73
345.61	-27.88
345.993	-7.99
346.376	-5.96
346.759	6.24
347.142	13.7
347.525	40.14
347.908	69.29
348.291	62.96
348.674	94.6
349.057	114.04
349.44	126.24
349.823	157.2
350.206	174.37
350.588	191.77
350.971	196.29
351.354	212.57
351.737	244.88
352.119	237.88
352.502	241.49
352.884	272.22
353.267	282.62
353.65	298.21
354.032	295.5
354.414	314.94
354.797	300.7
355.179	311.32
355.562	324.2
355.944	330.53
356.326	332.11
356.709	337.31
357.091	338.44
357.473	334.14
357.855	339.57
358.238	346.57
358.62	319.91
359.002	317.87
359.384	331.21
359.766	307.7
360.148	305.9
360.53	337.31
360.912	324.65
361.294	333.01
361.676	351.77
362.057	324.88
362.439	324.88
362.821	316.74
363.203	329.4
363.584	310.64
363.966	304.99
364.348	327.36
364.729	334.6
365.111	305.67
365.493	318.1
365.874	308.61
366.256	306.57
366.637	290.3
367.019	309.06
367.4	312.9
367.781	320.58
368.163	312.45
368.544	318.1
368.925	310.87
369.306	319.45
369.688	317.42
370.069	307.48
370.45	295.05
370.831	314.26
371.212	317.65
371.593	316.07
371.974	290.53
372.355	309.74
372.736	299.57
373.117	314.71
373.498	290.98
373.879	316.74
374.26	312.68
374.641	299.34
375.021	319.91
375.402	312.45
375.783	323.3
376.163	324.65
376.544	317.2
376.925	337.08
377.305	312.68
377.686	320.36
378.066	334.37
378.447	309.96
378.827	326.01
379.208	323.3
379.588	309.51
379.968	333.01
380.349	337.08
380.729	328.95
381.109	324.43
381.489	298.66
381.87	323.07
382.25	330.53
382.63	333.92
383.01	346.57
383.39	340.47
383.77	330.75
384.15	335.5
384.53	342.05
384.91	314.03
385.29	339.34
385.67	344.76
386.049	333.24
386.429	358.1
386.809	349.51
387.189	366.46
387.568	344.76
387.948	348.61
388.328	350.64
388.707	363.75
389.087	359.45
389.466	387.48
389.846	343.64
390.225	365.78
390.605	347.93
390.984	357.19
391.363	367.59
391.743	344.54
392.122	371.2
392.501	372.79
392.881	383.63
393.26	372.11
393.639	384.99
394.018	356.74
394.397	369.17
394.776	395.39
395.155	380.92
395.534	376.4
395.913	374.14
396.292	391.09
396.671	373.01
397.05	370.3
397.429	376.63
397.808	399
398.186	403.07
398.565	394.26
398.944	389.96
399.323	380.24
399.701	387.93
400.08	374.59
400.458	389.74
400.837	397.64
401.215	389.96
401.594	406.46
401.972	409.62
402.351	417.08
402.729	389.96
403.107	415.5
403.486	420.24
403.864	395.61
404.242	408.27
404.62	421.6
404.999	422.5
405.377	423.86
405.755	411.88
406.133	427.93
406.511	430.19
406.889	442.62
407.267	421.37
407.645	425.67
408.023	443.52
408.401	443.97
408.779	437.64
409.156	438.32
409.534	447.59
409.912	448.04
410.29	458.21
410.667	463.86
411.045	465.89
411.422	490.98
411.8	502.27
412.178	467.7
412.555	480.58
412.933	482.39
413.31	488.49
413.687	483.07
414.065	499.34
414.442	481.03
414.819	481.94
415.197	509.96
415.574	495.27
415.951	492.33
416.328	499.56
416.705	508.15
417.082	492.56
417.46	508.83
417.837	545.66
418.214	517.64
418.591	527.58
418.967	526.68
419.344	542.27
419.721	539.11
420.098	514.48
420.475	538.88
420.852	533.01
421.228	555.61
421.605	566.91
421.982	562.61
422.358	554.02
422.735	559.9
423.111	567.13
423.488	568.04
423.864	570.3
424.241	576.4
424.617	575.49
424.994	585.21
425.37	590.18
425.746	578.43
426.123	577.3
426.499	605.55
426.875	607.36
427.251	596.74
427.627	603.29
428.003	610.52
428.379	612.1
428.756	637.19
429.132	633.12
429.507	629.73
429.883	631.09
430.259	661.14
430.635	653.46
431.011	651.2
431.387	669.95
431.763	674.02
432.138	690.29
432.514	681.93
432.89	675.15
433.265	685.77
433.641	702.27
434.016	747.92
434.392	699.11
434.767	716.51
435.143	734.13
435.518	741.36
435.894	717.86
436.269	762.16
436.644	741.82
437.02	740.91
437.395	776.17
437.77	780.23
438.145	781.82
438.52	781.59
438.895	770.52
439.271	757.41
439.646	767.8
440.021	817.52
440.395	809.39
440.77	789.5
441.145	808.03
441.52	807.35
441.895	826.79
442.27	825.88
442.645	818.42
443.019	848.25
443.394	841.48
443.769	854.58
444.143	855.26
444.518	853.45
444.892	856.62
445.267	869.27
445.641	871.53
446.016	856.62
446.39	862.72
446.764	891.42
447.139	890.74
447.513	881.02
447.887	877.18
448.262	900.46
448.636	881.02
449.01	868.37
449.384	925.77
449.758	942.72
450.132	924.64
450.506	924.18
450.88	960.79
451.254	940
451.628	953.11
452.002	966.44
452.376	979.32
452.75	954.47
453.123	982.49
453.497	1002.15
453.871	995.82
454.244	1021.13
454.618	1025.88
454.992	1043.28
455.365	998.31
455.739	1038.98
456.112	1072.88
456.486	1066.55
456.859	1082.15
457.232	1104.97
457.606	1100.68
457.979	1100.9
458.352	1131.64
458.725	1153.33
459.099	1139.55
459.472	1179.77
459.845	1160.34
460.218	1189.49
460.591	1168.02
460.964	1196.49
461.337	1241.92
461.71	1233.78
462.083	1246.44
462.456	1251.41
462.829	1267.68
463.201	1271.07
463.574	1270.84
463.947	1286.44
464.32	1301.58
464.692	1346.09
465.065	1329.6
465.438	1354.68
465.81	1376.6
466.183	1357.17
466.555	1406.66
466.928	1429.48
467.3	1410.95
467.672	1453.89
468.045	1460.22
468.417	1467
468.789	1492.98
469.161	1478.52
469.534	1489.37
469.906	1556.48
470.278	1518.97
470.65	1590.61
471.022	1591.51
471.394	1613.43
471.766	1674.67
472.138	1663.15
472.51	1693.43
472.882	1701.57
473.253	1713.32
473.625	1741.34
473.997	1785.18
474.369	1787.66
474.74	1826.08
475.112	1836.03
475.484	1882.13
475.855	1903.59
476.227	1929.13
476.598	1973.42
476.97	1960.54
477.341	2014.78
477.713	2044.16
478.084	2050.03
478.455	2124.61
478.827	2128.9
479.198	2224.49
479.569	2212.51
479.94	2260.42
480.311	2250.25
480.682	2303.36
481.053	2361.89
481.424	2414.54
481.795	2409.12
482.166	2430.36
482.537	2473.52
482.908	2581.99
483.279	2553.97
483.65	2632.39
484.021	2638.49
484.391	2670.81
484.762	2684.36
485.133	2750.35
485.503	2770.01
485.874	2843.23
486.244	2896.79
486.615	2909.9
486.985	2976.11
487.356	3047.29
487.726	3037.12
488.097	3149.89
488.467	3109.21
488.837	3197.35
489.207	3245.93
489.578	3265.37
489.948	3283.67
490.318	3370.67
490.688	3395.53
491.058	3400.96
491.428	3496.77
491.798	3491.8
492.168	3570.22
492.538	3585.81
492.908	3622.64
493.278	3726.37
493.648	3711.46
494.017	3772.92
494.387	3824.22
494.757	3882.75
495.126	3948.06
495.496	3895.18
495.866	3984.44
496.235	4027.83
496.605	4065.12
496.974	4111.9
497.344	4107.38
497.713	4124.1
498.082	4211.1
498.452	4239.13
498.821	4271.22
499.19	4289.97
499.559	4381.04
499.928	4414.49
500.298	4454.04
500.667	4487.71
501.036	4495.16
501.405	4537.2
501.774	4538.78
502.143	4625.78
502.512	4658.32
502.88	4710.07
503.249	4727.93
503.618	4796.4
503.987	4792.33
504.356	4856.28
504.724	4909.84
505.093	4884.53
505.462	4981.71
505.83	4971.08
506.199	5005.89
506.567	5135.15
506.936	5144.64
507.304	5214.69
507.672	5250.17
508.041	5295.82
508.409	5330.17
508.777	5404.74
509.145	5416.27
509.514	5440.45
509.882	5519.54
510.25	5506.89
510.618	5540.33
510.986	5641.12
511.354	5666.88
511.722	5762.02
512.09	5786.66
512.458	5837.73
512.826	5908.69
513.193	5901.91
513.561	5956.37
513.929	6061.68
514.297	6130.38
514.664	6148.45
515.032	6249.92
515.4	6245.4
515.767	6340.09
516.135	6323.36
516.502	6391.16
516.869	6489.46
517.237	6534.88
517.604	6557.26
517.972	6677.03
518.339	6685.39
518.706	6714.09
519.073	6760.64
519.44	6864.59
519.808	6931.71
520.175	6956.34
520.542	7062.55
520.909	7051.93
521.276	7107.75
521.643	7219.61
522.009	7291.93
522.376	7377.8
522.743	7390.68
523.11	7533.73
523.477	7605.14
523.843	7734.63
524.21	7758.36
524.577	7846.04
524.943	7879.03
525.31	7947.05
525.676	8078.35
526.043	8150.44
526.409	8145.46
526.776	8317.21
527.142	8323.54
527.508	8394.27
527.874	8514.04
528.241	8546.81
528.607	8598.79
528.973	8726.24
529.339	8728.05
529.705	8779.8
530.071	8965.78
530.437	9004.42
530.803	9039.68
531.169	9142.05
531.535	9168.26
531.901	9262.27
532.267	9279.9
532.632	9382.95
532.998	9439.67
533.364	9558.53
533.73	9566.9
534.095	9675.59
534.461	9701.58
534.826	9749.26
535.192	9847.11
535.557	9918.3
535.923	9943.61
536.288	10029.26
536.653	10070.61
537.019	10108.12
537.384	10142.25
537.749	10212.98
538.114	10282.36
538.479	10409.13
538.845	10480.77
539.21	10384.95
539.575	10537.94
539.94	10525.29
540.305	10662.01
540.67	10666.08
541.034	10735.45
541.399	10838.5
541.764	10917.37
542.129	10886.63
542.494	11054.54
542.858	11116.01
543.223	11088.89
543.587	11223.57
543.952	11283.91
544.316	11370.69
544.681	11288.88
545.045	11363.01
545.41	11488.2
545.774	11526.17
546.138	11587.41
546.503	11656.11
546.867	11687.74
547.231	11808.64
547.595	11824.46
547.959	11905.14
548.324	11919.83
548.688	11987.85
549.052	12021.52
549.416	12104
549.779	12137.22
550.143	12231.46
550.507	12397.1
550.871	12411.79
551.235	12435.29
551.599	12515.52
551.962	12526.59
552.326	12771.56
552.689	12741.73
553.053	12747.38
553.417	12793.03
553.78	12941.72
554.143	12946.02
554.507	13030.99
554.87	13132.23
555.234	13274.59
555.597	13222.17
555.96	13288.83
556.323	13348.49
556.686	13444.08
557.05	13643.4
557.413	13659.22
557.776	13684.53
558.139	13710.29
558.502	13864.41
558.865	13910.51
559.228	14028.7
559.59	14083.84
559.953	14089.26
560.316	14364.96
560.679	14322.25
561.041	14504.84
561.404	14546.43
561.767	14681.11
562.129	14702.35
562.492	14882.69
562.854	14936.47
563.217	14941.22
563.579	14936.7
563.941	15064.38
564.304	15133.98
564.666	15277.93
565.028	15386.18
565.39	15458.49
565.753	15607.87
566.115	15645.38
566.477	15659.84
566.839	15735.32
567.201	15902.32
567.563	15881.98
567.925	15997.23
568.287	16127.63
568.648	16208.3
569.01	16258.02
569.372	16394.06
569.734	16325.14
570.095	16520.84
570.457	16642.42
570.819	16647.39
571.18	16686.93
571.542	16838.34
571.903	16867.95
572.265	16936.87
572.626	16977.32
572.987	17171.22
573.349	17215.06
573.71	17274.72
574.071	17352.68
574.432	17316.97
574.794	17502.51
575.155	17522.17
575.516	17554.71
575.877	17605.33
576.238	17636.06
576.599	17720.35
576.96	17813.46
577.32	17844.87
577.681	17896.39
578.042	17971.42
578.403	17998.09
578.763	18081.02
579.124	18172.09
579.485	18280.11
579.845	18274.91
580.206	18269.94
580.566	18321.69
580.927	18379.32
581.287	18527.34
581.648	18405.08
582.008	18521.01
582.368	18571.63
582.728	18592.19
583.089	18620.22
583.449	18663.15
583.809	18709.48
584.169	18761.68
584.529	18796.71
584.889	18887.55
585.249	18679.42
585.609	18776.82
585.969	18890.72
586.329	18933.43
586.688	19028.57
587.048	18979.98
587.408	18967.33
587.768	19040.09
588.127	19064.72
588.487	19044.16
588.846	19191.05
589.206	19080.54
589.565	19231.5
589.925	19289.35
590.284	19361.44
590.643	19391.27
591.003	19339.07
591.362	19389.69
591.721	19399.18
592.08	19492.51
592.44	19617.03
592.799	19527.31
593.158	19544.94
593.517	19542.23
593.876	19622.68
594.235	19601.43
594.593	19585.61
594.952	19594.43
595.311	19606.86
595.67	19697.48
596.029	19919.39
596.387	19852.73
596.746	19969.33
597.104	19854.08
597.463	19851.6
597.822	19997.58
598.18	19924.82
598.538	19911.26
598.897	19996
599.255	19894.53
599.613	20112.83
599.972	20177.01
600.33	20151.02
600.688	20097.92
601.046	20279.83
601.404	20335.65
601.762	20268.99
602.12	20430.34
602.478	20437.57
602.836	20422.43
603.194	20375.2
603.552	20474.41
603.91	20373.84
604.268	20512.6
604.625	20515.53
604.983	20536.32
605.341	20498.81
605.698	20605.48
606.056	20715.3
606.413	20672.59
606.771	20704.91
607.128	20826.26
607.485	20707.85
607.843	20810.67
608.2	20851.8
608.557	20902.19
608.914	20956.2
609.272	21074.16
609.629	21156.42
609.986	21228.06
610.343	21075.52
610.7	21221.96
611.057	21273.25
611.414	21242.75
611.771	21325
612.127	21336.08
612.484	21309.86
612.841	21406.81
613.198	21434.38
613.554	21445.91
613.911	21464.89
614.267	21602.51
614.624	21524.1
614.98	21579.01
615.337	21684.54
615.693	21698.55
616.05	21658.1
616.406	21835.5
616.762	21853.13
617.118	21729.74
617.475	21751.21
617.831	21881.83
618.187	21972.44
618.543	22061.93
618.899	22006.79
619.255	22045.21
619.611	22020.35
619.967	22097.19
620.323	22280.46
620.678	22050.63
621.034	22088.37
621.39	22136.06
621.746	22042.27
622.101	22303.74
622.457	22260.8
622.812	22208.14
623.168	22314.36
623.523	22352.55
623.879	22467.35
624.234	22297.86
624.589	22343.06
624.945	22387.58
625.3	22468.03
625.655	22423.73
626.01	22468.25
626.365	22529.04
626.72	22397.52
627.075	22434.35
627.43	22399.1
627.785	22401.36
628.14	22577.4
628.495	22582.6
628.85	22482.49
629.205	22452.21
629.559	22542.15
629.914	22485.65
630.269	22539.21
630.623	22395.03
630.978	22480.68
631.332	22649.04
631.687	22595.03
632.041	22499.21
632.396	22583.05
632.75	22501.92
633.104	22544.41
633.459	22410.63
633.813	22584.63
634.167	22434.81
634.521	22407.69
634.875	22461.47
635.229	22468.93
635.583	22293.57
635.937	22393
636.291	22338.08
636.645	22359.1
636.999	22407.69
637.352	22392.09
637.706	22273
638.06	22471.19
638.413	22407.01
638.767	22329.05
639.121	22224.64
639.474	22186.45
639.828	22100.35
640.181	22298.31
640.534	22327.69
640.888	22221.48
641.241	22211.76
641.594	22237.75
641.947	22253.34
642.301	22156.62
642.654	22194.13
643.007	22285.43
643.36	22196.85
643.713	22185.09
644.066	22186.9
644.419	22156.39
644.771	22036.85
645.124	21743.98
645.477	21853.35
645.83	21690.64
646.182	21578.78
646.535	21469.86
646.888	21575.85
647.24	21543.98
647.593	21684.54
647.945	21532.68
648.298	21479.58
648.65	21516.86
649.002	21453.36
649.355	21546.24
649.707	21518.45
650.059	21619.46
650.411	21923.41
650.763	21925.89
651.115	22138.77
651.467	21991.88
651.819	22014.03
652.171	22061.71
652.523	21985.55
652.875	22077.3
653.227	21867.81
653.578	22062.84
653.93	22030.52
654.282	21975.83
654.633	21915.95
654.985	21898.77
655.337	21956.63
655.688	22001.6
656.039	21969.06
656.391	21808.83
656.742	21861.94
657.094	21943.75
657.445	21972.67
657.796	21932.9
658.147	21901.26
658.498	21934.71
658.849	21986
659.2	21898.1
659.551	21906.46
659.902	22021.03
660.253	21935.84
660.604	22061.03
660.955	21951.65
661.306	21922.73
661.656	21931.99
662.007	21959.79
662.358	21896.97
662.708	21971.31
663.059	21967.7
663.409	21870.53
663.76	22039.56
664.11	22041.14
664.461	21973.8
664.811	22043.4
665.161	22008.38
665.511	21994.14
665.862	22023.06
666.212	22092.22
666.562	22094.7
666.912	22078.66
667.262	21969.96
667.612	22043.63
667.962	21992.11
668.312	21925.89
668.662	22110.97
669.011	21921.82
669.361	22062.16
669.711	21997.75
670.06	22020.35
670.41	21967.93
670.76	21962.28
671.109	22088.37
671.459	22023.06
671.808	21952.78
672.157	22003.4
672.507	21805.44
672.856	22030.97
673.205	21929.96
673.554	22113.91
673.904	21906.68
674.253	22098.77
674.602	22019
674.951	21727.71
675.3	21586.92
675.649	21917.98
675.998	21833.47
676.346	21928.6
676.695	21957.3
677.044	21878.21
677.393	21891.32
677.741	21969.73
678.09	21847.93
678.438	21887.25
678.787	21811.32
679.135	21931.77
679.484	21815.61
679.832	21692.68
680.181	21814.48
680.529	21793.47
680.877	21673.02
681.225	21656.29
681.573	21872.56
681.922	21651.78
682.27	21620.36
682.618	21701.27
682.966	21535.62
683.314	21604.77
683.661	21565.22
684.009	21465.79
684.357	21517.77
684.705	21400.71
685.053	21546.02
685.4	21476.41
685.748	21290.88
686.095	21239.81
686.443	21181.28
686.79	21247.72
687.138	21286.59
687.485	21343.08
687.832	21309.64
688.18	21285.01
688.527	21103.09
688.874	21145.35
689.221	21121.39
689.568	21081.17
689.915	21034.84
690.262	20958.69
690.609	20957.33
690.956	20914.17
691.303	20866.94
691.65	20834.17
691.997	20840.95
692.344	20649.09
692.69	20611.8
693.037	20740.61
693.383	20512.6
693.73	20569.32
694.077	20371.58
694.423	20423.33
694.769	20435.54
695.116	20386.05
695.462	20313.28
695.808	20297.23
696.155	20379.27
696.501	20160.29
696.847	20119.39
697.193	20047.3
697.539	20191.02
697.885	19970.24
698.231	19975.66
698.577	19948.54
698.923	19913.29
699.269	19911.26
699.614	19784.93
699.96	19767.31
700.306	19787.19
700.651	19723.46
700.997	19613.64
701.342	19631.26
701.688	19649.12
702.033	19465.62
702.379	19606.41
702.724	19509.23
703.069	19614.31
703.415	19278.73
703.76	19290.93
704.105	19217.49
704.45	19352.63
704.795	19212.07
705.14	19072.63
705.485	19150.82
705.83	19016.36
706.175	19197.15
706.52	19049.58
706.865	18895.69
707.209	18861.11
707.554	18830.38
707.899	18872.19
708.243	18787.9
708.588	18737.28
708.932	18696.6
709.277	18643.04
709.621	18761
709.966	18614.34
710.31	18587
710.654	18454.8
710.998	18473.33
711.342	18542.48
711.687	18468.36
712.031	18389.04
712.375	18291.41
712.719	18353.33
713.063	18305.42
713.407	18379.77
713.75	18340.68
714.094	18205.31
714.438	18267.68
714.782	18213.67
715.125	18142.04
715.469	18185.88
715.812	18106.78
716.156	17947.69
716.499	18048.25
716.843	18062.72
717.186	17949.27
717.53	17964.87
717.873	17970.29
718.216	18033.79
718.559	17885.77
718.902	17834.47
719.246	17697.3
719.589	17821.82
719.932	17718.77
720.275	17759.45
720.617	17657.53
720.96	17689.39
721.303	17683.74
721.646	17692.56
721.989	17628.6
722.331	17700.01
722.674	17616.85
723.016	17647.59
723.359	17595.84
723.701	17557.65
724.044	17508.16
724.386	17457.54
724.729	17539.34
725.071	17481.49
725.413	17437.65
725.755	17441.94
726.097	17366.01
726.439	17394.26
726.782	17316.07
727.124	17402.85
727.465	17309.06
727.807	17373.02
728.149	17278.11
728.491	17277.43
728.833	17364.43
729.175	17261.38
729.516	17203.53
729.858	17265.68
730.199	17292.57
730.541	17161.27
730.882	17155.17
731.224	17260.7
731.565	17021.39
731.906	17134.15
732.248	17140.26
732.589	17084.44
732.93	17027.49
733.271	17061.16
733.612	17090.54
733.953	17114.72
734.294	16999.69
734.635	16933.71
734.976	17013.25
735.317	16978.68
735.658	16990.43
735.999	16988.17
736.339	16939.81
736.68	16894.16
737.021	17014.16
737.361	16879.02
737.702	16912.24
738.042	16998.34
738.383	16916.53
738.723	16830.66
739.063	16813.94
739.404	16942.75
739.744	16823.43
740.084	16818.91
740.424	16817.33
740.764	16765.8
741.104	16870.88
741.444	16765.35
741.784	16752.7
742.124	16685.8
742.464	16736.2
742.804	16665.24
743.143	16685.13
743.483	16706.37
743.823	16625.69
744.162	16632.92
744.502	16729.42
744.841	16669.76
745.181	16711.11
745.52	16652.81
745.86	16599.93
746.199	16575.3
746.538	16642.42
746.877	16632.02
747.216	16683.09
747.556	16505.02
747.895	16679.7
748.234	16515.19
748.573	16538.01
748.911	16458.92
749.25	16575.07
749.589	16441.97
749.928	16402.2
750.267	16514.74
750.605	16462.31
750.944	16452.59
751.283	16436.55
751.621	16402.2
751.96	16314.74
752.298	16340.28
752.636	16410.56
752.975	16301.41
753.313	16335.76
753.651	16355.64
753.989	16222.54
754.327	16256.44
754.666	16196.55
755.004	16175.99
755.342	16224.57
755.679	16249.88
756.017	16014.64
756.355	16183.44
756.693	16143.22
757.031	16083.56
757.368	16055.99
757.706	16045.14
758.044	15931.93
758.381	16051.02
758.719	15951.81
759.056	16058.48
759.394	15918.82
759.731	15890.34
760.068	15831.82
760.405	15899.16
760.743	15753.85
761.08	15796.11
761.417	15707.07
761.754	15676.79
762.091	15738.03
762.428	15566.74
762.765	15581.88
763.102	15606.96
763.438	15475.89
763.775	15401.77
764.112	15373.3
764.449	15446.29
764.785	15324.94
765.122	15314.54
765.458	15246.07
765.795	15191.15
766.131	15250.14
766.467	15216.01
766.804	15095.11
767.14	15021.22
767.476	14978.96
767.812	15062.12
768.148	15059.63
768.485	14968.34
768.821	14815.12
769.157	14916.59
769.492	14783.26
769.828	14805.85
770.164	14613.09
770.5	14691.73
770.836	14724.73
771.171	14591.62
771.507	14586.42
771.842	14478.18
772.178	14465.3
772.513	14468.91
772.849	14439.54
773.184	14293.1
773.519	14285.19
773.855	14330.84
774.19	14225.08
774.525	14197.51
774.86	14131.07
775.195	14118.19
775.53	14087.45
775.865	13999.55
776.2	13968.81
776.535	13874.8
776.87	13872.54
777.205	13824.18
777.539	13741.93
777.874	13839.55
778.209	13653.79
778.543	13666.45
778.878	13576.73
779.212	13603.63
779.547	13576.51
779.881	13558.2
780.215	13452.67
780.55	13467.36
780.884	13342.39
781.218	13357.76
781.552	13344.2
781.886	13255.39
782.22	13204.77
782.554	13147.59
782.888	13104.66
783.222	12990.99
783.556	13040.02
783.889	12944.66
784.223	12897.43
784.557	12915.51
784.89	12849.97
785.224	12906.92
785.557	12714.38
785.891	12732.46
786.224	12780.14
786.558	12639.36
786.891	12637.55
787.224	12503.32
787.557	12544.44
787.891	12504.9
788.224	12489.53
788.557	12509.64
788.89	12449.31
789.223	12367.95
789.556	12309.65
789.888	12238.01
790.221	12188.07
790.554	12119.6
790.887	12115.53
791.219	12146.71
791.552	12053.61
791.884	12025.36
792.217	11949.43
792.549	11949.21
792.882	11859.26
793.214	11886.38
793.546	11871.69
793.879	11761.19
794.211	11773.84
794.543	11781.75
794.875	11699.27
795.207	11720.74
795.539	11630.8
795.871	11709.21
796.203	11567.29
796.535	11514.41
796.867	11507.41
797.198	11498.37
797.53	11445.26
797.862	11406.17
798.193	11340.41
798.525	11294.99
798.856	11370.69
799.188	11200.07
799.519	11238.49
799.85	11183.58
800.182	11173.41
800.513	11162.56
800.844	11110.13
801.175	11058.38
801.506	11169.57
801.837	11111.71
802.168	10990.59
802.499	11000.76
802.83	10938.16
803.161	10935.9
803.491	10846.64
803.822	10936.58
804.153	10834.88
804.483	10722.8
804.814	10793.08
805.145	10732.97
805.475	10740.42
805.805	10647.32
806.136	10690.71
806.466	10747.2
806.796	10692.74
807.126	10570.71
807.457	10577.04
807.787	10553.08
808.117	10499.53
808.447	10453.88
808.777	10532.97
809.107	10484.16
809.436	10450.49
809.766	10404.61
810.096	10353.32
810.426	10392.18
810.755	10394.44
811.085	10241.45
811.414	10323.26
811.744	10196.03
812.073	10230.61
812.403	10228.8
812.732	10144.96
813.061	10137.05
813.39	10088.69
813.719	10125.52
814.049	10165.52
814.378	10047.11
814.707	10063.83
815.036	10121.91
815.365	9983.38
815.693	9911.97
816.022	9898.41
816.351	9962.82
816.68	9829.26
817.008	9939.77
817.337	9850.05
817.665	9784.74
817.994	9732.99
818.322	9793.56
818.651	9760.11
818.979	9711.52
819.307	9762.6
819.636	9739.55
819.964	9635.59
820.292	9704.74
820.62	9730.96
820.948	9675.82
821.276	9705.65
821.604	9596.27
821.932	9715.82
822.259	9667.91
822.587	9655.03
822.915	9701.58
823.243	9725.76
823.57	9559.44
823.898	9631.98
824.225	9621.81
824.553	9630.4
824.88	9612.32
825.207	9688.25
825.535	9676.27
825.862	9676.5
826.189	9648.48
826.516	9668.81
826.843	9757.4
827.17	9671.75
827.497	9765.31
827.824	9694.35
828.151	9674.92
828.478	9664.52
828.805	9720.56
829.131	9705.87
829.458	9615.03
829.785	9648.7
830.111	9607.35
830.438	9718.76
830.764	9680.56
831.09	9644.63
831.417	9706.55
831.743	9683.5
832.069	9675.59
832.395	9641.92
832.722	9699.1
833.048	9608.93
833.374	9632.43
833.7	9521.92
834.026	9619.32
834.351	9598.31
834.677	9598.31
835.003	9653.45
835.329	9590.85
835.654	9627.46
835.98	9595.82
836.306	9556.27
836.631	9580.23
836.956	9593.11
837.282	9555.14
837.607	9551.75
837.932	9496.16
838.258	9520.12
838.583	9464.3
838.908	9459.55
839.233	9476.28
839.558	9441.25
839.883	9352.89
840.208	9337.07
840.533	9413.23
840.858	9406.45
841.182	9407.8
841.507	9369.16
841.832	9343.17
842.156	9312.21
842.481	9342.04
842.805	9240.8
843.13	9226.79
843.454	9234.02
843.778	9282.38
844.103	9246.45
844.427	9204.64
844.751	9156.96
845.075	9191.99
845.399	9157.64
845.723	9088.49
846.047	9113.12
846.371	9062.95
846.695	9059.79
847.019	8933.69
847.343	8900.7
847.666	8875.84
847.99	8840.81
848.313	8901.38
848.637	8810.08
848.96	8729.4
849.284	8711.55
849.607	8654.38
849.931	8698.9
850.254	8602.4
850.577	8559.92
850.9	8570.76
851.223	8538.45
851.546	8482.63
851.869	8417.32
852.192	8512.69
852.515	8379.58
852.838	8367.15
853.161	8367.6
853.483	8364.89
853.806	8325.12
854.129	8262.07
854.451	8312.69
854.774	8218.23
855.096	8219.36
855.419	8208.06
855.741	8152.47
856.063	8138.01
856.385	8072.7
856.708	8042.19
857.03	8008.29
857.352	8062.98
857.674	7982.3
857.996	7992.47
858.318	7898.46
858.64	7994.06
858.961	7936.43
859.283	7897.79
859.605	7868.41
859.926	7963.32
860.248	7850.78
860.57	7855.53
860.891	7815.08
861.212	7734.85
861.534	7794.51
861.855	7741.63
862.176	7792.7
862.498	7785.02
862.819	7740.73
863.14	7679.04
863.461	7685.59
863.782	7691.24
864.103	7674.06
864.424	7651.24
864.745	7651.69
865.065	7652.37
865.386	7625.25
865.707	7598.59
866.027	7575.08
866.348	7563.11
866.668	7565.14
866.989	7573.05
867.309	7511.36
867.63	7523.79
867.95	7507.29
868.27	7499.83
868.59	7500.06
868.91	7439.27
869.23	7546.16
869.55	7416.44
869.87	7475.2
870.19	7470
870.51	7426.39
870.83	7453.28
871.15	7366.28
871.469	7387.07
871.789	7404.47
872.109	7405.14
872.428	7399.04
872.748	7388.65
873.067	7318.82
873.386	7423.9
873.706	7374.86
874.025	7319.04
874.344	7274.3
874.663	7268.42
874.982	7300.97
875.301	7314.53
875.62	7257.58
875.939	7238.59
876.258	7232.72
876.577	7231.59
876.896	7265.71
877.214	7153.63
877.533	7218.93
877.852	7185.26
878.17	7152.27
878.489	7194.08
878.807	7171.93
879.125	7122.67
879.444	7220.97
879.762	7121.76
880.08	7112.27
880.398	7100.07
880.716	7102.1
881.034	7089.45
881.352	7076.11
881.67	7032.5
881.988	7068.43
882.306	7043.57
882.624	7055.32
882.941	6988.88
883.259	7020.97
883.577	6969.22
883.894	6888.55
884.212	6901.2
884.529	6933.74
884.846	6901.2
885.164	6927.87
885.481	6837.48
885.798	6877.47
886.115	6886.97
886.432	6899.17
886.75	6804.93
887.067	6838.38
887.383	6811.04
887.7	6759.51
888.017	6773.07
888.334	6742.11
888.651	6809.91
888.967	6732.85
889.284	6674.77
889.6	6646.07
889.917	6665.73
890.233	6664.37
890.55	6640.64
890.866	6627.31
891.182	6649.01
891.498	6562.45
891.815	6652.62
892.131	6488.11
892.447	6519.74
892.763	6489.69
893.079	6524.49
893.395	6488.78
893.71	6499.18
894.026	6446.3
894.342	6409.92
894.657	6374.89
894.973	6371.27
895.289	6321.1
895.604	6375.79
895.92	6271.16
896.235	6348
896.55	6260.99
896.865	6308.45
897.181	6265.74
897.496	6253.54
897.811	6211.5
898.126	6218.28
898.441	6153.2
898.756	6198.85
899.071	6105.74
899.386	6103.26
899.7	6076.59
900.015	6065.74
900.33	5970.83
900.644	5987.33
900.959	5995.01
901.273	6006.99
901.588	5906.43
901.902	5932.64
902.216	5900.78
902.531	5892.42
902.845	5926.09
903.159	5842.47
903.473	5807.9
903.787	5797.73
904.101	5838.18
904.415	5801.34
904.729	5752.08
905.042	5725.19
905.356	5751.85
905.67	5731.52
905.984	5693.1
906.297	5701.01
906.611	5639.54
906.924	5654.91
907.237	5684.51
907.551	5604.74
907.864	5650.39
908.177	5548.02
908.491	5543.95
908.804	5527.68
909.117	5577.85
909.43	5507.34
909.743	5395.48
910.056	5425.54
910.368	5371.3
910.681	5395.71
910.994	5402.26
911.307	5326.33
911.619	5262.38
911.932	5322.49
912.244	5303.28
912.557	5256.27
912.869	5231.64
913.181	5254.47
913.494	5187.12
913.806	5134.7
914.118	5144.19
914.43	5139.44
914.742	5102.83
915.054	5087.47
915.366	5060.57
915.678	5030.74
915.99	5032.33
916.302	5006.56
916.613	4928.6
916.925	4978.99
917.236	4976.73
917.548	4918.66
917.859	4914.14
918.171	4921.37
918.482	4887.7
918.794	4862.16
919.105	4859.67
919.416	4858.54
919.727	4802.73
920.038	4854.25
920.349	4808.6
920.66	4721.15
920.971	4740.36
921.282	4697.64
921.593	4667.82
921.903	4682.73
922.214	4690.41
922.525	4633.01
922.835	4611.09
923.146	4586.91
923.456	4578.55
923.767	4574.94
924.077	4558.67
924.387	4536.52
924.697	4508.72
925.008	4538.55
925.318	4514.6
925.628	4483.64
925.938	4469.85
926.248	4391.66
926.558	4409.74
926.867	4391.89
927.177	4421.49
927.487	4372.68
927.796	4310.99
928.106	4340.59
928.416	4315.51
928.725	4255.17
929.034	4255.85
929.344	4248.17
929.653	4273.7
929.962	4200.26
930.271	4183.31
930.581	4191.22
930.89	4138.11
931.199	4133.37
931.508	4093.37
931.817	4171.56
932.125	4101.95
932.434	4074.84
932.743	4095.85
933.051	4038.91
933.36	4007.95
933.669	4009.75
933.977	3989.64
934.286	4009.08
934.594	3985.12
934.902	3929.98
935.21	3917.55
935.519	3918.46
935.827	3869.64
936.135	3876.2
936.443	3886.59
936.751	3838.68
937.059	3819.48
937.367	3829.87
937.674	3856.09
937.982	3792.36
938.29	3791
938.597	3761.4
938.905	3707.39
939.213	3731.57
939.52	3702.42
939.827	3722.76
940.135	3694.06
940.442	3662.19
940.749	3644.34
941.056	3662.64
941.363	3611.12
941.67	3656.09
941.977	3586.26
942.284	3587.17
942.591	3622.42
942.898	3569.09
943.205	3554.62
943.511	3501.74
943.818	3537.9
944.125	3442.08
944.431	3486.38
944.738	3472.59
945.044	3437.79
945.35	3461.07
945.657	3408.41
945.963	3401.86
946.269	3381.07
946.575	3384.91
946.881	3336.1
947.187	3393.05
947.493	3353.5
947.799	3353.95
948.105	3303.56
948.41	3288.64
948.716	3286.38
949.022	3297.23
949.327	3281.64
949.633	3214.52
949.938	3239.83
950.244	3249.32
950.549	3191.47
950.854	3188.76
951.16	3184.24
951.465	3168.65
951.77	3138.82
952.075	3118.7
952.38	3154.86
952.685	3127.52
952.99	3042.32
953.294	3110.12
953.599	3025.37
953.904	3035.77
954.209	3049.78
954.513	3002.77
954.818	3015.66
955.122	3013.62
955.426	2989.67
955.731	2988.09
956.035	2989.22
956.339	2955.54
956.643	2967.75
956.948	2921.87
957.252	2941.98
957.556	2882.78
957.86	2888.65
958.163	2917.35
958.467	2873.96
958.771	2918.93
959.075	2851.37
959.378	2868.77
959.682	2847.52
959.985	2827.19
960.289	2809.56
960.592	2828.77
960.896	2811.14
961.199	2767.98
961.502	2788.99
961.805	2798.71
962.108	2725.49
962.411	2723.69
962.714	2722.78
963.017	2722.1
963.32	2744.93
963.623	2669.45
963.926	2710.58
964.228	2632.84
964.531	2648.89
964.833	2650.24
965.136	2596.91
965.438	2629.22
965.741	2582.22
966.043	2589.23
966.345	2584.93
966.648	2604.59
966.95	2569.11
967.252	2521.88
967.554	2532.28
967.856	2514.88
968.158	2546.97
968.46	2554.88
968.761	2491.38
969.063	2520.98
969.365	2476.01
969.666	2492.51
969.968	2477.36
970.269	2451.15
970.571	2437.37
970.872	2412.28
971.174	2424.26
971.475	2409.8
971.776	2401.66
972.077	2413.41
972.378	2379.06
972.679	2372.51
972.98	2366.18
973.281	2379.51
973.582	2352.85
973.883	2306.3
974.183	2306.52
974.484	2283.47
974.785	2314.88
975.085	2313.3
975.386	2281.21
975.686	2258.39
975.986	2271.04
976.287	2273.3
976.587	2259.74
976.887	2227.43
977.187	2252.29
977.487	2263.58
977.787	2215.45
978.087	2191.72
978.387	2180.2
978.687	2176.36
978.987	2198.95
979.286	2194.66
979.586	2166.19
979.885	2156.92
980.185	2126.86
980.484	2133.64
980.784	2149.92
981.083	2108.33
981.382	2094.55
981.682	2114.89
981.981	2060.2
982.28	2069.24
982.579	2063.14
982.878	2097.94
983.177	2076.47
983.475	2066.3
983.774	2026.53
984.073	2011.61
984.372	1995.79
984.67	2024.95
984.969	2044.61
985.267	2009.81
985.566	1957.6
985.864	1985.17
986.162	1979.98
986.461	1972.97
986.759	1963.03
987.057	1938.17
987.355	1930.26
987.653	1902.46
987.951	1951.5
988.249	1937.04
988.547	1893.2
988.844	1881.67
989.142	1902.24
989.44	1878.28
989.737	1877.15
990.035	1848.23
990.332	1883.93
990.63	1837.16
990.927	1866.76
991.224	1860.21
991.521	1833.31
991.819	1836.48
992.116	1844.61
992.413	1805.52
992.71	1793.99
993.006	1797.61
993.303	1784.05
993.6	1775.24
993.897	1760.77
994.193	1763.71
994.49	1776.59
994.787	1760.55
995.083	1711.06
995.379	1721.45
995.676	1715.8
995.972	1725.75
996.268	1699.98
996.565	1686.65
996.861	1694.79
997.157	1678.52
997.453	1699.53
997.749	1673.54
998.044	1674.45
998.34	1654.79
998.636	1651.85
998.932	1648.23
999.227	1596.48
999.523	1641.23
999.818	1601.23
1000.114	1609.36
1000.409	1589.93
1000.704	1568.91
1001	1591.96
1001.295	1563.26
1001.59	1569.59
1001.885	1571.17
1002.18	1547.67
1002.475	1531.63
1002.77	1518.07
1003.065	1531.17
1003.359	1549.71
1003.654	1523.49
1003.949	1500.89
1004.243	1497.5
1004.538	1493.44
1004.832	1486.2
1005.127	1478.07
1005.421	1465.41
1005.715	1454.57
1006.009	1467
1006.304	1444.17
1006.598	1457.96
1006.892	1408.69
1007.186	1429.03
1007.48	1434
1007.773	1410.27
1008.067	1403.72
1008.361	1407.56
1008.655	1422.7
1008.948	1397.17
1009.242	1391.97
1009.535	1370.73
1009.829	1361.91
1010.122	1330.28
1010.415	1323.04
1010.708	1317.85
1011.001	1339.99
1011.295	1354
1011.588	1339.77
1011.881	1300.9
1012.173	1317.62
1012.466	1296.15
1012.759	1295.02
1013.052	1281.24
1013.344	1289.15
1013.637	1260.9
1013.93	1275.14
1014.222	1241.46
1014.514	1233.1
1014.807	1197.62
1015.099	1228.36
1015.391	1213.44
1015.683	1250.96
1015.976	1222.26
1016.268	1201.01
1016.56	1194.46
1016.851	1186.78
1017.143	1198.98
1017.435	1186.78
1017.727	1185.42
1018.018	1157.85
1018.31	1153.33
1018.602	1186.32
1018.893	1120.34
1019.185	1154.01
1019.476	1132.09
1019.767	1101.36
1020.058	1114.01
1020.35	1112.2
1020.641	1118.53
1020.932	1105.42
1021.223	1097.29
1021.514	1092.09
1021.804	1083.73
1022.095	1055.03
1022.386	1066.1
1022.677	1060.68
1022.967	1090.73
1023.258	1053.9
1023.548	1033.11
1023.839	1031.07
1024.129	1038.76
1024.419	1020.23
1024.709	1002.15
1025	1024.75
1025.29	1004.41
1025.58	1019.55
1025.87	998.53
1026.16	989.04
1026.449	986.1
1026.739	973.67
1027.029	971.42
1027.319	963.28
1027.608	939.33
1027.898	951.3
1028.187	958.31
1028.477	945.43
1028.766	939.1
1029.055	925.31
1029.344	929.83
1029.634	933.45
1029.923	911.3
1030.212	911.76
1030.501	906.11
1030.79	906.11
1031.078	880.57
1031.367	903.17
1031.656	871.98
1031.945	902.94
1032.233	884.19
1032.522	862.04
1032.81	853.9
1033.099	874.69
1033.387	852.1
1033.675	852.77
1033.963	839.44
1034.251	852.32
1034.54	856.62
1034.828	827.01
1035.116	833.11
1035.403	824.98
1035.691	819.33
1035.979	832.44
1036.267	810.97
1036.554	804.19
1036.842	791.31
1037.129	798.09
1037.417	787.01
1037.704	801.25
1037.992	781.82
1038.279	786.79
1038.566	783.85
1038.853	783.85
1039.14	783.85
