Data from cardboard_FLMS001491_084.txt Node
Date: Tue Feb 07 11:40:16 GMT 2017
User: dcchb
Spectrometer: FLMS00149
Trigger mode: 0
Integration Time (sec): 2.000000E-2
Scans to average: 10
Electric dark correction enabled: true
Nonlinearity correction enabled: false
Boxcar width: 0
XAxis mode: Wavelengths
Number of Pixels in Spectrum: 2048
>>>>>Begin Spectral Data<<<<<
341.393	-12.51
341.776	-12.51
342.16	-12.51
342.543	-36.02
342.927	-55
343.31	-79.4
343.693	-84.6
344.077	-70.14
344.46	-53.64
344.843	-53.64
345.226	-32.85
345.61	-21.55
345.993	-3.25
346.376	-8.22
346.759	-0.54
347.142	26.81
347.525	40.14
347.908	43.08
348.291	87.82
348.674	109.74
349.057	100.25
349.44	134.37
349.823	145.9
350.206	159.23
350.588	210.08
350.971	214.15
351.354	222.73
351.737	229.06
352.119	243.75
352.502	278.55
352.884	285.56
353.267	273.58
353.65	280.81
354.032	306.35
354.414	324.65
354.797	302.96
355.179	332.79
355.562	321.04
355.944	333.47
356.326	332.34
356.709	322.17
357.091	323.97
357.473	344.09
357.855	318.1
358.238	354.26
358.62	361.71
359.002	359.91
359.384	344.31
359.766	347.25
360.148	326.23
360.53	333.69
360.912	344.09
361.294	336.18
361.676	326.23
362.057	313.13
362.439	365.1
362.821	339.34
363.203	357.42
363.584	327.82
363.966	320.36
364.348	336.4
364.729	333.47
365.111	315.16
365.493	327.14
365.874	350.19
366.256	320.81
366.637	312.68
367.019	322.17
367.4	317.87
367.781	319
368.163	301.38
368.544	303.86
368.925	317.42
369.306	315.39
369.688	332.11
370.069	322.84
370.45	328.72
370.831	333.47
371.212	323.52
371.593	339.79
371.974	314.26
372.355	337.08
372.736	335.5
373.117	309.74
373.498	294.37
373.879	293.92
374.26	319
374.641	296.63
375.021	311.77
375.402	327.14
375.783	359
376.163	335.73
376.544	325.78
376.925	326.23
377.305	338.66
377.686	319.45
378.066	327.82
378.447	329.85
378.827	339.12
379.208	343.41
379.588	342.73
379.968	324.65
380.349	343.64
380.729	341.15
381.109	347.7
381.489	353.8
381.87	348.15
382.25	351.54
382.63	359
383.01	357.42
383.39	350.41
383.77	352
384.15	352
384.53	362.84
384.91	362.84
385.29	374.82
385.67	368.04
386.049	370.08
386.429	369.4
386.809	357.65
387.189	358.1
387.568	372.56
387.948	363.52
388.328	384.99
388.707	377.08
389.087	375.27
389.466	370.98
389.846	369.85
390.225	389.28
390.605	397.42
390.984	386.12
391.363	397.87
391.743	380.24
392.122	386.12
392.501	404.42
392.881	406.91
393.26	386.35
393.639	410.53
394.018	378.44
394.397	403.07
394.776	411.66
395.155	409.85
395.534	404.2
395.913	410.3
396.292	418.89
396.671	417.76
397.05	424.76
397.429	416.63
397.808	427.02
398.186	410.3
398.565	426.57
398.944	440.36
399.323	439.68
399.701	443.75
400.08	426.12
400.458	436.97
400.837	448.94
401.215	454.14
401.594	437.64
401.972	450.75
402.351	441.03
402.729	437.87
403.107	448.49
403.486	444.42
403.864	435.38
404.242	465.89
404.62	489.39
404.999	468.15
405.377	477.19
405.755	489.85
406.133	505.44
406.511	484.42
406.889	489.85
407.267	481.48
407.645	493.46
408.023	492.11
408.401	490.98
408.779	497.98
409.156	512.67
409.534	500.69
409.912	530.3
410.29	519.68
410.667	526.91
411.045	531.65
411.422	538.21
411.8	540.24
412.178	558.32
412.555	551.99
412.933	555.61
413.31	547.47
413.687	567.13
414.065	578.88
414.442	556.96
414.819	578.88
415.197	578.43
415.574	625.89
415.951	575.27
416.328	601.03
416.705	571.65
417.082	601.03
417.46	611.2
417.837	629.28
418.214	620.69
418.591	603.52
418.967	612.33
419.344	636.28
419.721	629.96
420.098	636.96
420.475	629.96
420.852	644.19
421.228	646.68
421.605	666.56
421.982	648.26
422.358	683.06
422.735	627.7
423.111	670.18
423.488	678.77
423.864	671.76
424.241	681.48
424.617	684.19
424.994	674.25
425.37	729.84
425.746	709.73
426.123	702.5
426.499	730.97
426.875	727.58
427.251	729.61
427.627	736.85
428.003	749.05
428.379	774.36
428.756	752.89
429.132	758.54
429.507	764.41
429.883	792.66
430.259	800.8
430.635	795.6
431.011	780.91
431.387	826.33
431.763	795.6
432.138	829.95
432.514	821.14
432.89	827.46
433.265	859.78
433.641	841.02
434.016	857.07
434.392	889.61
434.767	896.84
435.143	896.39
435.518	891.19
435.894	925.54
436.269	908.59
436.644	937.29
437.02	933.45
437.395	913.34
437.77	939.1
438.145	958.08
438.52	980
438.895	955.37
439.271	957.63
439.646	990.85
440.021	1001.47
440.395	990.85
440.77	1026.55
441.145	1018.42
441.52	1030.85
441.895	1018.19
442.27	1028.81
442.645	1041.7
443.019	1055.93
443.394	1023.62
443.769	1051.86
444.143	1061.36
444.518	1076.95
444.892	1041.7
445.267	1079.43
445.641	1102.49
446.016	1101.36
446.39	1111.52
446.764	1117.85
447.139	1128.47
447.513	1100
447.887	1118.53
448.262	1128.02
448.636	1147.68
449.01	1148.36
449.384	1161.24
449.758	1175.25
450.132	1187.91
450.506	1180
450.88	1197.62
451.254	1190.17
451.628	1195.59
452.002	1266.1
452.376	1253.22
452.75	1234.23
453.123	1244.85
453.497	1263.16
453.871	1278.3
454.244	1311.52
454.618	1344.06
454.992	1329.6
455.365	1339.54
455.739	1377.28
456.112	1361.91
456.486	1365.76
456.859	1409.82
457.232	1386.09
457.606	1399.88
457.979	1434
458.352	1475.81
458.725	1455.92
459.099	1449.14
459.472	1507.22
459.845	1535.92
460.218	1504.73
460.591	1541.8
460.964	1525.07
461.337	1580.44
461.71	1603.94
462.083	1606.88
462.456	1621.34
462.829	1629.25
463.201	1662.02
463.574	1679.42
463.947	1711.28
464.32	1757.38
464.692	1749.02
465.065	1766.2
465.438	1766.42
465.81	1817.49
466.183	1793.99
466.555	1827.89
466.928	1860.66
467.3	1886.19
467.672	1903.82
468.045	1909.92
468.417	1951.95
468.789	1961.67
469.161	1996.7
469.534	2026.75
469.906	2043.93
470.278	2059.97
470.65	2105.4
471.022	2115.57
471.394	2143.59
471.766	2208.9
472.138	2224.72
472.51	2249.8
472.882	2277.37
473.253	2293.41
473.625	2329.35
473.997	2393.75
474.369	2378.84
474.74	2471.26
475.112	2497.25
475.484	2520.98
475.855	2565.72
476.227	2592.39
476.598	2649.56
476.97	2644.82
477.341	2759.16
477.713	2773.85
478.084	2806.62
478.455	2849.56
478.827	2904.25
479.198	2948.31
479.569	2977.01
479.94	3041.64
480.311	3093.39
480.682	3125.26
481.053	3226.27
481.424	3291.13
481.795	3277.12
482.166	3311.24
482.537	3387.85
482.908	3465.13
483.279	3522.99
483.65	3573.38
484.021	3591.23
484.391	3649.31
484.762	3698.58
485.133	3758.91
485.503	3806.82
485.874	3909.87
486.244	3929.76
486.615	4016.98
486.985	4036.65
487.356	4143.76
487.726	4181.05
488.097	4256.53
488.467	4292.68
488.837	4383.98
489.207	4423.98
489.578	4514.37
489.948	4496.07
490.318	4603.64
490.688	4635.73
491.058	4702.16
491.428	4775.61
491.798	4819
492.168	4928.15
492.538	4963.63
492.908	5021.25
493.278	5068.71
493.648	5165.2
494.017	5178.31
494.387	5221.02
494.757	5320
495.126	5343.28
495.496	5365.42
495.866	5426.21
496.235	5431.41
496.605	5548.92
496.974	5606.1
497.344	5656.49
497.713	5733.32
498.082	5732.19
498.452	5856.71
498.821	5859.87
499.19	5897.16
499.559	5976.93
499.928	6014.9
500.298	6080.66
500.667	6125.86
501.036	6197.04
501.405	6275.46
501.774	6242.01
502.143	6315
502.512	6349.58
502.88	6482.23
503.249	6472.97
503.618	6521.1
503.987	6533.08
504.356	6645.62
504.724	6725.16
505.093	6735.56
505.462	6809.68
505.83	6905.04
506.199	6914.99
506.567	7017.13
506.936	7017.58
507.304	7176.68
507.672	7185.26
508.041	7251.7
508.409	7294.64
508.777	7359.04
509.145	7385.94
509.514	7427.06
509.882	7495.76
510.25	7563.11
510.618	7685.14
510.986	7740.95
511.354	7825.47
511.722	7876.54
512.09	7996.32
512.458	7960.38
512.826	8056.43
513.193	8156.08
513.561	8209.87
513.929	8314.72
514.297	8324.22
514.664	8461.16
515.032	8511.78
515.4	8632
515.767	8741.38
516.135	8763.07
516.502	8754.94
516.869	8882.17
517.237	8922.17
517.604	8904.99
517.972	9110.86
518.339	9137.75
518.706	9155.38
519.073	9254.14
519.44	9414.13
519.808	9442.15
520.175	9500.23
520.542	9666.33
520.909	9756.04
521.276	9751.75
521.643	9919.65
522.009	9978.64
522.376	10115.81
522.743	10202.13
523.11	10307.89
523.477	10432.18
523.843	10466.08
524.21	10598.05
524.577	10738.16
524.943	10779.52
525.31	10856.58
525.676	10967.31
526.043	11002.11
526.409	11086.18
526.776	11286.85
527.142	11340.18
527.508	11504.47
527.874	11573.62
528.241	11645.48
528.607	11798.93
528.973	11862.88
529.339	11912.6
529.705	12143.1
530.071	12162.99
530.437	12254.28
530.803	12347.16
531.169	12410.21
531.535	12428.06
531.901	12539.7
532.267	12710.09
532.632	12774.72
532.998	12888.84
533.364	12950.99
533.73	12962.74
534.095	13141.94
534.461	13216.74
534.826	13315.72
535.192	13323.86
535.557	13491.31
535.923	13493.12
536.288	13544.64
536.653	13702.83
537.019	13743.73
537.384	13804.3
537.749	13924.75
538.114	14050.62
538.479	14066.44
538.845	14151.18
539.21	14109.83
539.575	14391.63
539.94	14312.76
540.305	14444.96
540.67	14497.16
541.034	14552.07
541.399	14747.55
541.764	14772.86
542.129	14914.33
542.494	14875.46
542.858	15048.11
543.223	14976.92
543.587	15123.81
543.952	15170.82
544.316	15286.07
544.681	15360.87
545.045	15511.6
545.41	15456.01
545.774	15590.47
546.138	15671.82
546.503	15727.86
546.867	15829.56
547.231	15959.27
547.595	15964.02
547.959	16082.43
548.324	16145.71
548.688	16176.89
549.052	16313.38
549.416	16448.52
549.779	16391.35
550.143	16421.86
550.507	16621.4
550.871	16821.17
551.235	16700.72
551.599	16881.05
551.962	16990.43
552.326	16987.94
552.689	17162.63
553.053	17215.73
553.417	17151.1
553.78	17504.09
554.143	17366.46
554.507	17535.5
554.87	17640.13
555.234	17937.52
555.597	17804.87
555.96	17876.28
556.323	18026.79
556.686	18101.59
557.05	18268.36
557.413	18370.51
557.776	18383.39
558.139	18484.4
558.502	18708.8
558.865	18767.78
559.228	18858.63
559.59	19017.95
559.953	19055.91
560.316	19259.3
560.679	19296.58
561.041	19456.8
561.404	19587.2
561.767	19799.85
562.129	19759.62
562.492	19857.7
562.854	19957.36
563.217	20085.04
563.579	20129.56
563.941	20298.36
564.304	20403.22
564.666	20590.33
565.028	20644.57
565.39	20697.45
565.753	20838.01
566.115	21028.97
566.477	21043.2
566.839	21138.57
567.201	21415.4
567.563	21404.55
567.925	21616.3
568.287	21553.92
568.648	21642.51
569.01	21859.23
569.372	22000.47
569.734	21965.67
570.095	22176.96
570.457	22245.88
570.819	22344.41
571.18	22444.97
571.542	22643.16
571.903	22584.86
572.265	22718.87
572.626	22900.78
572.987	22878.41
573.349	22985.07
573.71	23155.01
574.071	23176.93
574.432	23270.26
574.794	23433.42
575.155	23517.94
575.516	23423.25
575.877	23675.68
576.238	23640.2
576.599	23831.83
576.96	23797.03
577.32	23900.3
577.681	23940.98
578.042	24078.83
578.403	24134.42
578.763	24231.59
579.124	24453.96
579.485	24462.55
579.845	24527.63
580.206	24517.24
580.566	24566.5
580.927	24660.74
581.287	24773.05
581.648	24654.41
582.008	24807.17
582.368	24864.8
582.728	24849.43
583.089	24848.75
583.449	24963.1
583.809	25059.6
584.169	25111.35
584.529	25082.65
584.889	25298.01
585.249	25189.08
585.609	25121.29
585.969	25365.35
586.329	25344.33
586.688	25303.66
587.048	25478.12
587.408	25413.03
587.768	25448.74
588.127	25447.38
588.487	25464.1
588.846	25575.51
589.206	25535.06
589.565	25624.33
589.925	25842.4
590.284	25674.72
590.643	25721.5
591.003	25851.89
591.362	25998.1
591.721	25896.18
592.08	25916.52
592.44	26055.05
592.799	26000.81
593.158	26108.16
593.517	26062.28
593.876	26029.51
594.235	26053.24
594.593	26144.54
594.952	26264.31
595.311	26227.47
595.67	26316.06
596.029	26591.76
596.387	26509.05
596.746	26555.83
597.104	26503.17
597.463	26417.53
597.822	26614.58
598.18	26584.98
598.538	26569.16
598.897	26705.2
599.255	26667.46
599.613	26852.77
599.972	26832.2
600.33	26952.43
600.688	26831.98
601.046	26963.73
601.404	27206.43
601.762	26994.23
602.12	27167.34
602.478	27167.11
602.836	27173.66
603.194	27122.14
603.552	27221.12
603.91	27109.48
604.268	27248.01
604.625	27186.32
604.983	27449.59
605.341	27260.44
605.698	27445.97
606.056	27509.25
606.413	27512.19
606.771	27596.7
607.128	27746.3
607.485	27539.3
607.843	27604.16
608.2	27856.58
608.557	27893.42
608.914	27750.6
609.272	28021.78
609.629	28013.19
609.986	28233.07
610.343	28029.91
610.7	28328.21
611.057	28264.48
611.414	28190.59
611.771	28293.41
612.127	28380.41
612.484	28270.36
612.841	28513.29
613.198	28357.36
613.554	28407.53
613.911	28651.37
614.267	28640.07
614.624	28597.81
614.98	28704.92
615.337	28833.06
615.693	28853.62
616.05	28742.21
616.406	29045.25
616.762	28940.17
617.118	28865.37
617.475	28944.24
617.831	29100.84
618.187	29195.98
618.543	29087.96
618.899	29228.3
619.255	29220.16
619.611	29309.43
619.967	29298.81
620.323	29488.63
620.678	29229.2
621.034	29337.9
621.39	29354.85
621.746	29278.02
622.101	29805.46
622.457	29496.99
622.812	29601.17
623.168	29652.47
623.523	29675.52
623.879	29776.99
624.234	29524.34
624.589	29591.68
624.945	29691.56
625.3	29626.93
625.655	29815.4
626.01	29708.74
626.365	29798.91
626.72	29742.86
627.075	29750.32
627.43	29682.75
627.785	29637.1
628.14	29871.22
628.495	29863.76
628.85	29756.65
629.205	29638.46
629.559	29944.89
629.914	29819.47
630.269	29823.09
630.623	29713.94
630.978	29702.41
631.332	29722.98
631.687	29791.67
632.041	29817.66
632.396	29929.3
632.75	29638.91
633.104	29780.83
633.459	29778.57
633.813	29677.78
634.167	29715.97
634.521	29735.86
634.875	29853.59
635.229	29586.48
635.583	29677.78
635.937	29623.77
636.291	29590.32
636.645	29636.42
636.999	29555.75
637.352	29700.15
637.706	29473.04
638.06	29508.97
638.413	29385.81
638.767	29432.81
639.121	29458.35
639.474	29372.25
639.828	29506.03
640.181	29457.9
640.534	29445.47
640.888	29510.78
641.241	29240.95
641.594	29369.54
641.947	29331.8
642.301	29291.12
642.654	29425.58
643.007	29374.74
643.36	29426.26
643.713	29384.23
644.066	29450.21
644.419	29193.05
644.771	29139.71
645.124	28855.2
645.477	28745.15
645.83	28592.84
646.182	28510.58
646.535	28503.57
646.888	28466.51
647.24	28351.26
647.593	28478.26
647.945	28526.17
648.298	28329.57
648.65	28269.68
649.002	28270.81
649.355	28429
649.707	28327.76
650.059	28498.6
650.411	28709.22
650.763	28747.63
651.115	29057.68
651.467	29049.77
651.819	29095.2
652.171	28947.85
652.523	28979.04
652.875	28996.89
653.227	28906.73
653.578	29055.87
653.93	29099.49
654.282	28927.74
654.633	28815.65
654.985	28930.45
655.337	28988.98
655.688	28828.54
656.039	29012.49
656.391	28794.86
656.742	28896.33
657.094	28953.28
657.445	28931.36
657.796	28980.4
658.147	28967.29
658.498	28832.6
658.849	28991.7
659.2	28982.88
659.551	28833.51
659.902	28964.58
660.253	28972.94
660.604	28895.2
660.955	28791.02
661.306	28918.02
661.656	28856.56
662.007	28944.92
662.358	28810.68
662.708	28862.89
663.059	28938.14
663.409	28840.96
663.76	29049.32
664.11	29030.79
664.461	29035.54
664.811	29008.42
665.161	29120.51
665.511	28957.35
665.862	28997.57
666.212	29075.53
666.562	29039.15
666.912	28963
667.262	29021.98
667.612	29066.72
667.962	29045.03
668.312	28875.77
668.662	29112.37
669.011	28990.57
669.361	28978.81
669.711	29010
670.06	28941.75
670.41	28898.14
670.76	28829.89
671.109	28959.61
671.459	28806.16
671.808	28841.64
672.157	29018.14
672.507	28731.59
672.856	28860.4
673.205	28870.12
673.554	28924.8
673.904	28774.53
674.253	28986.72
674.602	28838.25
674.951	28585.15
675.3	28420.86
675.649	28709.89
675.998	28878.03
676.346	28800.06
676.695	28897.01
677.044	28716.45
677.393	28679.16
677.741	28776.11
678.09	28763.68
678.438	28751.93
678.787	28718.93
679.135	28892.04
679.484	28574.08
679.832	28772.27
680.181	28642.33
680.529	28760.97
680.877	28528.66
681.225	28521.43
681.573	28706.51
681.922	28640.52
682.27	28354.2
682.618	28457.47
682.966	28335.89
683.314	28356.23
683.661	28331.37
684.009	28207.08
684.357	28264.93
684.705	28167.54
685.053	28194.65
685.4	28255.67
685.748	28059.97
686.095	27930.93
686.443	27908.56
686.79	27861.33
687.138	28025.17
687.485	28047.09
687.832	27826.75
688.18	27870.59
688.527	27822.91
688.874	27856.13
689.221	27674.89
689.568	27661.33
689.915	27576.59
690.262	27726.64
690.609	27566.65
690.956	27441.23
691.303	27323.04
691.65	27340.67
691.997	27314.45
692.344	27050.73
692.69	27193.1
693.037	27186.32
693.383	26994.46
693.73	27062.03
694.077	26846.67
694.423	26896.61
694.769	26786.78
695.116	26767.8
695.462	26835.14
695.808	26733.22
696.155	26722.83
696.501	26472.89
696.847	26450.29
697.193	26277.42
697.539	26446.9
697.885	26319
698.231	26155.39
698.577	26289.62
698.923	26066.12
699.269	26018.21
699.614	25917.65
699.96	25905.45
700.306	25940.7
700.651	25857.09
700.997	25798.33
701.342	25733.02
701.688	25700.26
702.033	25612.58
702.379	25559.47
702.724	25510.43
703.069	25537.77
703.415	25242.42
703.76	25265.92
704.105	25432.24
704.45	25249.42
704.795	25080.61
705.14	24924.23
705.485	25091.46
705.83	24928.53
706.175	24988.18
706.52	24874.06
706.865	24896.21
707.209	24775.31
707.554	24582.09
707.899	24731.24
708.243	24629.78
708.588	24617.57
708.932	24341.2
709.277	24419.16
709.621	24473.85
709.966	24265.94
710.31	24307.98
710.654	24243.57
710.998	24340.29
711.342	24286.73
711.687	24077.25
712.031	23980.53
712.375	24101.43
712.719	24105.95
713.063	23991.83
713.407	24132.39
713.75	23908.67
714.094	23925.16
714.438	23817.37
714.782	23870.93
715.125	23745.28
715.469	23775.11
715.812	23696.47
716.156	23552.52
716.499	23597.94
716.843	23705.51
717.186	23566.75
717.53	23620.31
717.873	23603.36
718.216	23543.48
718.559	23440.43
718.902	23277.04
719.246	23275.24
719.589	23202.02
719.932	23281.56
720.275	23164.73
720.617	23255.8
720.96	23096.03
721.303	23076.6
721.646	23191.85
721.989	22998.18
722.331	23087.44
722.674	23056.03
723.016	23101.45
723.359	23042.02
723.701	23107.78
724.044	22967.45
724.386	22762.25
724.729	22947.79
725.071	22959.09
725.413	22910.05
725.755	22903.95
726.097	22685.42
726.439	22713.44
726.782	22750.73
727.124	22872.76
727.465	22685.87
727.807	22783.27
728.149	22672.77
728.491	22692.88
728.833	22607.68
729.175	22574.01
729.516	22456.5
729.858	22522.26
730.199	22564.52
730.541	22525.65
730.882	22520.23
731.224	22537.85
731.565	22443.84
731.906	22376.73
732.248	22460.79
732.589	22348.93
732.93	22347.8
733.271	22399.78
733.612	22301.48
733.953	22439.55
734.294	22313.9
734.635	22288.82
734.976	22298.09
735.317	22162.5
735.658	22125.21
735.999	22171.31
736.339	22120.24
736.68	22249.95
737.021	22180.57
737.361	22144.42
737.702	22181.93
738.042	22163.4
738.383	22081.37
738.723	22139.9
739.063	22031.43
739.404	22031.2
739.744	22032.1
740.084	22002.05
740.424	22119.11
740.764	22075.72
741.104	22071.65
741.444	21939.23
741.784	21831.66
742.124	21919.79
742.464	21900.36
742.804	21986.23
743.143	21857.42
743.483	21947.59
743.823	21885.22
744.162	21857.87
744.502	21834.14
744.841	21732.9
745.181	21884.31
745.52	21911.2
745.86	21830.08
746.199	21882.73
746.538	21760.7
746.877	21835.73
747.216	21861.71
747.556	21795.5
747.895	21736.52
748.234	21643.41
748.573	21691.1
748.911	21582.62
749.25	21663.53
749.589	21564.55
749.928	21671.21
750.267	21700.59
750.605	21593.47
750.944	21556.64
751.283	21592.79
751.621	21513.02
751.96	21498.56
752.298	21481.38
752.636	21532.23
752.975	21445.91
753.313	21400.48
753.651	21551.66
753.989	21445.68
754.327	21427.83
754.666	21310.77
755.004	21328.62
755.342	21312.58
755.679	21329.98
756.017	21339.92
756.355	21304.44
756.693	21183.77
757.031	21324.1
757.368	21083.2
757.706	21204.33
758.044	21163.2
758.381	21050.89
758.719	21011.11
759.056	21085.46
759.394	20976.76
759.731	20802.76
760.068	20886.82
760.405	20876.43
760.743	20837.79
761.08	20896.09
761.417	20644.57
761.754	20676.66
762.091	20677.79
762.428	20614.51
762.765	20526.38
763.102	20645.93
763.438	20445.48
763.775	20420.62
764.112	20440.73
764.449	20444.12
764.785	20391.02
765.122	20303.79
765.458	20173.4
765.795	20277.12
766.131	20134.3
766.467	20169.33
766.804	20061.76
767.14	20007.07
767.476	19924.59
767.812	19915.78
768.148	19923.23
768.485	19803.46
768.821	19700.64
769.157	19775.44
769.492	19726.85
769.828	19661.09
770.164	19517.37
770.5	19470.36
770.836	19447.09
771.171	19330.93
771.507	19256.81
771.842	19216.59
772.178	19192.4
772.513	19086.87
772.849	19147.89
773.184	19130.26
773.519	19104.5
773.855	18922.36
774.19	18878.29
774.525	18855.69
774.86	18825.41
775.195	18782.7
775.53	18730.95
775.865	18603.27
776.2	18506.55
776.535	18446.44
776.87	18333.22
777.205	18328.7
777.539	18283.73
777.874	18277.63
778.209	18172.77
778.543	18099.55
778.878	18033.11
779.212	17948.37
779.547	17945.88
779.881	17986.79
780.215	17857.07
780.55	17906.11
780.884	17731.88
781.218	17786.57
781.552	17631.77
781.886	17545.44
782.22	17513.35
782.554	17500.25
782.888	17365.79
783.222	17203.76
783.556	17221.16
783.889	17192.01
784.223	17069.97
784.557	17074.95
784.89	17055.29
785.224	16955.85
785.557	16869.53
785.891	16904.1
786.224	16738.91
786.558	16759.47
786.891	16672.02
787.224	16518.12
787.557	16563.1
787.891	16602.87
788.224	16498.46
788.557	16418.92
788.89	16389.54
789.223	16411.46
789.556	16298.02
789.888	16241.3
790.221	16151.13
790.554	16016.67
790.887	16094.18
791.219	16109.1
791.552	15984.58
791.884	15970.34
792.217	15818.48
792.549	15841.98
792.882	15755.66
793.214	15653.06
793.546	15762.21
793.879	15595.66
794.211	15573.52
794.543	15632.72
794.875	15498.94
795.207	15559.73
795.539	15455.55
795.871	15432.73
796.203	15416.91
796.535	15300.08
796.867	15245.84
797.198	15164.26
797.53	15145.28
797.862	15136.01
798.193	15161.32
798.525	14993.87
798.856	14963.14
799.188	14923.36
799.519	14844.27
799.85	14833.2
800.182	14782.35
800.513	14804.5
800.844	14703.94
801.175	14702.81
801.506	14744.84
801.837	14597.27
802.168	14584.39
802.499	14521.79
802.83	14419.88
803.161	14358.18
803.491	14431.63
803.822	14400.44
804.153	14328.8
804.483	14270.73
804.814	14099.21
805.145	14229.6
805.475	14143.05
805.805	14129.26
806.136	14115.02
806.466	14065.31
806.796	14089.94
807.126	13941.02
807.457	13938.98
807.787	13912.32
808.117	13852.21
808.447	13866.22
808.777	13844.52
809.107	13811.53
809.436	13801.59
809.766	13654.02
810.096	13650.86
810.426	13707.8
810.755	13584.42
811.085	13572.89
811.414	13538.09
811.744	13455.38
812.073	13488.15
812.403	13488.6
812.732	13381.48
813.061	13412.67
813.39	13287.48
813.719	13282.28
814.049	13350.52
814.378	13232.11
814.707	13238.66
815.036	13265.56
815.365	13222.39
815.693	13056.3
816.022	13133.13
816.351	12985.34
816.68	12983.53
817.008	13014.94
817.337	12948.05
817.665	12909.63
817.994	12912.12
818.322	12844.1
818.651	12873.48
818.979	12826.92
819.307	12793.48
819.636	12801.16
819.964	12769.07
820.292	12826.24
820.62	12749.41
820.948	12673.25
821.276	12690.43
821.604	12754.16
821.932	12690.43
822.259	12696.53
822.587	12661.96
822.915	12672.8
823.243	12766.59
823.57	12602.3
823.898	12736.3
824.225	12635.29
824.553	12574.73
824.88	12647.94
825.207	12629.87
825.535	12640.94
825.862	12622.41
826.189	12579.7
826.516	12775.62
826.843	12713.71
827.17	12720.03
827.497	12677.77
827.824	12704.89
828.151	12779.24
828.478	12658.34
828.805	12715.29
829.131	12726.36
829.458	12586.02
829.785	12593.03
830.111	12637.78
830.438	12692.01
830.764	12654.05
831.09	12662.41
831.417	12606.82
831.743	12616.53
832.069	12716.19
832.395	12593.93
832.722	12616.76
833.048	12612.24
833.374	12635.52
833.7	12532.02
834.026	12598.45
834.351	12653.37
834.677	12501.96
835.003	12565.23
835.329	12507.16
835.654	12640.49
835.98	12499.93
836.306	12461.96
836.631	12505.8
836.956	12506.03
837.282	12525.69
837.607	12394.84
837.932	12434.84
838.258	12341.96
838.583	12406.14
838.908	12262.64
839.233	12358.01
839.558	12291.8
839.883	12239.37
840.208	12240.05
840.533	12245.92
840.858	12231.23
841.182	12218.58
841.507	12198.24
841.832	12204.57
842.156	12188.3
842.481	12072.14
842.805	12119.14
843.13	12114.17
843.454	12017.23
843.778	12184.91
844.103	12021.52
844.427	12037.11
844.751	11954.63
845.075	11940.17
845.399	11911.69
845.723	11868.53
846.047	11809.77
846.371	11734.52
846.695	11785.37
847.019	11593.96
847.343	11643.45
847.666	11491.82
847.99	11513.28
848.313	11462.89
848.637	11389.67
848.96	11407.98
849.284	11351.93
849.607	11278.71
849.931	11307.19
850.254	11115.1
850.577	11146.97
850.9	11115.78
851.223	11028.33
851.546	11012.06
851.869	10894.32
852.192	11064.48
852.515	10904.71
852.838	10897.03
853.161	10806.18
853.483	10802.8
853.806	10735
854.129	10825.17
854.451	10671.5
854.774	10642.12
855.096	10677.83
855.419	10615.46
855.741	10615.68
856.063	10509.47
856.385	10564.38
856.708	10517.38
857.03	10429.92
857.352	10462.47
857.674	10450.04
857.996	10404.84
858.318	10283.94
858.64	10328.91
858.961	10301.11
859.283	10227.89
859.605	10182.92
859.926	10181.34
860.248	10182.92
860.57	10154
860.891	10109.25
861.212	10131.17
861.534	10083.04
861.855	10048.24
862.176	10095.47
862.498	10075.13
862.819	10101.57
863.14	9974.57
863.461	9943.16
863.782	9896.38
864.103	9972.08
864.424	9902.71
864.745	9859.54
865.065	9860.22
865.386	9841.46
865.707	9812.54
866.027	9817.74
866.348	9822.03
866.668	9825.65
866.989	9809.83
867.309	9682.15
867.63	9787.23
867.95	9758.53
868.27	9716.5
868.59	9699.55
868.91	9705.42
869.23	9690.06
869.55	9673.11
869.87	9650.28
870.19	9676.27
870.51	9608.25
870.83	9671.98
871.15	9617.06
871.469	9577.29
871.789	9600.79
872.109	9613.9
872.428	9440.8
872.748	9525.54
873.067	9520.12
873.386	9546.78
873.706	9506.11
874.025	9387.92
874.344	9414.58
874.663	9455.94
874.982	9457.07
875.301	9377.75
875.62	9442.38
875.939	9383.4
876.258	9416.84
876.577	9354.47
876.896	9339.33
877.214	9368.48
877.533	9274.47
877.852	9299.11
878.17	9299.11
878.489	9253.23
878.807	9242.38
879.125	9248.94
879.444	9221.82
879.762	9226.57
880.08	9199
880.398	9117.64
880.716	9209.62
881.034	9119
881.352	9128.04
881.67	9091.2
881.988	9057.76
882.306	9061.6
882.624	9055.04
882.941	9008.94
883.259	8967.14
883.577	8963.52
883.894	8949.06
884.212	8970.07
884.529	8913.13
884.846	8892.34
885.164	8912
885.481	8819.12
885.798	8921.04
886.115	8848.5
886.432	8847.37
886.75	8886.46
887.067	8821.15
887.383	8742.51
887.7	8791.77
888.017	8730.08
888.334	8745.9
888.651	8683.08
888.967	8720.36
889.284	8599.92
889.6	8665.9
889.917	8632.91
890.233	8557.43
890.55	8567.15
890.866	8539.13
891.182	8551.33
891.498	8469.52
891.815	8415.74
892.131	8458.22
892.447	8427.26
892.763	8342.07
893.079	8289.64
893.395	8327.15
893.71	8313.59
894.026	8350.66
894.342	8267.72
894.657	8179.36
894.973	8240.38
895.289	8198.8
895.604	8168.51
895.92	8074.05
896.235	8094.62
896.55	8073.83
896.865	8017.11
897.181	7983.43
897.496	8117.89
897.811	7977.33
898.126	7920.84
898.441	7927.39
898.756	7907.05
899.071	7913.38
899.386	7929.42
899.7	7808.98
900.015	7721.75
900.33	7671.35
900.644	7744.8
900.959	7710
901.273	7699.37
901.588	7619.6
901.902	7624.57
902.216	7597.68
902.531	7598.36
902.845	7545.48
903.159	7540.28
903.473	7467.52
903.787	7441.08
904.101	7408.99
904.415	7433.17
904.729	7406.27
905.042	7371.7
905.356	7331.93
905.67	7359.95
905.984	7345.48
906.297	7282.66
906.611	7225.04
906.924	7225.49
907.237	7188.88
907.551	7197.01
907.864	7112.04
908.177	7122.44
908.491	7077.7
908.804	7075.44
909.117	7014.42
909.43	6997.7
909.743	6978.71
910.056	6945.72
910.368	6920.19
910.681	6891.94
910.994	6856.91
911.307	6777.14
911.619	6744.6
911.932	6757.93
912.244	6736.01
912.557	6743.92
912.869	6735.56
913.181	6648.78
913.494	6671.15
913.806	6625.96
914.118	6567.2
914.43	6544.83
914.742	6559.74
915.054	6534.43
915.366	6495.56
915.678	6453.98
915.99	6407.88
916.302	6430.48
916.613	6340.99
916.925	6423.25
917.236	6300.09
917.548	6290.82
917.859	6315.91
918.171	6267.1
918.482	6245.17
918.794	6216.25
919.105	6246.53
919.416	6158.62
919.727	6164.95
920.038	6141.67
920.349	6112.3
920.66	6065.97
920.971	6057.38
921.282	6092.18
921.593	5960.21
921.903	5971.96
922.214	5973.09
922.525	5945.52
922.835	5889.48
923.146	5828.46
923.456	5843.38
923.767	5823.04
924.077	5810.61
924.387	5772.87
924.697	5760.89
925.008	5738.07
925.318	5722.7
925.628	5692.19
925.938	5647
926.248	5617.62
926.558	5651.97
926.867	5560
927.177	5564.29
927.487	5526.1
927.796	5467.12
928.106	5481.13
928.416	5436.61
928.725	5418.98
929.034	5390.73
929.344	5434.12
929.653	5399.77
929.962	5342.15
930.271	5286.1
930.581	5298.76
930.89	5244.3
931.199	5245.88
931.508	5259.66
931.817	5210.85
932.125	5220.57
932.434	5164.07
932.743	5147.12
933.051	5140.8
933.36	5086.34
933.669	5061.7
933.977	5076.39
934.286	5038.65
934.594	4992.55
934.902	4974.25
935.21	4948.49
935.519	4937.86
935.827	4889.73
936.135	4952.78
936.443	4873.23
936.751	4867.81
937.059	4863.74
937.367	4808.6
937.674	4836.62
937.982	4840.47
938.29	4797.76
938.597	4775.38
938.905	4689.96
939.213	4729.51
939.52	4708.49
939.827	4671.2
940.135	4614.03
940.442	4646.12
940.749	4645.89
941.056	4632.34
941.363	4559.34
941.67	4595.05
941.977	4525.22
942.284	4520.93
942.591	4543.52
942.898	4460.14
943.205	4480.25
943.511	4433.02
943.818	4421.04
944.125	4400.25
944.431	4349.18
944.738	4367.03
945.044	4351.44
945.35	4298.79
945.657	4308.95
945.963	4275.51
946.269	4273.25
946.575	4263.98
946.881	4288.84
947.187	4207.71
947.493	4186.47
947.799	4174.49
948.105	4165.68
948.41	4145.12
948.716	4142.18
949.022	4149.41
949.327	4092.01
949.633	4102.41
949.938	4072.58
950.244	4069.64
950.549	4075.51
950.854	4053.14
951.16	4013.6
951.465	3938.57
951.77	3993.48
952.075	3929.08
952.38	3946.25
952.685	3908.51
952.99	3827.39
953.294	3896.08
953.599	3929.08
953.904	3870.1
954.209	3822.87
954.513	3837.1
954.818	3791.45
955.122	3779.02
955.426	3759.14
955.731	3762.98
956.035	3728.86
956.339	3739.48
956.643	3696.99
956.948	3654.73
957.252	3690.89
957.556	3682.08
957.86	3654.06
958.163	3645.02
958.467	3583.1
958.771	3612.02
959.075	3590.78
959.378	3537.9
959.682	3573.61
959.985	3573.61
960.289	3543.1
960.592	3493.38
960.896	3461.07
961.199	3455.87
961.502	3523.44
961.805	3463.78
962.108	3446.83
962.411	3442.99
962.714	3378.81
963.017	3400.73
963.32	3387.4
963.623	3366.61
963.926	3380.39
964.228	3360.73
964.531	3329.32
964.833	3319.38
965.136	3259.94
965.438	3288.87
965.741	3263.56
966.043	3273.5
966.345	3245.48
966.648	3245.03
966.95	3217.68
967.252	3194.18
967.554	3190.79
967.856	3127.97
968.158	3143.56
968.46	3156.44
968.761	3111.25
969.063	3110.79
969.365	3123
969.666	3113.96
969.968	3047.52
970.269	3034.86
970.571	3083.68
970.872	3052.49
971.174	3013.85
971.475	3048.42
971.776	2990.57
972.077	3017.01
972.378	2994.86
972.679	2972.94
972.98	2963.45
973.281	2947.18
973.582	2903.57
973.883	2932.95
974.183	2913.28
974.484	2842.55
974.785	2860.86
975.085	2856.79
975.386	2837.81
975.686	2852.95
975.986	2825.6
976.287	2808.43
976.587	2790.8
976.887	2791.25
977.187	2780.86
977.487	2784.93
977.787	2770.24
978.087	2753.74
978.387	2751.93
978.687	2722.1
978.987	2689.79
979.286	2671.03
979.586	2650.92
979.885	2680.75
980.185	2648.21
980.484	2633.74
980.784	2649.79
981.083	2649.34
981.382	2642.33
981.682	2601.43
981.981	2590.36
982.28	2560.98
982.579	2558.04
982.878	2564.82
983.177	2554.2
983.475	2545.39
983.774	2534.99
984.073	2501.54
984.372	2516.23
984.67	2528.21
984.969	2496.57
985.267	2493.18
985.566	2493.63
985.864	2433.75
986.162	2454.31
986.461	2436.01
986.759	2432.17
987.057	2396.24
987.355	2398.72
987.653	2415.44
987.951	2393.07
988.249	2364.15
988.547	2366.63
988.844	2380.87
989.142	2332.51
989.44	2309.69
989.737	2325.28
990.035	2305.39
990.332	2275.56
990.63	2272.62
990.927	2283.92
991.224	2296.8
991.521	2235.34
991.819	2227.2
992.116	2262.68
992.413	2203.7
992.71	2220.42
993.006	2165.06
993.303	2184.94
993.6	2175.9
993.897	2186.75
994.193	2153.53
994.49	2165.73
994.787	2185.85
995.083	2120.54
995.379	2107.88
995.676	2130.93
995.972	2102.01
996.268	2102.46
996.565	2087.09
996.861	2032.18
997.157	2033.08
997.453	2068.79
997.749	2042.35
998.044	2033.08
998.34	2009.58
998.636	2000.09
998.932	2009.35
999.227	1986.3
999.523	1996.25
999.818	1966.19
1000.114	1975.23
1000.409	1959.64
1000.704	1935.46
1001	1965.29
1001.295	1895.01
1001.59	1919.86
1001.885	1892.29
1002.18	1870.83
1002.475	1861.56
1002.77	1910.83
1003.065	1868.34
1003.359	1823.37
1003.654	1857.27
1003.949	1850.04
1004.243	1824.27
1004.538	1810.49
1004.832	1823.14
1005.127	1795.35
1005.421	1786.76
1005.715	1779.08
1006.009	1802.58
1006.304	1754.67
1006.598	1731.62
1006.892	1738.63
1007.186	1681.68
1007.48	1711.06
1007.773	1730.94
1008.067	1731.62
1008.361	1695.01
1008.655	1706.76
1008.948	1678.97
1009.242	1661.79
1009.535	1663.37
1009.829	1681.9
1010.122	1644.39
1010.415	1628.57
1010.708	1618.86
1011.001	1616.37
1011.295	1594.68
1011.588	1579.99
1011.881	1580.66
1012.173	1538.63
1012.466	1567.33
1012.759	1542.47
1013.052	1543.83
1013.344	1537.73
1013.637	1540.44
1013.93	1512.87
1014.222	1528.91
1014.514	1479.88
1014.807	1497.95
1015.099	1486.2
1015.391	1487.11
1015.683	1479.88
1015.976	1466.09
1016.268	1467.67
1016.56	1464.96
1016.851	1432.19
1017.143	1429.71
1017.435	1426.77
1017.727	1404.17
1018.018	1390.16
1018.31	1406.88
1018.602	1363.5
1018.893	1332.76
1019.185	1377.28
1019.476	1373.21
1019.767	1343.83
1020.058	1349.71
1020.35	1318.52
1020.641	1305.42
1020.932	1328.24
1021.223	1321.46
1021.514	1304.51
1021.804	1276.72
1022.095	1281.24
1022.386	1294.57
1022.677	1280.33
1022.967	1254.12
1023.258	1243.72
1023.548	1219.77
1023.839	1257.51
1024.129	1245.53
1024.419	1224.52
1024.709	1194.46
1025	1237.85
1025.29	1175.48
1025.58	1193.78
1025.87	1170.28
1026.16	1159.43
1026.449	1147.91
1026.739	1167.79
1027.029	1151.07
1027.319	1156.27
1027.608	1133.67
1027.898	1126.21
1028.187	1137.06
1028.477	1113.11
1028.766	1101.36
1029.055	1082.37
1029.344	1111.75
1029.634	1096.16
1029.923	1076.95
1030.212	1066.78
1030.501	1085.99
1030.79	1061.81
1031.078	1071.75
1031.367	1049.83
1031.656	1037.85
1031.945	1028.81
1032.233	1039.21
1032.522	998.53
1032.81	1028.36
1033.099	991.3
1033.387	1003.5
1033.675	1022.04
1033.963	993.11
1034.251	999.21
1034.54	997.63
1034.828	970.51
1035.116	966.67
1035.403	950.4
1035.691	950.4
1035.979	945.2
1036.267	947.23
1036.554	915.82
1036.842	961.02
1037.129	930.74
1037.417	899.33
1037.704	923.73
1037.992	904.3
1038.279	901.13
1038.566	890.51
1038.853	890.51
1039.14	890.51
