Data from cardboard_FLMS001491_083.txt Node
Date: Tue Feb 07 11:40:16 GMT 2017
User: dcchb
Spectrometer: FLMS00149
Trigger mode: 0
Integration Time (sec): 2.000000E-2
Scans to average: 10
Electric dark correction enabled: true
Nonlinearity correction enabled: false
Boxcar width: 0
XAxis mode: Wavelengths
Number of Pixels in Spectrum: 2048
>>>>>Begin Spectral Data<<<<<
341.393	-37.06
341.776	-37.06
342.16	-37.06
342.543	-55.59
342.927	-70.96
343.31	-81.81
343.693	-69.83
344.077	-49.94
344.46	-66.21
344.843	-57.17
345.226	-28.93
345.61	-33.67
345.993	-32.99
346.376	-0.68
346.759	13.78
347.142	10.62
347.525	56.95
347.908	69.83
348.291	71.41
348.674	90.39
349.057	108.25
349.44	133.1
349.823	157.74
350.206	152.54
350.588	201.12
350.971	213.1
351.354	217.62
351.737	235.02
352.119	248.58
352.502	239.54
352.884	266.21
353.267	283.16
353.65	287.45
354.032	289.48
354.414	295.13
354.797	312.76
355.179	328.8
355.562	319.54
355.944	315.92
356.326	322.48
356.709	332.65
357.091	340.1
357.473	339.2
357.855	340.33
358.238	336.94
358.62	329.71
359.002	359.31
359.384	352.08
359.766	346.88
360.148	341.01
360.53	339.43
360.912	352.08
361.294	333.32
361.676	345.75
362.057	335.13
362.439	340.78
362.821	323.61
363.203	338.3
363.584	320.22
363.966	310.73
364.348	334.68
364.729	328.35
365.111	327
365.493	319.54
365.874	342.36
366.256	331.52
366.637	318.86
367.019	319.31
367.4	310.27
367.781	290.61
368.163	324.74
368.544	305.98
368.925	312.99
369.306	323.16
369.688	309.82
370.069	312.99
370.45	301.91
370.831	308.24
371.212	314.34
371.593	314.79
371.974	328.13
372.355	326.77
372.736	319.31
373.117	305.75
373.498	327
373.879	319.99
374.26	311.18
374.641	303.04
375.021	320.9
375.402	313.89
375.783	304.4
376.163	332.19
376.544	323.83
376.925	319.54
377.305	324.96
377.686	350.27
378.066	339.43
378.447	344.17
378.827	348.24
379.208	334.91
379.588	338.3
379.968	329.03
380.349	351.4
380.729	348.01
381.109	342.82
381.489	351.63
381.87	338.07
382.25	351.63
382.63	351.4
383.01	369.03
383.39	363.61
383.77	375.36
384.15	365.41
384.53	350.95
384.91	360.44
385.29	364.28
385.67	378.52
386.049	368.8
386.429	364.51
386.809	361.57
387.189	378.75
387.568	373.1
387.948	375.36
388.328	382.36
388.707	364.28
389.087	376.04
389.466	380.55
389.846	370.61
390.225	378.97
390.605	376.04
390.984	389.14
391.363	392.76
391.743	385.07
392.122	396.15
392.501	386.66
392.881	410.61
393.26	400.67
393.639	389.59
394.018	404.74
394.397	399.99
394.776	399.54
395.155	409.93
395.534	393.89
395.913	403.38
396.292	420.78
396.671	396.6
397.05	418.07
397.429	420.78
397.808	403.38
398.186	435.02
398.565	421.68
398.944	429.59
399.323	433.21
399.701	439.31
400.08	438.18
400.458	413.1
400.837	435.24
401.215	430.27
401.594	429.59
401.972	444.73
402.351	420.55
402.729	446.54
403.107	443.6
403.486	437.5
403.864	451.06
404.242	435.69
404.62	478.86
404.999	449.93
405.377	475.02
405.755	462.13
406.133	488.8
406.511	469.59
406.889	477.95
407.267	478.41
407.645	491.06
408.023	487.44
408.401	507.78
408.779	503.04
409.156	503.26
409.534	525.18
409.912	521.57
410.29	542.58
410.667	519.31
411.045	542.81
411.422	522.92
411.8	549.14
412.178	547.1
412.555	563.15
412.933	548.23
413.31	534.22
413.687	571.96
414.065	563.83
414.442	568.8
414.819	584.17
415.197	588.23
415.574	601.79
415.951	587.56
416.328	590.04
416.705	582.81
417.082	615.13
417.46	626.65
417.837	605.63
418.214	604.96
418.591	617.61
418.967	632.98
419.344	645.18
419.721	626.42
420.098	618.51
420.475	638.18
420.852	638.85
421.228	638.85
421.605	656.25
421.982	655.8
422.358	668.91
422.735	668.91
423.111	679.98
423.488	651.06
423.864	688.12
424.241	697.83
424.617	700.77
424.994	702.13
425.37	698.06
425.746	701.22
426.123	705.07
426.499	732.18
426.875	728.34
427.251	720.43
427.627	748.68
428.003	733.99
428.379	737.38
428.756	760.21
429.132	766.08
429.507	797.04
429.883	779.41
430.259	780.54
430.635	787.78
431.011	808.34
431.387	808.11
431.763	800.88
432.138	823.03
432.514	833.42
432.89	838.62
433.265	845.85
433.641	866.42
434.016	855.8
434.392	888.56
434.767	875.46
435.143	883.82
435.518	904.61
435.894	918.39
436.269	908.9
436.644	934.21
437.02	936.47
437.395	916.36
437.77	928.11
438.145	935.57
438.52	990.03
438.895	962.23
439.271	978.73
439.646	1012.18
440.021	1018.96
440.395	976.7
440.77	988.67
441.145	998.39
441.52	1021.89
441.895	1031.61
442.27	1049.69
442.645	1060.31
443.019	1052.4
443.394	1051.5
443.769	1062.57
444.143	1050.14
444.518	1072.97
444.892	1066.64
445.267	1098.5
445.641	1097.82
446.016	1109.12
446.39	1111.61
446.764	1131.5
447.139	1100.99
447.513	1126.75
447.887	1133.76
448.262	1150.7
448.636	1143.47
449.01	1157.71
449.384	1167.88
449.758	1183.92
450.132	1190.7
450.506	1201.78
450.88	1206.97
451.254	1173.53
451.628	1208.78
452.002	1214.66
452.376	1227.76
452.75	1260.53
453.123	1269.35
453.497	1291.49
453.871	1300.08
454.244	1283.36
454.618	1300.98
454.992	1339.63
455.365	1310.02
455.739	1358.16
456.112	1394.09
456.486	1378.72
456.859	1410.81
457.232	1415.33
457.606	1418.49
457.979	1451.71
458.352	1474.54
458.725	1493.97
459.099	1491.71
459.472	1491.26
459.845	1511.37
460.218	1529.68
460.591	1529.23
460.964	1540.3
461.337	1563.57
461.71	1605.61
462.083	1629.34
462.456	1617.81
462.829	1593.4
463.201	1654.65
463.574	1669.33
463.947	1696.23
464.32	1686.74
464.692	1768.32
465.065	1756.34
465.438	1764.7
465.81	1771.48
466.183	1816.45
466.555	1853.74
466.928	1879.95
467.3	1871.59
467.672	1912.04
468.045	1930.8
468.417	1948.2
468.789	1950.01
469.161	1996.11
469.534	2021.42
469.906	2055.31
470.278	2052.6
470.65	2096.44
471.022	2101.87
471.394	2137.12
471.766	2151.58
472.138	2225.03
472.51	2204.46
472.882	2266.83
473.253	2309.32
473.625	2309.09
473.997	2401.97
474.369	2419.6
474.74	2411.46
475.112	2453.04
475.484	2504.57
475.855	2572.81
476.227	2550.89
476.598	2636.31
476.97	2647.39
477.341	2714.96
477.713	2737.33
478.084	2788.4
478.455	2846.7
478.827	2876.53
479.198	2958.79
479.569	2948.85
479.94	3030.65
480.311	3083.76
480.682	3150.88
481.053	3204.66
481.424	3257.32
481.795	3253.7
482.166	3370.98
482.537	3396.75
482.908	3460.25
483.279	3484.88
483.65	3527.36
484.021	3653.92
484.391	3694.82
484.762	3696.17
485.133	3759.22
485.503	3848.71
485.874	3864.31
486.244	3926.45
486.615	4002.15
486.985	4067.92
487.356	4135.26
487.726	4149.27
488.097	4243.28
488.467	4251.19
488.837	4374.35
489.207	4391.97
489.578	4478.75
489.948	4539.99
490.318	4594.46
490.688	4596.94
491.058	4712.87
491.428	4744.96
491.798	4799.2
492.168	4908.8
492.538	4930.94
492.908	5018.63
493.278	5089.81
493.648	5137.04
494.017	5147.21
494.387	5210.94
494.757	5278.05
495.126	5383.36
495.496	5328
495.866	5451.61
496.235	5508.78
496.605	5520.31
496.974	5605.95
497.344	5649.79
497.713	5692.96
498.082	5800.07
498.452	5814.31
498.821	5829
499.19	5914.87
499.559	6022.67
499.928	6031.93
500.298	6036.45
500.667	6136.34
501.036	6116.45
501.405	6207.75
501.774	6282.55
502.143	6366.39
502.512	6414.07
502.88	6422.2
503.249	6497.46
503.618	6531.13
503.987	6581.3
504.356	6644.8
504.724	6686.83
505.093	6762.31
505.462	6781.52
505.83	6836.66
506.199	6916.43
506.567	7005.69
506.936	7021.96
507.304	7158.91
507.672	7203.65
508.041	7238.45
508.409	7291.79
508.777	7381.5
509.145	7438.67
509.514	7438.22
509.882	7560.93
510.25	7618.1
510.618	7583.53
510.986	7778.1
511.354	7846.8
511.722	7904.65
512.09	8021.71
512.458	8024.87
512.826	8019.68
513.193	8162.95
513.561	8179.67
513.929	8272.78
514.297	8401.36
514.664	8466.44
515.032	8508.48
515.4	8631.19
515.767	8658.08
516.135	8735.36
516.502	8703.27
516.869	8854
517.237	8979.42
517.604	8941.01
517.972	9061.23
518.339	9166.54
518.706	9253.09
519.073	9301
519.44	9361.34
519.808	9551.84
520.175	9464.38
520.542	9707.54
520.909	9811.72
521.276	9770.14
521.643	9894.43
522.009	10026.63
522.376	10150.24
522.743	10133.97
523.11	10297.13
523.477	10368.09
523.843	10458.71
524.21	10605.14
524.577	10682.2
524.943	10741.86
525.31	10870.9
525.676	10980.73
526.043	10976.43
526.409	11144.34
526.776	11359.7
527.142	11422.07
527.508	11451.68
527.874	11532.13
528.241	11583.42
528.607	11706.13
528.973	11896.41
529.339	11883.53
529.705	12033.58
530.071	12158.32
530.437	12271.99
530.803	12291.43
531.169	12471.08
531.535	12500.69
531.901	12607.13
532.267	12636.05
532.632	12820.23
532.998	12774.35
533.364	12939.55
533.73	13005.31
534.095	13175.47
534.461	13217.51
534.826	13314.9
535.192	13323.27
535.557	13580.89
535.923	13474.9
536.288	13644.16
536.653	13657.72
537.019	13768.9
537.384	13783.37
537.749	13904.72
538.114	14023.13
538.479	14059.29
538.845	14168.67
539.21	14230.36
539.575	14330.7
539.94	14349
540.305	14522.33
540.67	14580.63
541.034	14648.88
541.399	14725.94
541.764	14785.15
542.129	14898.14
542.494	14909.21
542.858	15014.07
543.223	15024.46
543.587	15141.52
543.952	15220.16
544.316	15356.21
544.681	15289.32
545.045	15359.6
545.41	15473.27
545.774	15552.13
546.138	15659.7
546.503	15719.81
546.867	15711.45
547.231	15986.92
547.595	15906.93
547.959	16112.8
548.324	16103.31
548.688	16351.43
549.052	16275.73
549.416	16305.11
549.779	16451.09
550.143	16527.02
550.507	16635.04
550.871	16778.77
551.235	16767.02
551.599	16919.1
551.962	17016.73
552.326	17075.94
552.689	17224.63
553.053	17160.68
553.417	17253.11
553.78	17524.51
554.143	17484.06
554.507	17663.72
554.87	17658.74
555.234	17893.54
555.597	17814.45
555.96	17959.53
556.323	18098.51
556.686	18089.02
557.05	18223.25
557.413	18327.2
557.776	18370.59
558.139	18429.12
558.502	18605.39
558.865	18721.54
559.228	18853.97
559.59	18908.43
559.953	19023.23
560.316	19251.47
560.679	19290.57
561.041	19392.48
561.404	19463.22
561.767	19633.83
562.129	19672.7
562.492	19966.48
562.854	20002.41
563.217	20011
563.579	20109.3
563.941	20367.83
564.304	20376.87
564.666	20547.71
565.028	20613.7
565.39	20674.03
565.753	20839.45
566.115	20927.81
566.477	21080.12
566.839	21171.87
567.201	21303.17
567.563	21424.52
567.925	21535.7
568.287	21643.27
568.648	21698.41
569.01	21882.59
569.372	21937.95
569.734	21969.14
570.095	22095.46
570.457	22308.11
570.819	22312.63
571.18	22500.65
571.542	22506.3
571.903	22599.63
572.265	22728.89
572.626	22896.8
572.987	22888.66
573.349	22923.69
573.71	23177.24
574.071	23214.08
574.432	23320.52
574.794	23497.69
575.155	23560.96
575.516	23487.07
575.877	23615.88
576.238	23691.13
576.599	23769.54
576.96	23871.01
577.32	23864.91
577.681	23978.35
578.042	24034.85
578.403	24143.32
578.763	24208.4
579.124	24273.71
579.485	24478
579.845	24400.49
580.206	24498.56
580.566	24555.06
580.927	24521.84
581.287	24759.35
581.648	24671.89
582.008	24745.34
582.368	24810.42
582.728	24846.13
583.089	24797.99
583.449	25028.95
583.809	25004.99
584.169	25158.43
584.529	25016.07
584.889	25204.31
585.249	25160.92
585.609	25053.13
585.969	25377.86
586.329	25263.29
586.688	25230.3
587.048	25385.55
587.408	25284.31
587.768	25481.59
588.127	25419.9
588.487	25480.01
588.846	25582.15
589.206	25623.06
589.565	25619.21
589.925	25656.27
590.284	25728.36
590.643	25735.82
591.003	25964.52
591.362	25958.19
591.721	25945.53
592.08	25919.32
592.44	26021.01
592.799	26090.39
593.158	26024.17
593.517	26018.07
593.876	26148.69
594.235	26014.23
594.593	26270.72
594.952	26275.24
595.311	26125.87
595.67	26301
596.029	26390.94
596.387	26563.6
596.746	26524.95
597.104	26458.06
597.463	26508
597.822	26597.04
598.18	26476.82
598.538	26575.8
598.897	26719.98
599.255	26590.49
599.613	26992.51
599.972	26779.18
600.33	26961.32
600.688	26806.53
601.046	26898.05
601.404	26975.11
601.762	27032.28
602.12	27128.55
602.478	27214.43
602.836	27184.6
603.194	27073.86
603.552	27259.17
603.91	27138.04
604.268	27267.98
604.625	27131.04
604.983	27424.36
605.341	27230.24
605.698	27392.73
606.056	27493.06
606.413	27430.47
606.771	27535.32
607.128	27654.41
607.485	27544.81
607.843	27719.27
608.2	27835.2
608.557	27992.03
608.914	27805.14
609.272	27856.89
609.629	27982.99
609.986	28140.05
610.343	28039.49
610.7	28222.76
611.057	28284.23
611.414	28241.29
611.771	28242.65
612.127	28354.96
612.484	28372.59
612.841	28362.19
613.198	28322.42
613.554	28384.11
613.911	28624.11
614.267	28538.23
614.624	28557.89
614.98	28563.09
615.337	28794.05
615.693	28734.39
616.05	28714.5
616.406	28974.15
616.762	28859.58
617.118	28879.01
617.475	28956.75
617.831	29060.25
618.187	28982.51
618.543	29179.8
618.899	29392.9
619.255	29138.67
619.611	29321.94
619.967	29358.32
620.323	29418.89
620.678	29376.4
621.034	29260.02
621.39	29286.46
621.746	29389.96
622.101	29644.42
622.457	29411.2
622.812	29654.14
623.168	29597.64
623.523	29569.84
623.879	29768.03
624.234	29552.67
624.589	29570.97
624.945	29728.71
625.3	29669.73
625.655	29659.56
626.01	29729.61
626.365	29707.24
626.72	29689.39
627.075	29660.69
627.43	29727.58
627.785	29717.18
628.14	29678.99
628.495	29779.56
628.85	29761.93
629.205	29703.85
629.559	29990.4
629.914	29674.25
630.269	29767.58
630.623	29789.05
630.978	29689.61
631.332	29767.58
631.687	29897.29
632.041	29744.3
632.396	29783.17
632.75	29758.54
633.104	29772.55
633.459	29700.24
633.813	29659.56
634.167	29678.99
634.521	29699.78
634.875	29761.93
635.229	29697.07
635.583	29600.58
635.937	29731.2
636.291	29646.45
636.645	29652.33
636.999	29486.46
637.352	29634.93
637.706	29481.94
638.06	29727.81
638.413	29408.49
638.767	29510.41
639.121	29523.07
639.474	29351.54
639.828	29429.96
640.181	29475.84
640.534	29504.99
640.888	29335.73
641.241	29304.09
641.594	29420.47
641.947	29335.5
642.301	29443.97
642.654	29399.45
643.007	29380.7
643.36	29316.74
643.713	29371.66
644.066	29354.48
644.419	29126.47
644.771	28916.3
645.124	28772.12
645.477	28789.07
645.83	28615.97
646.182	28414.85
646.535	28461.4
646.888	28488.97
647.24	28345.24
647.593	28549.98
647.945	28441.29
648.298	28386.6
648.65	28256.43
649.002	28163.55
649.355	28441.06
649.707	28307.5
650.059	28418.69
650.411	28788.85
650.763	28766.48
651.115	29036.52
651.467	28892.8
651.819	29047.15
652.171	28963.53
652.523	28976.41
652.875	28925.79
653.227	28707.95
653.578	29155.84
653.93	28914.04
654.282	28922.4
654.633	28846.93
654.985	28864.55
655.337	28996.07
655.688	28944.78
656.039	29265.22
656.391	28812.8
656.742	28904.55
657.094	28859.35
657.445	29087.37
657.796	28888.73
658.147	28884.66
658.498	28833.14
658.849	28962.18
659.2	28891.67
659.551	28887.15
659.902	28983.19
660.253	28863.2
660.604	28927.15
660.955	28916.75
661.306	28911.56
661.656	28956.75
662.007	28857.55
662.358	28959.69
662.708	28909.07
663.059	28945.45
663.409	28862.97
663.76	28947.04
664.11	29024.32
664.461	28992.91
664.811	28970.76
665.161	29042.85
665.511	28893.03
665.862	28965.79
666.212	29065.9
666.562	29112.45
666.912	29070.42
667.262	28959.69
667.612	28987.71
667.962	29025
668.312	28949.3
668.662	29166.46
669.011	29021.38
669.361	28900.93
669.711	28920.6
670.06	28956.98
670.41	28983.19
670.76	28914.95
671.109	29025
671.459	28942.74
671.808	28857.55
672.157	28938.9
672.507	28738.68
672.856	28747.04
673.205	28941.84
673.554	28917.43
673.904	28780.94
674.253	28994.04
674.602	28938.9
674.951	28383.66
675.3	28437.44
675.649	28846.7
675.998	28930.54
676.346	28775.74
676.695	28910.65
677.044	28663.43
677.393	28716.31
677.741	28796.08
678.09	28762.86
678.438	28651.9
678.787	28719.24
679.135	28737.78
679.484	28618.68
679.832	28716.53
680.181	28590.89
680.529	28686.25
680.877	28551.57
681.225	28499.59
681.573	28629.53
681.922	28475.18
682.27	28478.8
682.618	28492.13
682.966	28493.26
683.314	28475.86
683.661	28432.92
684.009	28196.32
684.357	28147.96
684.705	28208.3
685.053	28263.21
685.4	28207.62
685.748	28006.27
686.095	28091.92
686.443	27875.65
686.79	27932.82
687.138	27903.9
687.485	27943.9
687.832	27735.09
688.18	27908.87
688.527	27740.51
688.874	27873.39
689.221	27804.47
689.568	27613.51
689.915	27619.84
690.262	27630.23
690.609	27511.82
690.956	27384.14
691.303	27428.66
691.65	27361.31
691.997	27346.17
692.344	27152.05
692.69	27210.36
693.037	27115.45
693.383	27022.79
693.73	27165.61
694.077	26919.52
694.423	26937.6
694.769	26796.81
695.116	26790.03
695.462	26839.97
695.808	26699.18
696.155	26761.56
696.501	26496.25
696.847	26437.5
697.193	26290.61
697.539	26429.36
697.885	26283.6
698.231	26124.74
698.577	26188.69
698.923	26180.78
699.269	26150.05
699.614	25964.29
699.96	25897.4
700.306	25886.55
700.651	25804.52
700.997	25723.39
701.342	25682.26
701.688	25650.85
702.033	25727.23
702.379	25543.96
702.724	25445.21
703.069	25449.5
703.415	25260.58
703.76	25313.01
704.105	25292.89
704.45	25256.51
704.795	25106.01
705.14	25027.82
705.485	25023.07
705.83	24897.65
706.175	24986.91
706.52	24929.51
706.865	24802.74
707.209	24758.67
707.554	24598.45
707.899	24791.44
708.243	24701.27
708.588	24568.62
708.932	24425.35
709.277	24525.68
709.621	24409.3
709.966	24362.98
710.31	24390.55
710.654	24192.81
710.998	24227.84
711.342	24259.25
711.687	24144.45
712.031	24094.51
712.375	24058.35
712.719	24029.65
713.063	23964.57
713.407	24105.35
713.75	23888.64
714.094	23962.08
714.438	23889.32
714.782	23783.1
715.125	23800.96
715.469	23845.93
715.812	23727.06
716.156	23568.42
716.499	23636.67
716.843	23603.45
717.186	23536.1
717.53	23565.26
717.873	23680.06
718.216	23532.26
718.559	23398.93
718.902	23324.13
719.246	23452.26
719.589	23341.99
719.932	23240.97
720.275	23228.99
720.617	23201.65
720.96	23133.18
721.303	23186.96
721.646	23205.72
721.989	23050.92
722.331	23126.62
722.674	23069.22
723.016	23072.16
723.359	23072.16
723.701	23105.83
724.044	23033.29
724.386	22778.61
724.729	22989.23
725.071	22898.61
725.413	22779.51
725.755	22917.82
726.097	22869.68
726.439	22669.23
726.782	22677.14
727.124	22947.87
727.465	22660.42
727.807	22652.74
728.149	22685.05
728.491	22588.33
728.833	22660.42
729.175	22527.09
729.516	22512.18
729.858	22524.61
730.199	22588.11
730.541	22531.61
730.882	22436.47
731.224	22592.63
731.565	22369.81
731.906	22446.87
732.248	22459.3
732.589	22377.94
732.93	22255.01
733.271	22344.5
733.612	22336.36
733.953	22377.04
734.294	22253.43
734.635	22243.26
734.976	22342.46
735.317	22173.2
735.658	22187.89
735.999	22260.21
736.339	22234.22
736.68	22302.69
737.021	22087.55
737.361	22024.28
737.702	22184.95
738.042	22142.02
738.383	22063.37
738.723	22091.4
739.063	22087.78
739.404	22057.5
739.744	22004.17
740.084	21968.91
740.424	21926.66
740.764	21961.23
741.104	22061.11
741.444	21964.39
741.784	21862.93
742.124	21958.52
742.464	21972.3
742.804	21883.72
743.143	21903.15
743.483	21944.06
743.823	21782.7
744.162	21817.51
744.502	21870.39
744.841	21795.59
745.181	21798.75
745.52	21838.97
745.86	21924.4
746.199	21774.12
746.538	21792.2
746.877	21802.14
747.216	21811.18
747.556	21689.15
747.895	21843.49
748.234	21660.67
748.573	21704.51
748.911	21672.2
749.25	21625.19
749.589	21597.4
749.928	21735.47
750.267	21733.44
750.605	21600.79
750.944	21619.77
751.283	21435.82
751.621	21601.24
751.96	21521.02
752.298	21518.53
752.636	21482.37
752.975	21443.96
753.313	21478.53
753.651	21431.3
753.989	21325.99
754.327	21353.56
754.666	21309.5
755.004	21322.15
755.342	21411.87
755.679	21265.2
756.017	21267.46
756.355	21238.54
756.693	21229.72
757.031	21266.56
757.368	21154.92
757.706	21073.34
758.044	21095.04
758.381	21124.64
758.719	21000.13
759.056	21036.06
759.394	20915.61
759.731	20852.56
760.068	20908.6
760.405	20812.56
760.743	20765.1
761.08	20823.18
761.417	20689.4
761.754	20831.09
762.091	20717.2
762.428	20661.6
762.765	20506.81
763.102	20600.36
763.438	20457.54
763.775	20441.5
764.112	20463.64
764.449	20487.37
764.785	20300.26
765.122	20222.07
765.458	20197.89
765.795	20251.9
766.131	20213.03
766.467	20124.22
766.804	20085.8
767.14	20009.42
767.476	20023.2
767.812	19956.31
768.148	19912.7
768.485	19808.97
768.821	19700.27
769.157	19699.14
769.492	19610.78
769.828	19682.65
770.164	19532.59
770.5	19468.87
770.836	19421.41
771.171	19397.91
771.507	19314.29
771.842	19197.01
772.178	19218.48
772.513	19222.09
772.849	19018.26
773.184	19046.5
773.519	19040.63
773.855	18947.98
774.19	18940.07
774.525	18817.13
774.86	18886.28
775.195	18724.93
775.53	18743.69
775.865	18618.95
776.2	18442.45
776.535	18415.79
776.87	18403.13
777.205	18290.82
777.539	18239.07
777.874	18279.07
778.209	18162.91
778.543	18045.4
778.878	18008.79
779.212	18020.77
779.547	17974.89
779.881	18103.7
780.215	17866.2
780.55	17848.12
780.884	17775.8
781.218	17701.68
781.552	17769.02
781.886	17578.29
782.22	17539.43
782.554	17383.72
782.888	17283.61
783.222	17218.08
783.556	17159.55
783.889	17169.72
784.223	17102.83
784.557	16961.36
784.89	17088.59
785.224	16981.7
785.557	16894.25
785.891	16871.42
786.224	16787.13
786.558	16783.29
786.891	16576.97
787.224	16616.29
787.557	16622.61
787.891	16554.59
788.224	16530.64
788.557	16550.3
788.89	16351.43
789.223	16372.68
789.556	16322.96
789.888	16284.77
790.221	16146.69
790.554	16084.77
790.887	16046.81
791.219	15984.44
791.552	16011.56
791.884	15922.29
792.217	15957.09
792.549	15838.91
792.882	15692.69
793.214	15702.64
793.546	15691.34
793.879	15557.11
794.211	15496.99
794.543	15548.74
794.875	15581.06
795.207	15603.66
795.539	15403.44
795.871	15496.77
796.203	15321.63
796.535	15294.06
796.867	15196.21
797.198	15126.38
797.53	15143.78
797.862	15085.03
798.193	15152.14
798.525	14979.27
798.856	14935.88
799.188	14890.91
799.519	14871.02
799.85	14704.47
800.182	14730.23
800.513	14728.88
800.844	14596.68
801.175	14731.59
801.506	14664.25
801.837	14660.41
802.168	14568.43
802.499	14594.64
802.83	14339.51
803.161	14417.7
803.491	14400.3
803.822	14336.57
804.153	14249.79
804.483	14194.2
804.814	14272.17
805.145	14226.74
805.475	14202.79
805.805	14078.5
806.136	14055.9
806.466	14039.18
806.796	14005.51
807.126	14008.45
807.457	13959.86
807.787	13939.07
808.117	13840.09
808.447	13788.79
808.777	13767.1
809.107	13738.17
809.436	13763.48
809.766	13642.81
810.096	13658.17
810.426	13682.8
810.755	13675.35
811.085	13560.32
811.414	13596.03
811.744	13449.82
812.073	13435.13
812.403	13409.59
812.732	13335.92
813.061	13340.67
813.39	13306.54
813.719	13235.58
814.049	13375.47
814.378	13278.07
814.707	13211.86
815.036	13187.22
815.365	13144.06
815.693	13092.99
816.022	13010.73
816.351	13059.54
816.68	12911.52
817.008	13004.18
817.337	12921.47
817.665	12914.01
817.994	12966.21
818.322	12899.1
818.651	12899.32
818.979	12794.01
819.307	12865.88
819.636	12808.25
819.964	12715.82
820.292	12744.3
820.62	12747.46
820.948	12679.21
821.276	12754.69
821.604	12711.76
821.932	12721.47
822.259	12678.08
822.587	12668.14
822.915	12676.95
823.243	12694.36
823.57	12643.51
823.898	12632.89
824.225	12578.65
824.553	12641.02
824.88	12551.99
825.207	12652.55
825.535	12594.92
825.862	12762.15
826.189	12704.98
826.516	12645.54
826.843	12754.47
827.17	12687.35
827.497	12757.86
827.824	12744.52
828.151	12700.91
828.478	12705.88
828.805	12703.62
829.131	12664.98
829.458	12591.76
829.785	12658.65
830.111	12600.8
830.438	12762.38
830.764	12679.89
831.09	12733.22
831.417	12590.63
831.743	12649.16
832.069	12613.23
832.395	12594.47
832.722	12599.22
833.048	12673.34
833.374	12551.76
833.7	12607.35
834.026	12514.7
834.351	12571.19
834.677	12608.93
835.003	12566.68
835.329	12579.78
835.654	12512.89
835.98	12458.43
836.306	12481.93
836.631	12499.11
836.956	12480.12
837.282	12526
837.607	12486
837.932	12467.24
838.258	12452.33
838.583	12311.77
838.908	12323.97
839.233	12365.32
839.558	12289.39
839.883	12313.35
840.208	12187.02
840.533	12223.86
840.858	12292.33
841.182	12266.57
841.507	12233.12
841.832	12195.84
842.156	12100.25
842.481	12207.81
842.805	12129.85
843.13	12080.13
843.454	12110.87
843.778	11981.61
844.103	12026.12
844.427	11993.81
844.751	11980.02
845.075	11944.54
845.399	11836.75
845.723	11837.88
846.047	11922.62
846.371	11748.84
846.695	11744.78
847.019	11710.43
847.343	11637.21
847.666	11525.8
847.99	11493.03
848.313	11460.72
848.637	11406.71
848.96	11418
849.284	11408.74
849.607	11340.94
849.931	11270.89
850.254	11213.26
850.577	11083.1
850.9	11035.42
851.223	11112.02
851.546	11056.66
851.869	11043.33
852.192	10956.1
852.515	10975.98
852.838	10899.15
853.161	10889.21
853.483	10848.98
853.806	10738.93
854.129	10696.67
854.451	10752.94
854.774	10680.4
855.096	10625.94
855.419	10621.19
855.741	10522.66
856.063	10529.67
856.385	10534.19
856.708	10478.82
857.03	10357.24
857.352	10482.89
857.674	10363.57
857.996	10360.18
858.318	10277.92
858.64	10374.42
858.961	10267.3
859.283	10282.44
859.605	10209
859.926	10185.72
860.248	10155.44
860.57	10108.43
860.891	10195.89
861.212	10120.64
861.534	10086.51
861.855	10032.28
862.176	10039.51
862.498	10075.67
862.819	10061.88
863.14	9994.09
863.461	10017.82
863.782	9943.92
864.103	9941.89
864.424	10000.64
864.745	9933.52
865.065	9862.79
865.386	9898.5
865.707	9867.09
866.027	9844.26
866.348	9821.44
866.668	9848.55
866.989	9760.2
867.309	9740.99
867.63	9738.95
867.95	9754.32
868.27	9652.85
868.59	9699.18
868.91	9689.01
869.23	9670.25
869.55	9664.6
869.87	9661.67
870.19	9653.98
870.51	9620.76
870.83	9643.81
871.15	9561.33
871.469	9567.88
871.789	9548.9
872.109	9590.03
872.428	9458.96
872.748	9561.56
873.067	9565.17
873.386	9532.4
873.706	9503.7
874.025	9429.58
874.344	9400.66
874.663	9444.72
874.982	9453.08
875.301	9387.1
875.62	9467.55
875.939	9354.78
876.258	9371.96
876.577	9306.87
876.896	9388.68
877.214	9328.34
877.533	9287.67
877.852	9344.39
878.17	9306.2
878.489	9238.4
878.807	9256.93
879.125	9192.98
879.444	9224.39
879.762	9162.92
880.08	9189.59
880.398	9192.53
880.716	9185.52
881.034	9077.05
881.352	9114.34
881.67	9068.69
881.988	9139.42
882.306	9010.16
882.624	9069.14
882.941	9008.12
883.259	8957.5
883.577	8982.36
883.894	8946.43
884.212	8919.99
884.529	8892.87
884.846	8953.66
885.164	8949.14
885.481	8884.06
885.798	8898.3
886.115	8832.76
886.432	8838.86
886.75	8823.04
887.067	8814.68
887.383	8791.18
887.7	8782.37
888.017	8755.25
888.334	8722.26
888.651	8653.78
888.967	8673.44
889.284	8583.73
889.6	8577.63
889.917	8592.77
890.233	8601.81
890.55	8506.67
890.866	8597.29
891.182	8477.74
891.498	8461.92
891.815	8432.09
892.131	8423.28
892.447	8425.99
892.763	8331.08
893.079	8350.97
893.395	8332.21
893.71	8356.39
894.026	8338.99
894.342	8263.29
894.657	8230.52
894.973	8149.39
895.289	8195.94
895.604	8199.56
895.92	8094.93
896.235	8061.71
896.55	8088.83
896.865	8048.15
897.181	8058.77
897.496	8089.96
897.811	8006.34
898.126	7929.28
898.441	7877.98
898.756	7917.53
899.071	7885.44
899.386	7802.73
899.7	7859.23
900.015	7796.63
900.33	7735.39
900.644	7690.87
900.959	7730.42
901.273	7687.03
901.588	7631.44
901.902	7590.31
902.216	7625.34
902.531	7571.33
902.845	7503.98
903.159	7501.5
903.473	7487.03
903.787	7439.35
904.101	7368.85
904.415	7390.09
904.729	7332.24
905.042	7320.03
905.356	7328.39
905.67	7262.18
905.984	7333.37
906.297	7259.92
906.611	7249.75
906.924	7191.22
907.237	7202.3
907.551	7158.68
907.864	7167.27
908.177	7126.82
908.491	7075.52
908.804	7017.89
909.117	6993.26
909.43	6972.25
909.743	6992.13
910.056	6922.98
910.368	6911.91
910.681	6891.34
910.994	6871.23
911.307	6754.62
911.619	6784.68
911.932	6742.65
912.244	6769.09
912.557	6732.25
912.869	6722.08
913.181	6640.73
913.494	6717.56
913.806	6626.72
914.118	6595.98
914.43	6533.61
914.742	6574.97
915.054	6543.33
915.366	6428.98
915.678	6420.17
915.99	6438.25
916.302	6418.81
916.613	6372.49
916.925	6344.24
917.236	6342.88
917.548	6289.33
917.859	6301.3
918.171	6258.14
918.482	6259.95
918.794	6223.57
919.105	6186.73
919.416	6131.14
919.727	6117.35
920.038	6138.82
920.349	6077.13
920.66	6067.41
920.971	6075.09
921.282	5975.21
921.593	5975.89
921.903	6007.98
922.214	5898.6
922.525	5921.65
922.835	5884.59
923.146	5846.63
923.456	5848.89
923.767	5833.29
924.077	5841.43
924.387	5779.51
924.697	5728.44
925.008	5718.72
925.318	5701.32
925.628	5742.9
925.938	5692.28
926.248	5619.06
926.558	5624.94
926.867	5575.67
927.177	5572.28
927.487	5508.1
927.796	5463.13
928.106	5494.09
928.416	5436.24
928.725	5469.23
929.034	5424.49
929.344	5413.87
929.653	5425.17
929.962	5332.06
930.271	5307.21
930.581	5288.9
930.89	5265.85
931.199	5251.84
931.508	5235.79
931.817	5209.81
932.125	5228.56
932.434	5190.6
932.743	5169.13
933.051	5160.32
933.36	5098.85
933.669	5038.29
933.977	5091.39
934.286	5029.02
934.594	5037.38
934.902	5004.39
935.21	4972.75
935.519	4968
935.827	4930.27
936.135	4923.26
936.443	4944.05
936.751	4903.37
937.059	4853.43
937.367	4832.87
937.674	4809.37
937.982	4826.54
938.29	4762.81
938.597	4754.45
938.905	4739.31
939.213	4678.52
939.52	4661.35
939.827	4695.7
940.135	4659.54
940.442	4650.73
940.749	4632.19
941.056	4605.98
941.363	4577.73
941.67	4533.21
941.977	4481.69
942.284	4495.25
942.591	4503.61
942.898	4436.04
943.205	4473.78
943.511	4483.95
943.818	4416.16
944.125	4402.37
944.431	4375.7
944.738	4355.14
945.044	4350.39
945.35	4319.43
945.657	4292.99
945.963	4300.45
946.269	4280.79
946.575	4304.52
946.881	4257.29
947.187	4230.85
947.493	4232.21
947.799	4194.24
948.105	4175.71
948.41	4137.07
948.716	4142.49
949.022	4091.64
949.327	4100.68
949.633	4108.59
949.938	4078.54
950.244	4067.24
950.549	4032.21
950.854	4053.9
951.16	4002.15
951.465	3961.7
951.77	3985.21
952.075	3957.41
952.38	3936.62
952.685	3929.39
952.99	3868.82
953.294	3864.76
953.599	3869.28
953.904	3866.57
954.209	3783.63
954.513	3829.5
954.818	3762.84
955.122	3791.54
955.426	3769.84
955.731	3747.92
956.035	3739.11
956.339	3682.84
956.643	3714.93
956.948	3692.33
957.252	3690.52
957.556	3662.28
957.86	3616.4
958.163	3642.16
958.467	3612.79
958.771	3583.86
959.075	3595.39
959.378	3523.07
959.682	3568.95
959.985	3537.31
960.289	3538.66
960.592	3543.64
960.896	3497.31
961.199	3466.8
961.502	3455.28
961.805	3453.47
962.108	3429.29
962.411	3390.87
962.714	3410.76
963.017	3392.91
963.32	3412.11
963.623	3344.09
963.926	3375.5
964.228	3349.52
964.531	3347.48
964.833	3335.28
965.136	3279.91
965.438	3285.56
965.741	3265.45
966.043	3238.33
966.345	3229.07
966.648	3218.9
966.95	3230.65
967.252	3192.46
967.554	3173.25
967.856	3130.99
968.158	3155.62
968.46	3126.47
968.761	3127.38
969.063	3100.48
969.365	3083.31
969.666	3132.12
969.968	3054.16
970.269	3082.86
970.571	3077.43
970.872	3079.69
971.174	3026.36
971.475	2981.39
971.776	2973.71
972.077	2971.9
972.378	2945.01
972.679	2953.37
972.98	2938.45
973.281	2936.19
973.582	2942.52
973.883	2863.88
974.183	2867.5
974.484	2886.25
974.785	2901.62
975.085	2840.6
975.386	2862.52
975.686	2829.53
975.986	2818.91
976.287	2837.89
976.587	2791.79
976.887	2847.16
977.187	2791.57
977.487	2763.32
977.787	2752.7
978.087	2724.9
978.387	2728.06
978.687	2717.22
978.987	2698.69
979.286	2668.63
979.586	2719.7
979.885	2694.62
980.185	2640.16
980.484	2638.8
980.784	2619.82
981.083	2646.26
981.382	2577.11
981.682	2579.37
981.981	2607.39
982.28	2558.58
982.579	2578.69
982.878	2572.14
983.177	2563.1
983.475	2531.01
983.774	2516.54
984.073	2537.11
984.372	2512.25
984.67	2508.41
984.969	2514.06
985.267	2487.62
985.566	2497.79
985.864	2463.21
986.162	2464.12
986.461	2419.15
986.759	2421.41
987.057	2395.64
987.355	2394.97
987.653	2386.38
987.951	2384.57
988.249	2376.43
988.547	2342.31
988.844	2316.55
989.142	2326.27
989.44	2333.72
989.737	2275.42
990.035	2300.96
990.332	2266.83
990.63	2286.49
990.927	2261.64
991.224	2246.49
991.521	2261.86
991.819	2238.13
992.116	2221.41
992.413	2223.22
992.71	2234.74
993.006	2220.73
993.303	2185.25
993.6	2180.28
993.897	2154.07
994.193	2167.63
994.49	2165.37
994.787	2125.82
995.083	2132.37
995.379	2140.96
995.676	2114.07
995.972	2080.17
996.268	2073.39
996.565	2073.84
996.861	2054.86
997.157	2058.7
997.453	2050.79
997.749	2043.11
998.044	2034.3
998.34	2018.25
998.636	2001.3
998.932	1968.31
999.227	1990
999.523	1985.94
999.818	1973.06
1000.114	1963.79
1000.409	1985.03
1000.704	1948.2
1001	1951.36
1001.295	1915.43
1001.59	1919.27
1001.885	1920.63
1002.18	1888.09
1002.475	1880.18
1002.77	1873.4
1003.065	1856
1003.359	1860.06
1003.654	1856.67
1003.949	1841.08
1004.243	1828.88
1004.538	1809.9
1004.832	1815.77
1005.127	1795.66
1005.421	1776.45
1005.715	1782.1
1006.009	1757.92
1006.304	1763.57
1006.598	1736.68
1006.892	1711.82
1007.186	1722.67
1007.48	1717.92
1007.773	1705.04
1008.067	1691.93
1008.361	1670.69
1008.655	1669.56
1008.948	1678.15
1009.242	1662.33
1009.535	1642.22
1009.829	1623.01
1010.122	1617.36
1010.415	1609.68
1010.708	1582.56
1011.001	1601.31
1011.295	1592.5
1011.588	1572.39
1011.881	1584.37
1012.173	1571.94
1012.466	1577.81
1012.759	1554.76
1013.052	1550.69
1013.344	1550.02
1013.637	1530.81
1013.93	1510.47
1014.222	1502.56
1014.514	1506.63
1014.807	1505.5
1015.099	1486.51
1015.391	1499.62
1015.683	1471.15
1015.976	1463.01
1016.268	1439.28
1016.56	1431.83
1016.851	1423.01
1017.143	1408.32
1017.435	1391.15
1017.727	1408.55
1018.018	1413.75
1018.31	1372.62
1018.602	1406.06
1018.893	1384.14
1019.185	1358.16
1019.476	1340.76
1019.767	1352.28
1020.058	1330.36
1020.35	1321.32
1020.641	1301.43
1020.932	1303.47
1021.223	1300.98
1021.514	1276.8
1021.804	1256.46
1022.095	1278.38
1022.386	1254.88
1022.677	1256.01
1022.967	1244.49
1023.258	1227.99
1023.548	1208.1
1023.839	1197.48
1024.129	1210.59
1024.419	1229.12
1024.709	1205.62
1025	1212.17
1025.29	1204.94
1025.58	1159.52
1025.87	1194.09
1026.16	1176.92
1026.449	1175.11
1026.739	1194.32
1027.029	1144.38
1027.319	1143.02
1027.608	1116.58
1027.898	1126.75
1028.187	1086.3
1028.477	1133.3
1028.766	1121.78
1029.055	1116.13
1029.344	1098.05
1029.634	1088.33
1029.923	1084.94
1030.212	1055.57
1030.501	1059.86
1030.79	1065.28
1031.078	1052.85
1031.367	1055.34
1031.656	1029.13
1031.945	1031.61
1032.233	1010.37
1032.522	1006.75
1032.81	1011.95
1033.099	1008.79
1033.387	1006.75
1033.675	985.96
1033.963	1014.44
1034.251	993.65
1034.54	977.15
1034.828	962.46
1035.116	980.99
1035.403	967.88
1035.691	949.81
1035.979	926.76
1036.267	944.83
1036.554	944.38
1036.842	911.39
1037.129	927.89
1037.417	898.28
1037.704	891.05
1037.992	886.08
1038.279	882.46
1038.566	895.34
1038.853	895.34
1039.14	895.34
