Data from cardboard_FLMS001491_089.txt Node
Date: Tue Feb 07 11:40:17 GMT 2017
User: dcchb
Spectrometer: FLMS00149
Trigger mode: 0
Integration Time (sec): 2.000000E-2
Scans to average: 10
Electric dark correction enabled: true
Nonlinearity correction enabled: false
Boxcar width: 0
XAxis mode: Wavelengths
Number of Pixels in Spectrum: 2048
>>>>>Begin Spectral Data<<<<<
341.393	-7.46
341.776	-7.46
342.16	-7.46
342.543	-63.05
342.927	-68.02
343.31	-53.56
343.693	-63.73
344.077	-71.86
344.46	-47.46
344.843	-40
345.226	-34.12
345.61	-29.6
345.993	-31.19
346.376	-12.88
346.759	16.04
347.142	11.53
347.525	43.84
347.908	64.41
348.291	64.63
348.674	80.45
349.057	103.5
349.44	142.82
349.823	141.69
350.206	156.15
350.588	202.03
350.971	202.93
351.354	237.73
351.737	247.68
352.119	257.39
352.502	249.71
352.884	256.94
353.267	272.31
353.65	303.04
354.032	299.88
354.414	297.62
354.797	300.11
355.179	323.61
355.562	350.05
355.944	302.14
356.326	339.88
356.709	330.61
357.091	323.16
357.473	337.84
357.855	362.02
358.238	350.95
358.62	325.64
359.002	341.69
359.384	350.95
359.766	344.17
360.148	345.3
360.53	349.14
360.912	359.09
361.294	345.08
361.676	338.52
362.057	318.64
362.439	327.68
362.821	329.93
363.203	327.9
363.584	341.46
363.966	330.39
364.348	316.15
364.729	342.59
365.111	311.4
365.493	322.48
365.874	351.4
366.256	328.35
366.637	327.45
367.019	308.69
367.4	345.75
367.781	313.66
368.163	313.21
368.544	317.73
368.925	315.47
369.306	335.36
369.688	308.47
370.069	326.55
370.45	295.81
370.831	293.55
371.212	312.31
371.593	310.73
371.974	309.82
372.355	308.69
372.736	330.84
373.117	337.84
373.498	322.25
373.879	324.51
374.26	327
374.641	312.08
375.021	319.54
375.402	326.55
375.783	322.93
376.163	333.32
376.544	330.84
376.925	314.12
377.305	335.81
377.686	335.81
378.066	325.64
378.447	348.24
378.827	328.8
379.208	322.25
379.588	339.65
379.968	345.3
380.349	329.03
380.729	329.48
381.109	351.86
381.489	344.4
381.87	322.7
382.25	343.95
382.63	348.01
383.01	342.36
383.39	355.7
383.77	359.76
384.15	353.44
384.53	356.37
384.91	354.11
385.29	359.99
385.67	388.46
386.049	344.85
386.429	357.28
386.809	353.21
387.189	362.25
387.568	362.25
387.948	357.5
388.328	359.54
388.707	354.79
389.087	382.59
389.466	386.66
389.846	368.35
390.225	376.49
390.605	358.63
390.984	389.14
391.363	371.74
391.743	406.77
392.122	392.31
392.501	377.17
392.881	416.94
393.26	395.24
393.639	395.7
394.018	390.5
394.397	400.22
394.776	388.69
395.155	419.88
395.534	429.59
395.913	424.4
396.292	399.76
396.671	401.8
397.05	415.13
397.429	415.13
397.808	423.49
398.186	461.46
398.565	435.02
398.944	424.4
399.323	434.34
399.701	439.08
400.08	442.25
400.458	432.53
400.837	447.9
401.215	429.14
401.594	433.21
401.972	455.13
402.351	431.4
402.729	445.19
403.107	437.28
403.486	451.97
403.864	464.62
404.242	452.87
404.62	477.05
404.999	475.69
405.377	470.27
405.755	491.74
406.133	485.41
406.511	483.38
406.889	494
407.267	461.46
407.645	480.89
408.023	506.2
408.401	512.75
408.779	492.64
409.156	487.44
409.534	508.01
409.912	538.52
410.29	538.29
410.667	514.34
411.045	532.64
411.422	548.46
411.8	534
412.178	567.22
412.555	522.7
412.933	542.58
413.31	556.14
413.687	575.58
414.065	572.41
414.442	587.78
414.819	583.94
415.197	600.66
415.574	566.31
415.951	570.61
416.328	574.45
416.705	593.2
417.082	632.3
417.46	604.5
417.837	616.25
418.214	628.01
418.591	595.92
418.967	586.2
419.344	602.47
419.721	624.84
420.098	602.24
420.475	648.34
420.852	670.26
421.228	649.47
421.605	649.7
421.982	639.98
422.358	659.42
422.735	658.97
423.111	692.19
423.488	677.72
423.864	689.02
424.241	695.8
424.617	694.67
424.994	701.22
425.37	692.64
425.746	717.95
426.123	719.08
426.499	698.51
426.875	724.05
427.251	745.52
427.627	755.91
428.003	748.45
428.379	746.42
428.756	749.13
429.132	767.21
429.507	768.12
429.883	790.94
430.259	792.3
430.635	785.97
431.011	792.97
431.387	815.57
431.763	826.42
432.138	805.63
432.514	823.03
432.89	829.58
433.265	837.94
433.641	875.91
434.016	889.69
434.392	888.34
434.767	887.66
435.143	886.53
435.518	901.9
435.894	911.16
436.269	912.52
436.644	932.4
437.02	937.83
437.395	925.85
437.77	930.15
438.145	963.36
438.52	973.76
438.895	982.8
439.271	972.86
439.646	983.25
440.021	988.67
440.395	1006.08
440.77	1008.11
441.145	995.68
441.52	1021.67
441.895	1039.97
442.27	1033.19
442.645	1055.57
443.019	1067.09
443.394	1073.42
443.769	1071.16
444.143	1049.01
444.518	1073.64
444.892	1064.6
445.267	1088.78
445.641	1098.95
446.016	1106.41
446.39	1103.02
446.764	1141.66
447.139	1100.76
447.513	1116.35
447.887	1138.05
448.262	1110.03
448.636	1159.07
449.01	1129.91
449.384	1175.34
449.758	1174.43
450.132	1192.96
450.506	1205.39
450.88	1194.54
451.254	1203.13
451.628	1217.6
452.002	1247.65
452.376	1263.24
452.75	1237.26
453.123	1268.44
453.497	1270.02
453.871	1297.14
454.244	1326.29
454.618	1271.6
454.992	1298.72
455.365	1306.41
455.739	1383.69
456.112	1348.67
456.486	1352.05
456.859	1398.16
457.232	1434.54
457.606	1404.03
457.979	1434.09
458.352	1443.8
458.725	1459.62
459.099	1467.31
459.472	1523.35
459.845	1500.07
460.218	1517.93
460.591	1570.13
460.964	1522.9
461.337	1569.68
461.71	1587.3
462.083	1607.42
462.456	1609.45
462.829	1644.02
463.201	1642.22
463.574	1641.99
463.947	1647.41
464.32	1706.85
464.692	1743.68
465.065	1786.17
465.438	1770.8
465.81	1792.95
466.183	1808.09
466.555	1847.86
466.928	1832.27
467.3	1832.95
467.672	1898.26
468.045	1954.52
468.417	1976.9
468.789	1984.35
469.161	1960.4
469.534	2017.8
469.906	2059.61
470.278	2084.01
470.65	2089.89
471.022	2152.49
471.394	2164.01
471.766	2201.07
472.138	2217.57
472.51	2219.15
472.882	2294.18
473.253	2314.06
473.625	2359.49
473.997	2425.7
474.369	2404.23
474.74	2385.25
475.112	2469.99
475.484	2538.69
475.855	2550.67
476.227	2578.69
476.598	2622.08
476.97	2685.35
477.341	2683.77
477.713	2721.51
478.084	2772.58
478.455	2867.95
478.827	2888.29
479.198	2973.26
479.569	2980.71
479.94	3037.66
480.311	3074.72
480.682	3186.81
481.053	3199.01
481.424	3262.06
481.795	3297.31
482.166	3345.9
482.537	3393.13
482.908	3465.67
483.279	3490.08
483.65	3547.7
484.021	3629.74
484.391	3630.41
484.762	3695.95
485.133	3744.99
485.503	3791.76
485.874	3907.69
486.244	3915.83
486.615	4036.28
486.985	4021.59
487.356	4144.52
487.726	4152.43
488.097	4201.25
488.467	4247.8
488.837	4398.08
489.207	4379.09
489.578	4457.96
489.948	4531.18
490.318	4621.8
490.688	4643.04
491.058	4694.79
491.428	4769.59
491.798	4798.07
492.168	4929.14
492.538	4995.8
492.908	4991.96
493.278	5095.46
493.648	5062.01
494.017	5163.48
494.387	5239.64
494.757	5304.72
495.126	5340.42
495.496	5369.8
495.866	5404.15
496.235	5501.1
496.605	5533.64
496.974	5640.76
497.344	5690.47
497.713	5710.13
498.082	5768.21
498.452	5854.76
498.821	5878.94
499.19	5871.03
499.559	6014.31
499.928	6042.33
500.298	6050.69
500.667	6150.57
501.036	6182.44
501.405	6243
501.774	6271.25
502.143	6334.52
502.512	6368.19
502.88	6448.64
503.249	6443.9
503.618	6518.7
503.987	6589.66
504.356	6658.13
504.724	6729.99
505.093	6736.77
505.462	6757.79
505.83	6892.25
506.199	6972.92
506.567	7023.77
506.936	7011.57
507.304	7147.16
507.672	7126.59
508.041	7248.4
508.409	7280.03
508.777	7340.6
509.145	7490.88
509.514	7471.22
509.882	7525.68
510.25	7576.98
510.618	7678.89
510.986	7725.67
511.354	7798.67
511.722	7917.98
512.09	7987.13
512.458	8043.18
512.826	8108.49
513.193	8128.37
513.561	8201.59
513.929	8324.75
514.297	8350.74
514.664	8447.01
515.032	8462.15
515.4	8627.34
515.767	8700.56
516.135	8727.45
516.502	8678.19
516.869	8895.81
517.237	8914.34
517.604	8931.74
517.972	9072.53
518.339	9157.95
518.706	9246.08
519.073	9312.07
519.44	9440.43
519.808	9559.97
520.175	9486.08
520.542	9670.71
520.909	9734.66
521.276	9799.74
521.643	9844.03
522.009	10020.3
522.376	10050.36
522.743	10244.25
523.11	10242.89
523.477	10447.18
523.843	10486.05
524.21	10577.8
524.577	10693.73
524.943	10724.24
525.31	10826.16
525.676	10964.23
526.043	11060.5
526.409	11162.64
526.776	11227.05
527.142	11308.63
527.508	11421.62
527.874	11554.72
528.241	11698.22
528.607	11790.65
528.973	11848.05
529.339	11883.53
529.705	12015.73
530.071	12270.41
530.437	12235.84
530.803	12320.35
531.169	12493.46
531.535	12461.59
531.901	12567.35
532.267	12653.68
532.632	12758.76
532.998	12841.7
533.364	12943.16
533.73	13077.85
534.095	13154.46
534.461	13222.03
534.826	13320.1
535.192	13427.9
535.557	13482.58
535.923	13609.13
536.288	13620.43
536.653	13763.48
537.019	13672.86
537.384	13863.59
537.749	13956.24
538.114	14083.92
538.479	13983.59
538.845	14193.07
539.21	14165.73
539.575	14285.95
539.94	14352.84
540.305	14438.26
540.67	14546.28
541.034	14609.33
541.399	14700.86
541.764	14751.25
542.129	14834.86
542.494	14926.61
542.858	15046.84
543.223	15070.79
543.587	15075.99
543.952	15232.37
544.316	15274.63
544.681	15268.53
545.045	15450.89
545.41	15626.26
545.774	15596.2
546.138	15621.51
546.503	15743.99
546.867	15799.81
547.231	15967.04
547.595	15948.51
547.959	16148.5
548.324	16124.32
548.688	16210.2
549.052	16255.62
549.416	16381.49
549.779	16434.6
550.143	16467.82
550.507	16685.89
550.871	16771.54
551.235	16791.87
551.599	17033.45
551.962	17040.68
552.326	17090.17
552.689	17125.88
553.053	17127.91
553.417	17249.26
553.78	17564.74
554.143	17497.62
554.507	17527.9
554.87	17709.14
555.234	17917.95
555.597	17825.75
555.96	17985.29
556.323	17973.76
556.686	18093.54
557.05	18200.65
557.413	18399.06
557.776	18367.2
558.139	18542.11
558.502	18601.32
558.865	18666.4
559.228	18820.75
559.59	18945.49
559.953	19020.29
560.316	19308.87
560.679	19316.33
561.041	19533.05
561.404	19585.47
561.767	19686.71
562.129	19688.97
562.492	19916.99
562.854	19980.72
563.217	19983.2
563.579	20154.5
563.941	20291.44
564.304	20420.03
564.666	20598.55
565.028	20709.29
565.39	20658.44
565.753	20852.11
566.115	20961.03
566.477	21139.11
566.839	21246.9
567.201	21384.52
567.563	21333.9
567.925	21570.05
568.287	21624.29
568.648	21682.37
569.01	21853.66
569.372	22045.97
569.734	21994.68
570.095	22238.06
570.457	22232.41
570.819	22426.75
571.18	22389.47
571.542	22546.53
571.903	22534.32
572.265	22685.73
572.626	22851.6
572.987	22846.18
573.349	23064.48
573.71	23051.6
574.071	23129.79
574.432	23228.09
574.794	23419.27
575.155	23486.84
575.516	23477.35
575.877	23649.1
576.238	23684.57
576.599	23831.69
576.96	23785.36
577.32	23917.56
577.681	24017
578.042	24175.41
578.403	24126.15
578.763	24285.01
579.124	24173.38
579.485	24428.28
579.845	24616.75
580.206	24518.9
580.566	24572.46
580.927	24693.59
581.287	24771.78
581.648	24593.93
582.008	24809.97
582.368	24814.26
582.728	24843.41
583.089	24939.46
583.449	24913.02
583.809	24982.62
584.169	24976.74
584.529	25084.09
584.889	25227.13
585.249	25176.51
585.609	25121.15
585.969	25339.9
586.329	25325.21
586.688	25329.5
587.048	25381.25
587.408	25395.26
587.768	25368.37
588.127	25376.73
588.487	25517.07
588.846	25730.4
589.206	25509.61
589.565	25585.54
589.925	25871.64
590.284	25644.52
590.643	25736.72
591.003	25785.76
591.362	25941.24
591.721	25981.24
592.08	25887.91
592.44	26068.69
592.799	26084.29
593.158	26041.35
593.517	25977.17
593.876	26180.33
594.235	26122.25
594.593	25998.86
594.952	26303.26
595.311	26299.87
595.67	26286.31
596.029	26558.85
596.387	26444.28
596.746	26556.59
597.104	26570.15
597.463	26522.01
597.822	26638.17
598.18	26419.42
598.538	26632.75
598.897	26763.59
599.255	26582.13
599.613	26930.37
599.972	26769.92
600.33	26909.12
600.688	26770.37
601.046	26962.68
601.404	27056.24
601.762	27120.42
602.12	27136.01
602.478	27129.68
602.836	27213.3
603.194	27168.55
603.552	27173.07
603.91	27182.34
604.268	27318.83
604.625	27198.38
604.983	27392.73
605.341	27297.81
605.698	27371.71
606.056	27511.37
606.413	27483.57
606.771	27604.92
607.128	27698.25
607.485	27589.56
607.843	27639.05
608.2	27802.43
608.557	27906.61
608.914	27800.17
609.272	27934.86
609.629	28069.54
609.986	28220.95
610.343	28067.28
610.7	28237.68
611.057	28194.06
611.414	28214.85
611.771	28339.82
612.127	28321.29
612.484	28335.53
612.841	28451.91
613.198	28303.66
613.554	28435.64
613.911	28596.54
614.267	28580.04
614.624	28613.48
614.98	28644.44
615.337	28805.34
615.693	28770.54
616.05	28659.81
616.406	28936.41
616.762	28899.81
617.118	28794.72
617.475	28989.29
617.831	28975.06
618.187	29080.82
618.543	29209.18
618.899	29326.91
619.255	29208.95
619.611	29250.3
619.967	29330.98
620.323	29373.24
620.678	29262.51
621.034	29328.95
621.39	29309.74
621.746	29487.59
622.101	29701.59
622.457	29472.45
622.812	29523.29
623.168	29605.32
623.523	29584.98
623.879	29728.48
624.234	29443.75
624.589	29751.99
624.945	29708.82
625.3	29670.63
625.655	29621.59
626.01	29707.69
626.365	29795.15
626.72	29677.64
627.075	29669.05
627.43	29756.05
627.785	29596.51
628.14	29703.4
628.495	29860.91
628.85	29799.67
629.205	29710.63
629.559	29915.6
629.914	29714.25
630.269	29840.12
630.623	29761.48
630.978	29608.26
631.332	29841.48
631.687	29883.51
632.041	29760.8
632.396	29780.69
632.75	29616.62
633.104	29756.05
633.459	29544.76
633.813	29536.62
634.167	29759.9
634.521	29728.03
634.875	29752.66
635.229	29637.41
635.583	29534.36
635.937	29592.44
636.291	29577.98
636.645	29597.64
636.999	29527.81
637.352	29807.58
637.706	29508.38
638.06	29525.78
638.413	29489.39
638.767	29524.87
639.121	29516.06
639.474	29227.25
639.828	29361.26
640.181	29371.21
640.534	29591.31
640.888	29334.14
641.241	29337.99
641.594	29311.32
641.947	29448.94
642.301	29264.09
642.654	29298.21
643.007	29378.66
643.36	29262.73
643.713	29352.67
644.066	29346.35
644.419	29161.72
644.771	28983.19
645.124	28759.92
645.477	28629.98
645.83	28607.84
646.182	28581.85
646.535	28459.59
646.888	28586.59
647.24	28311.57
647.593	28564.22
647.945	28501.17
648.298	28372.81
648.65	28332.81
649.002	28234.06
649.355	28339.37
649.707	28281.29
650.059	28525.58
650.411	28724.67
650.763	28872.24
651.115	29100.7
651.467	29115.84
651.819	29137.99
652.171	28973.02
652.523	29051.67
652.875	29082.85
653.227	28813.03
653.578	29107.71
653.93	29092.57
654.282	28863.42
654.633	28872.91
654.985	29022.06
655.337	28954.49
655.688	28947.94
656.039	29013.7
656.391	28711.11
656.742	28886.47
657.094	28918.56
657.445	29102.06
657.796	28864.33
658.147	28910.2
658.498	28911.1
658.849	28899.81
659.2	28888.51
659.551	28820.03
659.902	29060.7
660.253	28840.37
660.604	28986.36
660.955	28834.5
661.306	29003.08
661.656	28945.91
662.007	28937.77
662.358	28947.26
662.708	29021.61
663.059	29020.48
663.409	28798.34
663.76	29018.22
664.11	28976.64
664.461	28995.85
664.811	29139.8
665.161	29015.28
665.511	28924.89
665.862	28993.36
666.212	29048.5
666.562	29091.44
666.912	28949.75
667.262	29006.02
667.612	29040.59
667.962	29072.46
668.312	28851.67
668.662	29109.97
669.011	29203.3
669.361	28967.6
669.711	28986.13
670.06	28899.81
670.41	28982.51
670.76	28935.74
671.109	28915.62
671.459	28874.5
671.808	28930.76
672.157	28932.57
672.507	28646.48
672.856	28769.64
673.205	28798.79
673.554	28941.61
673.904	28862.29
674.253	29052.12
674.602	28909.3
674.951	28469.76
675.3	28368.29
675.649	28787.72
675.998	28795.4
676.346	28702.3
676.695	28953.14
677.044	28654.39
677.393	28694.84
677.741	28795.4
678.09	28726.48
678.438	28683.77
678.787	28690.77
679.135	28704.33
679.484	28592.69
679.832	28743.88
680.181	28526.03
680.529	28646.7
680.877	28461.62
681.225	28569.64
681.573	28846.25
681.922	28518.35
682.27	28465.47
682.618	28386.37
682.966	28409.65
683.314	28460.27
683.661	28432.02
684.009	28140.28
684.357	28164.23
684.705	28211.69
685.053	28155.87
685.4	28168.75
685.748	28015.31
686.095	28010.79
686.443	27900.96
686.79	27929.66
687.138	27978.7
687.485	27975.99
687.832	27830
688.18	28021.18
688.527	27856.22
688.874	27789.33
689.221	27704.81
689.568	27765.82
689.915	27618.03
690.262	27589.11
690.609	27510.46
690.956	27442.22
691.303	27380.97
691.65	27324.93
691.997	27364.25
692.344	27213.97
692.69	27090.14
693.037	27233.18
693.383	26934.66
693.73	27089.01
694.077	26944.15
694.423	26999.29
694.769	26832.29
695.116	26810.14
695.462	26787.77
695.808	26628.9
696.155	26588.23
696.501	26469.81
696.847	26468.46
697.193	26379.87
697.539	26548.91
697.885	26326.09
698.231	26149.82
698.577	26188.24
698.923	26144.62
699.269	26047
699.614	25923.16
699.96	25986.44
700.306	25947.57
700.651	25798.64
700.997	25728.14
701.342	25704.86
701.688	25633
702.033	25630.96
702.379	25505.77
702.724	25561.59
703.069	25698.31
703.415	25268.04
703.76	25341.71
704.105	25278.21
704.45	25336.73
704.795	25075.5
705.14	24983.75
705.485	24976.97
705.83	24882.96
706.175	24953.92
706.52	24901.72
706.865	24865.56
707.209	24753.47
707.554	24751.89
707.899	24725.23
708.243	24541.95
708.588	24520.71
708.932	24491.56
709.277	24488.17
709.621	24461.28
709.966	24348.51
710.31	24449.07
710.654	24142.19
710.998	24218.57
711.342	24268.06
711.687	24122.53
712.031	24015.19
712.375	23953.72
712.719	24102.64
713.063	24021.97
713.407	24054.51
713.75	23889.54
714.094	24017.22
714.438	23802.99
714.782	23912.82
715.125	23745.14
715.469	23844.12
715.812	23781.97
716.156	23656.55
716.499	23621.53
716.843	23635.99
717.186	23469.89
717.53	23643.9
717.873	23558.93
718.216	23554.63
718.559	23413.85
718.902	23365.49
719.246	23337.92
719.589	23278.03
719.932	23233.51
720.275	23140.63
720.617	23218.82
720.96	23038.04
721.303	23141.31
721.646	23118.26
721.989	23128.66
722.331	23200.52
722.674	23136.57
723.016	23094.53
723.359	23089.79
723.701	23042.56
724.044	22953.29
724.386	22901.09
724.729	22940.87
725.071	22853.41
725.413	22887.76
725.755	22888.21
726.097	22817.48
726.439	22682.34
726.782	22689.35
727.124	22829.46
727.465	22631.27
727.807	22685.28
728.149	22577.49
728.491	22565.06
728.833	22677.6
729.175	22616.13
729.516	22511.72
729.858	22469.92
730.199	22506.3
730.541	22450.26
730.882	22516.02
731.224	22523.7
731.565	22415
731.906	22471.5
732.248	22342.01
732.589	22304.95
732.93	22351.28
733.271	22339.07
733.612	22395.57
733.953	22333.2
734.294	22371.39
734.635	22336.36
734.976	22350.15
735.317	22179.3
735.658	22143.82
735.999	22109.02
736.339	22207.78
736.68	22233.77
737.021	22183.37
737.361	21982.47
737.702	22199.64
738.042	22103.83
738.383	22084.84
738.723	22127.1
739.063	22007.56
739.404	22135.69
739.744	22082.58
740.084	22063.83
740.424	21980.89
740.764	22052.08
741.104	22091.85
741.444	21992.19
741.784	21844.62
742.124	21901.8
742.464	22019.08
742.804	21924.4
743.143	21899.99
743.483	21935.02
743.823	21856.15
744.162	21741.35
744.502	21832.87
744.841	21704.51
745.181	21872.19
745.52	21819.09
745.86	21748.35
746.199	21759.2
746.538	21801.46
746.877	21764.63
747.216	21871.29
747.556	21750.61
747.895	21772.31
748.234	21699.99
748.573	21621.13
748.911	21658.19
749.25	21714.23
749.589	21489.38
749.928	21742.48
750.267	21704.51
750.605	21645.53
750.944	21536.16
751.283	21445.76
751.621	21518.53
751.96	21439.89
752.298	21514.69
752.636	21501.58
752.975	21455.93
753.313	21464.75
753.651	21559.66
753.989	21411.87
754.327	21409.61
754.666	21312.43
755.004	21455.48
755.342	21319.21
755.679	21293.45
756.017	21193.79
756.355	21295.94
756.693	21266.11
757.031	21295.03
757.368	21083.06
757.706	21112.44
758.044	21041.93
758.381	21172.55
758.719	21106.56
759.056	21048.49
759.394	20963.06
759.731	20879.68
760.068	20904.54
760.405	20803.29
760.743	20851.2
761.08	20810.53
761.417	20760.81
761.754	20767.36
762.091	20667.48
762.428	20641.49
762.765	20592
763.102	20585.22
763.438	20549.97
763.775	20420.93
764.112	20437.65
764.449	20466.81
764.785	20432.01
765.122	20190.66
765.458	20226.36
765.795	20132.8
766.131	20283.76
766.467	20046.25
766.804	20040.38
767.14	19824.11
767.476	19976.65
767.812	19966.25
768.148	19957.44
768.485	19778.91
768.821	19781.63
769.157	19616.89
769.492	19704.57
769.828	19591.8
770.164	19394.29
770.5	19443.56
770.836	19520.16
771.171	19366.5
771.507	19366.95
771.842	19283.11
772.178	19206.05
772.513	19166.73
772.849	19221.64
773.184	19009.67
773.519	19044.47
773.855	19026.62
774.19	18746.4
774.525	18851.93
774.86	18811.71
775.195	18829.34
775.53	18627.76
775.865	18635.22
776.2	18442.68
776.535	18366.3
776.87	18426.86
777.205	18294.66
777.539	18250.59
777.874	18360.42
778.209	18044.5
778.543	18128.56
778.878	17995.69
779.212	18043.59
779.547	18007.66
779.881	17977.38
780.215	17886.99
780.55	17880.89
780.884	17764.73
781.218	17646.32
781.552	17796.82
781.886	17557.5
782.22	17511.63
782.554	17483.61
782.888	17337.4
783.222	17337.17
783.556	17169.49
783.889	17187.12
784.223	17110.51
784.557	17051.53
784.89	17104.18
785.224	16895.83
785.557	16858.99
785.891	16966.79
786.224	16860.12
786.558	16871.87
786.891	16643.86
787.224	16691.31
787.557	16547.14
787.891	16579.68
788.224	16573.35
788.557	16512.33
788.89	16498.55
789.223	16352.79
789.556	16296.97
789.888	16235.96
790.221	16234.15
790.554	16060.59
790.887	16069.63
791.219	16060.37
791.552	15985.34
791.884	15927.72
792.217	15903.54
792.549	15868.51
792.882	15735.18
793.214	15616.76
793.546	15665.58
793.879	15629.65
794.211	15523.43
794.543	15599.36
794.875	15567.27
795.207	15533.15
795.539	15380.84
795.871	15402.98
796.203	15360.73
796.535	15201.41
796.867	15231.46
797.198	15145.36
797.53	15132.48
797.862	15118.7
798.193	15166.15
798.525	14967.52
798.856	15065.14
799.188	14833.51
799.519	14847.07
799.85	14763.68
800.182	14758.93
800.513	14751.48
800.844	14585.38
801.175	14694.98
801.506	14593.74
801.837	14533.63
802.168	14546.96
802.499	14496.57
802.83	14430.58
803.161	14359.62
803.491	14358.27
803.822	14312.39
804.153	14242.11
804.483	14224.94
804.814	14220.42
805.145	14191.49
805.475	14162.79
805.805	14064.71
806.136	14162.11
806.466	14030.82
806.796	14063.59
807.126	13906.08
807.457	13958.05
807.787	13895.45
808.117	13900.43
808.447	13803.25
808.777	13896.58
809.107	13802.8
809.436	13703.37
809.766	13752.41
810.096	13626.31
810.426	13666.31
810.755	13695.01
811.085	13626.08
811.414	13511.51
811.744	13472.19
812.073	13401.91
812.403	13478.52
812.732	13383.83
813.061	13422.7
813.39	13346.99
813.719	13278.75
814.049	13349.93
814.378	13278.97
814.707	13227.67
815.036	13217.28
815.365	13214.34
815.693	13070.62
816.022	13078.3
816.351	13000.79
816.68	12920.79
817.008	13058.64
817.337	12871.3
817.665	12827.69
817.994	12910.85
818.322	12866.33
818.651	12836.5
818.979	12710.17
819.307	12822.26
819.636	12801.02
819.964	12714.47
820.292	12758.08
820.62	12689.84
820.948	12670.18
821.276	12721.02
821.604	12721.7
821.932	12718.76
822.259	12745.2
822.587	12626.11
822.915	12720.34
823.243	12661.14
823.57	12651.19
823.898	12708.14
824.225	12628.14
824.553	12717.63
824.88	12605.32
825.207	12684.41
825.535	12625.66
825.862	12672.44
826.189	12594.92
826.516	12666.56
826.843	12682.83
827.17	12699.1
827.497	12729.61
827.824	12704.3
828.151	12731.87
828.478	12669.95
828.805	12784.07
829.131	12666.11
829.458	12618.65
829.785	12597.86
830.111	12621.36
830.438	12733.22
830.764	12694.58
831.09	12655.03
831.417	12540.24
831.743	12646
832.069	12685.54
832.395	12600.57
832.722	12658.42
833.048	12545.43
833.374	12655.49
833.7	12543.62
834.026	12577.3
834.351	12603.74
834.677	12572.55
835.003	12674.24
835.329	12559.44
835.654	12554.7
835.98	12555.38
836.306	12458.66
836.631	12510.63
836.956	12493.68
837.282	12447.58
837.607	12453.23
837.932	12420.46
838.258	12418.43
838.583	12370.3
838.908	12359.68
839.233	12357.87
839.558	12343.4
839.883	12258.89
840.208	12217.98
840.533	12224.09
840.858	12259.11
841.182	12284.65
841.507	12234.93
841.832	12086.91
842.156	12193.35
842.481	12032.68
842.805	12074.48
843.13	12073.35
843.454	12097.76
843.778	12008.5
844.103	11952.45
844.427	11922.62
844.751	12041.72
845.075	11950.87
845.399	11845.79
845.723	11817.77
846.047	11853.93
846.371	11700.94
846.695	11720.6
847.019	11665.68
847.343	11622.52
847.666	11560.83
847.99	11560.15
848.313	11501.39
848.637	11455.97
848.96	11418.46
849.284	11441.06
849.607	11310.21
849.931	11267.73
850.254	11279.03
850.577	11164
850.9	11143.21
851.223	11044.91
851.546	11024.57
851.869	11009.2
852.192	11058.01
852.515	10959.71
852.838	10859.15
853.161	10869.09
853.483	10803.56
853.806	10788.42
854.129	10794.52
854.451	10677.46
854.774	10672.49
855.096	10635.43
855.419	10571.02
855.741	10502.32
856.063	10510.23
856.385	10512.04
856.708	10507.07
857.03	10451.48
857.352	10445.6
857.674	10319.95
857.996	10341.65
858.318	10206.29
858.64	10300.07
858.961	10255.78
859.283	10258.26
859.605	10175.78
859.926	10208.09
860.248	10141.65
860.57	10116.57
860.891	10140.98
861.212	10105.05
861.534	10061.2
861.855	10086.29
862.176	10026.4
862.498	10067.76
862.819	10028.89
863.14	10006.06
863.461	9996.8
863.782	9916.8
864.103	9954.09
864.424	9884.03
864.745	9925.16
865.065	9836.58
865.386	9893.75
865.707	9883.13
866.027	9937.37
866.348	9837.93
866.668	9801.32
866.989	9724.26
867.309	9786.41
867.63	9742.57
867.95	9718.84
868.27	9668.9
868.59	9679.52
868.91	9725.39
869.23	9674.77
869.55	9656.02
869.87	9710.93
870.19	9616.92
870.51	9635.9
870.83	9591.61
871.15	9589.8
871.469	9587.77
871.789	9530.37
872.109	9503.93
872.428	9500.09
872.748	9506.64
873.067	9576.7
873.386	9611.27
873.706	9509.81
874.025	9418.28
874.344	9406.76
874.663	9445.63
874.982	9410.37
875.301	9424.38
875.62	9424.61
875.939	9355.91
876.258	9354.78
876.577	9395.91
876.896	9348
877.214	9274.33
877.533	9276.37
877.852	9340.77
878.17	9291.51
878.489	9326.53
878.807	9244.73
879.125	9182.13
879.444	9245.86
879.762	9218.06
880.08	9199.31
880.398	9167.67
880.716	9203.37
881.034	9181
881.352	9089.25
881.67	9092.19
881.988	9113.21
882.306	9063.26
882.624	9038.63
882.941	9035.47
883.259	8927.67
883.577	9004.73
883.894	8884.06
884.212	8948.92
884.529	8959.09
884.846	8894.68
885.164	8936.71
885.481	8820.56
885.798	8886.77
886.115	8813.78
886.432	8857.39
886.75	8792.54
887.067	8829.6
887.383	8780.33
887.7	8762.03
888.017	8724.06
888.334	8788.24
888.651	8656.95
888.967	8680.9
889.284	8658.08
889.6	8644.52
889.917	8555.71
890.233	8555.71
890.55	8593.67
890.866	8528.14
891.182	8508.7
891.498	8477.07
891.815	8510.28
892.131	8415.15
892.447	8388.25
892.763	8361.14
893.079	8348.26
893.395	8295.6
893.71	8354.36
894.026	8311.65
894.342	8351.64
894.657	8313.23
894.973	8270.74
895.289	8158.2
895.604	8212.44
895.92	8181.71
896.235	8104.19
896.55	8114.81
896.865	8061.71
897.181	8001.82
897.496	8005.44
897.811	7942.84
898.126	7973.58
898.441	7933.8
898.756	7924.99
899.071	7903.07
899.386	7868.49
899.7	7788.27
900.015	7762.06
900.33	7780.13
900.644	7719.12
900.959	7733.58
901.273	7693.36
901.588	7592.57
901.902	7623.53
902.216	7564.09
902.531	7615.17
902.845	7533.36
903.159	7529.07
903.473	7527.49
903.787	7478.45
904.101	7360.94
904.415	7474.61
904.729	7364.78
905.042	7355.51
905.356	7322.07
905.67	7310.77
905.984	7351.22
906.297	7290.88
906.611	7216.31
906.924	7198
907.237	7208.62
907.551	7172.24
907.864	7115.75
908.177	7140.6
908.491	7143.77
908.804	7032.81
909.117	6980.61
909.43	7002.3
909.743	6945.13
910.056	6977.67
910.368	6934.96
910.681	6860.61
910.994	6835.53
911.307	6822.42
911.619	6716.89
911.932	6785.81
912.244	6690.67
912.557	6653.16
912.869	6682.99
913.181	6633.95
913.494	6592.37
913.806	6594.63
914.118	6526.38
914.43	6561.86
914.742	6495.2
915.054	6519.83
915.366	6508.3
915.678	6451.58
915.99	6449.1
916.302	6432.37
916.613	6423.33
916.925	6323.68
917.236	6297.24
917.548	6304.47
917.859	6253.17
918.171	6205.94
918.482	6257.01
918.794	6201.42
919.105	6248.65
919.416	6137.69
919.727	6156.45
920.038	6123.45
920.349	6077.81
920.66	6052.95
920.971	5985.38
921.282	6049.78
921.593	5983.12
921.903	5953.52
922.214	5918.26
922.525	5902.44
922.835	5869.45
923.146	5840.75
923.456	5804.37
923.767	5825.61
924.077	5789.23
924.387	5769.79
924.697	5744.03
925.008	5709.68
925.318	5754.42
925.628	5687.31
925.938	5661.55
926.248	5597.59
926.558	5595.56
926.867	5605.73
927.177	5535
927.487	5525.73
927.796	5526.41
928.106	5498.61
928.416	5472.17
928.725	5440.53
929.034	5425.39
929.344	5390.37
929.653	5358.05
929.962	5327.54
930.271	5325.51
930.581	5297.94
930.89	5299.3
931.199	5214.1
931.508	5242.12
931.817	5235.57
932.125	5184.5
932.434	5187.89
932.743	5154.89
933.051	5090.04
933.36	5084.61
933.669	5057.27
933.977	5102.01
934.286	5016.59
934.594	4983.15
934.902	5006.65
935.21	4979.08
935.519	4933.66
935.827	4945.41
936.135	4918.29
936.443	4929.81
936.751	4915.8
937.059	4847.1
937.367	4841.91
937.674	4876.48
937.982	4785.64
938.29	4771.17
938.597	4759.2
938.905	4686.66
939.213	4681.46
939.52	4685.3
939.827	4671.97
940.135	4640.56
940.442	4618.64
940.749	4640.56
941.056	4634.23
941.363	4570.73
941.67	4582.93
941.977	4521.46
942.284	4524.4
942.591	4485.53
942.898	4478.75
943.205	4502.25
943.511	4485.08
943.818	4391.07
944.125	4397.85
944.431	4404.86
944.738	4395.36
945.044	4355.37
945.35	4300.68
945.657	4298.64
945.963	4270.4
946.269	4270.85
946.575	4285.31
946.881	4236.05
947.187	4235.59
947.493	4223.39
947.799	4199.21
948.105	4175.71
948.41	4154.24
948.716	4126.67
949.022	4145.2
949.327	4111.76
949.633	4035.83
949.938	4081.25
950.244	4080.8
950.549	4080.34
950.854	4004.41
951.16	4009.61
951.465	3941.82
951.77	3948.37
952.075	3948.14
952.38	3963.74
952.685	3918.99
952.99	3872.89
953.294	3868.6
953.599	3844.42
953.904	3804.65
954.209	3792.44
954.513	3792.67
954.818	3789.96
955.122	3784.76
955.426	3765.1
955.731	3737.53
956.035	3693.46
956.339	3756.74
956.643	3706.8
956.948	3676.06
957.252	3649.4
957.556	3650.98
957.86	3649.4
958.163	3625.44
958.467	3603.52
958.771	3594.93
959.075	3613.24
959.378	3568.72
959.682	3554.93
959.985	3577.53
960.289	3556.97
960.592	3526.69
960.896	3479.91
961.199	3471.32
961.502	3474.94
961.805	3439.01
962.108	3406.01
962.411	3433.58
962.714	3407.37
963.017	3370.53
963.32	3400.14
963.623	3373.24
963.926	3354.26
964.228	3328.5
964.531	3354.49
964.833	3294.38
965.136	3289.86
965.438	3255.73
965.741	3264.55
966.043	3270.87
966.345	3245.34
966.648	3196.3
966.95	3222.51
967.252	3207.83
967.554	3143.42
967.856	3159.92
968.158	3142.29
968.46	3143.65
968.761	3122.4
969.063	3137.77
969.365	3085.12
969.666	3110.2
969.968	3068.85
970.269	3040.6
970.571	3038.11
970.872	3035.17
971.174	2996.76
971.475	2999.47
971.776	2965.57
972.077	3004.89
972.378	2967.61
972.679	2933.71
972.98	2941.39
973.281	2942.3
973.582	2924.67
973.883	2896.65
974.183	2885.8
974.484	2903.2
974.785	2899.36
975.085	2863.88
975.386	2883.09
975.686	2853.71
975.986	2835.41
976.287	2841.96
976.587	2780.72
976.887	2801.51
977.187	2754.05
977.487	2765.35
977.787	2741.62
978.087	2722.87
978.387	2726.26
978.687	2744.79
978.987	2678.12
979.286	2660.04
979.586	2709.31
979.885	2682.42
980.185	2648.97
980.484	2646.26
980.784	2648.07
981.083	2640.61
981.382	2613.72
981.682	2602.19
981.981	2616.65
982.28	2571.23
982.579	2565.81
982.878	2571.68
983.177	2544.34
983.475	2569.88
983.774	2547.05
984.073	2504.34
984.372	2499.6
984.67	2511.12
984.969	2494.62
985.267	2451.01
985.566	2452.82
985.864	2426.38
986.162	2457.56
986.461	2456.21
986.759	2428.64
987.057	2414.63
987.355	2433.38
987.653	2401.07
987.951	2393.16
988.249	2396.55
988.547	2348.86
988.844	2356.1
989.142	2324.68
989.44	2304.35
989.737	2302.09
990.035	2295.08
990.332	2271.8
990.63	2273.61
990.927	2309.32
991.224	2270.9
991.521	2262.77
991.819	2209.89
992.116	2246.27
992.413	2228.64
992.71	2205.82
993.006	2208.08
993.303	2191.58
993.6	2149.1
993.897	2196.33
994.193	2169.89
994.49	2159.27
994.787	2157.91
995.083	2123.56
995.379	2109.32
995.676	2079.04
995.972	2099.61
996.268	2088.31
996.565	2082.43
996.861	2090.34
997.157	2058.7
997.453	2042.21
997.749	2041.08
998.044	2036.1
998.34	2024.35
998.636	2013.73
998.932	2009.66
999.227	1981.42
999.523	1990.68
999.818	1956.56
1000.114	1950.01
1000.409	1956.11
1000.704	1955.65
1001	1914.75
1001.295	1923.11
1001.59	1892.15
1001.885	1923.79
1002.18	1899.39
1002.475	1899.61
1002.77	1858.26
1003.065	1864.13
1003.359	1848.76
1003.654	1851.93
1003.949	1825.49
1004.243	1805.15
1004.538	1789.78
1004.832	1805.38
1005.127	1788.65
1005.421	1777.35
1005.715	1780.74
1006.009	1776.22
1006.304	1754.76
1006.598	1742.55
1006.892	1708.66
1007.186	1731.03
1007.48	1698.49
1007.773	1719.28
1008.067	1697.36
1008.361	1698.03
1008.655	1676.57
1008.948	1701.88
1009.242	1659.17
1009.535	1710.24
1009.829	1620.97
1010.122	1646.96
1010.415	1639.5
1010.708	1589.34
1011.001	1622.33
1011.295	1605.61
1011.588	1599.73
1011.881	1577.13
1012.173	1555.44
1012.466	1570.35
1012.759	1578.26
1013.052	1566.74
1013.344	1542.78
1013.637	1513.86
1013.93	1534.2
1014.222	1521.09
1014.514	1517.47
1014.807	1490.58
1015.099	1507.08
1015.391	1524.48
1015.683	1467.53
1015.976	1460.98
1016.268	1469.34
1016.56	1433.18
1016.851	1459.62
1017.143	1425.5
1017.435	1418.95
1017.727	1408.78
1018.018	1380.75
1018.31	1398.38
1018.602	1403.35
1018.893	1376.24
1019.185	1377.36
1019.476	1340.53
1019.767	1346.86
1020.058	1332.62
1020.35	1323.36
1020.641	1311.6
1020.932	1280.87
1021.223	1294.2
1021.514	1285.84
1021.804	1281.1
1022.095	1274.54
1022.386	1270.93
1022.677	1276.8
1022.967	1258.27
1023.258	1240.19
1023.548	1213.08
1023.839	1221.44
1024.129	1216.47
1024.419	1206.75
1024.709	1211.04
1025	1192.29
1025.29	1182.79
1025.58	1190.25
1025.87	1159.29
1026.16	1191.83
1026.449	1159.29
1026.739	1182.34
1027.029	1167.88
1027.319	1155.45
1027.608	1124.26
1027.898	1149.8
1028.187	1093.53
1028.477	1119.29
1028.766	1117.71
1029.055	1108.9
1029.344	1096.02
1029.634	1084.27
1029.923	1063.02
1030.212	1087.66
1030.501	1070.93
1030.79	1064.38
1031.078	1053.08
1031.367	1014.44
1031.656	1064.83
1031.945	1033.19
1032.233	1017.83
1032.522	1042.68
1032.81	987.32
1033.099	1002.46
1033.387	1006.98
1033.675	1001.33
1033.963	983.25
1034.251	986.64
1034.54	974.44
1034.828	972.18
1035.116	970.37
1035.403	966.75
1035.691	964.72
1035.979	954.55
1036.267	928.56
1036.554	933.99
1036.842	943.03
1037.129	927.89
1037.417	924.5
1037.704	917.94
1037.992	919.3
1038.279	881.33
1038.566	893.76
1038.853	893.76
1039.14	893.76
