Data from cardboard_FLMS001491_051.txt Node
Date: Tue Feb 07 11:39:43 GMT 2017
User: dcchb
Spectrometer: FLMS00149
Trigger mode: 0
Integration Time (sec): 2.000000E-2
Scans to average: 10
Electric dark correction enabled: true
Nonlinearity correction enabled: false
Boxcar width: 0
XAxis mode: Wavelengths
Number of Pixels in Spectrum: 2048
>>>>>Begin Spectral Data<<<<<
341.393	-5.32
341.776	-5.32
342.16	-5.32
342.543	-78.77
342.927	-47.36
343.31	-62.27
343.693	-55.04
344.077	-73.57
344.46	-60.46
344.843	-61.82
345.226	-45.78
345.61	-36.51
345.993	-10.52
346.376	-1.26
346.759	5.07
347.142	21.57
347.525	31.96
347.908	75.8
348.291	62.24
348.674	105.86
349.057	104.73
349.44	106.99
349.823	146.54
350.206	147.89
350.588	179.08
350.971	189.7
351.354	220.43
351.737	245.74
352.119	227.66
352.502	268.57
352.884	255.46
353.267	274.44
353.65	300.43
354.032	283.48
354.414	316.25
354.797	312.18
355.179	302.92
355.562	321.9
355.944	309.92
356.326	321.22
356.709	317.38
357.091	307.21
357.473	330.94
357.855	289.81
358.238	330.03
358.62	349.24
359.002	329.81
359.384	332.52
359.766	339.75
360.148	332.07
360.53	332.75
360.912	306.31
361.294	318.06
361.676	311.73
362.057	322.58
362.439	307.89
362.821	313.54
363.203	299.75
363.584	333.65
363.966	307.66
364.348	317.83
364.729	304.95
365.111	322.35
365.493	302.01
365.874	318.06
366.256	288.45
366.637	295.91
367.019	305.85
367.4	292.29
367.781	296.36
368.163	314.21
368.544	296.14
368.925	302.69
369.306	291.62
369.688	303.82
370.069	300.88
370.45	321.9
370.831	293.2
371.212	297.49
371.593	304.5
371.974	298.85
372.355	305.63
372.736	307.89
373.117	306.76
373.498	294.55
373.879	313.31
374.26	300.66
374.641	320.99
375.021	323.48
375.402	308.34
375.783	335.68
376.163	316.02
376.544	320.77
376.925	337.49
377.305	286.65
377.686	315.57
378.066	313.31
378.447	321.45
378.827	315.57
379.208	325.74
379.588	321.22
379.968	309.92
380.349	300.88
380.729	314.67
381.109	335.68
381.489	325.74
381.87	329.81
382.25	338.17
382.63	333.42
383.01	337.49
383.39	319.41
383.77	348.11
384.15	337.94
384.53	330.71
384.91	334.78
385.29	322.8
385.67	322.35
386.049	353.31
386.429	353.76
386.809	341.33
387.189	348.56
387.568	332.07
387.948	344.27
388.328	342.91
388.707	357.6
389.087	344.72
389.466	329.13
389.846	347.21
390.225	347.43
390.605	353.31
390.984	340.43
391.363	353.54
391.743	340.65
392.122	346.53
392.501	358.96
392.881	364.84
393.26	351.5
393.639	358.73
394.018	346.98
394.397	348.11
394.776	362.8
395.155	357.15
395.534	367.77
395.913	387.89
396.292	380.88
396.671	381.33
397.05	367.32
397.429	373.42
397.808	376.81
398.186	376.59
398.565	380.2
398.944	394.44
399.323	379.3
399.701	416.13
400.08	380.65
400.458	373.2
400.837	370.26
401.215	391.28
401.594	391.05
401.972	386.76
402.351	388.11
402.729	382.24
403.107	404.61
403.486	400.31
403.864	393.08
404.242	409.81
404.62	404.83
404.999	422.23
405.377	393.53
405.755	419.3
406.133	400.54
406.511	415.23
406.889	429.92
407.267	449.8
407.645	405.51
408.023	424.27
408.401	435.12
408.779	440.99
409.156	461.33
409.534	437.83
409.912	443.25
410.29	438.73
410.667	438.51
411.045	436.92
411.422	436.02
411.8	435.79
412.178	444.83
412.555	470.82
412.933	464.27
413.31	474.89
413.687	444.38
414.065	478.28
414.442	476.92
414.819	489.13
415.197	495.23
415.574	472.85
415.951	492.52
416.328	476.7
416.705	500.65
417.082	481.67
417.46	495.45
417.837	507.66
418.214	491.84
418.591	482.35
418.967	491.16
419.344	499.97
419.721	509.46
420.098	523.02
420.475	508.33
420.852	542.46
421.228	524.38
421.605	513.76
421.982	522.8
422.358	521.22
422.735	507.43
423.111	510.37
423.488	549.01
423.864	520.76
424.241	539.97
424.617	564.15
424.994	548.56
425.37	551.5
425.746	538.62
426.123	553.53
426.499	587.88
426.875	575.9
427.251	572.06
427.627	589.46
428.003	575.45
428.379	575.68
428.756	564.38
429.132	595.79
429.507	601.21
429.883	618.84
430.259	635.34
430.635	608.44
431.011	621.1
431.387	633.98
431.763	640.31
432.138	635.79
432.514	641.21
432.89	657.03
433.265	649.8
433.641	657.48
434.016	647.09
434.392	648.67
434.767	661.55
435.143	645.73
435.518	688.89
435.894	709.46
436.269	695.67
436.644	702.45
437.02	694.09
437.395	704.26
437.77	698.61
438.145	722.11
438.52	728.44
438.895	749.91
439.271	736.8
439.646	728.22
440.021	759.17
440.395	746.52
440.77	744.49
441.145	741.32
441.52	760.3
441.895	778.84
442.27	751.27
442.645	750.14
443.019	768.89
443.394	765.73
443.769	753.07
444.143	791.04
444.518	793.52
444.892	780.19
445.267	775.67
445.641	815.9
446.016	803.92
446.39	814.09
446.764	837.82
447.139	803.47
447.513	817.03
447.887	814.77
448.262	847.31
448.636	821.09
449.01	833.98
449.384	869
449.758	850.47
450.132	853.41
450.506	852.51
450.88	869
451.254	865.16
451.628	860.64
452.002	867.65
452.376	889.57
452.75	911.49
453.123	907.19
453.497	921.2
453.871	930.92
454.244	930.92
454.618	940.64
454.992	950.36
455.365	932.05
455.739	978.38
456.112	987.64
456.486	978.15
456.859	993.52
457.232	989.23
457.606	1008.43
457.979	1037.36
458.352	1035.1
458.725	1039.85
459.099	1039.62
459.472	1075.32
459.845	1078.04
460.218	1093.86
460.591	1069.9
460.964	1099.96
461.337	1104.48
461.71	1141.76
462.083	1120.52
462.456	1151.03
462.829	1166.62
463.201	1172.95
463.574	1157.36
463.947	1180.86
464.32	1204.36
464.692	1190.12
465.065	1191.25
465.438	1245.49
465.81	1247.52
466.183	1253.85
466.555	1294.3
466.928	1300.18
467.3	1268.77
467.672	1327.07
468.045	1349.89
468.417	1358.26
468.789	1357.8
469.161	1367.97
469.534	1385.6
469.906	1401.19
470.278	1410.91
470.65	1425.6
471.022	1458.59
471.394	1507.86
471.766	1486.61
472.138	1509.89
472.51	1524.35
472.882	1548.76
473.253	1576.55
473.625	1621.3
473.997	1637.57
474.369	1616.1
474.74	1632.6
475.112	1686.16
475.484	1712.14
475.855	1737.23
476.227	1754.18
476.598	1781.75
476.97	1780.84
477.341	1829.66
477.713	1879.6
478.084	1852.71
478.455	1927.28
478.827	1934.29
479.198	1991.46
479.569	2007.05
479.94	2040.72
480.311	2045.02
480.682	2114.17
481.053	2102.42
481.424	2184.22
481.795	2204.56
482.166	2251.57
482.537	2294.5
482.908	2315.97
483.279	2301.73
483.65	2374.05
484.021	2395.29
484.391	2439.13
484.762	2444.78
485.133	2478
485.503	2516.19
485.874	2567.94
486.244	2599.8
486.615	2673.93
486.985	2669.41
487.356	2717.77
487.726	2749.63
488.097	2816.07
488.467	2821.49
488.837	2908.05
489.207	2915.5
489.578	2983.98
489.948	3012
490.318	3035.05
490.688	3047.7
491.058	3096.29
491.428	3150.3
491.798	3160.69
492.168	3254.48
492.538	3262.84
492.908	3312.78
493.278	3336.51
493.648	3314.14
494.017	3420.8
494.387	3453.79
494.757	3482.49
495.126	3503.51
495.496	3538.99
495.866	3582.15
496.235	3624.18
496.605	3610.17
496.974	3673.9
497.344	3706.22
497.713	3701.02
498.082	3783.95
498.452	3826.66
498.821	3839.55
499.19	3891.3
499.559	3912.76
499.928	3943.5
500.298	3975.14
500.667	4018.07
501.036	4040.9
501.405	4117.73
501.774	4127.22
502.143	4173.1
502.512	4200.44
502.88	4251.06
503.249	4249.48
503.618	4305.3
503.987	4291.74
504.356	4345.3
504.724	4414.67
505.093	4441.56
505.462	4411.51
505.83	4470.49
506.199	4519.53
506.567	4569.24
506.936	4609.47
507.304	4693.99
507.672	4716.13
508.041	4783.25
508.409	4835.45
508.777	4804.04
509.145	4923.13
509.514	4910.48
509.882	4938.5
510.25	5024.37
510.618	5040.42
510.986	5051.27
511.354	5146.63
511.722	5181.43
512.09	5239.74
512.458	5258.27
512.826	5271.82
513.193	5350.24
513.561	5429.79
513.929	5450.58
514.297	5515.21
514.664	5535.77
515.032	5571.25
515.4	5613.51
515.767	5648.76
516.135	5730.34
516.502	5754.07
516.869	5829.78
517.237	5878.59
517.604	5894.63
517.972	5981.64
518.339	6061.41
518.706	6006.95
519.073	6080.62
519.44	6155.64
519.808	6239.93
520.175	6267.5
520.542	6371.91
520.909	6385.47
521.276	6417.78
521.643	6538.01
522.009	6576.88
522.376	6657.1
522.743	6679.47
523.11	6810.77
523.477	6868.39
523.843	6885.79
524.21	6986.13
524.577	7050.31
524.943	7102.06
525.31	7165.11
525.676	7257.31
526.043	7294.37
526.409	7352.45
526.776	7421.6
527.142	7555.15
527.508	7545.44
527.874	7653.91
528.241	7711.76
528.607	7748.37
528.973	7902.26
529.339	7877.18
529.705	7981.58
530.071	8045.31
530.437	8078.76
530.803	8241.69
531.169	8221.13
531.535	8252.31
531.901	8282.59
532.267	8387.22
532.632	8474.23
532.998	8550.61
533.364	8597.84
533.73	8622.7
534.095	8725.07
534.461	8759.42
534.826	8843.48
535.192	8893.42
535.557	8951.73
535.923	8972.07
536.288	9060.43
536.653	9103.14
537.019	9091.61
537.384	9193.98
537.749	9249.57
538.114	9269.69
538.479	9413.64
538.845	9446.86
539.21	9403.69
539.575	9531.6
539.94	9512.39
540.305	9647.08
540.67	9586.74
541.034	9767.07
541.399	9729.11
541.764	9831.48
542.129	9854.3
542.494	9945.37
542.858	10080.51
543.223	10095.88
543.587	10132.04
543.952	10160.06
544.316	10265.37
544.681	10237.57
545.045	10342.2
545.41	10359.83
545.774	10430.11
546.138	10579.71
546.503	10568.86
546.867	10553.27
547.231	10723.21
547.595	10724.79
547.959	10858.12
548.324	10795.97
548.688	10850.89
549.052	10950.55
549.416	10924.33
549.779	11068.51
550.143	11100.82
550.507	11172.01
550.871	11226.47
551.235	11283.64
551.599	11394.6
551.962	11430.76
552.326	11463.3
552.689	11611.32
553.053	11573.13
553.417	11615.61
553.78	11772.44
554.143	11766.34
554.507	11870.75
554.87	11852.67
555.234	12162.72
555.597	11986.22
555.96	12139.21
556.323	12224.41
556.686	12219.44
557.05	12422.6
557.413	12383.5
557.776	12535.14
558.139	12490.84
558.502	12676.38
558.865	12649.94
559.228	12772.42
559.59	12852.42
559.953	12878.4
560.316	13068.91
560.679	13089.7
561.041	13173.54
561.404	13145.06
561.767	13444.04
562.129	13334.66
562.492	13509.12
562.854	13556.58
563.217	13647.2
563.579	13698.5
563.941	13762
564.304	13904.14
564.666	13950.47
565.028	14004.25
565.39	14116.79
565.753	14236.79
566.115	14292.6
566.477	14362.66
566.839	14385.26
567.201	14546.16
567.563	14622.77
567.925	14696.89
568.287	14656.89
568.648	14673.61
569.01	14864.34
569.372	14965.81
569.734	14979.59
570.095	15117.67
570.457	15152.02
570.819	15198.8
571.18	15273.6
571.542	15337.55
571.903	15370.32
572.265	15517.2
572.626	15509.97
572.987	15638.56
573.349	15641.04
573.71	15754.49
574.071	15832.45
574.432	15870.87
574.794	15963.29
575.155	16024.99
575.516	16005.78
575.877	16182.05
576.238	16178.66
576.599	16323.51
576.96	16226.79
577.32	16357.86
577.681	16452.55
578.042	16556.27
578.403	16622.49
578.763	16595.37
579.124	16631.07
579.485	16720.79
579.845	16822.03
580.206	16772.54
580.566	16751.07
580.927	16829.71
581.287	17028.35
581.648	16825.42
582.008	17050.05
582.368	17053.89
582.728	17152.64
583.089	17105.19
583.449	17170.49
583.809	17171.17
584.169	17271.96
584.529	17214.56
584.889	17427.89
585.249	17221.57
585.609	17324.62
585.969	17431.96
586.329	17313.32
586.688	17460.88
587.048	17486.42
587.408	17516.7
587.768	17480.54
588.127	17511.05
588.487	17507.44
588.846	17657.94
589.206	17573.87
589.565	17667.2
589.925	17699.29
590.284	17768.45
590.643	17782.68
591.003	17796.24
591.362	17876.24
591.721	17853.19
592.08	17882.57
592.44	17899.06
592.799	17951.72
593.158	17914.88
593.517	17963.69
593.876	18062
594.235	18035.33
594.593	18137.25
594.952	18151.71
595.311	18064.71
595.67	18158.94
596.029	18246.17
596.387	18353.74
596.746	18313.06
597.104	18243.69
597.463	18356.45
597.822	18336.11
598.18	18309.9
598.538	18397.58
598.897	18415.21
599.255	18388.99
599.613	18589.44
599.972	18547.86
600.33	18624.92
600.688	18544.7
601.046	18595.54
601.404	18791.47
601.762	18661.3
602.12	18877.12
602.478	18822.65
602.836	18836.89
603.194	18895.87
603.552	18864.24
603.91	18824.01
604.268	18920.05
604.625	18888.19
604.983	19054.29
605.341	18912.6
605.698	19043.67
606.056	19076.43
606.413	19059.03
606.771	19088.86
607.128	19244.79
607.485	19231.91
607.843	19230.1
608.2	19287.73
608.557	19435.97
608.914	19364.79
609.272	19481.85
609.629	19477.1
609.986	19566.14
610.343	19467.16
610.7	19667.15
611.057	19667.6
611.414	19651.56
611.771	19653.14
612.127	19727.26
612.484	19793.93
612.841	19814.49
613.198	19769.3
613.554	19891.55
613.911	19925.45
614.267	19910.54
614.624	19994.6
614.98	19965.9
615.337	20101.94
615.693	20005.22
616.05	20149.17
616.406	20215.39
616.762	20187.59
617.118	20184.2
617.475	20291.99
617.831	20387.59
618.187	20336.51
618.543	20372.67
618.899	20480.24
619.255	20500.35
619.611	20416.74
619.967	20686.11
620.323	20540.58
620.678	20601.59
621.034	20525.21
621.39	20601.14
621.746	20636.62
622.101	20720.68
622.457	20585.32
622.812	20742.83
623.168	20713.45
623.523	20704.87
623.879	20883.84
624.234	20766.56
624.589	20788.48
624.945	20771.76
625.3	20906.44
625.655	20876.16
626.01	20753.9
626.365	20971.52
626.72	20889.95
627.075	20807.46
627.43	20850.4
627.785	20859.44
628.14	20918.42
628.495	21025.08
628.85	20956.38
629.205	20871.41
629.559	21133.33
629.914	20897.85
630.269	21030.05
630.623	20992.54
630.978	20969.49
631.332	21008.13
631.687	21123.16
632.041	20952.09
632.396	21021.02
632.75	21007.46
633.104	20967.01
633.459	20945.54
633.813	21002.71
634.167	20951.86
634.521	20939.89
634.875	21042.48
635.229	20974.91
635.583	20976.5
635.937	20923.62
636.291	21010.39
636.645	21006.78
636.999	20944.18
637.352	21026.21
637.706	20756.84
638.06	20946.44
638.413	20863.51
638.767	20848.14
639.121	20907.35
639.474	20817.63
639.828	20852.21
640.181	20816.05
640.534	20807.24
640.888	20769.72
641.241	20765.65
641.594	20847.69
641.947	20790.29
642.301	20783.51
642.654	20763.39
643.007	20931.53
643.36	20785.99
643.713	20775.15
644.066	20807.91
644.419	20691.98
644.771	20514.59
645.124	20480.46
645.477	20436.17
645.83	20309.62
646.182	20228.27
646.535	20178.1
646.888	20303.07
647.24	20063.98
647.593	20185.78
647.945	20229.17
648.298	20101.27
648.65	20064.43
649.002	20014.71
649.355	20184.65
649.707	20261.94
650.059	20274.14
650.411	20473.91
650.763	20550.74
651.115	20789.38
651.467	20777.86
651.819	20700.8
652.171	20740.34
652.523	20635.71
652.875	20756.84
653.227	20624.64
653.578	20765.43
653.93	20689.72
654.282	20551.87
654.633	20578.31
654.985	20585.55
655.337	20620.57
655.688	20560.24
656.039	20742.83
656.391	20554.36
656.742	20546.23
657.094	20606.34
657.445	20649.95
657.796	20642.72
658.147	20631.42
658.498	20656.28
658.849	20664.87
659.2	20675.94
659.551	20662.15
659.902	20632.55
660.253	20671.87
660.604	20654.47
660.955	20572.67
661.306	20698.31
661.656	20659.22
662.007	20790.51
662.358	20787.35
662.708	20663.28
663.059	20656.28
663.409	20626
663.76	20744.41
664.11	20759.55
664.461	20876.39
664.811	20709.61
665.161	20669.61
665.511	20633.91
665.862	20749.16
666.212	20717.75
666.562	20807.24
666.912	20714.36
667.262	20790.51
667.612	20774.02
667.962	20606.56
668.312	20633.68
668.662	20803.39
669.011	20756.84
669.361	20686.79
669.711	20697.41
670.06	20588.48
670.41	20770.17
670.76	20731.76
671.109	20729.05
671.459	20703.06
671.808	20609.05
672.157	20855.14
672.507	20679.78
672.856	20647.24
673.205	20668.26
673.554	20760
673.904	20656.05
674.253	20903.28
674.602	20649.05
674.951	20237.31
675.3	20336.51
675.649	20587.35
675.998	20669.84
676.346	20706.45
676.695	20692.21
677.044	20600.46
677.393	20701.7
677.741	20660.57
678.09	20566.11
678.438	20488.6
678.787	20681.14
679.135	20622.16
679.484	20534.02
679.832	20569.05
680.181	20504.19
680.529	20564.3
680.877	20415.61
681.225	20458.54
681.573	20633
681.922	20494.48
682.27	20387.59
682.618	20471.2
682.966	20469.17
683.314	20512.78
683.661	20408.6
684.009	20299.45
684.357	20234.14
684.705	20313.01
685.053	20210.87
685.4	20197.53
685.748	20247.7
686.095	20155.28
686.443	20115.5
686.79	20074.15
687.138	20211.77
687.485	20089.51
687.832	20127.48
688.18	20119.34
688.527	20044.09
688.874	20024.43
689.221	19972.91
689.568	19983.98
689.915	19907.82
690.262	19962.51
690.609	19819.69
690.956	19764.1
691.303	19781.5
691.65	19733.59
691.997	19682.07
692.344	19543.77
692.69	19524.11
693.037	19600.04
693.383	19421.28
693.73	19510.09
694.077	19387.84
694.423	19407.05
694.769	19377.22
695.116	19212.93
695.462	19262.42
695.808	19166.83
696.155	19289.76
696.501	19064.91
696.847	19076.66
697.193	19009.32
697.539	19147.17
697.885	18935.65
698.231	18910.11
698.577	18921.18
698.923	18920.96
699.269	18846.83
699.614	18657.01
699.96	18779.72
700.306	18737.01
700.651	18609.1
700.997	18645.03
701.342	18586.73
701.688	18553.96
702.033	18500.63
702.379	18527.97
702.724	18406.85
703.069	18482.32
703.415	18351.93
703.76	18214.31
704.105	18312.84
704.45	18304.93
704.795	18169.34
705.14	18140.19
705.485	18047.53
705.83	18083.47
706.175	18097.25
706.52	17966.41
706.865	17904.26
707.209	17935.67
707.554	17833.53
707.899	17967.08
708.243	17818.39
708.588	17754.21
708.932	17740.42
709.277	17729.8
709.621	17732.74
709.966	17631.73
710.31	17649.13
710.654	17522.58
710.998	17611.61
711.342	17495.68
711.687	17491.62
712.031	17394.44
712.375	17397.38
712.719	17462.24
713.063	17496.36
713.407	17503.82
713.75	17431.96
714.094	17335.01
714.438	17275.35
714.782	17231.06
715.125	17302.24
715.469	17175.69
715.812	17215.24
716.156	17136.15
716.499	17090.5
716.843	17097.95
717.186	16998.75
717.53	17143.38
717.873	17149.7
718.216	17058.63
718.559	17002.82
718.902	16853.22
719.246	16917.85
719.589	16882.14
719.932	16844.63
720.275	16884.17
720.617	16833.33
720.96	16794.01
721.303	16820.45
721.646	16785.19
721.989	16734.35
722.331	16784.06
722.674	16746.1
723.016	16897.06
723.359	16709.72
723.701	16819.32
724.044	16697.74
724.386	16701.35
724.729	16676.72
725.071	16709.26
725.413	16581.58
725.755	16647.12
726.097	16581.36
726.439	16464.3
726.782	16566.22
727.124	16578.65
727.465	16540.23
727.807	16529.61
728.149	16483.73
728.491	16490.06
728.833	16573.22
729.175	16414.36
729.516	16370.29
729.858	16412.55
730.199	16451.42
730.541	16347.24
730.882	16312.66
731.224	16340.46
731.565	16327.81
731.906	16387.69
732.248	16438.31
732.589	16288.26
732.93	16216.62
733.271	16293.23
733.612	16319.67
733.953	16275.15
734.294	16196.28
734.635	16151.99
734.976	16222.5
735.317	16178.2
735.658	16230.63
735.999	16335.49
736.339	16210.07
736.68	16254.36
737.021	16139.34
737.361	16059.56
737.702	16147.92
738.042	16098.21
738.383	16096.85
738.723	16077.19
739.063	16075.61
739.404	16054.82
739.744	16136.85
740.084	16046
740.424	16018.89
740.764	16004.2
741.104	16022.5
741.444	15996.74
741.784	15906.8
742.124	15968.49
742.464	15985.44
742.804	15974.82
743.143	15977.53
743.483	15971.66
743.823	15913.13
744.162	15857.99
744.502	15883.07
744.841	15858.21
745.181	15942.96
745.52	15929.62
745.86	15942.5
746.199	15876.07
746.538	15857.31
746.877	15934.6
747.216	15907.48
747.556	15858.89
747.895	15788.38
748.234	15728.27
748.573	15782.28
748.911	15785.45
749.25	15779.8
749.589	15795.16
749.928	15809.85
750.267	15742.28
750.605	15735.28
750.944	15697.54
751.283	15629.29
751.621	15831.77
751.96	15703.19
752.298	15637.43
752.636	15568.5
752.975	15596.52
753.313	15463.42
753.651	15721.27
753.989	15711.32
754.327	15609.41
754.666	15512.69
755.004	15629.74
755.342	15612.57
755.679	15481.05
756.017	15451.22
756.355	15476.08
756.693	15356.08
757.031	15410.99
757.368	15343.42
757.706	15363.31
758.044	15295.29
758.381	15383.42
758.719	15389.98
759.056	15322.41
759.394	15258.23
759.731	15129.19
760.068	15156.08
760.405	15077.67
760.743	15096.2
761.08	15127.38
761.417	15055.97
761.754	15052.81
762.091	15024.56
762.428	14959.93
762.765	14890.55
763.102	14904.11
763.438	14836.32
763.775	14733.72
764.112	14790.9
764.449	14908.63
764.785	14730.33
765.122	14698.47
765.458	14637.45
765.795	14624.57
766.131	14549.77
766.467	14578.7
766.804	14497.8
767.14	14342.77
767.476	14454.86
767.812	14332.6
768.148	14426.84
768.485	14333.51
768.821	14228.88
769.157	14203.12
769.492	14211.93
769.828	14206.96
770.164	14044.02
770.5	14077.24
770.836	14144.13
771.171	13971.26
771.507	13992.73
771.842	13933.74
772.178	13871.15
772.513	13838.61
772.849	13842.9
773.184	13698.72
773.519	13709.57
773.855	13680.19
774.19	13607.2
774.525	13607.88
774.86	13600.19
775.195	13537.14
775.53	13445.62
775.865	13363.59
776.2	13304.83
776.535	13242.69
776.87	13274.33
777.205	13251.5
777.539	13206.98
777.874	13221.9
778.209	13095.8
778.543	13054.22
778.878	12949.36
779.212	12967.22
779.547	12916.14
779.881	12880.21
780.215	12825.52
780.55	12849.25
780.884	12803.15
781.218	12791.17
781.552	12832.53
781.886	12700.78
782.22	12595.93
782.554	12614
782.888	12472.99
783.222	12461.47
783.556	12375.82
783.889	12454.01
784.223	12338.98
784.557	12265.54
784.89	12368.59
785.224	12326.1
785.557	12180.8
785.891	12256.05
786.224	12191.87
786.558	12122.49
786.891	11976.96
787.224	11980.35
787.557	11978.77
787.891	11950.52
788.224	11852.22
788.557	11922.05
788.89	11870.97
789.223	11870.75
789.556	11695.16
789.888	11716.17
790.221	11720.47
790.554	11665.1
790.887	11637.76
791.219	11567.25
791.552	11491.77
791.884	11477.31
792.217	11463.3
792.549	11482.51
792.882	11330.2
793.214	11349.86
793.546	11338.56
793.879	11184.44
794.211	11223.08
794.543	11233.25
794.875	11199.8
795.207	11251.55
795.539	11208.17
795.871	11206.36
796.203	11039.81
796.535	11054.72
796.867	11005.01
797.198	10979.92
797.53	10973.6
797.862	10877.33
798.193	10860.6
798.525	10829.19
798.856	10873.71
799.188	10808.4
799.519	10716.2
799.85	10689.76
800.182	10688.86
800.513	10770.89
800.844	10690.21
801.175	10678.46
801.506	10601.18
801.837	10586.04
802.168	10546.71
802.499	10513.27
802.83	10479.15
803.161	10573.61
803.491	10423.1
803.822	10497.22
804.153	10330.9
804.483	10311.47
804.814	10323.67
805.145	10300.17
805.475	10267.85
805.805	10211.13
806.136	10243.45
806.466	10185.37
806.796	10204.58
807.126	10159.83
807.457	10155.54
807.787	10056.33
808.117	10015.65
808.447	10018.82
808.777	10048.87
809.107	9920.52
809.436	9955.77
809.766	9980.18
810.096	9958.93
810.426	9891.14
810.755	9896.56
811.085	9864.7
811.414	9837.58
811.744	9787.41
812.073	9759.39
812.403	9666.29
812.732	9736.57
813.061	9705.61
813.39	9653.86
813.719	9617.7
814.049	9724.36
814.378	9636.91
814.707	9592.62
815.036	9605.27
815.365	9490.02
815.693	9493.41
816.022	9478.95
816.351	9488.89
816.68	9410.25
817.008	9433.98
817.337	9374.77
817.665	9415.44
817.994	9391.49
818.322	9370.93
818.651	9310.81
818.979	9321.66
819.307	9335.45
819.636	9276.24
819.964	9288.67
820.292	9298.39
820.62	9251.61
820.948	9252.74
821.276	9231.27
821.604	9218.16
821.932	9277.82
822.259	9180.2
822.587	9249.12
822.915	9206.41
823.243	9247.09
823.57	9210.48
823.898	9259.97
824.225	9204.6
824.553	9214.09
824.88	9204.15
825.207	9228.33
825.535	9194.21
825.862	9285.05
826.189	9166.19
826.516	9335.67
826.843	9213.19
827.17	9233.3
827.497	9202.12
827.824	9242.57
828.151	9247.09
828.478	9238.5
828.805	9230.59
829.131	9177.48
829.458	9146.98
829.785	9144.49
830.111	9165.51
830.438	9240.08
830.764	9265.62
831.09	9260.19
831.417	9212.51
831.743	9224.26
832.069	9197.82
832.395	9204.15
832.722	9206.18
833.048	9191.27
833.374	9168.45
833.7	9148.33
834.026	9189.01
834.351	9148.11
834.677	9160.31
835.003	9152.85
835.329	9191.04
835.654	9083.48
835.98	9084.38
836.306	9130.71
836.631	9047.77
836.956	9085.28
837.282	9115.11
837.607	9078.28
837.932	9088.22
838.258	9013.42
838.583	9017.71
838.908	9000.77
839.233	9014.55
839.558	8930.71
839.883	8905.63
840.208	8941.11
840.533	8937.72
840.858	8952.18
841.182	8971.61
841.507	8870.83
841.832	8888.23
842.156	8889.81
842.481	8878.96
842.805	8819.3
843.13	8845.29
843.454	8713.77
843.778	8766.42
844.103	8777.27
844.427	8711.06
844.751	8740.89
845.075	8743.15
845.399	8663.83
845.723	8629.02
846.047	8615.69
846.371	8541.12
846.695	8598.52
847.019	8460.22
847.343	8478.75
847.666	8453.44
847.99	8385.42
848.313	8391.97
848.637	8340.22
848.96	8289.37
849.284	8286.43
849.607	8208.7
849.931	8201.24
850.254	8209.37
850.577	8143.84
850.9	8123.73
851.223	8070.62
851.546	8108.36
851.869	8082.37
852.192	8057.06
852.515	7947.23
852.838	7941.81
853.161	7966.44
853.483	7934.13
853.806	7911.98
854.129	7842.6
854.451	7881.47
854.774	7784.75
855.096	7798.09
855.419	7737.75
855.741	7734.36
856.063	7700.46
856.385	7735.71
856.708	7747.69
857.03	7670.86
857.352	7618.66
857.674	7665.21
857.996	7572.56
858.318	7554.25
858.64	7507.02
858.961	7579.33
859.283	7493.24
859.605	7461.37
859.926	7482.39
860.248	7469.51
860.57	7462.5
860.891	7420.47
861.212	7448.04
861.534	7382.73
861.855	7381.37
862.176	7359.68
862.498	7395.16
862.819	7348.38
863.14	7324.2
863.461	7263.41
863.782	7315.39
864.103	7303.18
864.424	7225.67
864.745	7222.73
865.065	7230.42
865.386	7198.78
865.707	7213.02
866.027	7185.45
866.348	7220.25
866.668	7203.07
866.989	7178.44
867.309	7135.05
867.63	7120.59
867.95	7088.27
868.27	7107.48
868.59	7132.34
868.91	7093.47
869.23	7014.83
869.55	7065.9
869.87	7097.77
870.19	7102.51
870.51	7069.07
870.83	7083.75
871.15	7019.8
871.469	7040.59
871.789	7004.21
872.109	7048.95
872.428	6959.69
872.748	6992.68
873.067	6971.44
873.386	6954.72
873.706	6970.76
874.025	6950.2
874.344	6956.07
874.663	6987.26
874.982	6930.76
875.301	6849.64
875.62	6922.4
875.939	6929.41
876.258	6893.93
876.577	6869.97
876.896	6811.9
877.214	6825.23
877.533	6836.53
877.852	6851.9
878.17	6818.45
878.489	6873.59
878.807	6834.72
879.125	6803.76
879.444	6785.01
879.762	6796.98
880.08	6723.76
880.398	6723.99
880.716	6726.02
881.034	6658.45
881.352	6717.21
881.67	6673.14
881.988	6705.46
882.306	6675.86
882.624	6622.52
882.941	6657.55
883.259	6615.52
883.577	6566.25
883.894	6568.97
884.212	6597.44
884.529	6547.72
884.846	6570.55
885.164	6546.37
885.481	6464.56
885.798	6588.4
886.115	6528.06
886.432	6500.27
886.75	6452.13
887.067	6464.56
887.383	6425.69
887.7	6444.22
888.017	6411.46
888.334	6439.7
888.651	6395.41
888.967	6373.26
889.284	6340.5
889.6	6355.19
889.917	6324.45
890.233	6280.39
890.55	6271.35
890.866	6270.67
891.182	6289.65
891.498	6289.65
891.815	6241.06
892.131	6223.21
892.447	6182.99
892.763	6194.06
893.079	6142.08
893.395	6169.88
893.71	6127.17
894.026	6112.71
894.342	6114.74
894.657	6069.77
894.973	6068.41
895.289	5999.04
895.604	6026.16
895.92	6050.34
896.235	5977.12
896.55	5933.05
896.865	5934.86
897.181	5957.46
897.496	5972.15
897.811	5882.43
898.126	5866.39
898.441	5869.1
898.756	5905.25
899.071	5854.86
899.386	5853.05
899.7	5769.89
900.015	5747.52
900.33	5706.16
900.644	5731.02
900.959	5778.03
901.273	5665.49
901.588	5654.64
901.902	5630.23
902.216	5576
902.531	5590.69
902.845	5580.97
903.159	5564.47
903.473	5541.65
903.787	5468.2
904.101	5466.4
904.415	5511.59
904.729	5503.23
905.042	5460.07
905.356	5441.76
905.67	5473.18
905.984	5425.27
906.297	5404.48
906.611	5373.29
906.924	5371.48
907.237	5363.57
907.551	5289.9
907.864	5279.73
908.177	5282.67
908.491	5213.07
908.804	5233.41
909.117	5213.07
909.43	5159.51
909.743	5181.88
910.056	5170.81
910.368	5142.34
910.681	5105.73
910.994	5096.91
911.307	5102.11
911.619	5025.73
911.932	5058.04
912.244	5007.2
912.557	5032.96
912.869	4959.97
913.181	4946.64
913.494	4974.43
913.806	4925.62
914.118	4935.79
914.43	4868.45
914.742	4886.3
915.054	4837.03
915.366	4838.84
915.678	4835
915.99	4769.24
916.302	4743.25
916.613	4774.21
916.925	4711.61
917.236	4699.18
917.548	4750.48
917.859	4657.38
918.171	4643.59
918.482	4677.49
918.794	4677.04
919.105	4643.14
919.416	4581.67
919.727	4601.56
920.038	4551.39
920.349	4541.22
920.66	4520.66
920.971	4474.11
921.282	4473.43
921.593	4488.57
921.903	4423.26
922.214	4402.02
922.525	4378.97
922.835	4401.34
923.146	4413.32
923.456	4365.41
923.767	4326.09
924.077	4336.93
924.387	4274.11
924.697	4296.94
925.008	4272.08
925.318	4261.46
925.628	4248.35
925.938	4188.46
926.248	4171.29
926.558	4203.83
926.867	4164.96
927.177	4136.71
927.487	4128.8
927.796	4066.43
928.106	4139.65
928.416	4075.92
928.725	4115.47
929.034	4034.34
929.344	4071.18
929.653	4029.6
929.962	4047
930.271	3965.19
930.581	3961.8
930.89	3948.02
931.199	3937.17
931.508	3950.96
931.817	3928.36
932.125	3895.59
932.434	3909.83
932.743	3840.9
933.051	3861.47
933.36	3825.76
933.669	3841.35
933.977	3817.17
934.286	3782.6
934.594	3780.79
934.902	3744.41
935.21	3726.1
935.519	3728.14
935.827	3733.79
936.135	3704.18
936.443	3717.06
936.751	3665.54
937.059	3668.48
937.367	3639.33
937.674	3612.21
937.982	3644.75
938.29	3640.68
938.597	3550.06
938.905	3569.72
939.213	3528.59
939.52	3555.49
939.827	3533.34
940.135	3471.65
940.442	3506.45
940.749	3465.32
941.056	3461.93
941.363	3430.07
941.67	3420.57
941.977	3406.56
942.284	3402.27
942.591	3398.2
942.898	3395.49
943.205	3347.13
943.511	3333.8
943.818	3338.32
944.125	3306.23
944.431	3310.29
944.738	3311.42
945.044	3320.24
945.35	3269.39
945.657	3244.31
945.963	3275.49
946.269	3258.32
946.575	3249.05
946.881	3230.3
947.187	3214.25
947.493	3220.58
947.799	3160.92
948.105	3136.29
948.41	3170.64
948.716	3139.23
949.022	3120.69
949.327	3105.78
949.633	3080.92
949.938	3099.68
950.244	3074.59
950.549	3060.58
950.854	3066.91
951.16	3012.9
951.465	3019.91
951.77	3016.06
952.075	3007.7
952.38	2966.57
952.685	2990.75
952.99	2976.07
953.294	2950.76
953.599	2908.5
953.904	2939.91
954.209	2908.95
954.513	2902.4
954.818	2870.76
955.122	2857.65
955.426	2839.8
955.731	2868.95
956.035	2854.49
956.339	2858.33
956.643	2821.04
956.948	2808.16
957.252	2785.56
957.556	2769.07
957.86	2741.04
958.163	2758.44
958.467	2763.64
958.771	2731.55
959.075	2745.34
959.378	2707.82
959.682	2735.85
959.985	2707.82
960.289	2677.99
960.592	2670.31
960.896	2637.54
961.199	2670.09
961.502	2597.09
961.805	2611.78
962.108	2590.99
962.411	2612.01
962.714	2599.8
963.017	2577.21
963.32	2566.36
963.623	2531.33
963.926	2545.57
964.228	2557.77
964.531	2510.09
964.833	2516.64
965.136	2486.81
965.438	2517.09
965.741	2505.34
966.043	2496.08
966.345	2477.55
966.648	2452.92
966.95	2439.81
967.252	2443.88
967.554	2457.66
967.856	2414.27
968.158	2386.02
968.46	2394.16
968.761	2359.36
969.063	2374.73
969.365	2376.76
969.666	2376.76
969.968	2334.5
970.269	2351
970.571	2347.61
970.872	2311.45
971.174	2335.4
971.475	2334.05
971.776	2295.18
972.077	2294.05
972.378	2281.17
972.679	2265.58
972.98	2301.28
973.281	2269.87
973.582	2262.41
973.883	2238.01
974.183	2202.3
974.484	2243.43
974.785	2197.56
975.085	2180.61
975.386	2232.13
975.686	2136.54
975.986	2165.69
976.287	2162.08
976.587	2141.06
976.887	2172.25
977.187	2123.66
977.487	2137.9
977.787	2148.52
978.087	2111.23
978.387	2100.83
978.687	2086.6
978.987	2063.32
979.286	2103.77
979.586	2037.11
979.885	2052.93
980.185	2049.31
980.484	2057.45
980.784	2020.61
981.083	2043.89
981.382	2026.03
981.682	2033.49
981.981	1996.88
982.28	1972.48
982.579	1989.2
982.878	1969.31
983.177	1938.13
983.475	1956.43
983.774	1956.66
984.073	1987.84
984.372	1915.3
984.67	1920.73
984.969	1942.65
985.267	1916.43
985.566	1918.24
985.864	1848.86
986.162	1882.31
986.461	1876.21
986.759	1836.66
987.057	1847.28
987.355	1872.37
987.653	1814.74
987.951	1815.42
988.249	1846.15
988.547	1839.15
988.844	1841.63
989.142	1798.47
989.44	1792.59
989.737	1796.66
990.035	1766.61
990.332	1778.58
990.63	1749.21
990.927	1751.47
991.224	1753.95
991.521	1715.31
991.819	1739.04
992.116	1715.53
992.413	1729.54
992.71	1694.29
993.006	1704.46
993.303	1694.97
993.6	1722.77
993.897	1722.31
994.193	1699.72
994.49	1666.72
994.787	1666.04
995.083	1653.39
995.379	1647.51
995.676	1677.12
995.972	1641.64
996.268	1639.15
996.565	1613.39
996.861	1606.84
997.157	1624.46
997.453	1576.78
997.749	1579.49
998.044	1615.88
998.34	1579.94
998.636	1569.78
998.932	1572.71
999.227	1582.43
999.523	1549.21
999.818	1523.9
1000.114	1525.48
1000.409	1541.98
1000.704	1504.92
1001	1532.26
1001.295	1490.46
1001.59	1485.48
1001.885	1526.61
1002.18	1498.14
1002.475	1470.79
1002.77	1475.09
1003.065	1440.06
1003.359	1456.78
1003.654	1462.43
1003.949	1449.55
1004.243	1418.59
1004.538	1462.66
1004.832	1443.22
1005.127	1408.2
1005.421	1403.23
1005.715	1397.35
1006.009	1407.75
1006.304	1387.63
1006.598	1359.61
1006.892	1388.54
1007.186	1374.07
1007.48	1360.52
1007.773	1347.41
1008.067	1341.08
1008.361	1330.46
1008.655	1318.93
1008.948	1333.62
1009.242	1344.7
1009.535	1294.75
1009.829	1293.17
1010.122	1298.6
1010.415	1280.97
1010.708	1291.59
1011.001	1275.77
1011.295	1261.99
1011.588	1254.3
1011.881	1220.63
1012.173	1262.21
1012.466	1234.87
1012.759	1245.04
1013.052	1222.89
1013.344	1204.81
1013.637	1221.76
1013.93	1216.79
1014.222	1219.05
1014.514	1196
1014.807	1206.17
1015.099	1189.67
1015.391	1183.57
1015.683	1169.11
1015.976	1160.52
1016.268	1169.56
1016.56	1146.28
1016.851	1144.7
1017.143	1141.09
1017.435	1127.07
1017.727	1125.49
1018.018	1113.52
1018.31	1123.23
1018.602	1112.16
1018.893	1091.14
1019.185	1105.15
1019.476	1077.13
1019.767	1110.35
1020.058	1097.7
1020.35	1089.11
1020.641	1055.21
1020.932	1072.16
1021.223	1062.44
1021.514	1061.31
1021.804	1031.26
1022.095	1025.61
1022.386	1031.71
1022.677	1017.02
1022.967	1032.16
1023.258	989.45
1023.548	982.67
1023.839	1010.02
1024.129	1004.14
1024.419	999.85
1024.709	986.06
1025	974.76
1025.29	958.94
1025.58	981.32
1025.87	938.15
1026.16	948.1
1026.449	972.95
1026.739	941.32
1027.029	947.87
1027.319	945.38
1027.608	923.01
1027.898	933.63
1028.187	930.92
1028.477	900.19
1028.766	914.65
1029.055	892.5
1029.344	867.19
1029.634	909.68
1029.923	880.53
1030.212	869.23
1030.501	887.53
1030.79	897.7
1031.078	859.74
1031.367	852.51
1031.656	860.42
1031.945	835.11
1032.233	841.21
1032.522	845.73
1032.81	835.56
1033.099	842.11
1033.387	830.13
1033.675	817.25
1033.963	799.85
1034.251	801.21
1034.54	784.26
1034.828	808.89
1035.116	777.93
1035.403	789.68
1035.691	798.27
1035.979	795.56
1036.267	790.81
1036.554	764.15
1036.842	765.73
1037.129	751.72
1037.417	759.4
1037.704	751.94
1037.992	736.58
1038.279	742.9
1038.566	754.88
1038.853	754.88
1039.14	754.88
