Data from cardboard_FLMS001491_038.txt Node
Date: Tue Feb 07 11:39:21 GMT 2017
User: dcchb
Spectrometer: FLMS00149
Trigger mode: 0
Integration Time (sec): 2.000000E-2
Scans to average: 10
Electric dark correction enabled: true
Nonlinearity correction enabled: false
Boxcar width: 0
XAxis mode: Wavelengths
Number of Pixels in Spectrum: 2048
>>>>>Begin Spectral Data<<<<<
341.393	14.7
341.776	14.7
342.16	14.7
342.543	-82.02
342.927	-66.42
343.31	-79.31
343.693	-70.72
344.077	-59.87
344.46	-67.1
344.843	-50.38
345.226	-51.51
345.61	-29.82
345.993	-13.77
346.376	-9.48
346.759	8.15
347.142	31.43
347.525	54.93
347.908	55.83
348.291	88.15
348.674	92.44
349.057	101.03
349.44	137.86
349.823	144.42
350.206	173.79
350.588	190.74
350.971	196.39
351.354	208.6
351.737	228.48
352.119	234.81
352.502	273.91
352.884	273.68
353.267	272.78
353.65	293.79
354.032	303.73
354.414	289.5
354.797	298.99
355.179	318.42
355.562	310.74
355.944	316.84
356.326	323.17
356.709	334.02
357.091	336.95
357.473	338.76
357.855	338.31
358.238	329.72
358.62	344.19
359.002	328.37
359.384	337.86
359.766	353.23
360.148	312.77
360.53	314.81
360.912	354.36
361.294	332.43
361.676	323.4
362.057	340.12
362.439	338.54
362.821	331.53
363.203	329.95
363.584	326.33
363.966	320.23
364.348	329.95
364.729	317.75
365.111	310.51
365.493	307.35
365.874	324.53
366.256	312.77
366.637	311.19
367.019	298.99
367.4	304.41
367.781	314.36
368.163	301.25
368.544	297.86
368.925	315.71
369.306	312.77
369.688	299.67
370.069	332.43
370.45	313.68
370.831	306.45
371.212	315.26
371.593	310.97
371.974	305.32
372.355	302.15
372.736	283.17
373.117	324.3
373.498	310.51
373.879	313
374.26	302.15
374.641	316.62
375.021	300.12
375.402	314.58
375.783	306.9
376.163	332.89
376.544	319.33
376.925	322.27
377.305	342.83
377.686	317.75
378.066	303.06
378.447	313
378.827	336.05
379.208	331.53
379.588	328.82
379.968	314.36
380.349	338.99
380.729	313
381.109	340.8
381.489	341.93
381.87	325.43
382.25	336.5
382.63	327.46
383.01	334.92
383.39	341.25
383.77	336.73
384.15	331.3
384.53	336.73
384.91	347.58
385.29	343.28
385.67	355.49
386.049	353.9
386.429	327.69
386.809	355.49
387.189	348.93
387.568	356.39
387.948	367.69
388.328	349.61
388.707	358.42
389.087	348.25
389.466	342.6
389.846	339.89
390.225	376.95
390.605	355.71
390.984	374.02
391.363	357.29
391.743	371.98
392.122	357.52
392.501	359.55
392.881	360.91
393.26	366.78
393.639	385.09
394.018	365.65
394.397	377.18
394.776	368.37
395.155	373.11
395.534	367.69
395.913	380.12
396.292	382.15
396.671	374.69
397.05	387.35
397.429	374.47
397.808	367.46
398.186	382.15
398.565	371.98
398.944	399.33
399.323	393.68
399.701	378.76
400.08	391.64
400.458	362.04
400.837	394.35
401.215	396.84
401.594	418.08
401.972	381.92
402.351	404.98
402.729	397.07
403.107	409.72
403.486	435.71
403.864	397.52
404.242	407.46
404.62	411.08
404.999	419.44
405.377	417.4
405.755	410.62
406.133	416.5
406.511	451.08
406.889	442.49
407.267	437.52
407.645	435.26
408.023	441.36
408.401	442.26
408.779	452.66
409.156	440.68
409.534	447.01
409.912	431.42
410.29	447.91
410.667	432.32
411.045	451.98
411.422	454.24
411.8	468.93
412.178	460.34
412.555	473.9
412.933	495.37
413.31	475.48
413.687	487.46
414.065	475.26
414.442	487.23
414.819	507.57
415.197	505.31
415.574	496.72
415.951	489.72
416.328	503.5
416.705	489.94
417.082	488.59
417.46	500.34
417.837	494.92
418.214	515.48
418.591	495.14
418.967	536.5
419.344	511.64
419.721	518.64
420.098	517.74
420.475	521.58
420.852	512.09
421.228	537.85
421.605	551.86
421.982	519.1
422.358	538.31
422.735	545.76
423.111	569.04
423.488	552.32
423.864	572.43
424.241	542.82
424.617	574.24
424.994	570.17
425.37	583.05
425.746	576.5
426.123	583.73
426.499	569.04
426.875	603.84
427.251	584.18
427.627	607
428.003	604.52
428.379	592.09
428.756	607.68
429.132	639.55
429.507	603.84
429.883	640.22
430.259	625.08
430.635	626.66
431.011	641.81
431.387	663.95
431.763	693.1
432.138	672.31
432.514	689.49
432.89	671.63
433.265	678.19
433.641	694.01
434.016	678.64
434.392	696.72
434.767	712.99
435.143	703.27
435.518	706.66
435.894	712.54
436.269	702.37
436.644	738.07
437.02	724.06
437.395	724.51
437.77	748.24
438.145	743.72
438.52	750.95
438.895	768.36
439.271	751.63
439.646	799.32
440.021	774.91
440.395	788.24
440.77	805.87
441.145	792.76
441.52	783.04
441.895	802.03
442.27	784.63
442.645	780.78
443.019	802.48
443.394	844.74
443.769	798.86
444.143	796.15
444.518	839.54
444.892	832.99
445.267	864.62
445.641	853.1
446.016	844.29
446.39	866.88
446.764	865.08
447.139	845.19
447.513	867.34
447.887	878.86
448.262	882.7
448.636	876.6
449.01	875.92
449.384	895.36
449.758	881.8
450.132	908.01
450.506	915.92
450.88	926.32
451.254	896.94
451.628	951.63
452.002	940.33
452.376	955.24
452.75	955.92
453.123	945.98
453.497	952.31
453.871	973.32
454.244	996.82
454.618	1023.94
454.992	999.31
455.365	1006.32
455.739	1051.06
456.112	1040.44
456.486	1034.34
456.859	1056.26
457.232	1069.82
457.606	1063.26
457.979	1073.43
458.352	1070.49
458.725	1088.35
459.099	1120.44
459.472	1113.66
459.845	1108.01
460.218	1153.2
460.591	1170.38
460.964	1148.46
461.337	1196.37
461.71	1201.79
462.083	1207.67
462.456	1216.71
462.829	1231.62
463.201	1212.64
463.574	1211.51
463.947	1269.81
464.32	1272.52
464.692	1265.29
465.065	1308.45
465.438	1326.31
465.81	1327.66
466.183	1335.8
466.555	1357.72
466.928	1363.59
467.3	1368.79
467.672	1406.08
468.045	1414.21
468.417	1445.85
468.789	1443.59
469.161	1483.36
469.534	1474.33
469.906	1490.14
470.278	1538.28
470.65	1536.47
471.022	1550.03
471.394	1567.66
471.766	1592.29
472.138	1585.96
472.51	1652.4
472.882	1668.9
473.253	1684.94
473.625	1677.94
473.997	1729.01
474.369	1714.77
474.74	1778.05
475.112	1804.26
475.484	1825.28
475.855	1825.73
476.227	1855.11
476.598	1884.26
476.97	1908.44
477.341	1959.06
477.713	1946.4
478.084	2009.68
478.455	2056.01
478.827	2039.28
479.198	2113.86
479.569	2150.24
479.94	2166.28
480.311	2199.73
480.682	2236.34
481.053	2308.65
481.424	2326.51
481.795	2348.88
482.166	2368.99
482.537	2416.45
482.908	2425.26
483.279	2496.22
483.65	2553.17
484.021	2572.15
484.391	2607.4
484.762	2586.61
485.133	2665.03
485.503	2704.35
485.874	2736.67
486.244	2786.61
486.615	2827.06
486.985	2894.4
487.356	2900.73
487.726	2932.37
488.097	3014.85
488.467	3026.6
488.837	3022.76
489.207	3124.23
489.578	3134.39
489.948	3186.6
490.318	3265.01
490.688	3276.99
491.058	3329.42
491.428	3424.56
491.798	3421.85
492.168	3476.76
492.538	3474.05
492.908	3553.59
493.278	3574.61
493.648	3598.11
494.017	3636.3
494.387	3674.27
494.757	3720.59
495.126	3731.22
495.496	3806.02
495.866	3821.16
496.235	3853.02
496.605	3932.11
496.974	3904.77
497.344	3996.97
497.713	4032
498.082	4082.17
498.452	4066.8
498.821	4110.64
499.19	4168.72
499.559	4198.1
499.928	4222.73
500.298	4236.51
500.667	4342.95
501.036	4310.41
501.405	4388.6
501.774	4419.78
502.143	4454.36
502.512	4494.36
502.88	4536.62
503.249	4570.06
503.618	4615.49
503.987	4655.26
504.356	4652.55
504.724	4721.47
505.093	4740.45
505.462	4735.71
505.83	4792.88
506.199	4875.37
506.567	4888.93
506.936	4943.39
507.304	5026.77
507.672	5071.52
508.041	5037.85
508.409	5106.55
508.777	5184.06
509.145	5219.09
509.514	5216.15
509.882	5301.8
510.25	5321.46
510.618	5400.32
510.986	5403.71
511.354	5448.23
511.722	5509.25
512.09	5568.23
512.458	5573.65
512.826	5669.02
513.193	5691.16
513.561	5775.91
513.929	5787.66
514.297	5869.69
514.664	5944.94
515.032	5958.95
515.4	6056.13
515.767	6086.41
516.135	6129.34
516.502	6096.58
516.869	6222.45
517.237	6305.61
517.604	6287.76
517.972	6397.59
518.339	6417.47
518.706	6499.28
519.073	6506.06
519.44	6575.21
519.808	6655.88
520.175	6696.56
520.542	6782.21
520.909	6825.6
521.276	6948.31
521.643	6976.1
522.009	6989.66
522.376	7102.88
522.743	7146.27
523.11	7208.64
523.477	7367.5
523.843	7342.42
524.21	7482.08
524.577	7588.97
524.943	7617.67
525.31	7661.06
525.676	7770.43
526.043	7846.14
526.409	7899.02
526.776	7911.9
527.142	8008.62
527.508	8066.92
527.874	8145.79
528.241	8205
528.607	8284.77
528.973	8416.97
529.339	8385.56
529.705	8579.45
530.071	8564.53
530.437	8651.31
530.803	8659.67
531.169	8818.31
531.535	8780.35
531.901	8897.18
532.267	8943.73
532.632	9040.91
532.998	9075.71
533.364	9173.78
533.73	9202.48
534.095	9275.7
534.461	9327.68
534.826	9412.87
535.192	9477.73
535.557	9603.83
535.923	9613.77
536.288	9630.04
536.653	9836.82
537.019	9726.99
537.384	9835.24
537.749	9928.11
538.114	9950.94
538.479	9954.33
538.845	10127.21
539.21	10063.48
539.575	10171.05
539.94	10237.94
540.305	10347.76
540.67	10311.16
541.034	10370.59
541.399	10487.65
541.764	10496.01
542.129	10552.96
542.494	10635.67
542.858	10716.12
543.223	10742.1
543.587	10839.73
543.952	10773.97
544.316	10919.73
544.681	10966.51
545.045	11013.06
545.41	11110.46
545.774	11150.68
546.138	11180.74
546.503	11208.76
546.867	11267.51
547.231	11500.95
547.595	11500.28
547.959	11523.1
548.324	11529.43
548.688	11579.6
549.052	11596.09
549.416	11728.07
549.779	11814.17
550.143	11884
550.507	12006.93
550.871	12021.62
551.235	12003.77
551.599	12205.34
551.962	12253.93
552.326	12248.51
552.689	12425.45
553.053	12343.42
553.417	12431.55
553.78	12643.75
554.143	12610.98
554.507	12726.46
554.87	12735.5
555.234	12886.45
555.597	12888.49
555.96	13015.72
556.323	13129.39
556.686	13086.68
557.05	13254.81
557.413	13295.94
557.776	13361.24
558.139	13408.25
558.502	13472.88
558.865	13491.86
559.228	13683.04
559.59	13798.3
559.953	13814.57
560.316	13980.21
560.679	14013.43
561.041	14119.19
561.404	14224.5
561.767	14276.47
562.129	14328.45
562.492	14453.42
562.854	14487.09
563.217	14535.23
563.579	14672.62
563.941	14702.23
564.304	14851.15
564.666	14939.73
565.028	14949
565.39	15083.01
565.753	15174.3
566.115	15333.85
566.477	15261.53
566.839	15359.38
567.201	15493.62
567.563	15583.56
567.925	15715.53
568.287	15742.88
568.648	15801.86
569.01	15993.49
569.372	16028.52
569.734	15974.06
570.095	16092.92
570.457	16304.22
570.819	16351
571.18	16308.74
571.542	16483.42
571.903	16540.37
572.265	16672.34
572.626	16697.2
572.987	16711.67
573.349	16880.25
573.71	16862.62
574.071	17008.38
574.432	17063.75
574.794	17241.59
575.155	17195.04
575.516	17212.22
575.877	17385.55
576.238	17378.09
576.599	17487.69
576.96	17490.85
577.32	17555.48
577.681	17714.12
578.042	17745.31
578.403	17851.97
578.763	17845.65
579.124	17899.66
579.485	17987.34
579.845	18084.28
580.206	18027.11
580.566	18098.3
580.927	18057.17
581.287	18271.4
581.648	18225.3
582.008	18271.62
582.368	18405.63
582.728	18300.55
583.089	18404.28
583.449	18483.6
583.809	18423.03
584.169	18627.55
584.529	18601.56
584.889	18763.14
585.249	18723.59
585.609	18562.92
585.969	18825.06
586.329	18784.83
586.688	18960.65
587.048	18930.59
587.408	18881.78
587.768	18900.99
588.127	18921.78
588.487	18942.34
588.846	19064.15
589.206	18983.47
589.565	19045.62
589.925	19100.53
590.284	19126.52
590.643	19204.93
591.003	19345.04
591.362	19393.4
591.721	19405.38
592.08	19370.58
592.44	19438.37
592.799	19431.82
593.158	19397.02
593.517	19514.98
593.876	19401.31
594.235	19454.42
594.593	19604.24
594.952	19634.3
595.311	19563.79
595.67	19701.87
596.029	19735.09
596.387	19876.78
596.746	19890.79
597.104	19788.87
597.463	19740.06
597.822	19875.65
598.18	19830.45
598.538	19942.54
598.897	20055.76
599.255	19941.64
599.613	20164.91
599.972	20086.72
600.33	20141.41
600.688	20206.04
601.046	20225.47
601.404	20293.27
601.762	20304.11
602.12	20420.04
602.478	20422.53
602.836	20472.24
603.194	20424.56
603.552	20470.66
603.91	20436.76
604.268	20493.49
604.625	20518.57
604.983	20640.15
605.341	20484.45
605.698	20670.21
606.056	20735.97
606.413	20793.37
606.771	20750.2
607.128	20899.13
607.485	20747.27
607.843	20836.08
608.2	20999.01
608.557	20975.96
608.914	20980.03
609.272	21111.55
609.629	21105.22
609.986	21226.57
610.343	21110.19
610.7	21252.56
611.057	21327.14
611.414	21357.19
611.771	21370.3
612.127	21457.53
612.484	21468.6
612.841	21501.6
613.198	21387.25
613.554	21561.03
613.911	21609.62
614.267	21652.78
614.624	21606.45
614.98	21657.98
615.337	21758.31
615.693	21723.06
616.05	21838.76
616.406	22068.81
616.762	21911.3
617.118	21895.26
617.475	21973.45
617.831	22060.45
618.187	22052.54
618.543	22040.34
618.899	22233.1
619.255	22225.87
619.611	22161.24
619.967	22219.09
620.323	22240.79
620.678	22193.33
621.034	22307.68
621.39	22333.89
621.746	22338.64
622.101	22634.45
622.457	22435.58
622.812	22473.32
623.168	22486.65
623.523	22421.35
623.879	22609.36
624.234	22523.94
624.589	22539.99
624.945	22556.94
625.3	22688.01
625.655	22605.75
626.01	22659.53
626.365	22713.77
626.72	22605.75
627.075	22702.69
627.43	22655.24
627.785	22696.14
628.14	22668.12
628.495	22742.24
628.85	22729.13
629.205	22567.78
629.559	22849.58
629.914	22682.58
630.269	22709.25
630.623	22623.83
630.978	22618.85
631.332	22836.93
631.687	22889.13
632.041	22772.75
632.396	22770.94
632.75	22712.41
633.104	22750.83
633.459	22702.24
633.813	22645.52
634.167	22732.3
634.521	22760.77
634.875	22718.96
635.229	22756.93
635.583	22655.92
635.937	22599.65
636.291	22606.88
636.645	22641
636.999	22626.09
637.352	22789.47
637.706	22571.4
638.06	22599.42
638.413	22683.26
638.767	22560.55
639.121	22559.42
639.474	22381.12
639.828	22558.07
640.181	22565.52
640.534	22662.24
640.888	22566.65
641.241	22434
641.594	22494.56
641.947	22471.97
642.301	22597.39
642.654	22484.39
643.007	22515.58
643.36	22579.99
643.713	22549.7
644.066	22616.14
644.419	22310.61
644.771	22267.45
645.124	22093.22
645.477	22042.6
645.83	22097.74
646.182	21947.23
646.535	21991.07
646.888	21848.48
647.24	21821.36
647.593	21885.54
647.945	21932.54
648.298	21805.32
648.65	21775.49
649.002	21629.5
649.355	21818.88
649.707	21795.15
650.059	21928.48
650.411	22164.4
650.763	22215.02
651.115	22508.35
651.467	22302.25
651.819	22381.35
652.171	22390.16
652.523	22322.14
652.875	22356.71
653.227	22294.34
653.578	22490.27
653.93	22310.16
654.282	22237.4
654.633	22176.15
654.985	22441.46
655.337	22236.72
655.688	22287.11
656.039	22362.36
656.391	22239.88
656.742	22243.5
657.094	22208.02
657.445	22400.33
657.796	22205.98
658.147	22296.38
658.498	22212.09
658.849	22336.38
659.2	22200.33
659.551	22202.14
659.902	22334.79
660.253	22325.53
660.604	22306.32
660.955	22147.91
661.306	22368.01
661.656	22324.17
662.007	22279.88
662.358	22283.95
662.708	22332.08
663.059	22294.57
663.409	22215.48
663.76	22335.02
664.11	22419.09
664.461	22327.11
664.811	22451.4
665.161	22502.25
665.511	22327.34
665.862	22396.71
666.212	22330.27
666.562	22479.88
666.912	22429.25
667.262	22354.91
667.612	22357.84
667.962	22383.83
668.312	22304.51
668.662	22400.33
669.011	22423.15
669.361	22289.6
669.711	22421.8
670.06	22376.15
670.41	22255.25
670.76	22346.09
671.109	22407.11
671.459	22232.2
671.808	22407.11
672.157	22419.09
672.507	22313.1
672.856	22237.4
673.205	22294.12
673.554	22457.95
673.904	22277.39
674.253	22511.96
674.602	22330.05
674.951	22044.18
675.3	21942.71
675.649	22289.15
675.998	22396.26
676.346	22302.03
676.695	22370.73
677.044	22196.27
677.393	22301.35
677.741	22232.42
678.09	22264.06
678.438	22265.64
678.787	22227.23
679.135	22241.92
679.484	22070.17
679.832	22287.34
680.181	22145.19
680.529	22161.69
680.877	22078.08
681.225	22137.74
681.573	22265.19
681.922	22132.99
682.27	22005.09
682.618	22051.19
682.966	21970.06
683.314	22092.54
683.661	22035.82
684.009	21807.58
684.357	21881.47
684.705	21858.87
685.053	21798.31
685.4	21873.11
685.748	21777.29
686.095	21732.1
686.443	21631.54
686.79	21709.05
687.138	21701.14
687.485	21691.42
687.832	21547.24
688.18	21568.71
688.527	21547.24
688.874	21571.88
689.221	21549.5
689.568	21504.53
689.915	21357.64
690.262	21519
690.609	21426.34
690.956	21359.9
691.303	21370.98
691.65	21198.55
691.997	21094.37
692.344	21173.69
692.69	21059.8
693.037	21020.93
693.383	20935.06
693.73	21133.92
694.077	20901.61
694.423	20895.06
694.769	20782.74
695.116	20881.72
695.462	20789.75
695.808	20757.66
696.155	20752.69
696.501	20659.36
696.847	20627.27
697.193	20495.75
697.539	20594.95
697.885	20446.03
698.231	20335.98
698.577	20333.72
698.923	20348.86
699.269	20325.58
699.614	20177.11
699.96	20104.34
700.306	20150.22
700.651	20069.54
700.997	19988.87
701.342	19980.73
701.688	19974.4
702.033	19948.87
702.379	19864.58
702.724	19759.27
703.069	19863.67
703.415	19686.73
703.76	19708.87
704.105	19680.4
704.45	19623
704.795	19568.77
705.14	19534.42
705.485	19543.23
705.83	19373.97
706.175	19419.39
706.52	19370.13
706.865	19257.13
707.209	19325.16
707.554	19289.68
707.899	19331.26
708.243	19234.54
708.588	19190.47
708.932	19067.31
709.277	19063.02
709.621	19052.17
709.966	18907.31
710.31	19057.37
710.654	18865.05
710.998	18910.7
711.342	18990.25
711.687	18850.59
712.031	18828.22
712.375	18695.34
712.719	18820.54
713.063	18761.55
713.407	18838.61
713.75	18706.87
714.094	18609.02
714.438	18664.83
714.782	18630.48
715.125	18612.18
715.469	18536.7
715.812	18558.17
716.156	18395.01
716.499	18385.29
716.843	18483.14
717.186	18311.62
717.53	18445.4
717.873	18358.85
718.216	18355.01
718.559	18348.01
718.902	18226.88
719.246	18267.33
719.589	18111.63
719.932	18042.03
720.275	18167.67
720.617	18086.77
720.96	18064.85
721.303	18129.25
721.646	18181.23
721.989	18009.94
722.331	18110.05
722.674	18119.54
723.016	18030.73
723.359	18043.61
723.701	18075.47
724.044	17736.27
724.386	17903.95
724.729	17867.11
725.071	17863.73
725.413	17896.72
725.755	17848.81
726.097	17840.45
726.439	17794.57
726.782	17729.94
727.124	17909.83
727.465	17735.37
727.807	17762.26
728.149	17667.57
728.491	17688.14
728.833	17757.51
729.175	17667.57
729.516	17589.61
729.858	17567.46
730.199	17639.32
730.541	17731.75
730.882	17616.95
731.224	17648.82
731.565	17523.62
731.906	17531.98
732.248	17560.91
732.589	17477.75
732.93	17480.91
733.271	17504.19
733.612	17574.69
733.953	17550.97
734.294	17461.02
734.635	17413.79
734.976	17402.72
735.317	17353.23
735.658	17376.51
735.999	17422.38
736.339	17366.34
736.68	17371.99
737.021	17410.4
737.361	17310.75
737.702	17516.84
738.042	17299.9
738.383	17310.29
738.723	17273.91
739.063	17291.76
739.404	17350.29
739.744	17295.83
740.084	17280.92
740.424	17229.17
740.764	17217.19
741.104	17292.21
741.444	17193.46
741.784	17124.54
742.124	17174.48
742.464	17181.26
742.804	17047.7
743.143	17135.83
743.483	17140.35
743.823	17114.37
744.162	17030.75
744.502	17088.83
744.841	16939.46
745.181	17028.27
745.52	16955.5
745.86	17085.89
746.199	17071.66
746.538	16990.98
746.877	17064.42
747.216	17065.33
747.556	16983.3
747.895	17048.38
748.234	16886.58
748.573	16904.65
748.911	16907.37
749.25	16952.11
749.589	16854.26
749.928	16962.05
750.267	16919.12
750.605	16862.85
750.944	16828.95
751.283	16781.95
751.621	16780.14
751.96	16744.66
752.298	16817.88
752.636	16760.7
752.975	16685
753.313	16590.99
753.651	16757.31
753.989	16669.86
754.327	16601.61
754.666	16558.45
755.004	16610.88
755.342	16612.91
755.679	16618.79
756.017	16597.32
756.355	16699.91
756.693	16502.86
757.031	16567.71
757.368	16449.53
757.706	16521.39
758.044	16292.69
758.381	16395.06
758.719	16414.5
759.056	16384.89
759.394	16280.26
759.731	16340.38
760.068	16203.66
760.405	16130.44
760.743	16167.5
761.08	16145.13
761.417	16073.72
761.754	16105.35
762.091	15935.64
762.428	16025.36
762.765	15917.56
763.102	15962.98
763.438	15875.53
763.775	15825.13
764.112	15830.11
764.449	15815.64
764.785	15787.85
765.122	15652.71
765.458	15667.4
765.795	15607.29
766.131	15600.51
766.467	15596.67
766.804	15615.65
767.14	15491.81
767.476	15424.02
767.812	15376.78
768.148	15497.91
768.485	15246.62
768.821	15315.32
769.157	15195.09
769.492	15244.81
769.828	15176.34
770.164	15050.01
770.5	15056.34
770.836	15054.99
771.171	14964.14
771.507	14956.68
771.842	14806.4
772.178	14777.48
772.513	14845.73
772.849	14831.49
773.184	14695.22
773.519	14766.18
773.855	14602.12
774.19	14549.24
774.525	14555.11
774.86	14538.16
775.195	14470.14
775.53	14368.45
775.865	14319.64
776.2	14267.44
776.535	14179.75
776.87	14167.1
777.205	14189.47
777.539	14101.11
777.874	14089.81
778.209	13976.14
778.543	13991.28
778.878	13850.5
779.212	13891.4
779.547	13855.24
779.881	13853.21
780.215	13744.29
780.55	13857.05
780.884	13683.5
781.218	13695.93
781.552	13724.17
781.886	13519.43
782.22	13502.94
782.554	13457.97
782.888	13373
783.222	13331.19
783.556	13216.39
783.889	13242.6
784.223	13257.97
784.557	13134.58
784.89	13226.11
785.224	13032.21
785.557	13056.17
785.891	13018.65
786.224	13041.48
786.558	12985.44
786.891	12888.04
787.224	12821.6
787.557	12832.67
787.891	12778.21
788.224	12779.79
788.557	12687.82
788.89	12677.42
789.223	12676.07
789.556	12560.36
789.888	12567.59
790.221	12484.88
790.554	12426.13
790.887	12470.65
791.219	12333.7
791.552	12307.26
791.884	12358.33
792.217	12241.05
792.549	12263.19
792.882	12113.14
793.214	12023.88
793.546	12239.69
793.879	12091.9
794.211	11966.93
794.543	12039.47
794.875	11974.16
795.207	12024.78
795.539	11986.14
795.871	11942.3
796.203	11780.27
796.535	11874.5
796.867	11773.94
797.198	11669.99
797.53	11818.23
797.862	11657.79
798.193	11697.79
798.525	11648.97
798.856	11603.55
799.188	11538.69
799.519	11478.81
799.85	11367.85
800.182	11424.8
800.513	11349.77
800.844	11347.29
801.175	11350.45
801.506	11383.9
801.837	11319.26
802.168	11267.97
802.499	11185.48
802.83	11200.4
803.161	11146.39
803.491	11072.94
803.822	11089.67
804.153	11079.04
804.483	11024.13
804.814	10955.21
805.145	11002.44
805.475	11027.52
805.805	10928.99
806.136	10931.48
806.466	10900.29
806.796	10829.11
807.126	10776.23
807.457	10775.1
807.787	10723.8
808.117	10740.07
808.447	10664.59
808.777	10743.23
809.107	10597.02
809.436	10645.61
809.766	10629.11
810.096	10567.19
810.426	10569.91
810.755	10504.37
811.085	10492.17
811.414	10516.57
811.744	10363.36
812.073	10442.23
812.403	10429.12
812.732	10369.91
813.061	10308.22
813.39	10294.66
813.719	10279.52
814.049	10355.22
814.378	10228.45
814.707	10273.87
815.036	10247.2
815.365	10216.92
815.693	10126.3
816.022	10124.27
816.351	10091.95
816.68	10038.85
817.008	10050.82
817.337	10021.67
817.665	10016.93
817.994	10073.2
818.322	10009.02
818.651	9903.71
818.979	9861.22
819.307	9937.38
819.636	9904.84
819.964	9770.15
820.292	9891.28
820.62	9888.57
820.948	9817.38
821.276	9865.74
821.604	9863.26
821.932	9861
822.259	9862.58
822.587	9822.13
822.915	9824.84
823.243	9806.08
823.57	9767.44
823.898	9820.32
824.225	9854.22
824.553	9815.35
824.88	9742.58
825.207	9829.36
825.535	9759.53
825.862	9790.94
826.189	9857.16
826.516	9833.88
826.843	9906.65
827.17	9860.55
827.497	9798.4
827.824	9803.37
828.151	9880.88
828.478	9837.04
828.805	9772.19
829.131	9860.09
829.458	9755.01
829.785	9760.44
830.111	9806.54
830.438	9797.95
830.764	9748.68
831.09	9818.74
831.417	9777.84
831.743	9789.81
832.069	9816.03
832.395	9716.59
832.722	9796.37
833.048	9791.17
833.374	9810.38
833.7	9751.17
834.026	9729.7
834.351	9701.45
834.677	9805.41
835.003	9751.17
835.329	9756.37
835.654	9748.01
835.98	9680.89
836.306	9740.55
836.631	9619.65
836.956	9665.07
837.282	9676.14
837.607	9613.09
837.932	9712.53
838.258	9636.6
838.583	9609.25
838.908	9621.23
839.233	9569.71
839.558	9521.57
839.883	9504.4
840.208	9439.99
840.533	9555.47
840.858	9516.83
841.182	9502.82
841.507	9487.9
841.832	9402.03
842.156	9413.55
842.481	9435.7
842.805	9440.44
843.13	9372.42
843.454	9363.16
843.778	9313.44
844.103	9338.75
844.427	9301.92
844.751	9325.87
845.075	9292.65
845.399	9240
845.723	9148.7
846.047	9260.56
846.371	9058.53
846.695	9178.3
847.019	9079.1
847.343	9062.15
847.666	8922.49
847.99	8949.38
848.313	8887.24
848.637	8913.68
848.96	8912.1
849.284	8894.24
849.607	8871.65
849.931	8809.05
850.254	8705.1
850.577	8596.4
850.9	8656.74
851.223	8623.97
851.546	8562.5
851.869	8527.7
852.192	8572.22
852.515	8496.29
852.838	8499.45
853.161	8499.45
853.483	8463.07
853.806	8388.95
854.129	8375.84
854.451	8315.95
854.774	8293.81
855.096	8331.77
855.419	8273.02
855.741	8269.18
856.063	8174.26
856.385	8205
856.708	8179.91
857.03	8146.47
857.352	8139.01
857.674	8118.9
857.996	8059.24
858.318	7991.22
858.64	8049.75
858.961	7995.28
859.283	8008.84
859.605	7957.32
859.926	7979.92
860.248	7996.41
860.57	7940.6
860.891	7947.83
861.212	7923.42
861.534	7834.38
861.855	7829.41
862.176	7877.77
862.498	7814.72
862.819	7830.77
863.14	7807.27
863.461	7755.74
863.782	7749.87
864.103	7744.9
864.424	7791.67
864.745	7748.28
865.065	7705.35
865.386	7725.23
865.707	7707.61
866.027	7684.33
866.348	7613.6
866.668	7646.82
866.989	7612.7
867.309	7607.5
867.63	7581.96
867.95	7553.04
868.27	7571.34
868.59	7567.95
868.91	7539.93
869.23	7598.23
869.55	7501.29
869.87	7524.11
870.19	7472.13
870.51	7478.69
870.83	7492.02
871.15	7439.14
871.469	7459.7
871.789	7469.2
872.109	7443.89
872.428	7430.55
872.748	7496.99
873.067	7428.07
873.386	7470.33
873.706	7399.14
874.025	7335.87
874.344	7332.25
874.663	7408.18
874.982	7377.67
875.301	7327.51
875.62	7411.12
875.939	7361.4
876.258	7350.78
876.577	7265.81
876.896	7283.66
877.214	7285.47
877.533	7274.63
877.852	7214.97
878.17	7291.8
878.489	7246.15
878.807	7188.98
879.125	7185.36
879.444	7204.34
879.762	7203.44
880.08	7158.92
880.398	7185.14
880.716	7184.01
881.034	7144.46
881.352	7148.3
881.67	7119.6
881.988	7102.65
882.306	7098.13
882.624	7076.44
882.941	7089.32
883.259	7015.87
883.577	7009.1
883.894	6949.66
884.212	6968.87
884.529	6959.83
884.846	6988.08
885.164	6969.1
885.481	6928.87
885.798	6947.18
886.115	6919.61
886.432	6905.14
886.75	6877.8
887.067	6880.29
887.383	6806.61
887.7	6905.37
888.017	6799.16
888.334	6804.35
888.651	6757.8
888.967	6806.16
889.284	6788.76
889.6	6752.38
889.917	6707.63
890.233	6722.32
890.55	6703.79
890.866	6710.57
891.182	6653.62
891.498	6602.55
891.815	6533.4
892.131	6611.82
892.447	6564.81
892.763	6529.11
893.079	6541.76
893.395	6534.98
893.71	6491.59
894.026	6496.79
894.342	6447.98
894.657	6444.36
894.973	6412.05
895.289	6427.64
895.604	6364.14
895.92	6371.37
896.235	6344.71
896.55	6337.25
896.865	6278.49
897.181	6271.26
897.496	6265.16
897.811	6273.75
898.126	6229.68
898.441	6196.24
898.756	6184.48
899.071	6125.5
899.386	6136.35
899.7	6153.52
900.015	6093.19
900.33	6006.86
900.644	6053.41
900.959	6051.38
901.273	6024.26
901.588	5984.04
901.902	5977.26
902.216	5954.43
902.531	5938.84
902.845	5918.28
903.159	5906.75
903.473	5905.4
903.787	5851.61
904.101	5806.87
904.415	5798.73
904.729	5795.12
905.042	5798.96
905.356	5749.47
905.67	5735.91
905.984	5742.69
906.297	5702.01
906.611	5641.45
906.924	5634.67
907.237	5659.98
907.551	5697.94
907.864	5598.96
908.177	5635.12
908.491	5560.09
908.804	5596.48
909.117	5555.12
909.43	5462.24
909.743	5388.35
910.056	5455.24
910.368	5449.59
910.681	5398.74
910.994	5405.3
911.307	5362.36
911.619	5311.29
911.932	5385.18
912.244	5316.26
912.557	5284.62
912.869	5239.2
913.181	5234
913.494	5247.56
913.806	5231.74
914.118	5177.96
914.43	5162.14
914.742	5128.24
915.054	5115.13
915.366	5108.35
915.678	5089.15
915.99	5063.61
916.302	5043.5
916.613	5015.02
916.925	5049.6
917.236	5018.41
917.548	4992.65
917.859	4954.46
918.171	4945.19
918.482	4918.3
918.794	4885.76
919.105	4870.62
919.416	4845.31
919.727	4794.69
920.038	4819.55
920.349	4797.85
920.66	4751.08
920.971	4768.93
921.282	4740.91
921.593	4719.66
921.903	4691.64
922.214	4710.17
922.525	4644.41
922.835	4653.23
923.146	4596.96
923.456	4604.41
923.767	4570.52
924.077	4605.54
924.387	4562.61
924.697	4540.01
925.008	4523.96
925.318	4541.36
925.628	4489.16
925.938	4443.06
926.248	4461.82
926.558	4429.73
926.867	4424.98
927.177	4383.85
927.487	4357.87
927.796	4353.57
928.106	4348.15
928.416	4305.89
928.725	4307.02
929.034	4274.93
929.344	4291.43
929.653	4303.4
929.962	4230.86
930.271	4215.5
930.581	4180.47
930.89	4165.55
931.199	4130.98
931.508	4108.38
931.817	4159.45
932.125	4133.01
932.434	4154.03
932.743	4088.27
933.051	4085.1
933.36	4058.21
933.669	4012.79
933.977	4007.14
934.286	4033.58
934.594	3950.87
934.902	3930.08
935.21	3951.77
935.519	3935.05
935.827	3921.94
936.135	3890.31
936.443	3909.74
936.751	3878.33
937.059	3885.79
937.367	3808.5
937.674	3861.61
937.982	3811.21
938.29	3817.31
938.597	3825.9
938.905	3702.52
939.213	3749.29
939.52	3718.79
939.827	3712.23
940.135	3719.01
940.442	3710.88
940.749	3689.86
941.056	3726.47
941.363	3653.03
941.67	3674.04
941.977	3584.33
942.284	3604.21
942.591	3548.17
942.898	3566.25
943.205	3527.38
943.511	3531.22
943.818	3530.54
944.125	3469.98
944.431	3515.18
944.738	3483.54
945.044	3509.07
945.35	3434.27
945.657	3448.51
945.963	3424.1
946.269	3417.1
946.575	3388.4
946.881	3366.93
947.187	3411.9
947.493	3345.46
947.799	3329.64
948.105	3338.91
948.41	3302.75
948.716	3286.26
949.022	3253.04
949.327	3297.55
949.633	3243.54
949.938	3201.51
950.244	3250.1
950.549	3219.59
950.854	3203.77
951.16	3210.78
951.465	3142.76
951.77	3166.03
952.075	3159.03
952.38	3143.43
952.685	3167.16
952.99	3091.68
953.294	3115.64
953.599	3079.71
953.904	3046.26
954.209	3027.96
954.513	3078.35
954.818	3051.23
955.122	3012.36
955.426	2996.32
955.731	3010.78
956.035	2963.1
956.339	3003.78
956.643	2963.33
956.948	2936.66
957.252	2974.63
957.556	2903.21
957.86	2908.19
958.163	2894.18
958.467	2866.38
958.771	2845.14
959.075	2904.8
959.378	2867.28
959.682	2830
959.985	2817.12
960.289	2829.32
960.592	2768.3
960.896	2824.57
961.199	2774.86
961.502	2771.24
961.805	2769.21
962.108	2730.34
962.411	2744.35
962.714	2749.09
963.017	2707.29
963.32	2707.51
963.623	2690.56
963.926	2682.88
964.228	2699.83
964.531	2676.33
964.833	2646.05
965.136	2627.74
965.438	2617.8
965.741	2618.7
966.043	2627.97
966.345	2624.58
966.648	2577.8
966.95	2586.84
967.252	2569.89
967.554	2572.15
967.856	2548.65
968.158	2526.05
968.46	2525.6
968.761	2545.03
969.063	2490.8
969.365	2467.75
969.666	2502.32
969.968	2461.87
970.269	2437.01
970.571	2448.54
970.872	2387.52
971.174	2440.18
971.475	2422.1
971.776	2400.4
972.077	2428.88
972.378	2401.76
972.679	2383.68
972.98	2368.09
973.281	2361.08
973.582	2349.56
973.883	2356.79
974.183	2355.66
974.484	2309.56
974.785	2301.2
975.085	2288.54
975.386	2296.22
975.686	2312.5
975.986	2328.77
976.287	2283.34
976.587	2246.96
976.887	2252.38
977.187	2232.05
977.487	2249.9
977.787	2240.18
978.087	2200.18
978.387	2217.81
978.687	2241.09
978.987	2190.01
979.286	2176.91
979.586	2156.79
979.885	2174.65
980.185	2166.74
980.484	2146.62
980.784	2111.82
981.083	2155.89
981.382	2125.38
981.682	2103.01
981.981	2098.94
982.28	2097.36
982.579	2104.59
982.878	2071.37
983.177	2056.68
983.475	2068.89
983.774	2064.59
984.073	2052.39
984.372	2063.46
984.67	2044.25
984.969	2007.87
985.267	2010.58
985.566	1997.25
985.864	1970.58
986.162	1975.1
986.461	1976.23
986.759	1969.68
987.057	1957.93
987.355	1940.53
987.653	1971.26
987.951	1948.66
988.249	1934.88
988.547	1918.83
988.844	1912.51
989.142	1923.13
989.44	1894.88
989.737	1868.21
990.035	1886.74
990.332	1865.05
990.63	1884.26
990.927	1842.45
991.224	1842.9
991.521	1858.04
991.819	1813.98
992.116	1820.76
992.413	1816.92
992.71	1807.88
993.006	1778.05
993.303	1828.44
993.6	1765.17
993.897	1757.48
994.193	1794.77
994.49	1770.36
994.787	1763.58
995.083	1755.22
995.379	1717.71
995.676	1747.99
995.972	1713.64
996.268	1719.52
996.565	1708.9
996.861	1686.07
997.157	1673.19
997.453	1685.17
997.749	1653.53
998.044	1658.95
998.34	1667.54
998.636	1666.19
998.932	1627.32
999.227	1626.19
999.523	1650.59
999.818	1612.18
1000.114	1619.41
1000.409	1606.75
1000.704	1597.71
1001	1605.4
1001.295	1543.93
1001.59	1582.8
1001.885	1557.94
1002.18	1566.53
1002.475	1559.52
1002.77	1568.56
1003.065	1516.81
1003.359	1535.57
1003.654	1501.9
1003.949	1505.06
1004.243	1491.27
1004.538	1482.46
1004.832	1496.7
1005.127	1494.89
1005.421	1464.61
1005.715	1471.16
1006.009	1445.85
1006.304	1463.03
1006.598	1437.94
1006.892	1413.99
1007.186	1419.86
1007.48	1414.44
1007.773	1409.47
1008.067	1397.72
1008.361	1395.46
1008.655	1381.45
1008.948	1381.22
1009.242	1355.01
1009.535	1348
1009.829	1345.74
1010.122	1326.53
1010.415	1369.7
1010.708	1341.67
1011.001	1346.19
1011.295	1317.95
1011.588	1278.4
1011.881	1287.21
1012.173	1301.22
1012.466	1319.75
1012.759	1305.29
1013.052	1292.18
1013.344	1274.56
1013.637	1273.65
1013.93	1275.23
1014.222	1255.8
1014.514	1257.61
1014.807	1261.68
1015.099	1253.09
1015.391	1233.88
1015.683	1244.73
1015.976	1229.59
1016.268	1211.73
1016.56	1219.19
1016.851	1202.02
1017.143	1199.3
1017.435	1168.8
1017.727	1181.45
1018.018	1166.31
1018.31	1160.66
1018.602	1151.4
1018.893	1150.27
1019.185	1164.5
1019.476	1129.7
1019.767	1140.55
1020.058	1138.29
1020.35	1124.5
1020.641	1107.78
1020.932	1096.03
1021.223	1106.65
1021.514	1122.02
1021.804	1091.96
1022.095	1046.31
1022.386	1060.55
1022.677	1059.65
1022.967	1068.01
1023.258	1070.04
1023.548	1045.86
1023.839	1039.53
1024.129	1039.99
1024.419	1025.3
1024.709	1035.69
1025	1013.77
1025.29	1004.73
1025.58	1006.99
1025.87	1015.35
1026.16	980.33
1026.449	997.73
1026.739	998.41
1027.029	983.04
1027.319	980.78
1027.608	956.37
1027.898	941.46
1028.187	1000.89
1028.477	947.79
1028.766	956.15
1029.055	929.71
1029.344	934.9
1029.634	908.69
1029.923	926.09
1030.212	903.72
1030.501	881.35
1030.79	903.95
1031.078	893.1
1031.367	884.74
1031.656	897.62
1031.945	889.48
1032.233	858.3
1032.522	874.34
1032.81	837.51
1033.099	879.09
1033.387	862.14
1033.675	861.46
1033.963	846.32
1034.251	855.81
1034.54	826.66
1034.828	835.92
1035.116	815.36
1035.403	831.63
1035.691	834.34
1035.979	847.22
1036.267	800.67
1036.554	815.59
1036.842	810.39
1037.129	814.23
1037.417	806.77
1037.704	807.68
1037.992	782.14
1038.279	796.15
1038.566	783.27
1038.853	783.27
1039.14	783.27
