Data from cardboard_FLMS001491_068.txt Node
Date: Tue Feb 07 11:39:57 GMT 2017
User: dcchb
Spectrometer: FLMS00149
Trigger mode: 0
Integration Time (sec): 2.000000E-2
Scans to average: 10
Electric dark correction enabled: true
Nonlinearity correction enabled: false
Boxcar width: 0
XAxis mode: Wavelengths
Number of Pixels in Spectrum: 2048
>>>>>Begin Spectral Data<<<<<
341.393	5.2
341.776	5.2
342.16	5.2
342.543	-78.87
342.927	-70.28
343.31	-67.57
343.693	-78.19
344.077	-68.02
344.46	-69.6
344.843	-51.75
345.226	-17.4
345.61	-25.76
345.993	-33.9
346.376	-7.46
346.759	8.59
347.142	41.81
347.525	44.97
347.908	69.38
348.291	47.91
348.674	91.3
349.057	115.7
349.44	126.78
349.823	151.63
350.206	169.49
350.588	199.77
350.971	209.49
351.354	221.24
351.737	204.74
352.119	241.8
352.502	255.59
352.884	285.19
353.267	286.55
353.65	281.8
354.032	283.61
354.414	290.61
354.797	308.01
355.179	341.01
355.562	302.82
355.944	332.87
356.326	329.93
356.709	334.45
357.091	314.57
357.473	347.56
357.855	355.7
358.238	327.22
358.62	346.88
359.002	338.07
359.384	343.27
359.766	351.63
360.148	340.1
360.53	348.01
360.912	359.09
361.294	331.52
361.676	342.36
362.057	332.42
362.439	336.26
362.821	314.34
363.203	336.94
363.584	334.68
363.966	321.12
364.348	342.82
364.729	317.28
365.111	327.45
365.493	344.4
365.874	328.8
366.256	320.22
366.637	291.29
367.019	317.73
367.4	327.45
367.781	294.68
368.163	328.13
368.544	310.5
368.925	337.62
369.306	327.67
369.688	326.55
370.069	314.57
370.45	317.51
370.831	324.96
371.212	319.77
371.593	345.53
371.974	314.12
372.355	321.57
372.736	330.61
373.117	319.54
373.498	314.79
373.879	308.69
374.26	321.35
374.641	326.55
375.021	325.42
375.402	332.19
375.783	317.51
376.163	330.39
376.544	349.6
376.925	353.89
377.305	330.16
377.686	342.36
378.066	330.39
378.447	332.87
378.827	341.69
379.208	343.95
379.588	346.66
379.968	361.35
380.349	346.43
380.729	352.76
381.109	349.14
381.489	365.41
381.87	334.68
382.25	342.14
382.63	345.53
383.01	348.24
383.39	343.27
383.77	337.39
384.15	374.91
384.53	360.44
384.91	363.38
385.29	344.4
385.67	371.06
386.049	366.32
386.429	366.32
386.809	380.78
387.189	359.76
387.568	384.85
387.948	366.09
388.328	376.94
388.707	378.3
389.087	393.21
389.466	374.91
389.846	371.29
390.225	387.56
390.605	392.76
390.984	390.72
391.363	396.15
391.743	388.69
392.122	378.97
392.501	388.46
392.881	404.74
393.26	408.58
393.639	389.59
394.018	409.93
394.397	397.28
394.776	407.67
395.155	389.59
395.534	384.17
395.913	402.93
396.292	404.06
396.671	403.83
397.05	423.94
397.429	395.24
397.808	423.04
398.186	400.44
398.565	429.82
398.944	414
399.323	416.03
399.701	416.03
400.08	432.31
400.458	430.5
400.837	444.06
401.215	421.68
401.594	432.53
401.972	444.28
402.351	440.67
402.729	450.84
403.107	444.51
403.486	450.84
403.864	449.48
404.242	462.81
404.62	464.85
404.999	450.16
405.377	473.66
405.755	451.06
406.133	451.51
406.511	472.98
406.889	493.55
407.267	494.22
407.645	475.92
408.023	489.48
408.401	480.89
408.779	488.8
409.156	494.22
409.534	509.82
409.912	483.6
410.29	517.95
410.667	514.56
411.045	530.16
411.422	498.52
411.8	532.42
412.178	519.08
412.555	520.21
412.933	533.55
413.31	563.6
413.687	541.68
414.065	552.75
414.442	552.53
414.819	575.8
415.197	559.31
415.574	588.91
415.951	561.79
416.328	579.19
416.705	592.98
417.082	568.57
417.46	579.87
417.837	582.36
418.214	595.69
418.591	605.63
418.967	585.3
419.344	604.96
419.721	615.8
420.098	611.06
420.475	614.67
420.852	612.19
421.228	604.28
421.605	627.33
421.982	628.68
422.358	624.16
422.735	651.73
423.111	639.08
423.488	654.9
423.864	662.13
424.241	663.26
424.617	666.42
424.994	678.63
425.37	689.93
425.746	660.77
426.123	679.3
426.499	667.78
426.875	689.93
427.251	714.11
427.627	711.85
428.003	719.98
428.379	699.42
428.756	732.64
429.132	706.65
429.507	742.35
429.883	731.96
430.259	746.2
430.635	736.93
431.011	779.87
431.387	774.89
431.763	792.52
432.138	790.26
432.514	805.85
432.89	786.87
433.265	797.72
433.641	799.3
434.016	829.81
434.392	809.02
434.767	847.21
435.143	842.01
435.518	831.39
435.894	869.13
436.269	844.27
436.644	859.19
437.02	885.17
437.395	879.07
437.77	891.5
438.145	913.87
438.52	904.38
438.895	936.7
439.271	900.09
439.646	921.11
440.021	938.51
440.395	918.17
440.77	936.47
441.145	961.78
441.52	974.89
441.895	978.51
442.27	999.97
442.645	964.27
443.019	978.73
443.394	964.27
443.769	987.09
444.143	977.6
444.518	1005.85
444.892	1004.27
445.267	1007.88
445.641	1037.49
446.016	1028.67
446.39	1020.54
446.764	1043.36
447.139	1041.1
447.513	1055.34
447.887	1062.8
448.262	1051.05
448.636	1079.97
449.01	1075.45
449.384	1090.59
449.758	1093.3
450.132	1112.97
450.506	1096.02
450.88	1133.98
451.254	1107.77
451.628	1127.88
452.002	1146.64
452.376	1171.49
452.75	1137.82
453.123	1177.6
453.497	1178.5
453.871	1196.58
454.244	1195.67
454.618	1223.7
454.992	1216.92
455.365	1221.21
455.739	1256.69
456.112	1259.85
456.486	1255.79
456.859	1308.44
457.232	1291.04
457.606	1317.48
457.979	1341.43
458.352	1347.99
458.725	1342.56
459.099	1363.35
459.472	1402.45
459.845	1395.67
460.218	1421.66
460.591	1430.24
460.964	1416.69
461.337	1460.3
461.71	1485.61
462.083	1503.46
462.456	1474.99
462.829	1489.45
463.201	1542.33
463.574	1561.09
463.947	1565.38
464.32	1595.66
464.692	1619.39
465.065	1591.82
465.438	1664.36
465.81	1662.78
466.183	1651.26
466.555	1683.35
466.928	1706.17
467.3	1715.21
467.672	1749.11
468.045	1777.13
468.417	1801.31
468.789	1804.7
469.161	1825.94
469.534	1866.17
469.906	1884.24
470.278	1898.03
470.65	1869.78
471.022	1970.57
471.394	1987.52
471.766	2003.11
472.138	2033.62
472.51	2056.22
472.882	2076.56
473.253	2126.95
473.625	2154.75
473.997	2158.36
474.369	2194.29
474.74	2230.68
475.112	2272.26
475.484	2308.19
475.855	2312.26
476.227	2343.67
476.598	2470.44
476.97	2453.04
477.341	2500.95
477.713	2518.8
478.084	2522.65
478.455	2586.6
478.827	2622.98
479.198	2700.72
479.569	2691.68
479.94	2781.17
480.311	2847.38
480.682	2877.89
481.053	2936.87
481.424	2968.51
481.795	3009.86
482.166	3088.05
482.537	3085.79
482.908	3164.44
483.279	3181.61
483.65	3260.71
484.021	3314.72
484.391	3351.55
484.762	3435.62
485.133	3426.8
485.503	3468.61
485.874	3569.85
486.244	3624.09
486.615	3656.4
486.985	3699.79
487.356	3792.67
487.726	3824.98
488.097	3880.35
488.467	3881.48
488.837	3963.96
489.207	4063.62
489.578	4076.05
489.948	4168.25
490.318	4209.61
490.688	4185.65
491.058	4325.54
491.428	4362.15
491.798	4383.39
492.168	4516.49
492.538	4547.45
492.908	4580.44
493.278	4668.58
493.648	4683.04
494.017	4761.23
494.387	4766.88
494.757	4808.46
495.126	4942.69
495.496	4911.28
495.866	4974.56
496.235	5090.49
496.605	5097.72
496.974	5168.68
497.344	5165.06
497.713	5278.96
498.082	5276.02
498.452	5384.49
498.821	5394.21
499.19	5422
499.559	5517.6
499.928	5570.47
500.298	5567.31
500.667	5633.52
501.036	5713.97
501.405	5726.4
501.774	5771.37
502.143	5862.22
502.512	5876.46
502.88	5951.48
503.249	5998.94
503.618	6066.28
503.987	6092.04
504.356	6104.47
504.724	6166.62
505.093	6217.24
505.462	6283.45
505.83	6315.09
506.199	6403.45
506.567	6476.67
506.936	6507.17
507.304	6570.9
507.672	6622.65
508.041	6665.36
508.409	6775.42
508.777	6815.19
509.145	6888.41
509.514	6922.53
509.882	6960.04
510.25	7054.5
510.618	7150.77
510.986	7130.21
511.354	7313.71
511.722	7332.01
512.09	7379.47
512.458	7397.77
512.826	7539.46
513.193	7585.56
513.561	7565.68
513.929	7769.74
514.297	7806.12
514.664	7870.98
515.032	7977.42
515.4	8012.44
515.767	8081.37
516.135	8144.19
516.502	8098.77
516.869	8290.18
517.237	8355.94
517.604	8355.49
517.972	8485.2
518.339	8586.89
518.706	8629.6
519.073	8638.42
519.44	8783.95
519.808	8923.83
520.175	8889.26
520.542	9091.96
520.909	9145.3
521.276	9202.7
521.643	9336.7
522.009	9396.82
522.376	9551.16
522.743	9561.33
523.11	9719.97
523.477	9838.84
523.843	9894.43
524.21	10004.03
524.577	10134.2
524.943	10188.43
525.31	10227.53
525.676	10357.47
526.043	10451.7
526.409	10526.5
526.776	10688.98
527.142	10686.95
527.508	10829.77
527.874	10929.2
528.241	11032.25
528.607	11111.57
528.973	11196.32
529.339	11276.09
529.705	11360.61
530.071	11547.27
530.437	11578.23
530.803	11712.91
531.169	11873.81
531.535	11841.5
531.901	11961.49
532.267	12010.53
532.632	12177.76
532.998	12207.59
533.364	12213.46
533.73	12457.3
534.095	12545.66
534.461	12568.26
534.826	12696.62
535.192	12691.19
535.557	12885.76
535.923	12909.49
536.288	13049.83
536.653	13130.95
537.019	13134.34
537.384	13247.56
537.749	13380.67
538.114	13374.11
538.479	13452.75
538.845	13564.39
539.21	13596.48
539.575	13676.02
539.94	13866.98
540.305	13950.82
540.67	13956.92
541.034	14011.38
541.399	14082.12
541.764	14216.12
542.129	14233.07
542.494	14372.28
542.858	14476
543.223	14435.55
543.587	14649.11
543.952	14694.98
544.316	14703.79
544.681	14783.79
545.045	14846.62
545.41	15031.47
545.774	15061.75
546.138	15090.68
546.503	15154.18
546.867	15210
547.231	15491.34
547.595	15448.41
547.959	15612.24
548.324	15657.22
548.688	15729.76
549.052	15729.76
549.416	15933.14
549.779	15968.39
550.143	16018.56
550.507	16167.03
550.871	16195.96
551.235	16330.64
551.599	16375.61
551.962	16607.92
552.326	16575.38
552.689	16708.94
553.053	16741.25
553.417	16747.81
553.78	17091.75
554.143	16973.34
554.507	17200.9
554.87	17190.28
555.234	17413.33
555.597	17304.18
555.96	17439.32
556.323	17599.76
556.686	17627.11
557.05	17902.58
557.413	17956.14
557.776	18014.22
558.139	18221.67
558.502	18308.22
558.865	18282.91
559.228	18438.39
559.59	18554.09
559.953	18594.31
560.316	18804.93
560.679	18953.63
561.041	19013.96
561.404	19096
561.767	19214.18
562.129	19321.98
562.492	19494.18
562.854	19594.29
563.217	19629.31
563.579	19650.56
563.941	19846.03
564.304	19947.5
564.666	20226.36
565.028	20268.17
565.39	20323.99
565.753	20504.77
566.115	20639.23
566.477	20535.73
566.839	20763.75
567.201	21004.65
567.563	20983.18
567.925	21225.43
568.287	21180.23
568.648	21253.45
569.01	21491.86
569.372	21649.37
569.734	21574.12
570.095	21716.49
570.457	21939.54
570.819	21841.01
571.18	22086.88
571.542	22166.42
571.903	22225.18
572.265	22245.52
572.626	22483.7
572.987	22489.13
573.349	22585.85
573.71	22784.26
574.071	22885.05
574.432	22903.35
574.794	23153.52
575.155	23079.62
575.516	23110.58
575.877	23155.1
576.238	23313.29
576.599	23481.64
576.96	23490.46
577.32	23612.71
577.681	23664.91
578.042	23705.37
578.403	23848.19
578.763	23873.72
579.124	23885.93
579.485	24002.76
579.845	24192.58
580.206	24150.55
580.566	24177.22
580.927	24190.78
581.287	24362.98
581.648	24337.21
582.008	24488.17
582.368	24556.64
582.728	24678.9
583.089	24524.55
583.449	24674.15
583.809	24607.71
584.169	24838.89
584.529	24760.7
584.889	25041.83
585.249	24882.51
585.609	24756.86
585.969	25042.96
586.329	25045.9
586.688	25080.24
587.048	25111.66
587.408	25110.98
587.768	25184.42
588.127	25265.78
588.487	25208.6
588.846	25417.41
589.206	25287.24
589.565	25386.23
589.925	25560.68
590.284	25498.09
590.643	25543.06
591.003	25665.31
591.362	25709.38
591.721	25765.2
592.08	25753.9
592.44	25847.91
592.799	25818.98
593.158	25843.39
593.517	25811.75
593.876	25884.52
594.235	25998.86
594.593	26024.63
594.952	26082.25
595.311	26043.83
595.67	26170.61
596.029	26310.04
596.387	26271.17
596.746	26417.38
597.104	26409.7
597.463	26367.89
597.822	26541.45
598.18	26383.94
598.538	26493.54
598.897	26636.14
599.255	26379.87
599.613	26814.66
599.972	26512.98
600.33	26710.26
600.688	26666.64
601.046	26675.23
601.404	26899.41
601.762	26881.33
602.12	26997.93
602.478	27052.62
602.836	27093.07
603.194	27005.84
603.552	27029.57
603.91	27004.26
604.268	27219.4
604.625	27091.49
604.983	27258.49
605.341	27180.53
605.698	27332.61
606.056	27425.04
606.413	27467.53
606.771	27496.23
607.128	27490.12
607.485	27572.16
607.843	27579.84
608.2	27649.22
608.557	27837.46
608.914	27655.54
609.272	27852.38
609.629	27895.99
609.986	28148.19
610.343	27872.49
610.7	28181.41
611.057	28182.31
611.414	28185.25
611.771	28266.83
612.127	28353.6
612.484	28282.87
612.841	28429.08
613.198	28220.05
613.554	28414.17
613.911	28641.51
614.267	28511.57
614.624	28483.54
614.98	28624.56
615.337	28801.95
615.693	28883.99
616.05	28869.07
616.406	28959.01
616.762	28785.23
617.118	28947.94
617.475	29016.64
617.831	28995.62
618.187	29128.73
618.543	29216.86
618.899	29394.48
619.255	29320.13
619.611	29323.75
619.967	29364.43
620.323	29429.96
620.678	29415.5
621.034	29246.69
621.39	29368.72
621.746	29331.88
622.101	29799.67
622.457	29579.34
622.812	29579.79
623.168	29682.38
623.523	29715.15
623.879	29739.56
624.234	29569.84
624.589	29637.64
624.945	29799.44
625.3	29684.19
625.655	29730.29
626.01	29733.23
626.365	29851.19
626.72	29932.77
627.075	29837.41
627.43	29779.1
627.785	29725.32
628.14	29860.68
628.495	29899.55
628.85	29898.42
629.205	29845.09
629.559	30012.09
629.914	29823.85
630.269	29895.94
630.623	29845.09
630.978	29851.42
631.332	30073.33
631.687	30116.27
632.041	29857.07
632.396	29948.59
632.75	29760.57
633.104	29884.19
633.459	29826.79
633.813	29855.49
634.167	29766
634.521	29818.2
634.875	29783.62
635.229	29761.03
635.583	29627.92
635.937	29745.66
636.291	29719.44
636.645	29756.73
636.999	29661.14
637.352	29716.96
637.706	29656.4
638.06	29649.39
638.413	29547.7
638.767	29608.94
639.121	29633.57
639.474	29424.54
639.828	29462.28
640.181	29496.4
640.534	29655.04
640.888	29531.2
641.241	29400.81
641.594	29496.85
641.947	29561.71
642.301	29514.48
642.654	29507.25
643.007	29545.21
643.36	29515.83
643.713	29508.15
644.066	29574.14
644.419	29469.73
644.771	29142.51
645.124	28890.54
645.477	28843.76
645.83	28724.44
646.182	28741.39
646.535	28697.78
646.888	28799.47
647.24	28580.04
647.593	28634.28
647.945	28666.36
648.298	28621.39
648.65	28520.38
649.002	28450.78
649.355	28581.17
649.707	28523.09
650.059	28639.25
650.411	29017.32
650.763	29093.47
651.115	29347.7
651.467	29233.36
651.819	29318.78
652.171	29194.03
652.523	29089.18
652.875	29117.43
653.227	29105.45
653.578	29262.28
653.93	29199.46
654.282	29044.89
654.633	29030.88
654.985	29171.44
655.337	29097.99
655.688	29157.65
656.039	29253.47
656.391	28997.43
656.742	28929.18
657.094	29169.18
657.445	29169.63
657.796	29169.63
658.147	29006.92
658.498	29037.2
658.849	29126.01
659.2	29029.07
659.551	29099.35
659.902	29205.79
660.253	29132.12
660.604	29066.81
660.955	29030.42
661.306	29192.23
661.656	29055.06
662.007	29071.55
662.358	29139.8
662.708	29129.4
663.059	29112
663.409	28929.86
663.76	29219.57
664.11	29170.76
664.461	29232.68
664.811	29134.15
665.161	29216.63
665.511	29015.51
665.862	29153.36
666.212	29252.34
666.562	29213.24
666.912	29227.48
667.262	29212.79
667.612	29147.26
667.962	29195.84
668.312	29244.65
668.662	29305.67
669.011	29259.57
669.361	29169.18
669.711	29156.52
670.06	29084.66
670.41	29045.11
670.76	29093.47
671.109	29196.97
671.459	29140.48
671.808	29082.85
672.157	29122.17
672.507	28942.74
672.856	29129.63
673.205	29030.65
673.554	29049.18
673.904	29051.21
674.253	29212.34
674.602	28937.77
674.951	28688.51
675.3	28603.32
675.649	29110.42
675.998	29055.51
676.346	28981.84
676.695	29121.72
677.044	28877.66
677.393	29031.78
677.741	28998.33
678.09	28971.89
678.438	28887.38
678.787	28916.75
679.135	28985.68
679.484	28738.23
679.832	28924.89
680.181	28716.08
680.529	28812.35
680.877	28806.47
681.225	28749.53
681.573	28848.96
681.922	28702.75
682.27	28683.09
682.618	28618.46
682.966	28571.45
683.314	28687.83
683.661	28512.47
684.009	28494.17
684.357	28365.13
684.705	28343.66
685.053	28512.7
685.4	28402.19
685.748	28334.62
686.095	28275.41
686.443	28124.46
686.79	28141.63
687.138	28259.37
687.485	28194.29
687.832	27989.77
688.18	28127.4
688.527	27992.26
688.874	28058.25
689.221	27826.39
689.568	27814.41
689.915	27837.23
690.262	27841.75
690.609	27801.3
690.956	27655.77
691.303	27725.82
691.65	27596.34
691.997	27674.53
692.344	27427.53
692.69	27323.8
693.037	27404.25
693.383	27152.96
693.73	27249.23
694.077	27153.18
694.423	27099.63
694.769	27046.07
695.116	26978.27
695.462	26914.77
695.808	27039.52
696.155	26905.28
696.501	26834.55
696.847	26788.22
697.193	26478.85
697.539	26655.34
697.885	26484.5
698.231	26269.37
698.577	26476.14
698.923	26371.28
699.269	26305.75
699.614	26141.69
699.96	26102.59
700.306	26155.92
700.651	26027.56
700.997	25974.46
701.342	25927.68
701.688	25973.1
702.033	25833.22
702.379	25767.46
702.724	25706.22
703.069	25771.75
703.415	25391.42
703.76	25517.07
704.105	25515.71
704.45	25470.29
704.795	25305.55
705.14	25384.19
705.485	25160.69
705.83	25111.66
706.175	25157.3
706.52	25060.58
706.865	25056.52
707.209	25072.11
707.554	24931.32
707.899	24958.44
708.243	24868.05
708.588	24884.77
708.932	24722.29
709.277	24677.32
709.621	24703.08
709.966	24565.68
710.31	24702.63
710.654	24438
710.998	24550.09
711.342	24440.49
711.687	24440.94
712.031	24264.22
712.375	24292.92
712.719	24357.1
713.063	24325.46
713.407	24311.9
713.75	24184.45
714.094	24217.67
714.438	24069.65
714.782	24066.26
715.125	23991.91
715.469	23983.32
715.812	23926.6
716.156	23840.5
716.499	23923.89
716.843	23818.81
717.186	23744.23
717.53	23858.81
717.873	23870.78
718.216	23765.25
718.559	23670.34
718.902	23490.68
719.246	23625.59
719.589	23528.87
719.932	23490
720.275	23432.6
720.617	23421.76
720.96	23443.23
721.303	23366.39
721.646	23363
721.989	23255.66
722.331	23395.54
722.674	23323.23
723.016	23302.21
723.359	23246.17
723.701	23299.95
724.044	23175.44
724.386	23077.81
724.729	23192.38
725.071	23138.6
725.413	23137.24
725.755	23113.06
726.097	23067.64
726.439	22949.68
726.782	22933.86
727.124	23043.24
727.465	22926.4
727.807	22970.47
728.149	22850.7
728.491	22967.53
728.833	23000.98
729.175	22866.07
729.516	22812.73
729.858	22881.66
730.199	22703.81
730.541	22848.44
730.882	22745.16
731.224	22748.33
731.565	22577.49
731.906	22683.7
732.248	22711.04
732.589	22625.85
732.93	22463.59
733.271	22642.12
733.612	22619.29
733.953	22558.28
734.294	22483.02
734.635	22497.26
734.976	22534.1
735.317	22465.17
735.658	22396.02
735.999	22464.72
736.339	22346.53
736.68	22392.41
737.021	22378.17
737.361	22277.61
737.702	22374.33
738.042	22343.59
738.383	22290.26
738.723	22464.49
739.063	22244.39
739.404	22297.04
739.744	22315.8
740.084	22237.38
740.424	22273.99
740.764	22160.32
741.104	22345.18
741.444	22163.49
741.784	22221.11
742.124	22160.1
742.464	22172.07
742.804	22172.98
743.143	22020.89
743.483	22179.76
743.823	21940.67
744.162	21981.57
744.502	22036.93
744.841	22017.5
745.181	22119.42
745.52	21965.07
745.86	21985.18
746.199	21989.93
746.538	21851.63
746.877	22028.12
747.216	21966.2
747.556	21867
747.895	21897.05
748.234	21822.93
748.573	21777.51
748.911	21812.31
749.25	21876.49
749.589	21851.18
749.928	21809.37
750.267	21810.05
750.605	21767.79
750.944	21814.79
751.283	21663.39
751.621	21740.67
751.96	21556.72
752.298	21723.95
752.636	21715.81
752.975	21663.84
753.313	21518.53
753.651	21574.12
753.989	21546.33
754.327	21523.28
754.666	21340.46
755.004	21450.51
755.342	21535.03
755.679	21468.59
756.017	21432.88
756.355	21303.39
756.693	21309.27
757.031	21345.65
757.368	21209.84
757.706	21282.83
758.044	21140.69
758.381	21172.55
758.719	21078.32
759.056	21044.64
759.394	21070.41
759.731	20865.67
760.068	20891.43
760.405	20906.34
760.743	20815.27
761.08	20807.14
761.417	20637.88
761.754	20699.57
762.091	20767.14
762.428	20703.86
762.765	20528.95
763.102	20582.96
763.438	20489.63
763.775	20411.67
764.112	20543.19
764.449	20437.2
764.785	20353.59
765.122	20254.38
765.458	20231.33
765.795	20254.83
766.131	20120.6
766.467	20131
766.804	20000.15
767.14	19971.9
767.476	19916.54
767.812	19920.61
768.148	19923.54
768.485	19787.05
768.821	19679.71
769.157	19587.51
769.492	19542.99
769.828	19596.55
770.164	19433.16
770.5	19358.59
770.836	19465.48
771.171	19307.06
771.507	19213.28
771.842	19176.67
772.178	19161.53
772.513	19058.71
772.849	19052.15
773.184	19009.67
773.519	18948.43
773.855	18837.7
774.19	18657.14
774.525	18691.71
774.86	18677.47
775.195	18611.26
775.53	18644.71
775.865	18527.87
776.2	18339.63
776.535	18308.67
776.87	18286.75
777.205	18290.82
777.539	18127.43
777.874	18259.18
778.209	18024.16
778.543	17976.25
778.878	17889.25
779.212	17925.18
779.547	17831.17
779.881	17805.86
780.215	17742.36
780.55	17734.9
780.884	17584.85
781.218	17638.41
781.552	17613.32
781.886	17493.55
782.22	17487.45
782.554	17313.9
782.888	17262.6
783.222	17228.7
783.556	17155.93
783.889	17049.95
784.223	17001.59
784.557	16929.95
784.89	16985.09
785.224	16848.14
785.557	16817.86
785.891	16703.29
786.224	16786.9
786.558	16720.24
786.891	16522.28
787.224	16500.36
787.557	16363.86
787.891	16477.98
788.224	16515.95
788.557	16420.13
788.89	16277.31
789.223	16309.4
789.556	16113.25
789.888	16178.56
790.221	16146.69
790.554	15955.74
790.887	16006.36
791.219	15893.82
791.552	15894.27
791.884	15840.71
792.217	15874.84
792.549	15788.51
792.882	15632.36
793.214	15601.85
793.546	15661.51
793.879	15486.82
794.211	15521.4
794.543	15584.45
794.875	15402.53
795.207	15489.08
795.539	15292.25
795.871	15367.73
796.203	15249.54
796.535	15181.75
796.867	15104.91
797.198	15057.68
797.53	15052.94
797.862	14959.61
798.193	15020.85
798.525	14884.58
798.856	14841.42
799.188	14818.14
799.519	14713.96
799.85	14696.79
800.182	14664.7
800.513	14724.36
800.844	14571.14
801.175	14639.39
801.506	14617.69
801.837	14571.82
802.168	14476
802.499	14405.95
802.83	14408.66
803.161	14386.74
803.491	14306.29
803.822	14316.91
804.153	14165.5
804.483	14156.46
804.814	14116.92
805.145	14014.09
805.475	14137.48
805.805	14035.34
806.136	13967.54
806.466	13901.56
806.796	13999.63
807.126	13871.5
807.457	13805.29
807.787	13852.97
808.117	13782.01
808.447	13688.45
808.777	13770.26
809.107	13663.82
809.436	13610.94
809.766	13710.37
810.096	13565.07
810.426	13494.33
810.755	13557.16
811.085	13466.99
811.414	13484.39
811.744	13428.8
812.073	13370.5
812.403	13415.01
812.732	13287.56
813.061	13288.69
813.39	13186.77
813.719	13193.1
814.049	13228.35
814.378	13177.96
814.707	13134.34
815.036	13116.94
815.365	13079.66
815.693	13022.03
816.022	12964.4
816.351	12968.7
816.68	12864.29
817.008	12914.91
817.337	12779.33
817.665	12851.87
817.994	12862.71
818.322	12842.37
818.651	12799.89
818.979	12695.03
819.307	12755.37
819.636	12806.89
819.964	12626.11
820.292	12748.82
820.62	12709.5
820.948	12636.73
821.276	12664.98
821.604	12650.97
821.932	12652.55
822.259	12662.72
822.587	12631.98
822.915	12597.18
823.243	12610.74
823.57	12620.69
823.898	12607.35
824.225	12589.5
824.553	12560.35
824.88	12539.78
825.207	12620.69
825.535	12592.66
825.862	12611.42
826.189	12572.55
826.516	12652.32
826.843	12624.75
827.17	12611.19
827.497	12624.75
827.824	12631.08
828.151	12772.09
828.478	12606.22
828.805	12695.71
829.131	12568.48
829.458	12555.83
829.785	12467.24
830.111	12557.41
830.438	12673.79
830.764	12601.02
831.09	12606.22
831.417	12538.65
831.743	12606.22
832.069	12571.42
832.395	12493
832.722	12608.03
833.048	12456.62
833.374	12531.65
833.7	12514.25
834.026	12443.51
834.351	12562.38
834.677	12527.81
835.003	12491.65
835.329	12466.79
835.654	12455.04
835.98	12420.69
836.306	12468.37
836.631	12339.56
836.956	12403.29
837.282	12433.12
837.607	12322.61
837.932	12277.42
838.258	12343.86
838.583	12276.06
838.908	12325.55
839.233	12276.06
839.558	12175.73
839.883	12147.7
840.208	12058.21
840.533	12156.97
840.858	12157.87
841.182	12175.73
841.507	12144.99
841.832	12093.47
842.156	12061.15
842.481	12086.46
842.805	11977.76
843.13	11933.47
843.454	11974.37
843.778	11912.91
844.103	11869.97
844.427	11879.69
844.751	11917.43
845.075	11861.38
845.399	11854.6
845.723	11725.57
846.047	11762.85
846.371	11591.33
846.695	11693.48
847.019	11584.33
847.343	11567.38
847.666	11525.12
847.99	11515.63
848.313	11435.41
848.637	11406.71
848.96	11340.27
849.284	11358.35
849.607	11260.27
849.931	11235.18
850.254	11135.07
850.577	11071.12
850.9	10994.51
851.223	10989.99
851.546	10977.79
851.869	10846.49
852.192	10963.55
852.515	10866.61
852.838	10770.34
853.161	10802.2
853.483	10766.72
853.806	10758.36
854.129	10727.18
854.451	10646.27
854.774	10659.15
855.096	10621.42
855.419	10542.77
855.741	10516.56
856.063	10504.36
856.385	10442.21
856.708	10381.42
857.03	10444.47
857.352	10396.34
857.674	10362.21
857.996	10405.15
858.318	10332.16
858.64	10248.32
858.961	10228.43
859.283	10238.83
859.605	10154.08
859.926	10189.11
860.248	10169.45
860.57	10159.51
860.891	10101.43
861.212	10095.33
861.534	10058.04
861.855	9969.46
862.176	9999.51
862.498	10032.05
862.819	9959.51
863.14	9943.02
863.461	9956.35
863.782	9862.57
864.103	9891.27
864.424	9814.43
864.745	9906.63
865.065	9769.46
865.386	9785.73
865.707	9754.09
866.027	9829.57
866.348	9735.34
866.668	9803.13
866.989	9734.21
867.309	9645.4
867.63	9674.1
867.95	9652.4
868.27	9639.75
868.59	9627.32
868.91	9619.86
869.23	9609.46
869.55	9573.99
869.87	9595.91
870.19	9592.29
870.51	9571.27
870.83	9619.63
871.15	9511.16
871.469	9502.35
871.789	9523.37
872.109	9524.72
872.428	9475.91
872.748	9530.6
873.067	9520.43
873.386	9451.5
873.706	9415.35
874.025	9378.96
874.344	9434.1
874.663	9450.6
874.982	9326.99
875.301	9429.36
875.62	9338.51
875.939	9293.54
876.258	9341
876.577	9223.49
876.896	9350.04
877.214	9261
877.533	9250.15
877.852	9197.05
878.17	9257.61
878.489	9236.37
878.807	9171.96
879.125	9180.55
879.444	9238.18
879.762	9180.55
880.08	9179.42
880.398	9096.48
880.716	9073.43
881.034	9055.36
881.352	9042.93
881.67	9053.55
881.988	9038.63
882.306	9046.09
882.624	8966.77
882.941	9003.83
883.259	8881.12
883.577	8948.92
883.894	8924.29
884.212	8955.92
884.529	8879.99
884.846	8858.98
885.164	8796.15
885.481	8786.21
885.798	8809.71
886.115	8769.94
886.432	8813.55
886.75	8758.87
887.067	8704.86
887.383	8725.65
887.7	8734.46
888.017	8661.47
888.334	8637.96
888.651	8669.83
888.967	8667.57
889.284	8595.71
889.6	8577.18
889.917	8546.89
890.233	8560
890.55	8529.49
890.866	8522.94
891.182	8444.98
891.498	8443.17
891.815	8462.15
892.131	8406.56
892.447	8359.55
892.763	8382.38
893.079	8277.52
893.395	8308.03
893.71	8267.35
894.026	8248.6
894.342	8281.36
894.657	8218.77
894.973	8162.72
895.289	8191.2
895.604	8162.72
895.92	8059.9
896.235	8008.38
896.55	8047.02
896.865	8023.97
897.181	8005.44
897.496	8035.95
897.811	7970.19
898.126	7905.33
898.441	7817.87
898.756	7886.8
899.071	7812.9
899.386	7841.38
899.7	7804.09
900.015	7758.44
900.33	7689.52
900.644	7698.78
900.959	7718.44
901.273	7726.12
901.588	7678.44
901.902	7631.66
902.216	7571.78
902.531	7516.86
902.845	7483.19
903.159	7424.44
903.473	7454.49
903.787	7392.8
904.101	7386.92
904.415	7372.01
904.729	7361.39
905.042	7311.45
905.356	7292.01
905.67	7274.84
905.984	7265.35
906.297	7316.64
906.611	7238.45
906.924	7147.83
907.237	7145.35
907.551	7078.46
907.864	7076.42
908.177	7069.87
908.491	7057.67
908.804	6979.03
909.117	6994.62
909.43	6925.47
909.743	6937.22
910.056	6906.26
910.368	6855.64
910.681	6826.26
910.994	6804.11
911.307	6741.97
911.619	6730.22
911.932	6719.15
912.244	6683.44
912.557	6704
912.869	6656.77
913.181	6629.43
913.494	6612.26
913.806	6566.83
914.118	6527.51
914.43	6492.26
914.742	6518.02
915.054	6443.45
915.366	6432.6
915.678	6387.63
915.99	6467.17
916.302	6412.03
916.613	6347.4
916.925	6337.91
917.236	6240.29
917.548	6260.17
917.859	6261.76
918.171	6208.2
918.482	6225.37
918.794	6141.08
919.105	6165.71
919.416	6110.35
919.727	6099.05
920.038	6098.37
920.349	6050.69
920.66	6010.92
920.971	5951.93
921.282	5985.83
921.593	5927.3
921.903	5922.78
922.214	5912.84
922.525	5880.52
922.835	5814.54
923.146	5840.3
923.456	5804.82
923.767	5724.82
924.077	5740.64
924.387	5750.58
924.697	5681.66
925.008	5689.57
925.318	5625.39
925.628	5652.05
925.938	5635.33
926.248	5574.09
926.558	5595.56
926.867	5562.11
927.177	5482.57
927.487	5506.97
927.796	5470.82
928.106	5459.74
928.416	5421.55
928.725	5387.43
929.034	5354.89
929.344	5388.78
929.653	5358.96
929.962	5287.54
930.271	5268.11
930.581	5222.91
930.89	5192.18
931.199	5232.63
931.508	5204.83
931.817	5143.14
932.125	5160.77
932.434	5155.12
932.743	5098.85
933.051	5089.58
933.36	5077.15
933.669	5028.79
933.977	5044.84
934.286	5031.51
934.594	4946.54
934.902	4920.55
935.21	4932.53
935.519	4919.64
935.827	4900.89
936.135	4910.61
936.443	4832.64
936.751	4859.76
937.059	4829.93
937.367	4852.98
937.674	4801.46
937.982	4802.13
938.29	4764.39
938.597	4729.37
938.905	4645.98
939.213	4671.29
939.52	4681.68
939.827	4712.64
940.135	4645.75
940.442	4569.6
940.749	4600.78
941.056	4585.87
941.363	4542.03
941.67	4555.59
941.977	4519.43
942.284	4452.31
942.591	4516.94
942.898	4482.14
943.205	4449.15
943.511	4426.32
943.818	4392.2
944.125	4362.6
944.431	4358.08
944.738	4375.93
945.044	4344.52
945.35	4283.28
945.657	4275.14
945.963	4270.4
946.269	4260.68
946.575	4207.35
946.881	4281.02
947.187	4215.71
947.493	4175.26
947.799	4167.12
948.105	4180.91
948.41	4129.83
948.716	4093.23
949.022	4083.06
949.327	4068.14
949.633	4018.88
949.938	4089.61
950.244	4052.32
950.549	4029.05
950.854	4049.16
951.16	4005.54
951.465	3898.88
951.77	3948.6
952.075	3933
952.38	3929.61
952.685	3921.93
952.99	3879.9
953.294	3873.57
953.599	3837.19
953.904	3845.32
954.209	3807.13
954.513	3768.71
954.818	3757.87
955.122	3740.01
955.426	3734.14
955.731	3689.39
956.035	3693.01
956.339	3688.04
956.643	3686.23
956.948	3667.47
957.252	3658.21
957.556	3607.59
957.86	3621.15
958.163	3591.54
958.467	3622.96
958.771	3605.33
959.075	3577.99
959.378	3569.4
959.682	3554.71
959.985	3532.34
960.289	3516.74
960.592	3519.91
960.896	3493.02
961.199	3450.3
961.502	3458.89
961.805	3474.71
962.108	3453.02
962.411	3408.27
962.714	3400.81
963.017	3398.55
963.32	3381.38
963.623	3354.04
963.926	3348.39
964.228	3304.55
964.531	3321.04
964.833	3315.62
965.136	3264.32
965.438	3275.62
965.741	3282.4
966.043	3231.1
966.345	3230.42
966.648	3182.97
966.95	3213.47
967.252	3151.33
967.554	3169.41
967.856	3160.37
968.158	3142.74
968.46	3122.63
968.761	3065
969.063	3115.62
969.365	3093.25
969.666	3109.97
969.968	3037.66
970.269	3019.58
970.571	3027.94
970.872	3026.59
971.174	3032.01
971.475	3016.42
971.776	2979.13
972.077	2957.21
972.378	2980.71
972.679	2945.91
972.98	2942.97
973.281	2917.21
973.582	2899.58
973.883	2895.52
974.183	2835.41
974.484	2848.29
974.785	2869.3
975.085	2860.49
975.386	2862.07
975.686	2818.23
975.986	2801.06
976.287	2818.91
976.587	2755.18
976.887	2778.46
977.187	2764.22
977.487	2780.49
977.787	2783.2
978.087	2728.52
978.387	2709.76
978.687	2707.73
978.987	2685.35
979.286	2680.61
979.586	2676.99
979.885	2698.69
980.185	2644
980.484	2644.68
980.784	2631.12
981.083	2618.24
981.382	2601.74
981.682	2600.16
981.981	2586.6
982.28	2566.49
982.579	2564
982.878	2604.23
983.177	2515.19
983.475	2526.26
983.774	2533.94
984.073	2532.14
984.372	2502.08
984.67	2510.89
984.969	2471.35
985.267	2469.77
985.566	2440.61
985.864	2452.82
986.162	2445.36
986.461	2414.4
986.759	2402.87
987.057	2397.23
987.355	2379.6
987.653	2385.7
987.951	2350.9
988.249	2332.14
988.547	2370.79
988.844	2330.11
989.142	2336.89
989.44	2307.96
989.737	2290.11
990.035	2315.42
990.332	2255.76
990.63	2271.58
990.927	2294.18
991.224	2237.91
991.521	2244.91
991.819	2257.57
992.116	2229.09
992.413	2222.99
992.71	2200.85
993.006	2183.22
993.303	2188.87
993.6	2150.9
993.897	2161.98
994.193	2152.03
994.49	2165.82
994.787	2163.33
995.083	2135.76
995.379	2109.1
995.676	2098.02
995.972	2100.96
996.268	2080.85
996.565	2086.27
996.861	2071.36
997.157	2034.97
997.453	2035.43
997.749	2030.23
998.044	2017.8
998.34	2021.42
998.636	1987.29
998.932	1999.95
999.227	1995.43
999.523	1939.38
999.818	1953.85
1000.114	1952.04
1000.409	1929.21
1000.704	1923.57
1001	1915.66
1001.295	1934.19
1001.59	1898.93
1001.885	1906.84
1002.18	1869.78
1002.475	1854.64
1002.77	1865.26
1003.065	1855.09
1003.359	1827.75
1003.654	1845.83
1003.949	1828.65
1004.243	1820.74
1004.538	1808.09
1004.832	1815.32
1005.127	1766.96
1005.421	1767.19
1005.715	1770.35
1006.009	1762.44
1006.304	1757.47
1006.598	1760.18
1006.892	1725.6
1007.186	1760.63
1007.48	1736.9
1007.773	1709.56
1008.067	1681.31
1008.361	1676.79
1008.655	1686.74
1008.948	1674.31
1009.242	1654.87
1009.535	1632.5
1009.829	1639.73
1010.122	1610.58
1010.415	1653.29
1010.708	1611.71
1011.001	1591.37
1011.295	1591.82
1011.588	1588.88
1011.881	1601.77
1012.173	1580.98
1012.466	1571.26
1012.759	1557.02
1013.052	1569.22
1013.344	1537.59
1013.637	1538.26
1013.93	1534.87
1014.222	1500.53
1014.514	1522.22
1014.807	1485.84
1015.099	1482.45
1015.391	1448.1
1015.683	1451.26
1015.976	1447.42
1016.268	1449
1016.56	1434.31
1016.851	1444.26
1017.143	1435.67
1017.435	1443.58
1017.727	1394.54
1018.018	1410.58
1018.31	1409.45
1018.602	1373.3
1018.893	1388.21
1019.185	1341.21
1019.476	1355.67
1019.767	1368.55
1020.058	1350.92
1020.35	1345.28
1020.641	1307.76
1020.932	1304.37
1021.223	1301.21
1021.514	1303.24
1021.804	1292.85
1022.095	1275.45
1022.386	1286.75
1022.677	1252.17
1022.967	1250.14
1023.258	1230.02
1023.548	1237.48
1023.839	1236.13
1024.129	1225.05
1024.419	1229.8
1024.709	1206.3
1025	1176.24
1025.29	1195
1025.58	1197.03
1025.87	1192.06
1026.16	1157.48
1026.449	1166.52
1026.739	1138.73
1027.029	1147.54
1027.319	1131.5
1027.608	1155.22
1027.898	1135.56
1028.187	1118.16
1028.477	1112.97
1028.766	1124.04
1029.055	1094.89
1029.344	1089.01
1029.634	1078.39
1029.923	1059.41
1030.212	1063.25
1030.501	1046.98
1030.79	1043.36
1031.078	1051.05
1031.367	1059.63
1031.656	1022.57
1031.945	1042.68
1032.233	1027.54
1032.522	1028.9
1032.81	993.42
1033.099	995.45
1033.387	1010.37
1033.675	1001.56
1033.963	1008.34
1034.251	1003.36
1034.54	995.23
1034.828	954.1
1035.116	972.63
1035.403	950.03
1035.691	939.41
1035.979	922.24
1036.267	934.21
1036.554	925.4
1036.842	926.98
1037.129	918.39
1037.417	897.83
1037.704	905.06
1037.992	910.94
1038.279	890.82
1038.566	901.45
1038.853	901.45
1039.14	901.45
