Data from cardboard_FLMS001491_096.txt Node
Date: Tue Feb 07 11:40:26 GMT 2017
User: dcchb
Spectrometer: FLMS00149
Trigger mode: 0
Integration Time (sec): 2.000000E-2
Scans to average: 10
Electric dark correction enabled: true
Nonlinearity correction enabled: false
Boxcar width: 0
XAxis mode: Wavelengths
Number of Pixels in Spectrum: 2048
>>>>>Begin Spectral Data<<<<<
341.393	-24.73
341.776	-24.73
342.16	-24.73
342.543	-47.33
342.927	-75.8
343.31	-52.53
343.693	-66.76
344.077	-64.05
344.46	-29.25
344.843	-63.15
345.226	-65.86
345.61	-26.99
345.993	-18.18
346.376	-1.91
346.759	4.87
347.142	32.44
347.525	33.57
347.908	52.33
348.291	66.11
348.674	84.87
349.057	114.47
349.44	116.73
349.823	159.22
350.206	168.71
350.588	212.55
350.971	216.17
351.354	222.27
351.737	212.78
352.119	247.8
352.502	268.59
352.884	258.88
353.267	280.8
353.65	294.81
354.032	292.1
354.414	304.07
354.797	305.43
355.179	338.88
355.562	323.73
355.944	343.85
356.326	340.46
356.709	326.22
357.091	343.85
357.473	315.83
357.855	349.95
358.238	306.79
358.62	323.73
359.002	344.52
359.384	343.17
359.766	361.02
360.148	335.26
360.53	354.47
360.912	333.9
361.294	323.28
361.676	330.97
362.057	351.3
362.439	336.62
362.821	333.45
363.203	335.26
363.584	332.1
363.966	344.75
364.348	327.8
364.729	315.83
365.111	343.39
365.493	325.09
365.874	319.44
366.256	333
366.637	291.19
367.019	318.54
367.4	315.6
367.781	319.89
368.163	326.22
368.544	314.47
368.925	322.38
369.306	335.03
369.688	312.21
370.069	324.19
370.45	318.08
370.831	326.67
371.212	315.83
371.593	327.12
371.974	324.64
372.355	330.97
372.736	318.08
373.117	335.49
373.498	330.51
373.879	345.88
374.26	331.87
374.641	320.57
375.021	329.16
375.402	330.97
375.783	307.69
376.163	317.18
376.544	337.29
376.925	318.08
377.305	325.32
377.686	333
378.066	339.1
378.447	340.01
378.827	333.45
379.208	321.02
379.588	325.32
379.968	332.77
380.349	353.79
380.729	345.2
381.109	347.24
381.489	351.3
381.87	326.45
382.25	326.67
382.63	333.68
383.01	339.1
383.39	367.12
383.77	376.61
384.15	342.49
384.53	355.6
384.91	363.51
385.29	340.01
385.67	344.07
386.049	348.82
386.429	348.37
386.809	349.27
387.189	346.33
387.568	373
387.948	373.22
388.328	371.42
388.707	367.8
389.087	356.73
389.466	376.61
389.846	375.48
390.225	367.35
390.605	380
390.984	381.59
391.363	368.48
391.743	394.02
392.122	391.08
392.501	391.76
392.881	374.58
393.26	379.33
393.639	395.37
394.018	391.3
394.397	408.93
394.776	389.95
395.155	393.11
395.534	391.76
395.913	392.21
396.292	409.16
396.671	402.15
397.05	375.94
397.429	385.88
397.808	379.55
398.186	398.31
398.565	405.31
398.944	420.23
399.323	413.9
399.701	408.03
400.08	398.76
400.458	408.25
400.837	415.26
401.215	431.3
401.594	410.51
401.972	421.36
402.351	422.71
402.729	438.31
403.107	432.66
403.486	451.64
403.864	423.62
404.242	423.17
404.62	450.06
404.999	430.85
405.377	435.82
405.755	455.48
406.133	453.45
406.511	457.29
406.889	438.99
407.267	465.2
407.645	448.25
408.023	452.54
408.401	488.93
408.779	482.6
409.156	506.33
409.534	472.88
409.912	481.92
410.29	493
410.667	500.45
411.045	488.48
411.422	498.65
411.8	509.04
412.178	505.2
412.555	498.19
412.933	512.88
413.31	525.31
413.687	539.77
414.065	528.02
414.442	534.35
414.819	521.47
415.197	515.14
415.574	538.42
415.951	537.51
416.328	532.54
416.705	557.17
417.082	541.13
417.46	570.96
417.837	544.97
418.214	579.32
418.591	587.46
418.967	576.38
419.344	586.55
419.721	581.13
420.098	581.35
420.475	593.56
420.852	584.97
421.228	585.65
421.605	615.03
421.982	613.9
422.358	607.34
422.735	612.09
423.111	603.28
423.488	637.62
423.864	624.29
424.241	634.46
424.617	625.87
424.994	631.75
425.37	622.94
425.746	631.97
426.123	656.83
426.499	646.66
426.875	671.07
427.251	691.86
427.627	667.68
428.003	686.21
428.379	676.27
428.756	678.75
429.132	685.98
429.507	680.56
429.883	706.78
430.259	715.14
430.635	723.27
431.011	730.28
431.387	750.62
431.763	753.1
432.138	750.39
432.514	741.35
432.89	748.58
433.265	767.79
433.641	764.63
434.016	785.87
434.392	755.14
434.767	808.92
435.143	763.72
435.518	812.54
435.894	810.28
436.269	831.97
436.644	822.03
437.02	826.09
437.395	813.44
437.77	830.16
438.145	834
438.52	868.58
438.895	873.55
439.271	863.83
439.646	883.49
440.021	900.44
440.395	878.97
440.77	894.79
441.145	897.28
441.52	897.05
441.895	907.45
442.27	911.06
442.645	917.62
443.019	922.14
443.394	931.63
443.769	930.72
444.143	935.24
444.518	971.4
444.892	961.91
445.267	928.92
445.641	980.44
446.016	980.44
446.39	952.64
446.764	956.94
447.139	983.6
447.513	994.9
447.887	997.62
448.262	1004.17
448.636	1008.24
449.01	1013.89
449.384	1012.98
449.758	1036.94
450.132	1046.88
450.506	1049.82
450.88	1024.05
451.254	1052.98
451.628	1093.66
452.002	1053.66
452.376	1090.72
452.75	1077.61
453.123	1088.91
453.497	1132.3
453.871	1116.48
454.244	1135.46
454.618	1151.51
454.992	1154.45
455.365	1170.27
455.739	1175.01
456.112	1205.07
456.486	1193.99
456.859	1188.57
457.232	1233.09
457.606	1203.94
457.979	1236.48
458.352	1230.83
458.725	1261.34
459.099	1281.68
459.472	1322.8
459.845	1320.77
460.218	1345.85
460.591	1321
460.964	1345.4
461.337	1362.35
461.71	1361.9
462.083	1386.31
462.456	1417.94
462.829	1462.46
463.201	1438.73
463.574	1441.9
463.947	1445.96
464.32	1483.48
464.692	1471.5
465.065	1485.74
465.438	1519.18
465.81	1545.4
466.183	1560.76
466.555	1626.3
466.928	1585.62
467.3	1584.72
467.672	1610.25
468.045	1639.63
468.417	1667.88
468.789	1662.46
469.161	1727.77
469.534	1706.52
469.906	1768.44
470.278	1784.71
470.65	1760.98
471.022	1810.47
471.394	1845.5
471.766	1857.25
472.138	1847.99
472.51	1903.81
472.882	1941.09
473.253	1963.92
473.625	2003.69
473.997	2024.71
474.369	2028.55
474.74	2069.23
475.112	2094.54
475.484	2141.54
475.855	2148.09
476.227	2205.94
476.598	2254.08
476.97	2234.42
477.341	2321.87
477.713	2328.43
478.084	2379.5
478.455	2424.02
478.827	2461.31
479.198	2527.97
479.569	2503.34
479.94	2583.56
480.311	2595.77
480.682	2654.52
481.053	2699.49
481.424	2796.66
481.795	2757.57
482.166	2830.79
482.537	2843.44
482.908	2937.45
483.279	2946.26
483.65	2972.25
484.021	3057
484.391	3099.03
484.762	3096.09
485.133	3151.68
485.503	3181.29
485.874	3305.58
486.244	3322.98
486.615	3366.82
486.985	3414.73
487.356	3476.87
487.726	3492.69
488.097	3546.93
488.467	3553.93
488.837	3697.43
489.207	3699.69
489.578	3739.01
489.948	3778.56
490.318	3851.1
490.688	3884.09
491.058	3957.99
491.428	3984.43
491.798	4071.88
492.168	4158.89
492.538	4130.64
492.908	4220.58
493.278	4243.86
493.648	4279.79
494.017	4339.22
494.387	4400.46
494.757	4434.59
495.126	4496.05
495.496	4545.32
495.866	4578.31
496.235	4587.35
496.605	4683.62
496.974	4720.91
497.344	4724.52
497.713	4794.8
498.082	4834.12
498.452	4897.63
498.821	4936.49
499.19	4964.97
499.559	5032.31
499.928	5064.63
500.298	5088.13
500.667	5125.19
501.036	5183.72
501.405	5251.51
501.774	5291.74
502.143	5312.3
502.512	5349.82
502.88	5423.49
503.249	5448.12
503.618	5477.27
503.987	5529.02
504.356	5567.44
504.724	5617.15
505.093	5644.95
505.462	5659.87
505.83	5764.5
506.199	5844.72
506.567	5879.75
506.936	5905.28
507.304	6004.26
507.672	6081.78
508.041	6090.59
508.409	6138.95
508.777	6195.9
509.145	6254.65
509.514	6312.96
509.882	6331.94
510.25	6418.72
510.618	6501.43
510.986	6442.22
511.354	6543.01
511.722	6628.2
512.09	6670.01
512.458	6711.36
512.826	6820.51
513.193	6808.76
513.561	6902.32
513.929	6983.9
514.297	7053.05
514.664	7080.39
515.032	7140.96
515.4	7248.75
515.767	7279.03
516.135	7352.25
516.502	7369.88
516.869	7509.76
517.237	7533.94
517.604	7496.43
517.972	7726.48
518.339	7693.03
518.706	7738.68
519.073	7863.88
519.44	7914.04
519.808	8016.41
520.175	8038.33
520.542	8150.2
520.909	8231.55
521.276	8291.43
521.643	8358.1
522.009	8444.88
522.376	8567.36
522.743	8587.92
523.11	8740.46
523.477	8730.29
523.843	8857.07
524.21	8945.2
524.577	9062.49
524.943	9075.37
525.31	9203.95
525.676	9327.79
526.043	9318.53
526.409	9453.89
526.776	9622.02
527.142	9615.24
527.508	9710.61
527.874	9781.79
528.241	9898.62
528.607	9914.22
528.973	9962.8
529.339	10110.14
529.705	10137.26
530.071	10268.33
530.437	10342.23
530.803	10450.25
531.169	10473.98
531.535	10562.34
531.901	10654.08
532.267	10671.03
532.632	10751.03
532.998	10870.8
533.364	10917.13
533.73	10972.04
534.095	11155.09
534.461	11108.99
534.826	11240.96
535.192	11249.32
535.557	11398.25
535.923	11488.86
536.288	11520.73
536.653	11579.71
537.019	11566.6
537.384	11745.81
537.749	11732.93
538.114	11795.07
538.479	11904.22
538.845	11973.82
539.21	11947.38
539.575	12059.47
539.94	12189.64
540.305	12262.4
540.67	12356.19
541.034	12394.6
541.399	12409.07
541.764	12457.2
542.129	12623.98
542.494	12610.19
542.858	12685.44
543.223	12806.8
543.587	12862.16
543.952	12778.77
544.316	12953.23
544.681	13035.49
545.045	13124.3
545.41	13141.93
545.774	13191.19
546.138	13277.29
546.503	13406.1
546.867	13449.27
547.231	13517.96
547.595	13497.85
547.959	13632.54
548.324	13731.29
548.688	13741.46
549.052	13849.93
549.416	13894.68
549.779	13951.17
550.143	14023.04
550.507	14214.44
550.871	14234.33
551.235	14269.36
551.599	14353.42
551.962	14396.36
552.326	14477.94
552.689	14614.21
553.053	14568.11
553.417	14619.63
553.78	14875.89
554.143	14837.03
554.507	15019.17
554.87	15064.59
555.234	15178.26
555.597	15144.59
555.96	15257.35
556.323	15357.46
556.686	15413.06
557.05	15583.9
557.413	15594.52
557.776	15668.87
558.139	15846.49
558.502	15832.25
558.865	15987.28
559.228	16093.72
559.59	16171.23
559.953	16262.52
560.316	16479.47
560.679	16476.98
561.041	16602.63
561.404	16687.37
561.767	16787.93
562.129	16817.76
562.492	16961.94
562.854	17010.53
563.217	17125.55
563.579	17207.58
563.941	17404.64
564.304	17377.07
564.666	17519.21
565.028	17615.26
565.39	17654.13
565.753	17717.63
566.115	17851.86
566.477	17932.31
566.839	18052.76
567.201	18210.72
567.563	18278.52
567.925	18442.13
568.287	18369.14
568.648	18432.41
569.01	18600.99
569.372	18877.37
569.734	18683.48
570.095	19008.89
570.457	19068.33
570.819	19109
571.18	19050.47
571.542	19291.6
571.903	19302.67
572.265	19408.2
572.626	19544.7
572.987	19539.5
573.349	19670.12
573.71	19624.47
574.071	19902.65
574.432	19850.23
574.794	20150.78
575.155	20074.63
575.516	20072.82
575.877	20132.71
576.238	20177.45
576.599	20321.17
576.96	20368.63
577.32	20447.73
577.681	20570.66
578.042	20568.4
578.403	20704.89
578.763	20671.9
579.124	20760.71
579.485	20874.61
579.845	21036.64
580.206	21017.65
580.566	21028.73
580.927	21107.37
581.287	21188.5
581.648	21200.25
582.008	21323.18
582.368	21265.78
582.728	21303.3
583.089	21414.93
583.449	21448.38
583.809	21513.69
584.169	21621.03
584.529	21494.03
584.889	21721.59
585.249	21681.36
585.609	21680.01
585.969	21868.48
586.329	21734.24
586.688	21701.7
587.048	21851.08
587.408	21816.28
587.768	21937.18
588.127	21912.55
588.487	21999.1
588.846	22151.64
589.206	22119.77
589.565	22025.99
589.925	22302.59
590.284	22225.08
590.643	22216.94
591.003	22329.48
591.362	22411.74
591.721	22361.8
592.08	22423.94
592.44	22644.96
592.799	22520.66
593.158	22491.97
593.517	22476.6
593.876	22605.18
594.235	22578.97
594.593	22655.35
594.952	22677.27
595.311	22674.56
595.67	22691.06
596.029	22816.25
596.387	22925.4
596.746	22812.86
597.104	22909.58
597.463	22901.45
597.822	22982.12
598.18	23032.74
598.538	23050.59
598.897	23252.17
599.255	22992.52
599.613	23240.42
599.972	23143.02
600.33	23269.12
600.688	23155.45
601.046	23339.4
601.404	23448.78
601.762	23495.55
602.12	23500.75
602.478	23643.57
602.836	23626.4
603.194	23498.04
603.552	23583.69
603.91	23582.11
604.268	23617.13
604.625	23725.83
604.983	23803.12
605.341	23670.92
605.698	23781.87
606.056	23916.56
606.413	23982.32
606.771	24023.22
607.128	24114.3
607.485	23938.48
607.843	23979.84
608.2	24158.59
608.557	24203.78
608.914	24218.02
609.272	24250.56
609.629	24403.78
609.986	24469.99
610.343	24466.83
610.7	24590.44
611.057	24582.98
611.414	24600.84
611.771	24628.63
612.127	24656.88
612.484	24782.98
612.841	24902.98
613.198	24747.05
613.554	24714.05
613.911	24979.81
614.267	24924.22
614.624	25020.49
614.98	25050.99
615.337	25074.72
615.693	25062.52
616.05	25198.56
616.406	25324.66
616.762	25204.89
617.118	25183.42
617.475	25279.69
617.831	25438.78
618.187	25431.1
618.543	25507.25
618.899	25601.26
619.255	25564.88
619.611	25579.34
619.967	25636.74
620.323	25774.82
620.678	25766.23
621.034	25681.49
621.39	25732.56
621.746	25735.95
622.101	25989.95
622.457	25761.26
622.812	25842.84
623.168	25944.76
623.523	25919.9
623.879	25968.48
624.234	25899.56
624.589	25916.73
624.945	25920.12
625.3	25979.33
625.655	26091.87
626.01	26044.19
626.365	26110.4
626.72	26084.19
627.075	26016.62
627.43	26080.57
627.785	26061.14
628.14	26107.24
628.495	26085.99
628.85	26134.13
629.205	26060.68
629.559	26314.46
629.914	26147.46
630.269	26194.47
630.623	26070.63
630.978	26115.15
631.332	26288.7
631.687	26242.15
632.041	26123.28
632.396	26144.98
632.75	26083.96
633.104	26214.81
633.459	26100.91
633.813	26129.84
634.167	25989.05
634.521	26017.97
634.875	26203.73
635.229	26116.5
635.583	25946.11
635.937	26004.64
636.291	26087.58
636.645	26029.5
636.999	25981.36
637.352	26100.01
637.706	25934.13
638.06	25942.5
638.413	25933.23
638.767	25958.54
639.121	26018.2
639.474	25815.27
639.828	25830.41
640.181	25904.08
640.534	25947.92
640.888	25797.19
641.241	25726.23
641.594	25874.48
641.947	25910.18
642.301	25813.01
642.654	25805.32
643.007	25834.02
643.36	25836.74
643.713	25806.23
644.066	25933.91
644.419	25692.33
644.771	25591.09
645.124	25468.16
645.477	25330.08
645.83	25180.03
646.182	25056.64
646.535	25077.43
646.888	25213.25
647.24	24997.44
647.593	25129.18
647.945	25068.62
648.298	25034.27
648.65	25011.67
649.002	24926.25
649.355	25055.06
649.707	24956.76
650.059	25125.79
650.411	25458.44
650.763	25559.46
651.115	25736.17
651.467	25594.48
651.819	25676.74
652.171	25619.11
652.523	25580.47
652.875	25650.3
653.227	25516.07
653.578	25676.51
653.93	25617.31
654.282	25443.98
654.633	25447.82
654.985	25493.69
655.337	25532.34
655.688	25559.23
656.039	25726.68
656.391	25405.56
656.742	25456.63
657.094	25513.58
657.445	25587.93
657.796	25648.49
658.147	25481.27
658.498	25455.95
658.849	25583.41
659.2	25528.5
659.551	25490.76
659.902	25538.89
660.253	25562.84
660.604	25631.32
660.955	25462.96
661.306	25577.53
661.656	25552.9
662.007	25566.69
662.358	25555.16
662.708	25706.8
663.059	25571.66
663.409	25455.95
663.76	25680.58
664.11	25544.09
664.461	25551.55
664.811	25561.71
665.161	25690.53
665.511	25657.08
665.862	25732.56
666.212	25724.65
666.562	25780.24
666.912	25627.25
667.262	25614.37
667.612	25468.16
667.962	25615.27
668.312	25580.92
668.662	25755.38
669.011	25592.45
669.361	25541.83
669.711	25616.85
670.06	25536.4
670.41	25462.28
670.76	25653.69
671.109	25717.64
671.459	25562.84
671.808	25448.05
672.157	25595.16
672.507	25541.15
672.856	25616.18
673.205	25603.75
673.554	25659.11
673.904	25677.87
674.253	25566.23
674.602	25637.42
674.951	25335.51
675.3	25260.71
675.649	25514.26
675.998	25607.59
676.346	25517.87
676.695	25638.55
677.044	25415.28
677.393	25464.09
677.741	25502.28
678.09	25457.54
678.438	25389.52
678.787	25472.9
679.135	25432
679.484	25347.26
679.832	25408.72
680.181	25304.32
680.529	25417.31
680.877	25294.38
681.225	25326.92
681.573	25354.26
681.922	25198.56
682.27	25294.38
682.618	25227.26
682.966	25166.92
683.314	25315.39
683.661	25118.11
684.009	24933.71
684.357	24987.49
684.705	24950.21
685.053	25034.95
685.4	24959.7
685.748	24890.55
686.095	24798.57
686.443	24878.12
686.79	24787.5
687.138	24801.96
687.485	24847.84
687.832	24742.3
688.18	24743.43
688.527	24728.06
688.874	24612.36
689.221	24617.11
689.568	24568.97
689.915	24317.68
690.262	24463.21
690.609	24381.41
690.956	24370.33
691.303	24424.12
691.65	24305.02
691.997	24166.05
692.344	24145.25
692.69	23992.72
693.037	24005.15
693.383	23963.79
693.73	24012.15
694.077	23903
694.423	23830.01
694.769	23886.28
695.116	23769.45
695.462	23817.35
695.808	23673.4
696.155	23704.36
696.501	23601.99
696.847	23559.06
697.193	23490.58
697.539	23418.72
697.885	23379.17
698.231	23349.57
698.577	23309.12
698.923	23269.8
699.269	23184.6
699.614	23022.35
699.96	23003.82
700.306	23021.44
700.651	22860.09
700.997	22835.01
701.342	22908
701.688	22852.41
702.033	22825.74
702.379	22789.36
702.724	22692.19
703.069	22785.97
703.415	22530.61
703.76	22516.15
704.105	22587.78
704.45	22410.84
704.795	22372.42
705.14	22390.27
705.485	22308.69
705.83	22199.32
706.175	22260.11
706.52	22081.35
706.865	22131.07
707.209	22058.98
707.554	21994.8
707.899	22009.49
708.243	22002.71
708.588	21887.24
708.932	21731.08
709.277	21740.57
709.621	21847.01
709.966	21711.42
710.31	21737.18
710.654	21511.43
710.998	21627.36
711.342	21534.25
711.687	21563.63
712.031	21380.81
712.375	21376.29
712.719	21433.69
713.063	21431.88
713.407	21452.22
713.75	21430.07
714.094	21270.53
714.438	21257.42
714.782	21286.8
715.125	21292
715.469	21359.11
715.812	21159.12
716.156	20978.11
716.499	21154.83
716.843	21127.26
717.186	21036.41
717.53	21184.43
717.873	21027.14
718.216	21014.94
718.559	20878.22
718.902	20875.06
719.246	20992.34
719.589	20827.83
719.932	20805.23
720.275	20716.19
720.617	20763.42
720.96	20686.59
721.303	20776.53
721.646	20676.65
721.989	20555.52
722.331	20657.66
722.674	20572.92
723.016	20654.5
723.359	20538.57
723.701	20685.46
724.044	20501.73
724.386	20394.39
724.729	20603.88
725.071	20427.84
725.413	20325.69
725.755	20428.29
726.097	20307.16
726.439	20249.76
726.782	20287.05
727.124	20514.16
727.465	20256.09
727.807	20355.3
728.149	20278.24
728.491	20269.65
728.833	20252.02
729.175	20188.97
729.516	20207.96
729.858	20130.22
730.199	20125.93
730.541	20141.07
730.882	20114.63
731.224	20149.65
731.565	20000.51
731.906	19979.71
732.248	20035.08
732.589	19905.37
732.93	19928.64
733.271	20012.93
733.612	20075.08
733.953	19905.59
734.294	19972.26
734.635	19919.15
734.976	19911.92
735.317	19826.05
735.658	19807.97
735.999	19884.8
736.339	19854.75
736.68	19829.89
737.021	19762.55
737.361	19720.51
737.702	19866.5
738.042	19692.26
738.383	19743.56
738.723	19755.31
739.063	19654.3
739.404	19790.12
739.744	19755.77
740.084	19614.75
740.424	19631.7
740.764	19524.13
741.104	19842.09
741.444	19572.49
741.784	19546.73
742.124	19656.11
742.464	19629.44
742.804	19523.46
743.143	19568.43
743.483	19549.9
743.823	19460.18
744.162	19459.73
744.502	19502.67
744.841	19463.12
745.181	19567.07
745.52	19446.17
745.86	19431.03
746.199	19413.4
746.538	19420.63
746.877	19458.15
747.216	19501.99
747.556	19419.96
747.895	19386.06
748.234	19383.35
748.573	19340.64
748.911	19244.82
749.25	19323.91
749.589	19255.89
749.928	19354.65
750.267	19277.13
750.605	19205.5
750.944	19264.25
751.283	19154.88
751.621	19225.61
751.96	19169.57
752.298	19173.63
752.636	19131.15
752.975	19094.31
753.313	19040.98
753.651	19122.79
753.989	18962.11
754.327	19064.03
754.666	18980.42
755.004	19038.95
755.342	19111.26
755.679	19024.03
756.017	18956.24
756.355	19021.32
756.693	18943.58
757.031	18871.27
757.368	18815
757.706	18941.32
758.044	18685.51
758.381	18810.48
758.719	18779.97
759.056	18806.64
759.394	18680.54
759.731	18537.72
760.068	18538.4
760.405	18511.5
760.743	18513.76
761.08	18583.37
761.417	18396.25
761.754	18379.3
762.091	18429.02
762.428	18302.92
762.765	18197.39
763.102	18264.28
763.438	18202.13
763.775	18148.35
764.112	18098.63
764.449	18130.27
764.785	18083.04
765.122	17970.28
765.458	17887.57
765.795	17866.78
766.131	17946.32
766.467	17885.31
766.804	17843.05
767.14	17768.7
767.476	17730.06
767.812	17590.17
768.148	17612.77
768.485	17579.55
768.821	17409.84
769.157	17514.47
769.492	17428.6
769.828	17451.65
770.164	17223.86
770.5	17215.72
770.836	17209.62
771.171	17181.37
771.507	17184.08
771.842	17004.88
772.178	16941.38
772.513	16918.55
772.849	16939.34
773.184	16901.15
773.519	16859.34
773.855	16763.53
774.19	16695.06
774.525	16566.92
774.86	16591.1
775.195	16671.1
775.53	16503.2
775.865	16327.83
776.2	16431.79
776.535	16261.62
776.87	16125.35
777.205	16177.55
777.539	16126.71
777.874	16218.01
778.209	16032.02
778.543	15989.76
778.878	15855.08
779.212	15892.59
779.547	15819.37
779.881	15845.81
780.215	15780.5
780.55	15813.04
780.884	15773.72
781.218	15531.92
781.552	15703.67
781.886	15573.5
782.22	15426.84
782.554	15463.68
782.888	15362.89
783.222	15331.48
783.556	15279.05
783.889	15194.08
784.223	15105.27
784.557	15104.14
784.89	15065.72
785.224	15063.69
785.557	14933.07
785.891	14885.61
786.224	14821.43
786.558	14799.51
786.891	14676.8
787.224	14754.77
787.557	14660.98
787.891	14605.84
788.224	14589.35
788.557	14516.36
788.89	14549.8
789.223	14472.51
789.556	14367.43
789.888	14324.27
790.221	14285.85
790.554	14235.23
790.887	14187.1
791.219	14217.38
791.552	14154.56
791.884	14027.78
792.217	14043.15
792.549	13978.97
792.882	13872.53
793.214	13824.17
793.546	13872.3
793.879	13827.79
794.211	13728.58
794.543	13850.84
794.875	13734.23
795.207	13745.75
795.539	13659.88
795.871	13621.01
796.203	13578.53
796.535	13488.36
796.867	13441.81
797.198	13413.11
797.53	13414.46
797.862	13321.58
798.193	13289.5
798.525	13251.53
798.856	13303.51
799.188	13174.7
799.519	13123.62
799.85	13047.69
800.182	13045.43
800.513	13054.93
800.844	13004.53
801.175	12930.86
801.506	12946.91
801.837	12865.55
802.168	12879.79
802.499	12795.27
802.83	12759.79
803.161	12738.55
803.491	12721.6
803.822	12788.72
804.153	12710.08
804.483	12579.23
804.814	12537.88
805.145	12543.53
805.475	12470.99
805.805	12479.57
806.136	12435.05
806.466	12432.79
806.796	12435.96
807.126	12270.54
807.457	12320.71
807.787	12322.06
808.117	12274.83
808.447	12335.85
808.777	12279.58
809.107	12196.64
809.436	12173.82
809.766	12099.47
810.096	12072.13
810.426	12103.99
810.755	12028.29
811.085	11963.65
811.414	11986.25
811.744	11929.76
812.073	11884.11
812.403	11882.07
812.732	11847.27
813.061	11804.11
813.39	11806.82
813.719	11768.18
814.049	11818.8
814.378	11787.39
814.707	11765.24
815.036	11683.44
815.365	11652.48
815.693	11567.05
816.022	11545.59
816.351	11563.66
816.68	11545.81
817.008	11561.63
817.337	11478.92
817.665	11360.05
817.994	11466.27
818.322	11473.27
818.651	11379.04
818.979	11372.94
819.307	11368.42
819.636	11335.65
819.964	11282.32
820.292	11265.37
820.62	11260.62
820.948	11265.37
821.276	11225.82
821.604	11180.85
821.932	11231.24
822.259	11199.15
822.587	11294.97
822.915	11210
823.243	11235.99
823.57	11199.61
823.898	11211.13
824.225	11232.15
824.553	11116.9
824.88	11214.3
825.207	11169.1
825.535	11181.53
825.862	11239.61
826.189	11203.67
826.516	11231.02
826.843	11257.68
827.17	11249.77
827.497	11227.85
827.824	11214.3
828.151	11282.77
828.478	11217.69
828.805	11237.57
829.131	11186.95
829.458	11123.45
829.785	11163.45
830.111	11219.72
830.438	11219.04
830.764	11178.59
831.09	11170.23
831.417	11102.43
831.743	11216.1
832.069	11128.42
832.395	11176.56
832.722	11197.57
833.048	11084.13
833.374	11127.74
833.7	11182.43
834.026	11161.87
834.351	11084.58
834.677	11073.28
835.003	11165.03
835.329	11102.66
835.654	11111.02
835.98	11029.22
836.306	11080.51
836.631	11021.08
836.956	11049.78
837.282	11093.85
837.607	11012.49
837.932	11012.94
838.258	11035.09
838.583	11027.63
838.908	10907.86
839.233	10934.3
839.558	10912.83
839.883	10848.2
840.208	10866.28
840.533	10945.38
840.858	10913.51
841.182	10798.04
841.507	10874.19
841.832	10813.63
842.156	10712.61
842.481	10767.3
842.805	10701.99
843.13	10713.29
843.454	10671.94
843.778	10613.18
844.103	10629.68
844.427	10566.85
844.751	10586.97
845.075	10612.5
845.399	10539.96
845.723	10521.21
846.047	10550.58
846.371	10401.66
846.695	10464.94
847.019	10358.72
847.343	10289.8
847.666	10266.07
847.99	10243.25
848.313	10190.14
848.637	10189.01
848.96	10144.95
849.284	10171.61
849.607	10048.45
849.931	9993.08
850.254	9933.2
850.577	9892.75
850.9	9845.07
851.223	9849.81
851.546	9811.17
851.869	9757.61
852.192	9817.27
852.515	9675.58
852.838	9691.85
853.161	9677.16
853.483	9613.43
853.806	9586.09
854.129	9644.39
854.451	9561.23
854.774	9536.6
855.096	9454.57
855.419	9445.53
855.741	9379.09
856.063	9370.05
856.385	9325.08
856.708	9298.41
857.03	9311.97
857.352	9258.87
857.674	9223.61
857.996	9196.95
858.318	9160.79
858.64	9149.49
858.961	9160.34
859.283	9132.09
859.605	9090.96
859.926	9171.64
860.248	9089.15
860.57	8994.01
860.891	9016.84
861.212	8958.31
861.534	8949.27
861.855	8967.8
862.176	8970.74
862.498	8960.34
862.819	8904.98
863.14	8933.68
863.461	8942.49
863.782	8829.95
864.103	8826.34
864.424	8885.54
864.745	8872.89
865.065	8749.95
865.386	8797.18
865.707	8780.01
866.027	8794.02
866.348	8746.79
866.668	8745.89
866.989	8707.69
867.309	8626.79
867.63	8720.58
867.95	8621.6
868.27	8608.04
868.59	8633.12
868.91	8628.37
869.23	8640.13
869.55	8596.29
869.87	8615.04
870.19	8639.9
870.51	8587.7
870.83	8574.82
871.15	8538.43
871.469	8559.9
871.789	8578.43
872.109	8518.77
872.428	8495.04
872.748	8481.94
873.067	8499.56
873.386	8461.6
873.706	8481.03
874.025	8427.48
874.344	8390.19
874.663	8433.35
874.982	8421.37
875.301	8376.63
875.62	8349.96
875.939	8364.65
876.258	8322.62
876.577	8299.8
876.896	8285.78
877.214	8288.5
877.533	8307.25
877.852	8324.88
878.17	8292.11
878.489	8232.9
878.807	8229.52
879.125	8241.49
879.444	8264.99
879.762	8222.06
880.08	8156.52
880.398	8112.91
880.716	8154.49
881.034	8156.52
881.352	8083.53
881.67	8040.37
881.988	8074.27
882.306	8082.17
882.624	8015.51
882.941	8025
883.259	8061.61
883.577	8003.98
883.894	8064.32
884.212	7992.46
884.529	8003.76
884.846	7934.61
885.164	7939.35
885.481	7856.87
885.798	7974.61
886.115	7848.06
886.432	7817.77
886.75	7815.29
887.067	7886.02
887.383	7780.04
887.7	7770.09
888.017	7737.78
888.334	7810.54
888.651	7686.93
888.967	7744.56
889.284	7641.96
889.6	7722.86
889.917	7674.05
890.233	7654.39
890.55	7616.88
890.866	7574.17
891.182	7559.25
891.498	7529.65
891.815	7485.13
892.131	7455.98
892.447	7463.89
892.763	7435.64
893.079	7382.53
893.395	7407.16
893.71	7353.83
894.026	7362.65
894.342	7346.6
894.657	7329.2
894.973	7311.57
895.289	7343.44
895.604	7278.13
895.92	7222.08
896.235	7156.55
896.55	7182.99
896.865	7156.55
897.181	7197
897.496	7125.14
897.811	7064.35
898.126	7085.36
898.441	7069.32
898.756	7058.47
899.071	7026.16
899.386	6994.52
899.7	6919.49
900.015	6884.69
900.33	6884.69
900.644	6931.02
900.959	6907.06
901.273	6848.31
901.588	6829.1
901.902	6765.6
902.216	6752.49
902.531	6739.84
902.845	6719.5
903.159	6687.18
903.473	6687.18
903.787	6692.83
904.101	6604.93
904.415	6559.5
904.729	6597.02
905.042	6612.38
905.356	6599.05
905.67	6530.58
905.984	6527.41
906.297	6480.63
906.611	6456.68
906.924	6431.14
907.237	6394.08
907.551	6411.94
907.864	6401.99
908.177	6333.29
908.491	6340.07
908.804	6284.26
909.117	6318.61
909.43	6334.65
909.743	6203.35
910.056	6209.46
910.368	6180.08
910.681	6123.36
910.994	6162.68
911.307	6102.79
911.619	6071.83
911.932	6023.7
912.244	6011.95
912.557	6063.7
912.869	6000.42
913.181	5944.83
913.494	5937.82
913.806	5859.41
914.118	5903.02
914.43	5836.36
914.742	5863.7
915.054	5801.33
915.366	5784.83
915.678	5772.86
915.99	5733.08
916.302	5718.85
916.613	5679.07
916.925	5703.71
917.236	5663.71
917.548	5644.27
917.859	5601.56
918.171	5566.08
918.482	5618.51
918.794	5541
919.105	5501.45
919.416	5562.01
919.727	5495.35
920.038	5426.2
920.349	5407.22
920.66	5370.38
920.971	5390.49
921.282	5414.45
921.593	5341.68
921.903	5331.96
922.214	5347.33
922.525	5314.79
922.835	5251.97
923.146	5197.73
923.456	5227.79
923.767	5197.73
924.077	5183.27
924.387	5219.88
924.697	5192.31
925.008	5156.6
925.318	5110.5
925.628	5110.5
925.938	5079.32
926.248	4999.32
926.558	5003.39
926.867	5010.84
927.177	5000
927.487	4985.98
927.796	4894.46
928.106	4935.14
928.416	4914.12
928.725	4888.36
929.034	4881.13
929.344	4868.93
929.653	4859.66
929.962	4803.62
930.271	4752.32
930.581	4748.02
930.89	4753.9
931.199	4709.38
931.508	4690.63
931.817	4682.04
932.125	4676.16
932.434	4633.23
932.743	4625.54
933.051	4561.82
933.36	4595.71
933.669	4581.02
933.977	4522.27
934.286	4550.74
934.594	4536.73
934.902	4503.29
935.21	4485.43
935.519	4482.5
935.827	4461.25
936.135	4418.09
936.443	4364.98
936.751	4383.97
937.059	4396.85
937.367	4329.96
937.674	4376.06
937.982	4301.48
938.29	4291.54
938.597	4287.02
938.905	4258.77
939.213	4258.55
939.52	4229.17
939.827	4249.96
940.135	4172.22
940.442	4143.07
940.749	4177.87
941.056	4121.83
941.363	4075.95
941.67	4131.54
941.977	4096.52
942.284	4070.98
942.591	4047.93
942.898	4033.47
943.205	4042.96
943.511	4019.91
943.818	4005.9
944.125	3964.99
944.431	3923.87
944.738	3938.1
945.044	3884.32
945.35	3892.91
945.657	3864.66
945.963	3825.56
946.269	3840.48
946.575	3846.58
946.881	3813.36
947.187	3859.69
947.493	3767.94
947.799	3804.09
948.105	3773.81
948.41	3751.67
948.716	3739.69
949.022	3702.18
949.327	3743.76
949.633	3645.91
949.938	3709.86
950.244	3702.18
950.549	3649.3
950.854	3623.31
951.16	3581.73
951.465	3594.61
951.77	3554.16
952.075	3566.81
952.38	3552.35
952.685	3576.98
952.99	3492.92
953.294	3507.38
953.599	3474.39
953.904	3456.99
954.209	3437.32
954.513	3459.25
954.818	3439.58
955.122	3419.7
955.426	3407.72
955.731	3379.7
956.035	3353.03
956.339	3354.39
956.643	3336.08
956.948	3365.01
957.252	3311.9
957.556	3312.81
957.86	3279.81
958.163	3259.25
958.467	3222.19
958.771	3202.75
959.075	3239.59
959.378	3247.27
959.682	3198.91
959.985	3173.15
960.289	3200.95
960.592	3162.3
960.896	3176.99
961.199	3164.11
961.502	3136.09
961.805	3127.73
962.108	3128.63
962.411	3090.89
962.714	3069.2
963.017	3054.96
963.32	3056.09
963.623	3049.76
963.926	3045.02
964.228	3022.65
964.531	3008.64
964.833	2985.13
965.136	2965.25
965.438	2985.13
965.741	2934.06
966.043	2947.17
966.345	2917.34
966.648	2917.11
966.95	2926.83
967.252	2927.96
967.554	2913.72
967.856	2843.67
968.158	2813.16
968.46	2851.13
968.761	2816.1
969.063	2833.05
969.365	2816.55
969.666	2797.79
969.968	2788.75
970.269	2760.28
970.571	2776.55
970.872	2760.28
971.174	2733.16
971.475	2760.05
971.776	2732.26
972.077	2687.51
972.378	2725.48
972.679	2663.11
972.98	2674.41
973.281	2673.73
973.582	2651.36
973.883	2643
974.183	2609.55
974.484	2608.87
974.785	2582.66
975.085	2600.96
975.386	2591.25
975.686	2557.35
975.986	2554.41
976.287	2573.39
976.587	2551.47
976.887	2546.73
977.187	2553.28
977.487	2509.44
977.787	2521.19
978.087	2492.94
978.387	2481.42
978.687	2485.03
978.987	2452.27
979.286	2458.37
979.586	2445.26
979.885	2418.82
980.185	2438.03
980.484	2407.97
980.784	2398.26
981.083	2371.59
981.382	2337.01
981.682	2386.51
981.981	2336.34
982.28	2361.65
982.579	2330.91
982.878	2356.9
983.177	2284.81
983.475	2336.34
983.774	2311.7
984.073	2270.8
984.372	2276.9
984.67	2251.14
984.969	2259.05
985.267	2265.38
985.566	2234.64
985.864	2207.07
986.162	2234.64
986.461	2189.9
986.759	2217.92
987.057	2177.47
987.355	2198.71
987.653	2181.76
987.951	2156.45
988.249	2170.47
988.547	2109.9
988.844	2129.11
989.142	2118.04
989.44	2105.16
989.737	2103.57
990.035	2124.37
990.332	2081.88
990.63	2054.31
990.927	2081.65
991.224	2086.4
991.521	2055.67
991.819	2058.6
992.116	2034.65
992.413	2048.43
992.71	2033.97
993.006	2006.85
993.303	2008.66
993.6	2021.09
993.897	1968.21
994.193	1954.43
994.49	1948.78
994.787	1953.75
995.083	1949.91
995.379	1932.51
995.676	1943.58
995.972	1917.14
996.268	1909.91
996.565	1905.16
996.861	1883.69
997.157	1902
997.453	1872.85
997.749	1883.47
998.044	1853.19
998.34	1847.76
998.636	1853.86
998.932	1843.69
999.227	1823.13
999.523	1829.91
999.818	1810.7
1000.114	1797.82
1000.409	1799.63
1000.704	1774.54
1001	1776.8
1001.295	1763.7
1001.59	1751.49
1001.885	1770.48
1002.18	1745.84
1002.475	1714.66
1002.77	1727.99
1003.065	1691.83
1003.359	1723.02
1003.654	1687.99
1003.949	1672.63
1004.243	1697.48
1004.538	1653.87
1004.832	1651.38
1005.127	1693.87
1005.421	1625.4
1005.715	1632.85
1006.009	1634.89
1006.304	1611.38
1006.598	1591.05
1006.892	1602.34
1007.186	1561.22
1007.48	1577.71
1007.773	1589.92
1008.067	1571.16
1008.361	1495.23
1008.655	1523.48
1008.948	1497.26
1009.242	1516.92
1009.535	1502.23
1009.829	1511.73
1010.122	1517.6
1010.415	1503.14
1010.708	1481.44
1011.001	1469.24
1011.295	1472.63
1011.588	1483.93
1011.881	1449.13
1012.173	1432.86
1012.466	1462.01
1012.759	1445.51
1013.052	1437.6
1013.344	1425.17
1013.637	1401.67
1013.93	1420.88
1014.222	1398.28
1014.514	1384.95
1014.807	1367.1
1015.099	1378.17
1015.391	1382.01
1015.683	1375.01
1015.976	1355.57
1016.268	1343.82
1016.56	1343.59
1016.851	1312.18
1017.143	1302.24
1017.435	1313.99
1017.727	1307.89
1018.018	1296.59
1018.31	1292.97
1018.602	1281.9
1018.893	1271.73
1019.185	1267.44
1019.476	1251.39
1019.767	1259.53
1020.058	1238.96
1020.35	1220.89
1020.641	1253.2
1020.932	1231.28
1021.223	1201.9
1021.514	1200.32
1021.804	1188.57
1022.095	1201.68
1022.386	1180.66
1022.677	1175.01
1022.967	1166.42
1023.258	1135.01
1023.548	1161.23
1023.839	1145.63
1024.129	1170.49
1024.419	1155.12
1024.709	1119.87
1025	1145.18
1025.29	1112.87
1025.58	1091.4
1025.87	1091.4
1026.16	1078.52
1026.449	1093.43
1026.739	1102.7
1027.029	1052.75
1027.319	1059.08
1027.608	1072.19
1027.898	1051.85
1028.187	1040.78
1028.477	1047.11
1028.766	1042.13
1029.055	1037.39
1029.344	1035.58
1029.634	1003.04
1029.923	997.39
1030.212	1002.59
1030.501	983.38
1030.79	984.73
1031.078	991.29
1031.367	989.93
1031.656	969.82
1031.945	968.24
1032.233	978.63
1032.522	955.58
1032.81	944.96
1033.099	962.36
1033.387	953.77
1033.675	938.41
1033.963	931.4
1034.251	931.63
1034.54	923.72
1034.828	904.28
1035.116	898.41
1035.403	884.4
1035.691	920.55
1035.979	902.02
1036.267	864.06
1036.554	890.5
1036.842	875.36
1037.129	862.03
1037.417	857.51
1037.704	823.83
1037.992	847.11
1038.279	842.14
1038.566	838.07
1038.853	838.07
1039.14	838.07
