Data from cardboard_FLMS001491_001.txt Node
Date: Tue Feb 07 11:38:50 GMT 2017
User: dcchb
Spectrometer: FLMS00149
Trigger mode: 0
Integration Time (sec): 2.000000E-2
Scans to average: 10
Electric dark correction enabled: true
Nonlinearity correction enabled: false
Boxcar width: 0
XAxis mode: Wavelengths
Number of Pixels in Spectrum: 2048
>>>>>Begin Spectral Data<<<<<
341.393	0.35
341.776	0.35
342.16	0.35
342.543	-53.2
342.927	-62.24
343.31	-82.58
343.693	-54.33
344.077	-69.25
344.46	-63.37
344.843	-62.02
345.226	-33.09
345.61	-40.32
345.993	-14.34
346.376	-20.66
346.759	14.59
347.142	33.12
347.525	47.13
347.908	67.92
348.291	65.89
348.674	100.01
349.057	111.31
349.44	126.68
349.823	157.64
350.206	169.16
350.588	184.53
350.971	199.67
351.354	218.43
351.737	224.75
352.119	239.44
352.502	253
352.884	273.79
353.267	260.91
353.65	291.64
354.032	297.97
354.414	304.98
354.797	276.05
355.179	327.58
355.562	313.34
355.944	316.05
356.326	309.27
356.709	310.85
357.091	330.51
357.473	309.27
357.855	326.67
358.238	322.6
358.62	327.8
359.002	338.65
359.384	353.56
359.766	327.8
360.148	328.25
360.53	342.27
360.912	334.81
361.294	323.51
361.676	320.34
362.057	347.91
362.439	315.37
362.821	330.29
363.203	322.15
363.584	309.5
363.966	286.45
364.348	320.34
364.729	339.78
365.111	315.83
365.493	300.68
365.874	299.33
366.256	295.26
366.637	318.54
367.019	308.37
367.4	305.43
367.781	289.61
368.163	317.86
368.544	294.36
368.925	309.27
369.306	299.55
369.688	315.37
370.069	305.43
370.45	285.32
370.831	300.23
371.212	292.1
371.593	297.07
371.974	321.93
372.355	310.18
372.736	313.34
373.117	300.23
373.498	315.15
373.879	287.35
374.26	302.72
374.641	307.69
375.021	308.59
375.402	291.64
375.783	280.12
376.163	312.44
376.544	288.48
376.925	303.62
377.305	299.55
377.686	323.06
378.066	284.19
378.447	332.55
378.827	325.32
379.208	319.89
379.588	308.59
379.968	304.75
380.349	324.19
380.729	327.35
381.109	317.41
381.489	307.92
381.87	330.51
382.25	330.29
382.63	300.91
383.01	305.43
383.39	344.98
383.77	315.37
384.15	329.16
384.53	335.71
384.91	332.77
385.29	329.61
385.67	342.49
386.049	315.37
386.429	338.65
386.809	321.93
387.189	340.91
387.568	350.4
387.948	337.75
388.328	317.63
388.707	336.62
389.087	319.89
389.466	339.1
389.846	353.11
390.225	336.39
390.605	336.16
390.984	347.01
391.363	364.19
391.743	348.82
392.122	362.6
392.501	340.68
392.881	349.72
393.26	339.78
393.639	350.85
394.018	347.69
394.397	347.01
394.776	363.96
395.155	340.23
395.534	341.59
395.913	361.25
396.292	372.09
396.671	354.24
397.05	369.16
397.429	350.17
397.808	374.13
398.186	347.91
398.565	360.57
398.944	351.53
399.323	363.73
399.701	376.39
400.08	362.15
400.458	368.25
400.837	368.48
401.215	382.04
401.594	368.25
401.972	388.59
402.351	370.96
402.729	392.89
403.107	367.58
403.486	381.36
403.864	377.97
404.242	372.55
404.62	381.81
404.999	388.37
405.377	399.89
405.755	379.55
406.133	385.65
406.511	406.9
406.889	397.4
407.267	395.14
407.645	420.46
408.023	401.47
408.401	417.07
408.779	401.92
409.156	401.7
409.534	400.12
409.912	415.94
410.29	431.53
410.667	411.64
411.045	408.93
411.422	417.97
411.8	422.71
412.178	412.77
412.555	404.18
412.933	429.04
413.31	432.66
413.687	439.66
414.065	430.85
414.442	454.8
414.819	462.71
415.197	441.02
415.574	443.51
415.951	447.12
416.328	449.83
416.705	460
417.082	463.84
417.46	438.76
417.837	474.46
418.214	453.45
418.591	444.86
418.967	442.83
419.344	476.72
419.721	465.2
420.098	460.45
420.475	484.86
420.852	483.96
421.228	457.06
421.605	471.98
421.982	500.23
422.358	482.37
422.735	504.97
423.111	501.36
423.488	484.86
423.864	507.23
424.241	496.61
424.617	500.68
424.994	499.77
425.37	490.96
425.746	493.45
426.123	512.2
426.499	503.62
426.875	536.38
427.251	528.93
427.627	519.21
428.003	532.09
428.379	550.62
428.756	542.03
429.132	529.6
429.507	537.29
429.883	543.16
430.259	559.21
430.635	559.21
431.011	537.51
431.387	560.79
431.763	563.5
432.138	561.47
432.514	553.11
432.89	562.82
433.265	595.14
433.641	580.68
434.016	605.76
434.392	610.51
434.767	626.55
435.143	596.72
435.518	613.9
435.894	607.34
436.269	615.48
436.644	608.02
437.02	623.16
437.395	623.61
437.77	632.65
438.145	637.17
438.52	657.06
438.895	629.94
439.271	662.48
439.646	648.02
440.021	656.61
440.395	661.8
440.77	669.94
441.145	676.95
441.52	670.62
441.895	684.85
442.27	674.01
442.645	693.89
443.019	686.44
443.394	698.41
443.769	696.38
444.143	676.49
444.518	712.2
444.892	695.7
445.267	702.03
445.641	700.67
446.016	725.76
446.39	719.66
446.764	708.36
447.139	711.52
447.513	722.37
447.887	717.85
448.262	731.41
448.636	726.66
449.01	737.96
449.384	734.57
449.758	767.34
450.132	750.39
450.506	755.59
450.88	743.84
451.254	756.94
451.628	755.36
452.002	761.91
452.376	813.67
452.75	772.76
453.123	805.3
453.497	788.13
453.871	809.37
454.244	805.3
454.618	826.77
454.992	807.34
455.365	834.68
455.739	852.99
456.112	850.27
456.486	847.56
456.859	849.14
457.232	875.81
457.606	857.05
457.979	859.77
458.352	885.75
458.725	898.41
459.099	928.01
459.472	893.89
459.845	934.57
460.218	917.62
460.591	936.83
460.964	915.13
461.337	940.67
461.71	975.69
462.083	959.65
462.456	975.02
462.829	976.15
463.201	982.93
463.574	981.8
463.947	1016.15
464.32	1024.73
464.692	1032.64
465.065	1036.26
465.438	1071.96
465.81	1056.82
466.183	1064.28
466.555	1069.03
466.928	1089.14
467.3	1133.2
467.672	1102.02
468.045	1132.75
468.417	1140.89
468.789	1155.35
469.161	1144.96
469.534	1176.59
469.906	1167.1
470.278	1171.85
470.65	1213.2
471.022	1212.3
471.394	1252.75
471.766	1236.25
472.138	1264.95
472.51	1292.97
472.882	1306.08
473.253	1308.34
473.625	1317.38
473.997	1336.82
474.369	1338.85
474.74	1391.5
475.112	1400.99
475.484	1417.26
475.855	1414.33
476.227	1452.07
476.598	1492.52
476.97	1478.51
477.341	1509.24
477.713	1508.34
478.084	1532.29
478.455	1584.04
478.827	1583.81
479.198	1614.55
479.569	1633.98
479.94	1656.13
480.311	1693.87
480.682	1724.38
481.053	1757.14
481.424	1797.14
481.795	1793.98
482.166	1815.22
482.537	1850.25
482.908	1895.67
483.279	1893.86
483.65	1932.05
484.021	1991.26
484.391	2011.37
484.762	2009.34
485.133	2057.93
485.503	2058.6
485.874	2090.92
486.244	2122.56
486.615	2140.41
486.985	2180.41
487.356	2205.72
487.726	2228.54
488.097	2300.63
488.467	2284.59
488.837	2343.12
489.207	2350.57
489.578	2381.76
489.948	2432.61
490.318	2479.84
490.688	2468.08
491.058	2528.87
491.428	2495.88
491.798	2579.95
492.168	2599.61
492.538	2604.35
492.908	2626.05
493.278	2698.59
493.648	2704.01
494.017	2793.05
494.387	2765.25
494.757	2781.97
495.126	2839.83
495.496	2849.77
495.866	2856.1
496.235	2878.7
496.605	2919.15
496.974	2957.56
497.344	3023.55
497.713	2982.2
498.082	3049.09
498.452	3077.11
498.821	3094.74
499.19	3050.44
499.559	3102.64
499.928	3161.4
500.298	3174.96
500.667	3254.73
501.036	3242.08
501.405	3288.18
501.774	3284.33
502.143	3331.79
502.512	3351.68
502.88	3408.63
503.249	3388.74
503.618	3394.84
503.987	3416.53
504.356	3498.79
504.724	3516.64
505.093	3527.49
505.462	3541.95
505.83	3534.72
506.199	3630.54
506.567	3694.27
506.936	3694.95
507.304	3720.71
507.672	3759.8
508.041	3748.5
508.409	3860.14
508.777	3833.47
509.145	3852
509.514	3910.31
509.882	3915.28
510.25	3952.79
510.618	3998.89
510.986	4007.71
511.354	4067.36
511.722	4112.79
512.09	4077.53
512.458	4132.67
512.826	4236.63
513.193	4212.67
513.561	4280.47
513.929	4320.01
514.297	4308.71
514.664	4414.47
515.032	4403.4
515.4	4450.41
515.767	4486.79
516.135	4521.36
516.502	4494.7
516.869	4583.51
517.237	4632.77
517.604	4646.33
517.972	4719.55
518.339	4751.64
518.706	4771.53
519.073	4737.4
519.44	4852.2
519.808	4915.7
520.175	4900.56
520.542	4998.64
520.909	5019.66
521.276	5019.2
521.643	5119.54
522.009	5192.98
522.376	5236.37
522.743	5275.69
523.11	5329.93
523.477	5405.86
523.843	5451.74
524.21	5508.23
524.577	5529.93
524.943	5529.47
525.31	5575.35
525.676	5658.06
526.043	5708.9
526.409	5762.69
526.776	5811.05
527.142	5824.83
527.508	5871.39
527.874	5966.98
528.241	5992.74
528.607	6065.96
528.973	6039.29
529.339	6138.95
529.705	6198.61
530.071	6288.55
530.437	6247.87
530.803	6372.61
531.169	6378.26
531.535	6397.25
531.901	6471.14
532.267	6478.37
532.632	6549.33
532.998	6570.8
533.364	6653.74
533.73	6619.84
534.095	6733.51
534.461	6731.93
534.826	6802.89
535.192	6862.09
535.557	6939.83
535.923	6992.03
536.288	6973.28
536.653	7023.9
537.019	7016.44
537.384	7083.56
537.749	7134.18
538.114	7197
538.479	7206.27
538.845	7265.92
539.21	7266.15
539.575	7375.53
539.94	7374.4
540.305	7433.83
540.67	7424.79
541.034	7493.04
541.399	7604.45
541.764	7580.49
542.129	7633.37
542.494	7667.72
542.858	7725.12
543.223	7768.74
543.587	7833.14
543.952	7799.47
544.316	7868.39
544.681	7923.08
545.045	7955.62
545.41	8013.93
545.774	8002.18
546.138	8095.06
546.503	8120.37
546.867	8137.09
547.231	8215.05
547.595	8254.6
547.959	8289.17
548.324	8303.64
548.688	8358.33
549.052	8365.33
549.416	8467.02
549.779	8423.63
550.143	8495.95
550.507	8554.03
550.871	8600.58
551.235	8658.2
551.599	8708.15
551.962	8746.34
552.326	8783.4
552.689	8855.94
553.053	8876.05
553.417	8855.94
553.78	8959.44
554.143	9045.54
554.507	9105.2
554.87	9096.16
555.234	9197.4
555.597	9142.49
555.96	9145.88
556.323	9357.17
556.686	9313.1
557.05	9443.72
557.413	9471.29
557.776	9499.76
558.139	9559.65
558.502	9640.33
558.865	9646.2
559.228	9754.9
559.59	9831.73
559.953	9878.06
560.316	9940.66
560.679	9925.29
561.041	10025.17
561.404	10090.03
561.767	10142.69
562.129	10082.57
562.492	10287.99
562.854	10319.18
563.217	10333.41
563.579	10405.05
563.941	10509.23
564.304	10500.42
564.666	10558.27
565.028	10636.68
565.39	10665.84
565.753	10730.24
566.115	10850.24
566.477	10889.78
566.839	10913.29
567.201	11085.03
567.563	11045.49
567.925	11115.32
568.287	11174.52
568.648	11211.58
569.01	11277.8
569.372	11317.57
569.734	11366.61
570.095	11411.35
570.457	11528.41
570.819	11550.33
571.18	11598.47
571.542	11604.34
571.903	11732.47
572.265	11766.82
572.626	11847.95
572.987	11809.53
573.349	11899.93
573.71	11958.91
574.071	11992.81
574.432	12051.11
574.794	12126.36
575.155	12104.44
575.516	12079.13
575.877	12202.74
576.238	12276.41
576.599	12303.76
576.96	12280.71
577.32	12322.74
577.681	12439.12
578.042	12455.17
578.403	12520.7
578.763	12532.9
579.124	12600.47
579.485	12695.84
579.845	12641.15
580.206	12686.12
580.566	12738.78
580.927	12779.23
581.287	12785.55
581.648	12857.42
582.008	12939.67
582.368	12833.46
582.728	12916.17
583.089	13020.8
583.449	12956.62
583.809	12939.9
584.169	13058.09
584.529	13063.29
584.889	13173.34
585.249	13114.58
585.609	13101.93
585.969	13214.24
586.329	13119.33
586.688	13212.21
587.048	13224.86
587.408	13193.68
587.768	13264.19
588.127	13253.34
588.487	13223.73
588.846	13379.44
589.206	13274.35
589.565	13369.95
589.925	13450.17
590.284	13403.62
590.643	13469.6
591.003	13579.66
591.362	13476.16
591.721	13526.78
592.08	13540.34
592.44	13516.61
592.799	13547.12
593.158	13593.89
593.517	13619.43
593.876	13641.58
594.235	13695.81
594.593	13705.98
594.952	13761.8
595.311	13658.75
595.67	13734.91
596.029	13915.69
596.387	13881.12
596.746	13904.85
597.104	13792.53
597.463	13921.79
597.822	13926.31
598.18	13884.06
598.538	13936.71
598.897	14098.06
599.255	13950.72
599.613	14131.96
599.972	14011.06
600.33	14183.93
600.688	14011.06
601.046	14082.69
601.404	14163.6
601.762	14160.21
602.12	14300.99
602.478	14183.93
602.836	14230.71
603.194	14219.41
603.552	14233.88
603.91	14264.38
604.268	14300.77
604.625	14241.56
604.983	14347.09
605.341	14312.97
605.698	14435.68
606.056	14372.4
606.413	14444.95
606.771	14496.47
607.128	14579.4
607.485	14525.85
607.843	14558.16
608.2	14634.32
608.557	14665.28
608.914	14670.25
609.272	14705.28
609.629	14668.22
609.986	14827.76
610.343	14737.37
610.7	14785.73
611.057	14910.24
611.414	14804.48
611.771	14882.67
612.127	14910.47
612.484	15008.55
612.841	14972.39
613.198	14953.86
613.554	15119.96
613.911	15136.9
614.267	15137.81
614.624	15083.35
614.98	15110.69
615.337	15242.66
615.693	15180.07
616.05	15193.17
616.406	15338.71
616.762	15249.44
617.118	15290.12
617.475	15302.55
617.831	15328.31
618.187	15426.16
618.543	15371.02
618.899	15525.37
619.255	15512.26
619.611	15406.05
619.967	15442.66
620.323	15505.93
620.678	15573.28
621.034	15469.55
621.39	15572.37
621.746	15499.38
622.101	15731.69
622.457	15549.55
622.812	15658.92
623.168	15629.55
623.523	15677.91
623.879	15655.99
624.234	15696.66
624.589	15788.86
624.945	15782.99
625.3	15755.65
625.655	15728.75
626.01	15856.43
626.365	15863.89
626.72	15824.34
627.075	15841.74
627.43	15764.91
627.785	15750.22
628.14	15878.58
628.495	15914.74
628.85	15857.11
629.205	15725.82
629.559	15836.77
629.914	15786.83
630.269	15805.14
630.623	15803.55
630.978	15846.04
631.332	15873.16
631.687	15845.81
632.041	15801.07
632.396	15860.28
632.75	15808.53
633.104	15893.27
633.459	15799.49
633.813	15844.46
634.167	15802.88
634.521	15857.11
634.875	15792.93
635.229	15821.18
635.583	15741.18
635.937	15760.84
636.291	15787.51
636.645	15828.19
636.999	15800.39
637.352	15736.44
637.706	15726.95
638.06	15825.47
638.413	15788.86
638.767	15757.9
639.121	15745.02
639.474	15689.88
639.828	15593.16
640.181	15768.98
640.534	15749.09
640.888	15661.64
641.241	15668.19
641.594	15758.58
641.947	15719.94
642.301	15671.81
642.654	15759.71
643.007	15712.03
643.36	15674.52
643.713	15663.9
644.066	15737.79
644.419	15657.79
644.771	15497.35
645.124	15297.8
645.477	15436.11
645.83	15279.05
646.182	15211.93
646.535	15218.48
646.888	15260.74
647.24	15178.03
647.593	15278.6
647.945	15222.33
648.298	15183.46
648.65	15180.97
649.002	15098.04
649.355	15198.82
649.707	15182.55
650.059	15221.87
650.411	15448.08
650.763	15499.61
651.115	15620.96
651.467	15659.38
651.819	15669.32
652.171	15535.09
652.523	15505.93
652.875	15563.33
653.227	15509.1
653.578	15638.59
653.93	15595.2
654.282	15543.9
654.633	15543.9
654.985	15559.49
655.337	15577.57
655.688	15552.26
656.039	15701.41
656.391	15426.61
656.742	15491.7
657.094	15528.76
657.445	15599.04
657.796	15655.31
658.147	15565.59
658.498	15581.86
658.849	15620.06
659.2	15608.53
659.551	15476.56
659.902	15606.95
660.253	15582.77
660.604	15629.77
660.955	15601.3
661.306	15697.57
661.656	15536.67
662.007	15601.52
662.358	15525.82
662.708	15555.42
663.059	15516.33
663.409	15420.51
663.76	15644.01
664.11	15600.62
664.461	15592.94
664.811	15604.69
665.161	15611.69
665.511	15667.06
665.862	15562.88
666.212	15722.65
666.562	15663.9
666.912	15606.95
667.262	15641.75
667.612	15651.24
667.962	15620.51
668.312	15631.81
668.662	15700.28
669.011	15652.6
669.361	15622.32
669.711	15722.88
670.06	15623.67
670.41	15587.74
670.76	15595.42
671.109	15659.38
671.459	15657.57
671.808	15545.26
672.157	15647.4
672.507	15544.13
672.856	15543
673.205	15561.75
673.554	15625.7
673.904	15613.5
674.253	15699.15
674.602	15622.09
674.951	15414.86
675.3	15322.21
675.649	15614.18
675.998	15596.55
676.346	15604.01
676.695	15651.69
677.044	15546.84
677.393	15581.19
677.741	15619.15
678.09	15585.03
678.438	15491.7
678.787	15525.14
679.135	15592.71
679.484	15526.95
679.832	15566.5
680.181	15444.24
680.529	15539.15
680.877	15435.88
681.225	15434.52
681.573	15554.07
681.922	15408.08
682.27	15492.6
682.618	15396.56
682.966	15438.37
683.314	15431.36
683.661	15402.21
684.009	15317.92
684.357	15224.59
684.705	15273.85
685.053	15300.74
685.4	15227.3
685.748	15273.17
686.095	15260.29
686.443	15110.24
686.79	15160.41
687.138	15204.25
687.485	15183.23
687.832	15152.05
688.18	15173.51
688.527	15042.44
688.874	15053.52
689.221	15048.32
689.568	15025.04
689.915	15000.64
690.262	14929.23
690.609	14877.02
690.956	14845.61
691.303	14875.44
691.65	14768.33
691.997	14813.07
692.344	14740.08
692.69	14675.45
693.037	14679.97
693.383	14710.47
693.73	14649.91
694.077	14651.95
694.423	14547.32
694.769	14604.04
695.116	14550.48
695.462	14611.95
695.808	14532.17
696.155	14573.98
696.501	14430.03
696.847	14500.54
697.193	14410.82
697.539	14399.3
697.885	14352.07
698.231	14263.93
698.577	14330.15
698.923	14199.53
699.269	14240.43
699.614	14129.02
699.96	14135.57
700.306	14201.56
700.651	14032.98
700.997	14004.5
701.342	13952.98
701.688	13941.91
702.033	13911.17
702.379	14041.11
702.724	13989.14
703.069	13945.52
703.415	13889.48
703.76	13859.65
704.105	13799.76
704.45	13795.92
704.795	13770.16
705.14	13670.73
705.485	13696.72
705.83	13722.25
706.175	13730.39
706.52	13607.23
706.865	13596.61
707.209	13570.39
707.554	13587.34
707.899	13551.41
708.243	13501.47
708.588	13527
708.932	13374.69
709.277	13430.96
709.621	13437.74
709.966	13271.64
710.31	13350.51
710.654	13258.54
710.998	13273.22
711.342	13290.4
711.687	13253.79
712.031	13236.84
712.375	13128.37
712.719	13143.06
713.063	13154.36
713.407	13216.05
713.75	13156.39
714.094	13126.11
714.438	13036.62
714.782	13062.83
715.125	13098.54
715.469	13105.32
715.812	12977.19
716.156	12937.87
716.499	12965.21
716.843	12994.59
717.186	12819
717.53	12977.41
717.873	12973.8
718.216	12985.32
718.559	12895.83
718.902	12830.98
719.246	12819.9
719.589	12821.26
719.932	12675.73
720.275	12809.73
720.617	12787.81
720.96	12727.93
721.303	12771.09
721.646	12724.09
721.989	12695.39
722.331	12750.53
722.674	12768.15
723.016	12736.06
723.359	12736.74
723.701	12714.14
724.044	12643.41
724.386	12555.96
724.729	12580.14
725.071	12587.82
725.413	12607.25
725.755	12510.08
726.097	12579.91
726.439	12454.04
726.782	12492.91
727.124	12649.74
727.465	12428.5
727.807	12406.81
728.149	12550.31
728.491	12431.66
728.833	12458.78
729.175	12472.57
729.516	12479.35
729.858	12392.34
730.199	12398.22
730.541	12415.17
730.882	12395.06
731.224	12432.12
731.565	12350.54
731.906	12380.37
732.248	12409.52
732.589	12336.53
732.93	12319.13
733.271	12290.43
733.612	12377.43
733.953	12331.1
734.294	12256.53
734.635	12248.62
734.976	12167.26
735.317	12230.09
735.658	12267.38
735.999	12228.51
736.339	12213.59
736.68	12185.57
737.021	12193.93
737.361	12105.12
737.702	12300.14
738.042	12282.74
738.383	12192.8
738.723	12163.88
739.063	12155.29
739.404	12198.45
739.744	12167.94
740.084	12142.18
740.424	12214.72
740.764	12183.99
741.104	12264.44
741.444	12136.53
741.784	12063.99
742.124	12108.74
742.464	12071
742.804	12095.85
743.143	12065.57
743.483	12072.8
743.823	12107.15
744.162	12073.93
744.502	12012.69
744.841	12054.5
745.181	12071
745.52	11991
745.86	12022.41
746.199	11977.89
746.538	11975.86
746.877	12085.91
747.216	12016.53
747.556	12085.69
747.895	12034.16
748.234	11979.7
748.573	11931.79
748.911	11896.76
749.25	11920.49
749.589	11998.23
749.928	11914.84
750.267	11958
750.605	11925.01
750.944	11907.16
751.283	11893.6
751.621	11909.19
751.96	11821.29
752.298	11853.15
752.636	11862.19
752.975	11817.67
753.313	11736.32
753.651	11812.25
753.989	11774.05
754.327	11706.71
754.666	11721.17
755.004	11791.46
755.342	11800.72
755.679	11718.46
756.017	11679.14
756.355	11724.11
756.693	11640.5
757.031	11621.52
757.368	11588.97
757.706	11692.93
758.044	11565.02
758.381	11590.78
758.719	11585.13
759.056	11549.2
759.394	11466.94
759.731	11472.14
760.068	11540.61
760.405	11527.51
760.743	11471.69
761.08	11450.9
761.417	11324.35
761.754	11361.86
762.091	11406.15
762.428	11295.42
762.765	11246.39
763.102	11292.94
763.438	11276.44
763.775	11128.2
764.112	11220.4
764.449	11166.61
764.785	11146.5
765.122	11104.02
765.458	11104.47
765.795	10986.05
766.131	11106.05
766.467	11000.06
766.804	10978.82
767.14	10939.95
767.476	10928.2
767.812	10934.98
768.148	10935.88
768.485	10889.56
768.821	10741.77
769.157	10771.37
769.492	10767.75
769.828	10845.04
770.164	10680.75
770.5	10684.37
770.836	10676.46
771.171	10589.91
771.507	10587.65
771.842	10543.58
772.178	10525.73
772.513	10478.27
772.849	10447.08
773.184	10406.18
773.519	10407.31
773.855	10315.34
774.19	10303.59
774.525	10330.02
774.86	10261.55
775.195	10307.65
775.53	10232.63
775.865	10178.62
776.2	10125.28
776.535	10072.18
776.87	10086.87
777.205	10006.87
777.539	10026.76
777.874	10053.87
778.209	9992.18
778.543	9887.78
778.878	9852.98
779.212	9899.98
779.547	9857.5
779.881	9877.83
780.215	9728.91
780.55	9768.68
780.884	9758.06
781.218	9672.42
781.552	9695.69
781.886	9617.95
782.22	9642.81
782.554	9542.93
782.888	9444.62
783.222	9514.23
783.556	9432.42
783.889	9413.21
784.223	9424.96
784.557	9357.17
784.89	9376.38
785.224	9317.85
785.557	9295.02
785.891	9296.83
786.224	9243.95
786.558	9239.21
786.891	9142.49
787.224	9140.23
787.557	9115.14
787.891	9112.88
788.224	9060.68
788.557	9021.81
788.89	9016.16
789.223	9076.05
789.556	8935.71
789.888	8951.3
790.221	8906.33
790.554	8794.7
790.887	8893.68
791.219	8914.92
791.552	8811.87
791.884	8793.79
792.217	8742.27
792.549	8677.87
792.882	8653.68
793.214	8675.61
793.546	8650.97
793.879	8554.7
794.211	8547.02
794.543	8530.75
794.875	8511.32
795.207	8553.8
795.539	8461.37
795.871	8454.82
796.203	8403.97
796.535	8371.43
796.867	8439.91
797.198	8395.16
797.53	8359.91
797.862	8315.84
798.193	8285.33
798.525	8290.98
798.856	8252.11
799.188	8170.76
799.519	8179.8
799.85	8113.13
800.182	8115.62
800.513	8139.35
800.844	8095.96
801.175	8088.95
801.506	8087.37
801.837	8068.16
802.168	8137.31
802.499	8036.98
802.83	7973.93
803.161	7966.47
803.491	7930.99
803.822	7925.79
804.153	7924.89
804.483	7822.07
804.814	7865.46
805.145	7805.35
805.475	7842.18
805.805	7793.59
806.136	7776.65
806.466	7761.05
806.796	7768.51
807.126	7713.14
807.457	7705.24
807.787	7713.14
808.117	7617.1
808.447	7657.78
808.777	7711.56
809.107	7585.69
809.436	7594.05
809.766	7569.87
810.096	7566.71
810.426	7554.73
810.755	7520.16
811.085	7508.86
811.414	7528.06
811.744	7424.56
812.073	7432.93
812.403	7324.91
812.732	7354.28
813.061	7345.92
813.39	7384.11
813.719	7351.12
814.049	7388.18
814.378	7300.5
814.707	7263.89
815.036	7293.27
815.365	7293.27
815.693	7200.39
816.022	7258.47
816.351	7215.53
816.68	7162.88
817.008	7154.06
817.337	7123.1
817.665	7134.4
817.994	7132.59
818.322	7108.64
818.651	7062.99
818.979	7126.95
819.307	7103.67
819.636	7073.16
819.964	7086.72
820.292	7009.89
820.62	7040.85
820.948	7006.95
821.276	7063.22
821.604	7036.78
821.932	7051.69
822.259	7067.51
822.587	7097.79
822.915	7001.3
823.243	7109.54
823.57	7054.4
823.898	7012.82
824.225	7020.06
824.553	7051.47
824.88	6989.77
825.207	7034.74
825.535	7028.19
825.862	7010.56
826.189	7021.19
826.516	7033.16
826.843	7041.98
827.17	7075.2
827.497	7074.07
827.824	7001.75
828.151	6994.52
828.478	7011.92
828.805	7068.87
829.131	7046.27
829.458	6959.27
829.785	6998.81
830.111	7034.74
830.438	7046.72
830.764	7051.24
831.09	7012.15
831.417	7011.02
831.743	7014.41
832.069	7029.09
832.395	7014.86
832.722	7035.2
833.048	6958.14
833.374	6975.76
833.7	7002.88
834.026	7015.76
834.351	7006.72
834.677	6975.08
835.003	6978.02
835.329	7006.72
835.654	6911.81
835.98	6908.19
836.306	6977.34
836.631	6886.95
836.956	6933.28
837.282	6918.59
837.607	6910
837.932	6905.71
838.258	6870.45
838.583	6855.54
838.908	6856.22
839.233	6857.12
839.558	6880.62
839.883	6866.84
840.208	6846.95
840.533	6792.04
840.858	6806.95
841.182	6828.2
841.507	6816.9
841.832	6748.65
842.156	6733.28
842.481	6724.92
842.805	6785.03
843.13	6695.77
843.454	6674.75
843.778	6719.5
844.103	6661.42
844.427	6629.11
844.751	6627.3
845.075	6648.54
845.399	6633.4
845.723	6622.1
846.047	6593.63
846.371	6526.28
846.695	6578.26
847.019	6500.97
847.343	6484.7
847.666	6431.14
847.99	6411.94
848.313	6430.92
848.637	6404.48
848.96	6376.46
849.284	6356.12
849.607	6353.18
849.931	6326.06
850.254	6255.78
850.577	6246.74
850.9	6208.33
851.223	6154.54
851.546	6169.91
851.869	6143.24
852.192	6173.3
852.515	6109.57
852.838	6123.58
853.161	6077.93
853.483	6087.2
853.806	6038.84
854.129	6023.47
854.451	6022.12
854.774	5997.94
855.096	5963.36
855.419	5952.96
855.741	5949.35
856.063	5918.84
856.385	5901.67
856.708	5903.93
857.03	5880.42
857.352	5883.81
857.674	5857.83
857.996	5823.48
858.318	5808.79
858.64	5818.73
858.961	5783.03
859.283	5748
859.605	5735.8
859.926	5774.21
860.248	5761.78
860.57	5741.22
860.891	5695.57
861.212	5646.76
861.534	5652.41
861.855	5655.8
862.176	5640.66
862.498	5658.28
862.819	5656.25
863.14	5602.01
863.461	5621.9
863.782	5606.99
864.103	5623.48
864.424	5588.91
864.745	5586.87
865.065	5593.2
865.386	5562.01
865.707	5541.45
866.027	5565.4
866.348	5530.15
866.668	5512.52
866.989	5519.76
867.309	5492.19
867.63	5519.53
867.95	5446.31
868.27	5439.31
868.59	5514.33
868.91	5447.67
869.23	5478.63
869.55	5431.85
869.87	5491.96
870.19	5461.9
870.51	5374.68
870.83	5455.8
871.15	5371.06
871.469	5410.61
871.789	5406.76
872.109	5405.63
872.428	5379.65
872.748	5338.97
873.067	5368.35
873.386	5414.45
873.706	5354.56
874.025	5315.24
874.344	5263.27
874.663	5335.35
874.982	5373.32
875.301	5323.83
875.62	5312.3
875.939	5297.16
876.258	5284.51
876.577	5246.32
876.896	5271.85
877.214	5224.85
877.533	5297.84
877.852	5275.47
878.17	5284.06
878.489	5199.31
878.807	5236.83
879.125	5236.37
879.444	5236.83
879.762	5173.78
880.08	5215.58
880.398	5195.02
880.716	5195.7
881.034	5146.88
881.352	5150.05
881.67	5149.14
881.988	5106.21
882.306	5147.56
882.624	5119.54
882.941	5103.5
883.259	5100.56
883.577	5074.34
883.894	5037.73
884.212	5035.93
884.529	5010.16
884.846	5054.01
885.164	5094.68
885.481	5010.62
885.798	5079.09
886.115	5006.32
886.432	5001.13
886.75	4971.07
887.067	4973.1
887.383	4939.43
887.7	4925.42
888.017	4956.38
888.334	4959.32
888.651	4898.98
888.967	4949.6
889.284	4878.87
889.6	4918.64
889.917	4885.42
890.233	4855.59
890.55	4862.82
890.866	4800.23
891.182	4811.3
891.498	4857.4
891.815	4815.82
892.131	4785.09
892.447	4794.13
892.763	4779.89
893.079	4753.22
893.395	4706.9
893.71	4713.22
894.026	4732.43
894.342	4690.4
894.657	4671.19
894.973	4635.94
895.289	4688.37
895.604	4657.86
895.92	4686.56
896.235	4618.31
896.55	4595.49
896.865	4597.52
897.181	4597.75
897.496	4561.14
897.811	4569.27
898.126	4527.47
898.441	4513.45
898.756	4477.98
899.071	4480.46
899.386	4478.2
899.7	4478.43
900.015	4472.55
900.33	4416.28
900.644	4379
900.959	4389.62
901.273	4402.05
901.588	4361.14
901.902	4341.93
902.216	4305.78
902.531	4308.49
902.845	4314.59
903.159	4284.76
903.473	4302.39
903.787	4262.16
904.101	4249.28
904.415	4268.49
904.729	4253.8
905.042	4212.67
905.356	4207.25
905.67	4241.82
905.984	4168.15
906.297	4208.38
906.611	4142.84
906.924	4143.97
907.237	4136.97
907.551	4079.12
907.864	4102.39
908.177	4049.51
908.491	4084.77
908.804	4026.01
909.117	4068.72
909.43	4044.54
909.743	4038.66
910.056	4000.25
910.368	3977.2
910.681	3957.54
910.994	3938.78
911.307	3946.24
911.619	3880.48
911.932	3903.75
912.244	3845.22
912.557	3864.66
912.869	3830.76
913.181	3842.06
913.494	3854.94
913.806	3842.51
914.118	3812
914.43	3752.34
914.742	3802.51
915.054	3772.46
915.366	3731.33
915.678	3747.83
915.99	3721.39
916.302	3682.74
916.613	3692.69
916.925	3684.32
917.236	3702.63
917.548	3629.64
917.859	3648.39
918.171	3624.66
918.482	3594.38
918.794	3580.37
919.105	3638.22
919.416	3540.37
919.727	3542.86
920.038	3551.22
920.349	3514.38
920.66	3505.12
920.971	3499.47
921.282	3499.7
921.593	3446.14
921.903	3467.38
922.214	3451.11
922.525	3431
922.835	3451.79
923.146	3406.37
923.456	3394.84
923.767	3379.93
924.077	3372.24
924.387	3315.52
924.697	3367.04
925.008	3321.85
925.318	3345.12
925.628	3315.52
925.938	3261.51
926.248	3251.79
926.558	3260.15
926.867	3237.33
927.177	3221.96
927.487	3228.74
927.796	3221.06
928.106	3208.86
928.416	3174.05
928.725	3181.96
929.034	3149.2
929.344	3172.25
929.653	3154.17
929.962	3106.03
930.271	3125.47
930.581	3121.4
930.89	3083.21
931.199	3071.46
931.508	3075.98
931.817	3028.52
932.125	3086.37
932.434	3023.78
932.743	3002.31
933.051	2986.04
933.36	2982.42
933.669	2970.67
933.977	2932.93
934.286	2953.95
934.594	2951.91
934.902	2933.38
935.21	2899.03
935.519	2903.78
935.827	2888.64
936.135	2895.42
936.443	2878.92
936.751	2861.75
937.059	2866.72
937.367	2840.05
937.674	2828.75
937.982	2796.66
938.29	2807.06
938.597	2821.75
938.905	2797.79
939.213	2786.72
939.52	2747.17
939.827	2764.35
940.135	2744.24
940.442	2685.71
940.749	2727.06
941.056	2715.54
941.363	2671.47
941.67	2694.29
941.977	2669.66
942.284	2666.5
942.591	2662.2
942.898	2632.37
943.205	2670.34
943.511	2638.02
943.818	2595.54
944.125	2592.15
944.431	2559.16
944.738	2577.69
945.044	2552.38
945.35	2570.23
945.657	2572.49
945.963	2541.53
946.269	2504.02
946.575	2514.86
946.881	2490.91
947.187	2531.13
947.493	2497.91
947.799	2505.15
948.105	2469.89
948.41	2480.74
948.716	2465.37
949.022	2471.93
949.327	2424.47
949.633	2457.69
949.938	2437.35
950.244	2383.57
950.549	2409.78
950.854	2393.74
951.16	2373.17
951.465	2347.86
951.77	2366.62
952.075	2337.47
952.38	2356
952.685	2380.63
952.99	2323.46
953.294	2303.12
953.599	2308.32
953.904	2326.39
954.209	2270.58
954.513	2248.43
954.818	2271.93
955.122	2270.35
955.426	2235.1
955.731	2280.97
956.035	2221.31
956.339	2225.61
956.643	2208.66
956.948	2193.29
957.252	2186.28
957.556	2197.36
957.86	2192.16
958.163	2186.28
958.467	2192.16
958.771	2144.25
959.075	2160.52
959.378	2146.96
959.682	2145.16
959.985	2123.46
960.289	2103.12
960.592	2111.48
960.896	2058.83
961.199	2080.3
961.502	2078.49
961.805	2063.58
962.108	2101.54
962.411	2063.8
962.714	2021.54
963.017	2030.36
963.32	2026.29
963.623	2025.38
963.926	2002.79
964.228	2016.8
964.531	2009.34
964.833	1984.71
965.136	1996.23
965.438	1974.31
965.741	1985.16
966.043	1981.54
966.345	1950.81
966.648	1964.82
966.95	1932.28
967.252	1930.25
967.554	1927.31
967.856	1952.84
968.158	1900.19
968.46	1937.48
968.761	1902.45
969.063	1882.79
969.365	1875.78
969.666	1899.51
969.968	1883.47
970.269	1876.46
970.571	1857.25
970.872	1859.06
971.174	1829.01
971.475	1861.77
971.776	1828.1
972.077	1836.24
972.378	1821.55
972.679	1810.02
972.98	1787.2
973.281	1813.86
973.582	1788.55
973.883	1797.82
974.183	1796.69
974.484	1758.05
974.785	1739.52
975.085	1742.68
975.386	1762.11
975.686	1726.86
975.986	1727.31
976.287	1723.7
976.587	1713.3
976.887	1685.73
977.187	1698.84
977.487	1711.27
977.787	1665.62
978.087	1663.81
978.387	1685.28
978.687	1711.27
978.987	1675.11
979.286	1653.87
979.586	1648.67
979.885	1638.95
980.185	1617.03
980.484	1628.33
980.784	1654.32
981.083	1633.76
981.382	1605.96
981.682	1614.32
981.981	1617.71
982.28	1588.79
982.579	1609.12
982.878	1578.39
983.177	1569.35
983.475	1583.81
983.774	1596.92
984.073	1561.89
984.372	1547.88
984.67	1570.03
984.969	1538.39
985.267	1542.23
985.566	1548.11
985.864	1513.99
986.162	1513.53
986.461	1516.47
986.759	1491.84
987.057	1484.83
987.355	1493.42
987.653	1478.96
987.951	1470.6
988.249	1496.81
988.547	1471.5
988.844	1500.2
989.142	1457.04
989.44	1444.61
989.737	1440.99
990.035	1414.33
990.332	1438.28
990.63	1427.66
990.927	1414.55
991.224	1403.71
991.521	1436.47
991.819	1376.14
992.116	1415.01
992.413	1393.99
992.71	1353.54
993.006	1382.69
993.303	1369.13
993.6	1385.63
993.897	1362.35
994.193	1386.08
994.49	1341.79
994.787	1327.78
995.083	1332.3
995.379	1321.45
995.676	1329.81
995.972	1316.93
996.268	1328
996.565	1341.79
996.861	1305.86
997.157	1283.94
997.453	1289.81
997.749	1287.55
998.044	1282.58
998.34	1292.75
998.636	1297.27
998.932	1245.29
999.227	1258.85
999.523	1284.84
999.818	1253.43
1000.114	1235.35
1000.409	1244.84
1000.704	1242.81
1001	1254.33
1001.295	1218.85
1001.59	1223.15
1001.885	1193.32
1002.18	1225.18
1002.475	1221.34
1002.77	1168.68
1003.065	1215.69
1003.359	1192.19
1003.654	1178.63
1003.949	1188.8
1004.243	1164.62
1004.538	1172.07
1004.832	1150.15
1005.127	1156.93
1005.421	1135.69
1005.715	1160.32
1006.009	1137.05
1006.304	1135.92
1006.598	1136.82
1006.892	1151.51
1007.186	1104.96
1007.48	1118.74
1007.773	1090.04
1008.067	1105.86
1008.361	1097.95
1008.655	1064.05
1008.948	1068.57
1009.242	1090.95
1009.535	1086.2
1009.829	1077.84
1010.122	1088.46
1010.415	1073.77
1010.708	1037.84
1011.001	1061.57
1011.295	1040.33
1011.588	1050.04
1011.881	1016.37
1012.173	1045.75
1012.466	1024.28
1012.759	1029.93
1013.052	1021.12
1013.344	1030.61
1013.637	1021.34
1013.93	1007.11
1014.222	1022.93
1014.514	993.55
1014.807	988.58
1015.099	976.6
1015.391	966.2
1015.683	958.52
1015.976	965.98
1016.268	984.28
1016.56	980.21
1016.851	969.37
1017.143	944.06
1017.435	948.58
1017.727	930.27
1018.018	933.89
1018.31	938.41
1018.602	939.76
1018.893	926.2
1019.185	926.2
1019.476	914.68
1019.767	928.01
1020.058	888.69
1020.35	911.29
1020.641	892.31
1020.932	914.23
1021.223	891.86
1021.514	870.39
1021.804	877.17
1022.095	851.86
1022.386	865.87
1022.677	862.93
1022.967	852.08
1023.258	837.39
1023.548	838.52
1023.839	836.72
1024.129	827
1024.419	806.66
1024.709	824.74
1025	841.69
1025.29	834
1025.58	817.73
1025.87	808.92
1026.16	808.69
1026.449	810.5
1026.739	791.29
1027.029	791.97
1027.319	796.26
1027.608	777.51
1027.898	796.26
1028.187	758.07
1028.477	784.97
1028.766	787.9
1029.055	772.76
1029.344	767.34
1029.634	753.55
1029.923	744.51
1030.212	772.08
1030.501	732.31
1030.79	734.35
1031.078	738.86
1031.367	735.7
1031.656	733.89
1031.945	703.16
1032.233	715.36
1032.522	713.33
1032.81	711.07
1033.099	724.63
1033.387	732.31
1033.675	692.76
1033.963	713.55
1034.251	693.67
1034.54	703.61
1034.828	671.07
1035.116	683.72
1035.403	682.37
1035.691	695.7
1035.979	685.76
1036.267	639.43
1036.554	656.16
1036.842	688.92
1037.129	653.9
1037.417	662.48
1037.704	664.74
1037.992	632.88
1038.279	647.79
1038.566	640.11
1038.853	640.11
1039.14	640.11
