Data from cardboard_FLMS001491_053.txt Node
Date: Tue Feb 07 11:39:43 GMT 2017
User: dcchb
Spectrometer: FLMS00149
Trigger mode: 0
Integration Time (sec): 2.000000E-2
Scans to average: 10
Electric dark correction enabled: true
Nonlinearity correction enabled: false
Boxcar width: 0
XAxis mode: Wavelengths
Number of Pixels in Spectrum: 2048
>>>>>Begin Spectral Data<<<<<
341.393	-2.78
341.776	-2.78
342.16	-2.78
342.543	-81.65
342.927	-57.47
343.31	-66.51
343.693	-79.16
344.077	-66.06
344.46	-62.89
344.843	-61.99
345.226	-45.04
345.61	-31.26
345.993	-24.7
346.376	-0.75
346.759	28.63
347.142	18.23
347.525	44.22
347.908	56.88
348.291	77.44
348.674	107.5
349.057	105.46
349.44	125.35
349.823	147.72
350.206	161.96
350.588	193.37
350.971	179.81
351.354	220.49
351.737	247.61
352.119	258
352.502	223.43
352.884	273.14
353.267	293.93
353.65	294.61
354.032	294.38
354.414	321.28
354.797	295.74
355.179	311.79
355.562	346.36
355.944	316.31
356.326	342.97
356.709	331.45
357.091	330.99
357.473	323.99
357.855	339.58
358.238	331.9
358.62	343.65
359.002	328.06
359.384	332.35
359.766	332.58
360.148	331.9
360.53	337.77
360.912	331.67
361.294	320.82
361.676	293.26
362.057	324.44
362.439	328.73
362.821	330.77
363.203	323.54
363.584	316.76
363.966	336.19
364.348	328.96
364.729	301.16
365.111	300.71
365.493	328.51
365.874	296.64
366.256	308.85
366.637	313.37
367.019	314.05
367.4	314.05
367.781	319.24
368.163	303.2
368.544	333.93
368.925	303.42
369.306	321.05
369.688	311.33
370.069	307.72
370.45	320.6
370.831	312.69
371.212	302.52
371.593	300.26
371.974	289.19
372.355	312.01
372.736	288.96
373.117	291
373.498	319.92
373.879	305.68
374.26	321.95
374.641	303.42
375.021	314.05
375.402	323.08
375.783	329.41
376.163	313.82
376.544	336.42
376.925	298.9
377.305	293.93
377.686	319.47
378.066	338.23
378.447	337.55
378.827	323.76
379.208	310.66
379.588	327.6
379.968	321.05
380.349	320.15
380.729	306.14
381.109	316.53
381.489	319.24
381.87	320.82
382.25	316.08
382.63	332.58
383.01	338.9
383.39	358.79
383.77	339.81
384.15	341.16
384.53	310.88
384.91	357.43
385.29	341.16
385.67	365.8
386.049	364.67
386.429	345.46
386.809	347.04
387.189	343.88
387.568	364.44
387.948	334.61
388.328	368.51
388.707	338.23
389.087	352.01
389.466	363.08
389.846	346.81
390.225	349.3
390.605	360.37
390.984	372.8
391.363	350.43
391.743	344.78
392.122	367.6
392.501	351.33
392.881	361.73
393.26	346.36
393.639	361.73
394.018	365.12
394.397	375.74
394.776	363.31
395.155	380.48
395.534	361.28
395.913	382.97
396.292	381.39
396.671	375.06
397.05	372.12
397.429	382.74
397.808	387.49
398.186	385.68
398.565	386.59
398.944	389.3
399.323	396.3
399.701	380.48
400.08	391.78
400.458	412.57
400.837	402.4
401.215	400.37
401.594	422.29
401.972	385.68
402.351	370.54
402.729	401.95
403.107	405.34
403.486	425.91
403.864	397.89
404.242	394.5
404.62	418.22
404.999	425.68
405.377	409.18
405.755	399.69
406.133	418
406.511	430.43
406.889	422.52
407.267	435.4
407.645	413.48
408.023	412.12
408.401	432.46
408.779	425.45
409.156	444.66
409.534	432.69
409.912	440.14
410.29	434.95
410.667	434.95
411.045	453.48
411.422	475.85
411.8	460.93
412.178	457.09
412.555	456.64
412.933	486.02
413.31	479.46
413.687	481.72
414.065	475.62
414.442	469.75
414.819	481.05
415.197	489.41
415.574	481.72
415.951	486.7
416.328	486.92
416.705	508.39
417.082	477.2
417.46	496.87
417.837	518.79
418.214	500.26
418.591	518.33
418.967	507.26
419.344	531.89
419.721	513.36
420.098	528.73
420.475	511.33
420.852	530.08
421.228	518.33
421.605	525.11
421.982	539.12
422.358	536.19
422.735	545.45
423.111	556.3
423.488	545.9
423.864	553.14
424.241	552.68
424.617	567.15
424.994	530.31
425.37	541.61
425.746	582.29
426.123	568.73
426.499	575.96
426.875	591.55
427.251	592
427.627	585.9
428.003	581.83
428.379	595.17
428.756	620.03
429.132	609.86
429.507	611.21
429.883	597.88
430.259	630.2
430.635	620.03
431.011	617.99
431.387	623.87
431.763	647.14
432.138	636.97
432.514	636.97
432.89	634.26
433.265	659.35
433.641	638.1
434.016	687.82
434.392	673.58
434.767	655.05
435.143	685.11
435.518	710.42
435.894	688.05
436.269	696.41
436.644	695.28
437.02	687.37
437.395	713.81
437.77	717.2
438.145	707.03
438.52	720.59
438.895	725.79
439.271	709.52
439.646	719.23
440.021	740.02
440.395	749.51
440.77	760.36
441.145	772.34
441.52	765.56
441.895	766.46
442.27	785.45
442.645	764.66
443.019	777.31
443.394	769.4
443.769	792.68
444.143	783.86
444.518	810.08
444.892	789.97
445.267	814.37
445.641	830.64
446.016	800.81
446.39	809.85
446.764	812.34
447.139	828.61
447.513	813.02
447.887	846.69
448.262	823.86
448.636	867.7
449.01	844.88
449.384	860.47
449.758	837.42
450.132	864.09
450.506	870.19
450.88	886.91
451.254	901.83
451.628	898.89
452.002	876.97
452.376	899.34
452.75	942.05
453.123	916.29
453.497	921.04
453.871	908.83
454.244	935.72
454.618	938.44
454.992	967.14
455.365	940.47
455.739	976.4
456.112	980.92
456.486	982.05
456.859	991.77
457.232	989.51
457.606	1027.47
457.979	1034.7
458.352	1061.6
458.725	1053.46
459.099	1058.88
459.472	1073.35
459.845	1094.59
460.218	1076.74
460.591	1086.45
460.964	1108.15
461.337	1095.27
461.71	1156.74
462.083	1123.52
462.456	1159.45
462.829	1161.93
463.201	1203.74
463.574	1184.53
463.947	1187.92
464.32	1222.5
464.692	1221.37
465.065	1239.9
465.438	1268.37
465.81	1261.82
466.183	1262.95
466.555	1303.85
466.928	1298.88
467.3	1305.66
467.672	1297.75
468.045	1355.6
468.417	1360.35
468.789	1336.17
469.161	1382.27
469.534	1392.66
469.906	1419.1
470.278	1427.01
470.65	1445.54
471.022	1472.89
471.394	1481.92
471.766	1486.44
472.138	1501.81
472.51	1532.54
472.882	1584.07
473.253	1573.9
473.625	1637.4
473.997	1615.71
474.369	1635.82
474.74	1668.13
475.112	1667.91
475.484	1724.63
475.855	1744.52
476.227	1757.62
476.598	1764.18
476.97	1818.86
477.341	1846.89
477.713	1856.15
478.084	1852.08
478.455	1957.17
478.827	1974.34
479.198	2011.85
479.569	2008.01
479.94	2034.23
480.311	2033.1
480.682	2125.3
481.053	2134.79
481.424	2191.06
481.795	2204.84
482.166	2225.63
482.537	2241.45
482.908	2318.29
483.279	2328.91
483.65	2403.93
484.021	2410.49
484.391	2471.73
484.762	2446.42
485.133	2499.3
485.503	2501.11
485.874	2574.78
486.244	2633.98
486.615	2630.14
486.985	2680.54
487.356	2711.27
487.726	2772.29
488.097	2829.23
488.467	2797.37
488.837	2865.84
489.207	2895.67
489.578	2958.04
489.948	2972.28
490.318	2988.55
490.688	3064.26
491.058	3141.77
491.428	3095.44
491.798	3168.66
492.168	3223.57
492.538	3285.04
492.908	3305.38
493.278	3344.02
493.648	3347.41
494.017	3421.53
494.387	3446.39
494.757	3475.54
495.126	3502.89
495.496	3566.16
495.866	3582.21
496.235	3630.79
496.605	3649.55
496.974	3635.31
497.344	3715.31
497.713	3734.07
498.082	3774.75
498.452	3826.27
498.821	3863.56
499.19	3868.98
499.559	3902.2
499.928	3968.41
500.298	3994.63
500.667	4002.99
501.036	4004.34
501.405	4119.14
501.774	4154.62
502.143	4155.53
502.512	4162.98
502.88	4250.67
503.249	4255.41
503.618	4319.59
503.987	4342.64
504.356	4356.2
504.724	4384.45
505.093	4384.45
505.462	4467.83
505.83	4541.5
506.199	4563.88
506.567	4601.39
506.936	4618.11
507.304	4688.17
507.672	4734.49
508.041	4790.09
508.409	4840.25
508.777	4832.57
509.145	4876.19
509.514	4859.01
509.882	4935.84
510.25	4976.07
510.618	5043.19
510.986	5059.23
511.354	5134.94
511.722	5141.94
512.09	5221.49
512.458	5214.48
512.826	5302.84
513.193	5346.23
513.561	5413.8
513.929	5470.07
514.297	5479.79
514.664	5574.47
515.032	5597.97
515.4	5651.98
515.767	5674.81
516.135	5673.9
516.502	5758.87
516.869	5821.02
517.237	5839.32
517.604	5881.36
517.972	5966.78
518.339	6081.35
518.706	6054.46
519.073	6127.9
519.44	6121.8
519.808	6208.58
520.175	6283.38
520.542	6356.15
520.909	6418.52
521.276	6437.05
521.643	6564.5
522.009	6562.24
522.376	6647.89
522.743	6708.45
523.11	6813.99
523.477	6836.13
523.843	6893.53
524.21	6991.61
524.577	7103.47
524.943	7107.54
525.31	7139.4
525.676	7330.13
526.043	7306.4
526.409	7352.96
526.776	7488.32
527.142	7543.23
527.508	7513.86
527.874	7636.56
528.241	7707.98
528.607	7735.77
528.973	7858.71
529.339	7838.59
529.705	7957.01
530.071	8083.11
530.437	8071.58
530.803	8186.38
531.169	8239.49
531.535	8204.01
531.901	8326.04
532.267	8353.38
532.632	8430.89
532.998	8494.62
533.364	8597.44
533.73	8674.05
534.095	8771
534.461	8790.21
534.826	8809.42
535.192	8914.27
535.557	8987.49
535.923	8960.37
536.288	9049.63
536.653	9101.84
537.019	9136.41
537.384	9185.9
537.749	9312.23
538.114	9316.75
538.479	9339.34
538.845	9447.36
539.21	9472.45
539.575	9504.54
539.94	9575.5
540.305	9637.42
540.67	9666.79
541.034	9759.9
541.399	9802.38
541.764	9904.53
542.129	9890.29
542.494	9979.33
542.858	9972.55
543.223	10051.42
543.587	10134.8
543.952	10060
544.316	10258.19
544.681	10228.14
545.045	10364.4
545.41	10377.06
545.774	10457.96
546.138	10511.52
546.503	10583.15
546.867	10539.09
547.231	10796.93
547.595	10805.07
547.959	10734.56
548.324	10822.92
548.688	10839.64
549.052	10962.58
549.416	11022.24
549.779	11108.56
550.143	11102.91
550.507	11218.62
550.871	11269.24
551.235	11345.17
551.599	11394.66
551.962	11442.79
552.326	11453.19
552.689	11584.26
553.053	11568.44
553.417	11629.68
553.78	11835.55
554.143	11723.46
554.507	11906.28
554.87	11977.47
555.234	12038.03
555.597	12032.83
555.96	12204.81
556.323	12284.8
556.686	12166.39
557.05	12372.94
557.413	12438.25
557.776	12507.85
558.139	12516.21
558.502	12597.11
558.865	12650.9
559.228	12803.43
559.59	12894.05
559.953	12987.84
560.316	13061.96
560.679	12985.8
561.041	13185.35
561.404	13297.66
561.767	13441.61
562.129	13390.99
562.492	13557.31
562.854	13548.73
563.217	13660.36
563.579	13773.8
563.941	13794.59
564.304	13913.01
564.666	13954.36
565.028	13982.16
565.39	14070.97
565.753	14244.07
566.115	14288.14
566.477	14376.5
566.839	14421.7
567.201	14569.94
567.563	14580.56
567.925	14710.96
568.287	14721.58
568.648	14783.5
569.01	14835.92
569.372	15030.49
569.734	14958.63
570.095	15188.91
570.457	15146.2
570.819	15206.08
571.18	15246.76
571.542	15352.52
571.903	15474.55
572.265	15511.61
572.626	15586.41
572.987	15644.49
573.349	15707.09
573.71	15782.79
574.071	15915.22
574.432	15922.45
574.794	16017.81
575.155	16088.09
575.516	15924.93
575.877	16098.26
576.238	16218.26
576.599	16372.15
576.96	16323.57
577.32	16402.66
577.681	16450.12
578.042	16498.7
578.403	16461.64
578.763	16573.05
579.124	16589.55
579.485	16738.92
579.845	16830.9
580.206	16832.71
580.566	16895.3
580.927	16901.41
581.287	16942.76
581.648	16944.12
582.008	17046.03
582.368	17050.33
582.728	17073.15
583.089	17160.61
583.449	17121.74
583.809	17140.04
584.169	17233.15
584.529	17156.99
584.889	17388.85
585.249	17218.23
585.609	17360.38
585.969	17413.71
586.329	17348.63
586.688	17435.63
587.048	17488.96
587.408	17512.24
587.768	17569.18
588.127	17416.19
588.487	17548.62
588.846	17689.18
589.206	17544.78
589.565	17663.87
589.925	17704.1
590.284	17657.54
590.643	17827.26
591.003	17760.37
591.362	17925.56
591.721	17881.72
592.08	17890.98
592.44	17969.4
592.799	17956.07
593.158	17847.37
593.517	17979.34
593.876	18024.54
594.235	17989.51
594.593	18026.57
594.952	18072.67
595.311	18007.37
595.67	18143.18
596.029	18138.44
596.387	18350.63
596.746	18242.16
597.104	18319.45
597.463	18358.09
597.822	18344.53
598.18	18290.07
598.538	18300.92
598.897	18432.44
599.255	18373.46
599.613	18594.24
599.972	18570.51
600.33	18614.81
600.688	18577.52
601.046	18623.17
601.404	18727.8
601.762	18790.85
602.12	18823.39
602.478	18820.68
602.836	18874.91
603.194	18828.36
603.552	18846.67
603.91	18786.33
604.268	19000.56
604.625	18878.76
604.983	19033.1
605.341	18980.67
605.698	19097.28
606.056	19105.64
606.413	19015.47
606.771	19126.66
607.128	19194.45
607.485	19089.37
607.843	19171.85
608.2	19386.31
608.557	19392.64
608.914	19328.23
609.272	19623.59
609.629	19449.14
609.986	19532.75
610.343	19493.2
610.7	19636.25
611.057	19552.18
611.414	19573.65
611.771	19681.45
612.127	19702.69
612.484	19777.71
612.841	19818.84
613.198	19724.38
613.554	19878.73
613.911	19993.53
614.267	19934.09
614.624	19920.54
614.98	20090.25
615.337	20139.51
615.693	20105.39
616.05	20153.52
616.406	20171.83
616.762	20129.34
617.118	20228.78
617.475	20207.08
617.831	20297.7
618.187	20378.6
618.543	20365.72
618.899	20469.67
619.255	20532.5
619.611	20476.45
619.967	20525.27
620.323	20537.24
620.678	20603.46
621.034	20572.27
621.39	20556.23
621.746	20571.59
622.101	20753.96
622.457	20705.37
622.812	20621.08
623.168	20776.33
623.523	20806.39
623.879	20909.89
624.234	20646.17
624.589	20719.16
624.945	20777.69
625.3	20878.25
625.655	20884.35
626.01	20912.37
626.365	20806.39
626.72	20929.55
627.075	20866.27
627.43	20884.13
627.785	20893.62
628.14	20966.61
628.495	20974.07
628.85	20822.21
629.205	20928.87
629.559	21091.8
629.914	21060.84
630.269	20997.57
630.623	20862.66
630.978	20951.24
631.332	21056.1
631.687	21062.65
632.041	20955.08
632.396	20939.27
632.75	20930
633.104	20930.9
633.459	20967.06
633.813	20888.65
634.167	20903.11
634.521	20893.62
634.875	20964.12
635.229	21006.61
635.583	20949.89
635.937	20933.39
636.291	20943.79
636.645	20849.32
636.999	20903.79
637.352	21008.19
637.706	20879.61
638.06	20974.52
638.413	20816.33
638.767	20888.42
639.121	20867.63
639.474	20798.48
639.828	20798.48
640.181	20802.55
640.534	20843.22
640.888	20864.92
641.241	20769.1
641.594	20733.85
641.947	20838.7
642.301	20771.81
642.654	20765.26
643.007	20843.9
643.36	20770.46
643.713	20742.21
644.066	20759.38
644.419	20793.51
644.771	20598.71
645.124	20445.49
645.477	20389.22
645.83	20209.12
646.182	20232.17
646.535	20147.65
646.888	20247.53
647.24	20125.5
647.593	20240.53
647.945	20247.76
648.298	20075.11
648.65	20126.63
649.002	20134.77
649.355	20161.89
649.707	20071.49
650.059	20297.93
650.411	20568.43
650.763	20512.84
651.115	20764.36
651.467	20660.4
651.819	20716.9
652.171	20700.18
652.523	20657.01
652.875	20682.32
653.227	20562.55
653.578	20744.47
653.93	20615.21
654.282	20568.88
654.633	20564.13
654.985	20645.49
655.337	20647.97
655.688	20550.8
656.039	20661.98
656.391	20585.38
656.742	20581.31
657.094	20551.48
657.445	20647.3
657.796	20657.24
658.147	20642.55
658.498	20673.28
658.849	20745.82
659.2	20547.19
659.551	20620.4
659.902	20710.57
660.253	20682.78
660.604	20678.26
660.955	20589.67
661.306	20773.17
661.656	20625.38
662.007	20631.93
662.358	20692.49
662.708	20727.29
663.059	20583.12
663.409	20561.2
663.76	20727.52
664.11	20708.09
664.461	20713.06
664.811	20700.4
665.161	20769.78
665.511	20717.35
665.862	20740.18
666.212	20766.84
666.562	20794.18
666.912	20769.78
667.262	20822.66
667.612	20706.5
667.962	20792.83
668.312	20725.94
668.662	20795.31
669.011	20741.76
669.361	20644.13
669.711	20788.08
670.06	20811.59
670.41	20610.46
670.76	20710.12
671.109	20765.49
671.459	20672.38
671.808	20699.5
672.157	20800.51
672.507	20606.62
672.856	20708.99
673.205	20737.46
673.554	20686.62
673.904	20692.27
674.253	20778.37
674.602	20725.71
674.951	20421.99
675.3	20344.48
675.649	20527.98
675.998	20556.9
676.346	20646.17
676.695	20806.84
677.044	20567.75
677.393	20617.92
677.741	20713.51
678.09	20657.01
678.438	20613.62
678.787	20546.06
679.135	20590.35
679.484	20564.36
679.832	20545.38
680.181	20481.2
680.529	20519.39
680.877	20588.31
681.225	20462.89
681.573	20651.36
681.922	20374.99
682.27	20446.85
682.618	20508.99
682.966	20413.18
683.314	20404.36
683.661	20324.82
684.009	20304.48
684.357	20222.9
684.705	20282.11
685.053	20322.56
685.4	20286.4
685.748	20173.86
686.095	20169.34
686.443	20052.28
686.79	20036.92
687.138	20092.28
687.485	20144.03
687.832	20083.92
688.18	20154.43
688.527	19935.45
688.874	19908.11
689.221	19959.4
689.568	19863.14
689.915	19853.42
690.262	19936.35
690.609	19759.86
690.956	19791.73
691.303	19751.27
691.65	19643.71
691.997	19613.88
692.344	19579.08
692.69	19556.25
693.037	19528
693.383	19440.32
693.73	19537.27
694.077	19266.09
694.423	19384.96
694.769	19378.4
695.116	19375.92
695.462	19325.75
695.808	19140.67
696.155	19183.15
696.501	19201.46
696.847	19135.7
697.193	19104.29
697.539	19087.56
697.885	18928.02
698.231	18853.22
698.577	18831.98
698.923	18786.33
699.269	18924.4
699.614	18772.77
699.96	18690.74
700.306	18705.88
700.651	18589.95
700.997	18507.24
701.342	18569.16
701.688	18558.09
702.033	18521.93
702.379	18477.18
702.724	18411.87
703.069	18404.64
703.415	18244.2
703.76	18234.03
704.105	18275.83
704.45	18258.66
704.795	18173.91
705.14	18052.56
705.485	18106.57
705.83	18087.14
706.175	18090.3
706.52	18000.81
706.865	17941.6
707.209	17943.19
707.554	17804.21
707.899	17935.28
708.243	17799.69
708.588	17813.47
708.932	17752.23
709.277	17734.6
709.621	17759.01
709.966	17712.46
710.31	17655.51
710.654	17495.06
710.998	17598.11
711.342	17556.98
711.687	17541.39
712.031	17513.37
712.375	17396.76
712.719	17440.15
713.063	17467.49
713.407	17493.48
713.75	17352.69
714.094	17337.1
714.438	17220.49
714.782	17268.63
715.125	17119.25
715.469	17265.24
715.812	17217.56
716.156	17135.3
716.499	17207.84
716.843	17150.89
717.186	16997.9
717.53	17116.99
717.873	17156.31
718.216	16974.17
718.559	17013.95
718.902	16916.32
719.246	16944.12
719.589	16984.79
719.932	16883.1
720.275	16836.32
720.617	16872.71
720.96	16806.49
721.303	16788.19
721.646	16899.82
721.989	16772.14
722.331	16768.98
722.674	16767.17
723.016	16799.26
723.359	16839.94
723.701	16863.67
724.044	16687.17
724.386	16548.19
724.729	16661.41
725.071	16624.8
725.413	16627.51
725.755	16568.53
726.097	16592.26
726.439	16476.11
726.782	16581.19
727.124	16573.96
727.465	16546.84
727.807	16559.49
728.149	16448.54
728.491	16444.69
728.833	16524.24
729.175	16377.13
729.516	16369.44
729.858	16361.53
730.199	16376.45
730.541	16376.67
730.882	16415.54
731.224	16430.23
731.565	16373.51
731.906	16317.69
732.248	16305.49
732.589	16193.18
732.93	16203.35
733.271	16216.9
733.612	16312.49
733.953	16300.74
734.294	16292.61
734.635	16181.2
734.976	16239.5
735.317	16238.37
735.658	16178.94
735.999	16269.11
736.339	16166.06
736.68	16184.59
737.021	16157.7
737.361	16063.01
737.702	16155.44
738.042	16154.76
738.383	16086.29
738.723	16074.76
739.063	16024.14
739.404	16152.27
739.744	16051.26
740.084	15986.63
740.424	16095.1
740.764	16015.55
741.104	16081.09
741.444	15952.96
741.784	15989.11
742.124	15932.17
742.464	15951.6
742.804	15947.31
743.143	15914.77
743.483	15886.52
743.823	15818.95
744.162	15839.51
744.502	15993.18
744.841	15904.82
745.181	16004.93
745.52	15845.84
745.86	15969.23
746.199	15877.93
746.538	15885.84
746.877	15868.21
747.216	15856.01
747.556	15760.64
747.895	15827.76
748.234	15798.16
748.573	15815.78
748.911	15783.02
749.25	15754.54
749.589	15667.31
749.928	15767.42
750.267	15803.81
750.605	15682.68
750.944	15722.23
751.283	15673.42
751.621	15691.72
751.96	15675.22
752.298	15616.47
752.636	15603.81
752.975	15621.89
753.313	15587.32
753.651	15694.21
753.989	15549.35
754.327	15488.34
754.666	15545.74
755.004	15513.87
755.342	15562.91
755.679	15539.63
756.017	15420.77
756.355	15453.31
756.693	15349.58
757.031	15475.23
757.368	15358.17
757.706	15355.23
758.044	15282.47
758.381	15312.3
758.719	15224.84
759.056	15327.66
759.394	15198.4
759.731	15159.53
760.068	15102.81
760.405	15090.83
760.743	15075.69
761.08	15165.41
761.417	15033.21
761.754	15026.2
762.091	14983.04
762.428	14927.9
762.765	14861.69
763.102	14965.86
763.438	14881.57
763.775	14776.49
764.112	14777.85
764.449	14774.23
764.785	14802.7
765.122	14698.75
765.458	14574.91
765.795	14506.67
766.131	14626.89
766.467	14489.27
766.804	14432.77
767.14	14441.58
767.476	14391.42
767.812	14422.83
768.148	14409.49
768.485	14328.14
768.821	14200.23
769.157	14256.73
769.492	14206.11
769.828	14191.87
770.164	14073.46
770.5	14036.4
770.836	14039.79
771.171	13995.04
771.507	13956.4
771.842	13820.13
772.178	13861.49
772.513	13791.88
772.849	13817.65
773.184	13761.15
773.519	13731.32
773.855	13617.65
774.19	13575.62
774.525	13547.37
774.86	13581.95
775.195	13506.69
775.53	13476.41
775.865	13384.21
776.2	13294.04
776.535	13250.43
776.87	13271.67
777.205	13195.51
777.539	13150.77
777.874	13181.5
778.209	13113.71
778.543	13083.88
778.878	13054.28
779.212	12985.12
779.547	12976.76
779.881	12954.39
780.215	12854.73
780.55	12889.76
780.884	12798.01
781.218	12669.43
781.552	12670.78
781.886	12707.17
782.22	12640.27
782.554	12570.45
782.888	12488.87
783.222	12447.06
783.556	12407.74
783.889	12396.21
784.223	12334.29
784.557	12309.44
784.89	12307.85
785.224	12304.69
785.557	12224.47
785.891	12143.56
786.224	12226.5
786.558	12185.82
786.891	12030.12
787.224	11995.77
787.557	11903.35
787.891	11907.41
788.224	11915.77
788.557	11835.32
788.89	11873.97
789.223	11842.1
789.556	11690.02
789.888	11773.41
790.221	11675.78
790.554	11559.4
790.887	11636.91
791.219	11584.03
791.552	11520.08
791.884	11531.38
792.217	11445.05
792.549	11389.46
792.882	11378.84
793.214	11386.75
793.546	11320.54
793.879	11250.26
794.211	11134.33
794.543	11309.01
794.875	11258.16
795.207	11264.72
795.539	11171.84
795.871	11161.22
796.203	11110.37
796.535	11038.51
796.867	10984.95
797.198	10967.78
797.53	10945.4
797.862	10823.83
798.193	10895.69
798.525	10866.31
798.856	10935.91
799.188	10906.31
799.519	10714.68
799.85	10758.74
800.182	10665.86
800.513	10704.96
800.844	10601.23
801.175	10657.28
801.506	10601.23
801.837	10581.35
802.168	10484.17
802.499	10476.49
802.83	10451.63
803.161	10416.83
803.491	10399.2
803.822	10467.22
804.153	10412.08
804.483	10247.34
804.814	10234.46
805.145	10267.23
805.475	10274.91
805.805	10234.46
806.136	10231.75
806.466	10205.76
806.796	10149.72
807.126	10140
807.457	10119.21
807.787	10097.74
808.117	10008.25
808.447	9957.41
808.777	9986.56
809.107	9948.37
809.436	10049.16
809.766	9949.27
810.096	9954.7
810.426	9868.82
810.755	9896.84
811.085	9879.9
811.414	9858.65
811.744	9777.07
812.073	9781.59
812.403	9810.29
812.732	9718.77
813.061	9744.98
813.39	9671.09
813.719	9656.85
814.049	9660.69
814.378	9674.03
814.707	9641.26
815.036	9585.89
815.365	9519.68
815.693	9471.09
816.022	9439.46
816.351	9434.26
816.68	9421.38
817.008	9466.35
817.337	9327.37
817.665	9346.8
817.994	9442.62
818.322	9411.21
818.651	9318.55
818.979	9297.54
819.307	9269.29
819.636	9326.01
819.964	9213.47
820.292	9307.03
820.62	9279.01
820.948	9232
821.276	9320.36
821.604	9218.67
821.932	9273.81
822.259	9272.91
822.587	9262.96
822.915	9283.3
823.243	9273.13
823.57	9229.29
823.898	9230.2
824.225	9192.91
824.553	9168.95
824.88	9221.16
825.207	9247.14
825.535	9230.87
825.862	9272.45
826.189	9177.77
826.516	9181.83
826.843	9320.36
827.17	9269.06
827.497	9221.38
827.824	9224.32
828.151	9222.06
828.478	9187.48
828.805	9294.6
829.131	9205.11
829.458	9250.53
829.785	9182.74
830.111	9201.72
830.438	9267.03
830.764	9159.01
831.09	9214.15
831.417	9247.6
831.743	9241.27
832.069	9213.02
832.395	9192.68
832.722	9276.75
833.048	9099.35
833.374	9161.27
833.7	9126.92
834.026	9133.93
834.351	9121.72
834.677	9141.84
835.003	9247.6
835.329	9166.02
835.654	9150.65
835.98	9104.77
836.306	9164.43
836.631	9050.09
836.956	9140.48
837.282	9087.15
837.607	9044.66
837.932	8982.29
838.258	9043.76
838.583	8985.23
838.908	8932.8
839.233	8967.83
839.558	8900.49
839.883	8971.44
840.208	8865.23
840.533	8895.97
840.858	8891
841.182	8950.2
841.507	8913.59
841.832	8827.49
842.156	8875.63
842.481	8840.6
842.805	8837.21
843.13	8771
843.454	8747.72
843.778	8773.94
844.103	8758.8
844.427	8753.37
844.751	8775.52
845.075	8702.3
845.399	8675.18
845.723	8567.39
846.047	8683.99
846.371	8609.65
846.695	8582.75
847.019	8540.27
847.343	8481.74
847.666	8471.35
847.99	8409.43
848.313	8388.18
848.637	8345.7
848.96	8378.92
849.284	8295.08
849.607	8235.65
849.931	8237
850.254	8190.45
850.577	8218.02
850.9	8131.02
851.223	8098.93
851.546	8074.75
851.869	8049.89
852.192	8050.57
852.515	8002.66
852.838	7965.37
853.161	7977.12
853.483	7920.4
853.806	7960.62
854.129	7894.64
854.451	7879.27
854.774	7763.79
855.096	7788.65
855.419	7805.15
855.741	7848.54
856.063	7699.16
856.385	7726.05
856.708	7671.59
857.03	7661.87
857.352	7675.21
857.674	7614.42
857.996	7555.44
858.318	7540.52
858.64	7536.23
858.961	7545.49
859.283	7516.34
859.605	7405.38
859.926	7446.74
860.248	7470.47
860.57	7474.76
860.891	7473.63
861.212	7400.41
861.534	7418.72
861.855	7369.23
862.176	7325.39
862.498	7331.94
862.819	7384.59
863.14	7312.96
863.461	7293.97
863.782	7300.08
864.103	7289.23
864.424	7222.34
864.745	7318.16
865.065	7274.77
865.386	7157.93
865.707	7175.56
866.027	7258.72
866.348	7166.75
866.668	7178.95
866.989	7183.02
867.309	7191.6
867.63	7171.27
867.95	7159.97
868.27	7048.56
868.59	7122.23
868.91	7075.22
869.23	7149.8
869.55	7049.46
869.87	7080.65
870.19	7113.87
870.51	7051.27
870.83	7066.18
871.15	6958.84
871.469	7053.3
871.789	7033.64
872.109	7025.06
872.428	6983.7
872.748	7005.39
873.067	7026.64
873.386	7034.77
873.706	7016.69
874.025	6942.57
874.344	6897.6
874.663	6974.89
874.982	6931.95
875.301	6914.1
875.62	6882.91
875.939	6867.55
876.258	6905.74
876.577	6921.1
876.896	6922.91
877.214	6848.56
877.533	6853.76
877.852	6828
878.17	6846.53
878.489	6879.3
878.807	6875.91
879.125	6834.55
879.444	6790.03
879.762	6752.75
880.08	6748.68
880.398	6710.49
880.716	6728.11
881.034	6680.66
881.352	6685.4
881.67	6685.86
881.988	6665.52
882.306	6679.08
882.624	6688.12
882.941	6632.52
883.259	6645.18
883.577	6653.77
883.894	6621.68
884.212	6576.48
884.529	6559.08
884.846	6522.02
885.164	6517.72
885.481	6557.5
885.798	6559.98
886.115	6465.3
886.432	6548.91
886.75	6483.37
887.067	6482.7
887.383	6463.26
887.7	6395.69
888.017	6429.14
888.334	6420.1
888.651	6400.67
888.967	6371.29
889.284	6390.04
889.6	6337.62
889.917	6333.1
890.233	6333.1
890.55	6323.6
890.866	6310.05
891.182	6254.45
891.498	6224.4
891.815	6265.08
892.131	6206.09
892.447	6200.44
892.763	6112.54
893.079	6164.97
893.395	6150.05
893.71	6142.14
894.026	6118.19
894.342	6145.76
894.657	6097.17
894.973	6055.36
895.289	6096.94
895.604	6043.84
895.92	5962.03
896.235	5930.17
896.55	5979.89
896.865	5987.57
897.181	5996.83
897.496	5944.86
897.811	5896.95
898.126	5871.19
898.441	5836.61
898.756	5805.43
899.071	5844.52
899.386	5809.72
899.7	5754.35
900.015	5781.7
900.33	5660.8
900.644	5686.11
900.959	5740.8
901.273	5677.07
901.588	5677.97
901.902	5599.1
902.216	5601.82
902.531	5581.48
902.845	5625.54
903.159	5543.06
903.473	5569.95
903.787	5532.44
904.101	5510.29
904.415	5481.37
904.729	5465.1
905.042	5473.91
905.356	5461.03
905.67	5398.21
905.984	5428.71
906.297	5397.75
906.611	5380.35
906.924	5327.02
907.237	5354.82
907.551	5326.57
907.864	5288.38
908.177	5229.4
908.491	5259.23
908.804	5231.43
909.117	5174.48
909.43	5173.58
909.743	5158.21
910.056	5176.06
910.368	5105.33
910.681	5094.26
910.994	5078.67
911.307	5064.43
911.619	5004.77
911.932	5019.46
912.244	5020.59
912.557	5019.23
912.869	4963.19
913.181	4984.88
913.494	5004.09
913.806	4874.6
914.118	4917.54
914.43	4907.14
914.742	4831.44
915.054	4856.75
915.366	4805
915.678	4817.2
915.99	4801.61
916.302	4772.69
916.613	4778.33
916.925	4737.88
917.236	4734.49
917.548	4764.1
917.859	4732.46
918.171	4646.59
918.482	4641.39
918.794	4595.74
919.105	4646.36
919.416	4647.26
919.727	4587.38
920.038	4563.2
920.349	4486.14
920.66	4489.53
920.971	4467.83
921.282	4503.31
921.593	4458.12
921.903	4426.48
922.214	4429.42
922.525	4430.1
922.835	4387.38
923.146	4336.54
923.456	4337.22
923.767	4346.26
924.077	4375.86
924.387	4295.86
924.697	4294.28
925.008	4276.88
925.318	4289.53
925.628	4233.94
925.938	4214.51
926.248	4216.09
926.558	4149.42
926.867	4168.63
927.177	4146.26
927.487	4111.01
927.796	4141.97
928.106	4120.27
928.416	4070.33
928.725	4106.94
929.034	4050.44
929.344	4071.46
929.653	4044.12
929.962	4015.64
930.271	4000.73
930.581	3984.68
930.89	3949.88
931.199	3913.05
931.508	3918.7
931.817	3947.62
932.125	3896.55
932.434	3862.88
932.743	3902.43
933.051	3848.87
933.36	3827.4
933.669	3772.03
933.977	3828.08
934.286	3784.91
934.594	3764.12
934.902	3745.82
935.21	3736.1
935.519	3732.71
935.827	3734.52
936.135	3710.11
936.443	3676.44
936.751	3688.65
937.059	3664.92
937.367	3620.63
937.674	3660.4
937.982	3630.79
938.29	3576.56
938.597	3631.25
938.905	3563.68
939.213	3532.94
939.52	3499.72
939.827	3539.27
940.135	3482.78
940.442	3482.32
940.749	3510.12
941.056	3438.71
941.363	3461.53
941.67	3467.63
941.977	3448.2
942.284	3400.07
942.591	3393.51
942.898	3434.87
943.205	3360.74
943.511	3386.51
943.818	3346.06
944.125	3341.76
944.431	3312.38
944.738	3309.67
945.044	3292.5
945.35	3260.86
945.657	3252.27
945.963	3277.13
946.269	3228.09
946.575	3247.08
946.881	3225.83
947.187	3207.08
947.493	3158.26
947.799	3196.68
948.105	3155.78
948.41	3145.38
948.716	3134.54
949.022	3125.04
949.327	3108.32
949.633	3092.73
949.938	3084.82
950.244	3057.02
950.549	3075.1
950.854	3016.57
951.16	3064.48
951.465	3018.16
951.77	3019.74
952.075	2973.18
952.38	3024.71
952.685	3016.57
952.99	2964.82
953.294	2914.66
953.599	2931.83
953.904	2919.17
954.209	2896.12
954.513	2919.63
954.818	2887.99
955.122	2895.22
955.426	2887.99
955.731	2851.15
956.035	2845.73
956.339	2791.72
956.643	2837.59
956.948	2829.69
957.252	2796.47
957.556	2792.4
957.86	2776.81
958.163	2735.9
958.467	2772.51
958.771	2743.59
959.075	2731.61
959.378	2729.58
959.682	2716.24
959.985	2695.9
960.289	2657.49
960.592	2669.92
960.896	2673.08
961.199	2668.11
961.502	2649.13
961.805	2650.03
962.108	2629.24
962.411	2599.18
962.714	2615.45
963.017	2566.87
963.32	2579.52
963.623	2560.77
963.926	2551.73
964.228	2569.58
964.531	2528
964.833	2518.96
965.136	2497.72
965.438	2473.54
965.741	2470.37
966.043	2499.98
966.345	2500.2
966.648	2453.42
966.95	2461.33
967.252	2474.89
967.554	2414.78
967.856	2424.27
968.158	2409.58
968.46	2410.04
968.761	2391.05
969.063	2392.63
969.365	2372.75
969.666	2369.36
969.968	2396.25
970.269	2378.4
970.571	2299.53
970.872	2339.98
971.174	2298.17
971.475	2297.72
971.776	2283.94
972.077	2309.93
972.378	2271.96
972.679	2287.1
972.98	2270.38
973.281	2226.76
973.582	2212.75
973.883	2208.46
974.183	2201
974.484	2232.87
974.785	2201
975.085	2196.93
975.386	2218.18
975.686	2169.82
975.986	2137.27
976.287	2164.17
976.587	2134.79
976.887	2127.78
977.187	2129.59
977.487	2144.51
977.787	2116.48
978.087	2104.96
978.387	2099.08
978.687	2090.95
978.987	2078.74
979.286	2077.84
979.586	2062.25
979.885	2019.09
980.185	2052.76
980.484	2042.59
980.784	2031.29
981.083	2048.69
981.382	2003.04
981.682	2005.98
981.981	1988.58
982.28	2027.67
982.579	1970.73
982.878	1979.09
983.177	1977.73
983.475	1961.69
983.774	1953.32
984.073	1939.77
984.372	1939.54
984.67	1933.44
984.969	1937.96
985.267	1903.16
985.566	1895.7
985.864	1893.89
986.162	1892.76
986.461	1863.16
986.759	1863.84
987.057	1841.24
987.355	1846.89
987.653	1816.6
987.951	1830.39
988.249	1822.93
988.547	1831.52
988.844	1828.13
989.142	1814.34
989.44	1820.67
989.737	1798.3
990.035	1793.1
990.332	1775.02
990.63	1770.05
990.927	1759.21
991.224	1751.97
991.521	1765.53
991.819	1748.58
992.116	1734.57
992.413	1737.74
992.71	1721.69
993.006	1696.38
993.303	1700.22
993.6	1737.06
993.897	1667.46
994.193	1709.71
994.49	1683.73
994.787	1678.76
995.083	1648.93
995.379	1658.87
995.676	1644.86
995.972	1650.73
996.268	1643.95
996.565	1594.69
996.861	1618.19
997.157	1626.1
997.453	1565.76
997.749	1611.86
998.044	1591.53
998.34	1588.14
998.636	1594.92
998.932	1560.11
999.227	1564.63
999.523	1562.37
999.818	1562.6
1000.114	1559.44
1000.409	1547.69
1000.704	1526.44
1001	1535.03
1001.295	1495.71
1001.59	1476.95
1001.885	1493
1002.18	1518.76
1002.475	1474.92
1002.77	1462.26
1003.065	1467.69
1003.359	1464.98
1003.654	1463.39
1003.949	1402.15
1004.243	1425.65
1004.538	1430.4
1004.832	1433.11
1005.127	1426.78
1005.421	1423.62
1005.715	1407.12
1006.009	1405.77
1006.304	1385.2
1006.598	1356.28
1006.892	1383.85
1007.186	1342.04
1007.48	1344.75
1007.773	1374.58
1008.067	1365.77
1008.361	1343.4
1008.655	1337.52
1008.948	1317.86
1009.242	1319.89
1009.535	1307.69
1009.829	1314.92
1010.122	1294.81
1010.415	1297.3
1010.708	1276.51
1011.001	1280.57
1011.295	1268.6
1011.588	1238.77
1011.881	1258.88
1012.173	1227.47
1012.466	1250.97
1012.759	1230.41
1013.052	1226.56
1013.344	1217.98
1013.637	1215.72
1013.93	1214.81
1014.222	1189.05
1014.514	1200.35
1014.807	1189.73
1015.099	1210.07
1015.391	1183.4
1015.683	1167.58
1015.976	1160.35
1016.268	1150.18
1016.56	1190.86
1016.851	1156.28
1017.143	1150.41
1017.435	1122.16
1017.727	1138.43
1018.018	1104.99
1018.31	1110.63
1018.602	1116.96
1018.893	1117.41
1019.185	1098.88
1019.476	1086.68
1019.767	1085.32
1020.058	1089.62
1020.35	1079
1020.641	1055.04
1020.932	1071.31
1021.223	1055.72
1021.514	1061.6
1021.804	1076.96
1022.095	1029.73
1022.386	1049.17
1022.677	1015.5
1022.967	1021.37
1023.258	1012.56
1023.548	998.77
1023.839	1002.16
1024.129	1017.76
1024.419	1024.54
1024.709	1004.65
1025	988.83
1025.29	960.36
1025.58	942.5
1025.87	968.72
1026.16	974.59
1026.449	977.53
1026.739	935.27
1027.029	966.46
1027.319	944.09
1027.608	904.31
1027.898	898.44
1028.187	913.8
1028.477	909.28
1028.766	889.4
1029.055	914.93
1029.344	910.19
1029.634	885.1
1029.923	893.24
1030.212	883.07
1030.501	891.66
1030.79	873.35
1031.078	873.58
1031.367	866.57
1031.656	868.83
1031.945	849.62
1032.233	841.04
1032.522	854.6
1032.81	865.44
1033.099	826.35
1033.387	848.49
1033.675	811.43
1033.963	817.54
1034.251	819.79
1034.54	815.95
1034.828	807.37
1035.116	792
1035.403	799.91
1035.691	785.22
1035.979	774.15
1036.267	763.98
1036.554	778.44
1036.842	773.69
1037.129	780.25
1037.417	763.07
1037.704	773.24
1037.992	761.72
1038.279	774.82
1038.566	774.15
1038.853	774.15
1039.14	774.15
