Data from cardboard_FLMS001491_041.txt Node
Date: Tue Feb 07 11:39:29 GMT 2017
User: dcchb
Spectrometer: FLMS00149
Trigger mode: 0
Integration Time (sec): 2.000000E-2
Scans to average: 10
Electric dark correction enabled: true
Nonlinearity correction enabled: false
Boxcar width: 0
XAxis mode: Wavelengths
Number of Pixels in Spectrum: 2048
>>>>>Begin Spectral Data<<<<<
341.393	-18.42
341.776	-18.42
342.16	-18.42
342.543	-71.98
342.927	-97.29
343.31	-61.35
343.693	-81.47
344.077	-54.12
344.46	-43.73
344.843	-39.89
345.226	-38.08
345.61	-37.63
345.993	-36.72
346.376	-7.34
346.759	-7.57
347.142	-1.92
347.525	61.58
347.908	61.13
348.291	94.35
348.674	80.56
349.057	112.2
349.44	110.62
349.823	133.89
350.206	146.32
350.588	208.7
350.971	197.4
351.354	212.08
351.737	222.48
352.119	233.78
352.502	259.77
352.884	239.2
353.267	262.25
353.65	268.81
354.032	280.11
354.414	270.84
354.797	282.14
355.179	285.53
355.562	298.41
355.944	320.78
356.326	323.72
356.709	303.83
357.091	307.9
357.473	326.88
357.855	297.96
358.238	324.62
358.62	337.05
359.002	335.47
359.384	323.95
359.766	322.59
360.148	328.92
360.53	319.43
360.912	290.5
361.294	316.94
361.676	345.41
362.057	312.42
362.439	287.79
362.821	311.52
363.203	304.06
363.584	322.36
363.966	296.6
364.348	299.09
364.729	306.77
365.111	311.07
365.493	299.09
365.874	280.78
366.256	297.96
366.637	278.52
367.019	295.47
367.4	302.03
367.781	299.54
368.163	313.78
368.544	307.22
368.925	291.18
369.306	281.69
369.688	292.76
370.069	284.17
370.45	283.72
370.831	289.6
371.212	293.44
371.593	284.63
371.974	298.64
372.355	290.27
372.736	306.55
373.117	296.38
373.498	283.04
373.879	294.79
374.26	294.57
374.641	305.19
375.021	302.7
375.402	282.82
375.783	308.81
376.163	305.87
376.544	296.83
376.925	316.71
377.305	291.86
377.686	314.23
378.066	320.56
378.447	320.33
378.827	300.9
379.208	301.57
379.588	291.86
379.968	303.38
380.349	297.96
380.729	315.13
381.109	317.17
381.489	321.46
381.87	308.81
382.25	302.48
382.63	313.78
383.01	301.12
383.39	312.2
383.77	296.6
384.15	312.87
384.53	323.72
384.91	321.01
385.29	301.35
385.67	319.65
386.049	342.02
386.429	304.06
386.809	316.49
387.189	320.78
387.568	316.04
387.948	343.15
388.328	339.77
388.707	345.87
389.087	319.88
389.466	323.04
389.846	327.79
390.225	349.48
390.605	331.18
390.984	345.87
391.363	339.54
391.743	336.6
392.122	362.14
392.501	343.15
392.881	336.15
393.26	335.47
393.639	352.42
394.018	342.25
394.397	359.2
394.776	350.39
395.155	345.41
395.534	367.11
395.913	361.01
396.292	339.09
396.671	367.11
397.05	346.77
397.429	357.84
397.808	342.25
398.186	343.61
398.565	342.02
398.944	354.45
399.323	360.78
399.701	350.39
400.08	357.17
400.458	361.69
400.837	359.43
401.215	369.82
401.594	358.07
401.972	362.82
402.351	375.02
402.729	378.18
403.107	349.71
403.486	375.24
403.864	359.2
404.242	359.65
404.62	376.15
404.999	369.82
405.377	385.87
405.755	380.89
406.133	374.79
406.511	363.04
406.889	373.44
407.267	391.52
407.645	397.39
408.023	413.89
408.401	415.02
408.779	411.4
409.156	399.65
409.534	403.27
409.912	414.11
410.29	421.12
410.667	406.66
411.045	410.72
411.422	406.43
411.8	427.9
412.178	422.25
412.555	427.22
412.933	424.06
413.31	424.73
413.687	423.6
414.065	424.28
414.442	433.1
414.819	442.81
415.197	417.5
415.574	413.66
415.951	436.26
416.328	445.07
416.705	420.89
417.082	446.65
417.46	439.2
417.837	455.69
418.214	441.23
418.591	436.49
418.967	463.6
419.344	458.63
419.721	455.02
420.098	466.99
420.475	467.67
420.852	472.42
421.228	475.81
421.605	464.96
421.982	479.2
422.358	473.55
422.735	478.52
423.111	475.81
423.488	473.77
423.864	484.17
424.241	498.86
424.617	516.71
424.994	491.4
425.37	495.47
425.746	471.51
426.123	490.95
426.499	499.99
426.875	508.12
427.251	484.85
427.627	502.92
428.003	510.38
428.379	495.69
428.756	505.41
429.132	532.75
429.507	527.78
429.883	539.31
430.259	549.7
430.635	534.34
431.011	535.69
431.387	544.51
431.763	572.53
432.138	553.54
432.514	560.55
432.89	581.79
433.265	563.26
433.641	579.31
434.016	571.85
434.392	593.54
434.767	598.97
435.143	581.79
435.518	578.4
435.894	605.07
436.269	613.43
436.644	623.83
437.02	624.05
437.395	609.59
437.77	612.53
438.145	638.74
438.52	622.24
438.895	653.43
439.271	638.74
439.646	628.12
440.021	657.95
440.395	668.8
440.77	671.51
441.145	668.8
441.52	639.42
441.895	660.21
442.27	688.91
442.645	669.02
443.019	681.9
443.394	659.08
443.769	684.61
444.143	680.1
444.518	704.73
444.892	706.31
445.267	701.11
445.641	693.2
446.016	690.26
446.39	706.76
446.764	713.77
447.139	732.52
447.513	729.13
447.887	724.16
448.262	705.63
448.636	719.42
449.01	721.45
449.384	726.87
449.758	724.61
450.132	734.56
450.506	746.99
450.88	755.57
451.254	770.26
451.628	753.99
452.002	753.77
452.376	778.4
452.75	771.62
453.123	773.43
453.497	789.47
453.871	796.7
454.244	798.06
454.618	802.58
454.992	812.07
455.365	816.14
455.739	836.02
456.112	832.18
456.486	842.35
456.859	870.37
457.232	862.01
457.606	873.76
457.979	858.62
458.352	884.16
458.725	870.37
459.099	898.85
459.472	897.72
459.845	904.27
460.218	903.59
460.591	898.62
460.964	902.69
461.337	929.58
461.71	951.73
462.083	945.85
462.456	941.78
462.829	961.44
463.201	970.03
463.574	1000.31
463.947	992.18
464.32	1033.98
464.692	1012.52
465.065	998.05
465.438	1031.95
465.81	1035.79
466.183	1080.31
466.555	1102.91
466.928	1088.67
467.3	1069.46
467.672	1092.51
468.045	1108.78
468.417	1105.39
468.789	1120.08
469.161	1138.84
469.534	1142.46
469.906	1175.9
470.278	1165.96
470.65	1194.66
471.022	1205.28
471.394	1227.88
471.766	1259.06
472.138	1245.73
472.51	1277.14
472.882	1294.54
473.253	1285.95
473.625	1324.6
473.997	1319.17
474.369	1335.22
474.74	1361.89
475.112	1398.49
475.484	1380.87
475.855	1416.57
476.227	1424.93
476.598	1450.7
476.97	1469.9
477.341	1523.46
477.713	1526.85
478.084	1517.59
478.455	1562.56
478.827	1541.99
479.198	1592.84
479.569	1608.21
479.94	1664.02
480.311	1641.88
480.682	1676.45
481.053	1758.94
481.424	1779.05
481.795	1773.17
482.166	1799.16
482.537	1831.93
482.908	1855.21
483.279	1866.96
483.65	1883
484.021	1936.33
484.391	1977.69
484.762	1960.97
485.133	2024.01
485.503	2012.72
485.874	2078.93
486.244	2100.62
486.615	2119.15
486.985	2135.88
487.356	2196.44
487.726	2171.36
488.097	2215.2
488.467	2282.31
488.837	2282.09
489.207	2312.82
489.578	2354.18
489.948	2411.35
490.318	2411.35
490.688	2438.47
491.058	2437.79
491.428	2491.35
491.798	2540.61
492.168	2553.49
492.538	2594.85
492.908	2616.32
493.278	2619.71
493.648	2643.89
494.017	2677.56
494.387	2728.4
494.757	2742.87
495.126	2737.22
495.496	2765.69
495.866	2807.95
496.235	2885.23
496.605	2886.36
496.974	2845.24
497.344	2923.88
497.713	2954.61
498.082	2979.92
498.452	3009.3
498.821	3016.76
499.19	3022.18
499.559	3092.91
499.928	3098.79
500.298	3122.74
500.667	3183.31
501.036	3166.36
501.405	3179.46
501.774	3264.43
502.143	3256.3
502.512	3247.26
502.88	3303.53
503.249	3328.39
503.618	3357.99
503.987	3369.52
504.356	3379.23
504.724	3392.57
505.093	3431.66
505.462	3448.84
505.83	3471.21
506.199	3516.86
506.567	3608.15
506.936	3592.11
507.304	3617.87
507.672	3626.68
508.041	3673.46
508.409	3696.96
508.777	3765.89
509.145	3771.09
509.514	3777.87
509.882	3826.23
510.25	3816.51
510.618	3827.81
510.986	3877.3
511.354	3937.86
511.722	3994.58
512.09	4036.62
512.458	4035.49
512.826	4069.84
513.193	4098.31
513.561	4121.59
513.929	4138.76
514.297	4212.21
514.664	4243.84
515.032	4281.81
515.4	4292.2
515.767	4329.04
516.135	4388.7
516.502	4387.79
516.869	4499.88
517.237	4503.05
517.604	4499.43
517.972	4534.91
518.339	4597.73
518.706	4603.16
519.073	4646.32
519.44	4731.06
519.808	4792.76
520.175	4726.54
520.542	4837.95
520.909	4824.17
521.276	4868.46
521.643	4934.9
522.009	4991.39
522.376	5005.63
522.743	5062.35
523.11	5128.34
523.477	5145.74
523.843	5217.83
524.21	5314.1
524.577	5339.41
524.943	5318.84
525.31	5418.73
525.676	5492.85
526.043	5512.51
526.409	5529.69
526.776	5606.52
527.142	5587.99
527.508	5678.16
527.874	5767.42
528.241	5761.54
528.607	5771.94
528.973	5856.46
529.339	5860.3
529.705	5923.8
530.071	6011.71
530.437	6053.51
530.803	6082.66
531.169	6156.34
531.535	6145.49
531.901	6173.96
532.267	6220.97
532.632	6209.89
532.998	6310.68
533.364	6370.79
533.73	6358.59
534.095	6458.93
534.461	6497.8
534.826	6495.99
535.192	6530.56
535.557	6619.83
535.923	6614.63
536.288	6659.37
536.653	6700.73
537.019	6708.19
537.384	6758.58
537.749	6838.35
538.114	6839.48
538.479	6840.84
538.845	6922.19
539.21	6973.49
539.575	7028.4
539.94	7062.53
540.305	7041.74
540.67	7095.29
541.034	7145.46
541.399	7142.75
541.764	7189.53
542.129	7259.58
542.494	7268.62
542.858	7332.35
543.223	7363.31
543.587	7460.71
543.952	7381.39
544.316	7495.96
544.681	7443.53
545.045	7580.03
545.41	7546.36
545.774	7548.62
546.138	7571.21
546.503	7673.13
546.867	7709.51
547.231	7768.72
547.595	7858.89
547.959	7852.34
548.324	7899.11
548.688	7875.16
549.052	7937.76
549.416	7969.39
549.779	8000.13
550.143	8045.33
550.507	8084.65
550.871	8167.58
551.235	8109.5
551.599	8258.43
551.962	8234.25
552.326	8257.3
552.689	8427.01
553.053	8345.43
553.417	8432.21
553.78	8524.41
554.143	8532.09
554.507	8531.64
554.87	8553.56
555.234	8736.15
555.597	8663.84
555.96	8742.93
556.323	8771.18
556.686	8855.02
557.05	8939.54
557.413	8954.68
557.776	8933.44
558.139	9089.59
558.502	9050.72
558.865	9070.83
559.228	9161.91
559.59	9203.26
559.953	9204.62
560.316	9336.82
560.679	9370.26
561.041	9433.09
561.404	9521.67
561.767	9583.36
562.129	9561.9
562.492	9715.11
562.854	9662.46
563.217	9709.46
563.579	9775.9
563.941	9845.28
564.304	9859.97
564.666	9967.76
565.028	10063.13
565.39	10062.22
565.753	10132.95
566.115	10247.08
566.477	10305.15
566.839	10226.28
567.201	10338.37
567.563	10330.46
567.925	10408.43
568.287	10480.74
568.648	10445.26
569.01	10579.95
569.372	10583.79
569.734	10576.33
570.095	10724.8
570.457	10769.55
570.819	10769.55
571.18	10823.56
571.542	10959.6
571.903	10965.93
572.265	10968.86
572.626	11051.8
572.987	11045.7
573.349	11085.7
573.71	11174.73
574.071	11184
574.432	11275.07
574.794	11369.98
575.155	11331.79
575.516	11403.2
575.877	11362.07
576.238	11500.83
576.599	11510.32
576.96	11515.97
577.32	11594.38
577.681	11609.3
578.042	11656.53
578.403	11718.67
578.763	11730.65
579.124	11823.3
579.485	11756.41
579.845	11807.03
580.206	11854.94
580.566	11771.55
580.927	11946.24
581.287	11915.96
581.648	11949.63
582.008	12004.32
582.368	12030.98
582.728	12017.42
583.089	12077.54
583.449	12043.86
583.809	12106.24
584.169	12208.61
584.529	12094.26
584.889	12235.05
585.249	12240.24
585.609	12152.56
585.969	12230.3
586.329	12325.66
586.688	12261.26
587.048	12284.08
587.408	12281.15
587.768	12321.6
588.127	12321.14
588.487	12267.14
588.846	12428.26
589.206	12368.15
589.565	12331.09
589.925	12434.36
590.284	12431.65
590.643	12571.53
591.003	12553.91
591.362	12605.21
591.721	12507.58
592.08	12583.74
592.44	12692.43
592.799	12641.59
593.158	12548.94
593.517	12622.15
593.876	12731.76
594.235	12661.47
594.593	12621.93
594.952	12750.51
595.311	12730.4
595.67	12656.73
596.029	12848.14
596.387	12869.83
596.746	12876.61
597.104	12810.17
597.463	12853.33
597.822	12916.61
598.18	12841.58
598.538	12864.41
598.897	12970.39
599.255	12818.76
599.613	13105.98
599.972	12948.02
600.33	13025.31
600.688	13017.85
601.046	12933.11
601.404	13101.46
601.762	13073.89
602.12	13123.38
602.478	13116.38
602.836	13146.66
603.194	13141.24
603.552	13176.26
603.91	13144.63
604.268	13251.52
604.625	13108.24
604.983	13250.39
605.341	13163.38
605.698	13303.94
606.056	13263.72
606.413	13353.21
606.771	13385.07
607.128	13376.26
607.485	13297.62
607.843	13403.38
608.2	13449.25
608.557	13505.29
608.914	13520.21
609.272	13582.35
609.629	13651.28
609.986	13632.3
610.343	13463.71
610.7	13602.47
611.057	13706.19
611.414	13716.14
611.771	13611.28
612.127	13712.29
612.484	13791.61
612.841	13818.96
613.198	13751.16
613.554	13809.47
613.911	13832.29
614.267	13939.18
614.624	13880.2
614.98	13928.33
615.337	14001.1
615.693	13998.61
616.05	13997.71
616.406	14100.31
616.762	14021.67
617.118	14063.25
617.475	14040.87
617.831	14046.3
618.187	14065.96
618.543	14124.94
618.899	14293.3
619.255	14244.48
619.611	14305.5
619.967	14310.47
620.323	14273.18
620.678	14300.08
621.034	14252.39
621.39	14296.46
621.746	14275.67
622.101	14466.63
622.457	14364.71
622.812	14353.41
623.168	14360.87
623.523	14452.61
623.879	14515.66
624.234	14533.29
624.589	14444.93
624.945	14505.49
625.3	14458.26
625.655	14581.65
626.01	14483.35
626.365	14521.31
626.72	14567.64
627.075	14587.75
627.43	14648.54
627.785	14517.25
628.14	14520.64
628.495	14626.17
628.85	14563.12
629.205	14491.26
629.559	14675.89
629.914	14532.16
630.269	14525.38
630.623	14521.31
630.978	14564.25
631.332	14619.62
631.687	14544.36
632.041	14488.09
632.396	14549.33
632.75	14511.6
633.104	14616.23
633.459	14539.62
633.813	14534.42
634.167	14483.12
634.521	14523.12
634.875	14496
635.229	14540.52
635.583	14566.28
635.937	14535.55
636.291	14473.18
636.645	14501.65
636.999	14425.04
637.352	14566.06
637.706	14430.24
638.06	14521.54
638.413	14460.75
638.767	14548.43
639.121	14513.86
639.474	14369.9
639.828	14443.8
640.181	14436.57
640.534	14510.69
640.888	14404.03
641.241	14391.37
641.594	14357.48
641.947	14441.09
642.301	14368.32
642.654	14498.71
643.007	14396.12
643.36	14469.11
643.713	14432.95
644.066	14486.96
644.419	14338.72
644.771	14257.59
645.124	14120.19
645.477	14113.64
645.83	14077.26
646.182	13977.6
646.535	13952.06
646.888	14035.45
647.24	13882.23
647.593	14011.27
647.945	14002
648.298	13911.39
648.65	13936.47
649.002	13853.76
649.355	13943.7
649.707	13917.04
650.059	13974.43
650.411	14200.64
650.763	14201.55
651.115	14350.02
651.467	14265.73
651.819	14293.97
652.171	14289.68
652.523	14251.04
652.875	14269.79
653.227	14275.9
653.578	14332.84
653.93	14310.92
654.282	14216.91
654.633	14276.12
654.985	14306.63
655.337	14211.26
655.688	14134.43
656.039	14248.1
656.391	14205.16
656.742	14164.26
657.094	14238.61
657.445	14277.25
657.796	14290.36
658.147	14264.37
658.498	14352.5
658.849	14307.99
659.2	14263.69
659.551	14166.75
659.902	14326.29
660.253	14276.57
660.604	14249
660.955	14250.36
661.306	14311.6
661.656	14259.63
662.007	14314.54
662.358	14196.58
662.708	14247.65
663.059	14198.84
663.409	14253.07
663.76	14202.45
664.11	14372.84
664.461	14269.12
664.811	14281.32
665.161	14353.41
665.511	14266.86
665.862	14293.52
666.212	14315.44
666.562	14336.46
666.912	14300.53
667.262	14307.08
667.612	14176.24
667.962	14264.37
668.312	14236.12
668.662	14405.16
669.011	14260.75
669.361	14283.35
669.711	14251.94
670.06	14205.62
670.41	14298.72
670.76	14293.97
671.109	14372.16
671.459	14328.32
671.808	14215.78
672.157	14312.28
672.507	14256.69
672.856	14217.59
673.205	14303.01
673.554	14252.39
673.904	14185.95
674.253	14375.33
674.602	14287.42
674.951	14088.1
675.3	13980.99
675.649	14318.38
675.998	14232.06
676.346	14265.73
676.695	14240.64
677.044	14199.29
677.393	14256.46
677.741	14199.06
678.09	14237.03
678.438	14188.21
678.787	14303.24
679.135	14318.15
679.484	14229.34
679.832	14270.7
680.181	14151.83
680.529	14175.11
680.877	14095.79
681.225	14130.59
681.573	14219.4
681.922	14115
682.27	14045.17
682.618	14125.62
682.966	14122
683.314	14153.64
683.661	14060.08
684.009	14035
684.357	14032.74
684.705	13977.82
685.053	14000.87
685.4	14039.52
685.748	13916.36
686.095	13942.8
686.443	13910.48
686.79	13863.93
687.138	13969.92
687.485	13933.76
687.832	13837.04
688.18	13864.16
688.527	13795
688.874	13779.19
689.221	13738.51
689.568	13772.63
689.915	13653.99
690.262	13681.79
690.609	13678.17
690.956	13654.9
691.303	13683.82
691.65	13546.65
691.997	13587.78
692.344	13553.65
692.69	13515.01
693.037	13510.72
693.383	13460.55
693.73	13484.73
694.077	13378.97
694.423	13376.48
694.769	13414.9
695.116	13468.46
695.462	13330.16
695.808	13268.01
696.155	13308.24
696.501	13183.5
696.847	13212.42
697.193	13162.48
697.539	13120.67
697.885	13039.54
698.231	13086.77
698.577	13044.74
698.923	12983.95
699.269	13014.46
699.614	12950.96
699.96	12896.5
700.306	12920.45
700.651	12951.41
700.997	12825.09
701.342	12870.74
701.688	12918.87
702.033	12876.61
702.379	12845.2
702.724	12756.84
703.069	12748.03
703.415	12636.16
703.76	12696.05
704.105	12658.99
704.45	12684.07
704.795	12538.31
705.14	12465.77
705.485	12556.84
705.83	12494.93
706.175	12484.3
706.52	12505.55
706.865	12493.34
707.209	12413.12
707.554	12437.53
707.899	12330.64
708.243	12411.09
708.588	12327.92
708.932	12281.82
709.277	12169.28
709.621	12324.31
709.966	12165.44
710.31	12261.26
710.654	12197.98
710.998	12122.05
711.342	12091.32
711.687	12108.72
712.031	12094.71
712.375	12040.02
712.719	12059.23
713.063	12104.88
713.407	12120.02
713.75	12018.78
714.094	12063.3
714.438	11939.91
714.782	11988.72
715.125	11873.93
715.469	11941.04
715.812	11876.18
716.156	11861.72
716.499	11858.78
716.843	11890.87
717.186	11843.42
717.53	11869.86
717.873	11831.89
718.216	11773.14
718.559	11850.65
718.902	11574.05
719.246	11793.93
719.589	11704.89
719.932	11704.89
720.275	11685.46
720.617	11711.22
720.96	11704.66
721.303	11711.67
721.646	11703.31
721.989	11630.77
722.331	11675.06
722.674	11635.97
723.016	11675.51
723.359	11645.91
723.701	11587.6
724.044	11587.6
724.386	11543.09
724.729	11622.18
725.071	11583.31
725.413	11581.05
725.755	11523.65
726.097	11508.28
726.439	11435.97
726.782	11479.59
727.124	11530.43
727.465	11529.08
727.807	11485.01
728.149	11487.27
728.491	11497.89
728.833	11501.73
729.175	11404.33
729.516	11421.06
729.858	11389.64
730.199	11441.17
730.541	11447.04
730.882	11403.43
731.224	11397.33
731.565	11318.46
731.906	11301.74
732.248	11336.09
732.589	11283.21
732.93	11202.53
733.271	11261.74
733.612	11353.49
733.953	11232.81
734.294	11275.52
734.635	11199.37
734.976	11300.15
735.317	11252.7
735.658	11211.34
735.999	11217.9
736.339	11264
736.68	11284.11
737.021	11160.05
737.361	11126.15
737.702	11233.49
738.042	11146.26
738.383	11150.33
738.723	11183.55
739.063	11132.7
739.404	11235.07
739.744	11117.79
740.084	11035.76
740.424	11153.94
740.764	11144.45
741.104	11156.66
741.444	11153.72
741.784	11094.28
742.124	11085.92
742.464	11133.83
742.804	11074.85
743.143	11018.35
743.483	11031.24
743.823	11037.56
744.162	11063.78
744.502	11074.62
744.841	10969.77
745.181	11014.51
745.52	11027.85
745.86	11074.85
746.199	11012.48
746.538	10976.55
746.877	11038.69
747.216	10997.11
747.556	10994.85
747.895	10985.81
748.234	11020.84
748.573	10903.1
748.911	10925.25
749.25	11008.19
749.589	10883.22
749.928	10916.44
750.267	10879.83
750.605	10932.93
750.944	10862.2
751.283	10871.92
751.621	10866.04
751.96	10822.88
752.298	10853.61
752.636	10857.68
752.975	10800.51
753.313	10746.27
753.651	10833.95
753.989	10801.86
754.327	10730.23
754.666	10724.35
755.004	10723.67
755.342	10809.32
755.679	10829.88
756.017	10713.05
756.355	10678.25
756.693	10674.63
757.031	10649.78
757.368	10567.74
757.706	10638.03
758.044	10605.03
758.381	10623.11
758.719	10582.66
759.056	10660.62
759.394	10501.98
759.731	10491.36
760.068	10546.95
760.405	10453.4
760.743	10422.21
761.08	10489.55
761.417	10440.52
761.754	10371.59
762.091	10321.88
762.428	10343.34
762.765	10313.97
763.102	10316.9
763.438	10310.12
763.775	10244.36
764.112	10230.13
764.449	10268.32
764.785	10150.58
765.122	10111.49
765.458	10117.36
765.795	10090.92
766.131	10055.67
766.467	10033.3
766.804	9994.88
767.14	10021.09
767.476	9999.62
767.812	9875.33
768.148	9955.56
768.485	9873.75
768.821	9834.2
769.157	9866.52
769.492	9795.11
769.828	9872.4
770.164	9686.41
770.5	9709.69
770.836	9688.67
771.171	9654.1
771.507	9633.76
771.842	9615.45
772.178	9556.25
772.513	9610.93
772.849	9528
773.184	9552.86
773.519	9525.96
773.855	9476.93
774.19	9452.29
774.525	9421.11
774.86	9368.68
775.195	9377.27
775.53	9360.77
775.865	9246.2
776.2	9241
776.535	9206.65
776.87	9256.82
777.205	9166.65
777.539	9105.18
777.874	9193.54
778.209	9050.95
778.543	9062.7
778.878	9011.85
779.212	9020.89
779.547	8930.27
779.881	8988.58
780.215	8963.27
780.55	8989.03
780.884	8814.34
781.218	8885.76
781.552	8859.32
781.886	8817.51
782.22	8805.98
782.554	8734.35
782.888	8658.19
783.222	8679.66
783.556	8669.94
783.889	8492.55
784.223	8606.67
784.557	8539.32
784.89	8547.91
785.224	8460.46
785.557	8444.64
785.891	8520.57
786.224	8448.25
786.558	8426.78
786.891	8358.31
787.224	8310.63
787.557	8352.66
787.891	8299.1
788.224	8292.1
788.557	8284.87
788.89	8203.74
789.223	8278.77
789.556	8144.76
789.888	8173.68
790.221	8129.84
790.554	8147.92
790.887	8077.87
791.219	8038.09
791.552	8051.65
791.884	7974.59
792.217	8004.2
792.549	7925.55
792.882	7908.83
793.214	7796.29
793.546	7913.13
793.879	7882.62
794.211	7799.68
794.543	7842.84
794.875	7785.67
795.207	7759.01
795.539	7765.78
795.871	7719.68
796.203	7669.06
796.535	7638.1
796.867	7626.13
797.198	7682.85
797.53	7628.61
797.862	7574.6
798.193	7594.94
798.525	7529.41
798.856	7548.39
799.188	7427.49
799.519	7496.87
799.85	7407.38
800.182	7408.96
800.513	7458.45
800.844	7387.26
801.175	7388.85
801.506	7385
801.837	7344.78
802.168	7344.78
802.499	7272.24
802.83	7258
803.161	7255.06
803.491	7243.76
803.822	7253.03
804.153	7247.83
804.483	7151.79
804.814	7166.03
805.145	7165.12
805.475	7116.99
805.805	7159.47
806.136	7102.3
806.466	7095.29
806.796	7058.01
807.126	7066.14
807.457	7018.69
807.787	7041.74
808.117	7014.39
808.447	6941.63
808.777	6935.75
809.107	6917.45
809.436	6930.78
809.766	6900.95
810.096	6912.93
810.426	6919.48
810.755	6927.39
811.085	6875.86
811.414	6820.72
811.744	6806.49
812.073	6835.87
812.403	6810.78
812.732	6764.23
813.061	6768.97
813.39	6738.92
813.719	6738.01
814.049	6753.61
814.378	6754.74
814.707	6736.89
815.036	6711.35
815.365	6684.01
815.693	6607.62
816.022	6619.83
816.351	6564.23
816.68	6526.5
817.008	6606.49
817.337	6507.51
817.665	6516.55
817.994	6530.34
818.322	6521.07
818.651	6501.86
818.979	6509.55
819.307	6580.05
819.636	6488.08
819.964	6409.66
820.292	6442.43
820.62	6488.98
820.948	6417.57
821.276	6464.58
821.604	6457.34
821.932	6420.96
822.259	6436.78
822.587	6406.05
822.915	6418.48
823.243	6407.85
823.57	6456.44
823.898	6449.89
824.225	6348.19
824.553	6415.99
824.88	6380.96
825.207	6433.16
825.535	6459.15
825.862	6419.15
826.189	6388.19
826.516	6443.56
826.843	6375.76
827.17	6461.41
827.497	6388.87
827.824	6403.11
828.151	6440.4
828.478	6390.91
828.805	6435.2
829.131	6444.92
829.458	6360.4
829.785	6439.49
830.111	6432.71
830.438	6400.4
830.764	6447.18
831.09	6427.29
831.417	6446.95
831.743	6462.09
832.069	6436.78
832.395	6390
832.722	6413.28
833.048	6389.78
833.374	6444.46
833.7	6390.68
834.026	6346.16
834.351	6409.44
834.677	6399.94
835.003	6390.68
835.329	6329.66
835.654	6352.71
835.98	6321.75
836.306	6363.34
836.631	6302.55
836.956	6398.36
837.282	6343.9
837.607	6310.68
837.932	6263
838.258	6334.86
838.583	6307.29
838.908	6276.56
839.233	6255.77
839.558	6292.83
839.883	6191.59
840.208	6193.85
840.533	6255.54
840.858	6195.2
841.182	6199.95
841.507	6180.06
841.832	6193.17
842.156	6204.02
842.481	6135.32
842.805	6166.05
843.13	6135.77
843.454	6114.53
843.778	6063.23
844.103	6130.35
844.427	6094.42
844.751	6112.95
845.075	6020.97
845.399	6084.02
845.723	6062.55
846.047	6030.69
846.371	5994.53
846.695	5957.02
847.019	5988.2
847.343	5933.52
847.666	5901.65
847.99	5894.2
848.313	5879.96
848.637	5840.86
848.96	5824.82
849.284	5836.34
849.607	5765.84
849.931	5769
850.254	5720.19
850.577	5690.36
850.9	5666.63
851.223	5655.56
851.546	5573.53
851.869	5606.75
852.192	5660.53
852.515	5581.89
852.838	5620.98
853.161	5549.57
853.483	5538.5
853.806	5499.86
854.129	5530.36
854.451	5524.94
854.774	5403.13
855.096	5471.16
855.419	5430.7
855.741	5407.65
856.063	5436.58
856.385	5417.15
856.708	5402
857.03	5330.82
857.352	5356.81
857.674	5364.04
857.996	5391.84
858.318	5296.24
858.64	5243.59
858.961	5310.03
859.283	5290.37
859.605	5201.56
859.926	5225.51
860.248	5229.58
860.57	5191.39
860.891	5260.09
861.212	5232.29
861.534	5137.61
861.855	5172.86
862.176	5211.28
862.498	5163.14
862.819	5195.91
863.14	5103.48
863.461	5146.19
863.782	5097.61
864.103	5084.27
864.424	5089.92
864.745	5108.23
865.065	5087.44
865.386	5091.05
865.707	5055.12
866.027	5079.3
866.348	5053.54
866.668	5091.96
866.989	5021.45
867.309	5053.31
867.63	5019.87
867.95	5068.23
868.27	4998.85
868.59	5001.11
868.91	5003.37
869.23	4961.56
869.55	5006.76
869.87	5018.74
870.19	4980.1
870.51	5006.76
870.83	4978.29
871.15	4960.21
871.469	4934.45
871.789	4948.46
872.109	4965.41
872.428	4885.18
872.748	4918.63
873.067	4909.81
873.386	4908.46
873.706	4882.47
874.025	4912.53
874.344	4844.05
874.663	4868.46
874.982	4847.22
875.301	4847.67
875.62	4826.43
875.939	4828.23
876.258	4872.98
876.577	4815.58
876.896	4800.89
877.214	4845.64
877.533	4808.57
877.852	4802.92
878.17	4790.04
878.489	4778.74
878.807	4814.45
879.125	4810.16
879.444	4774.22
879.762	4783.26
880.08	4715.02
880.398	4746.43
880.716	4735.81
881.034	4730.38
881.352	4719.31
881.67	4701.01
881.988	4632.08
882.306	4700.1
882.624	4637.73
882.941	4660.33
883.259	4639.99
883.577	4622.82
883.894	4631.63
884.212	4589.6
884.529	4653.32
884.846	4596.83
885.164	4622.82
885.481	4576.26
885.798	4582.37
886.115	4616.71
886.432	4605.64
886.75	4559.09
887.067	4525.42
887.383	4494.68
887.7	4501.24
888.017	4501.24
888.334	4497.17
888.651	4520.67
888.967	4480.22
889.284	4468.47
889.6	4451.97
889.917	4463.95
890.233	4465.08
890.55	4433.89
890.866	4425.99
891.182	4391.64
891.498	4387.12
891.815	4394.57
892.131	4345.99
892.447	4322.49
892.763	4308.7
893.079	4304.41
893.395	4341.24
893.71	4293.56
894.026	4290.62
894.342	4316.61
894.657	4323.16
894.973	4251.07
895.289	4267.35
895.604	4234.58
895.92	4235.26
896.235	4219.89
896.55	4210.62
896.865	4203.84
897.181	4185.09
897.496	4199.78
897.811	4194.8
898.126	4150.29
898.441	4137.63
898.756	4096.05
899.071	4119.78
899.386	4114.36
899.7	4061.48
900.015	4071.42
900.33	4030.52
900.644	4064.41
900.959	4054.92
901.273	4053.11
901.588	3977.64
901.902	4019.22
902.216	3960.23
902.531	3964.75
902.845	3946.68
903.159	3939.44
903.473	3944.42
903.787	3907.58
904.101	3893.34
904.415	3896.06
904.729	3841.37
905.042	3868.03
905.356	3831.65
905.67	3821.71
905.984	3851.54
906.297	3833.91
906.611	3795.95
906.924	3784.87
907.237	3786.91
907.551	3756.17
907.864	3728.6
908.177	3721.6
908.491	3724.31
908.804	3699.9
909.117	3707.81
909.43	3660.81
909.743	3668.94
910.056	3659.23
910.368	3652.45
910.681	3588.49
910.994	3623.97
911.307	3603.18
911.619	3544.65
911.932	3558.44
912.244	3541.04
912.557	3536.07
912.869	3578.55
913.181	3571.54
913.494	3507.37
913.806	3488.16
914.118	3453.13
914.43	3470.76
914.742	3453.36
915.054	3410.87
915.366	3494.48
915.678	3425.79
915.99	3382.4
916.302	3356.63
916.613	3359.35
916.925	3383.75
917.236	3338.56
917.548	3358.22
917.859	3363.19
918.171	3350.53
918.482	3295.85
918.794	3274.6
919.105	3334.94
919.416	3263.3
919.727	3261.72
920.038	3267.6
920.349	3199.35
920.66	3214.94
920.971	3201.84
921.282	3168.84
921.593	3176.98
921.903	3190.31
922.214	3170.88
922.525	3145.34
922.835	3153.48
923.146	3104.66
923.456	3128.62
923.767	3115.96
924.077	3082.07
924.387	3056.53
924.697	3096.3
925.008	3026.7
925.318	2999.81
925.628	2971.79
925.938	2988.28
926.248	3024.67
926.558	3012.24
926.867	2987.15
927.177	2983.76
927.487	2929.53
927.796	2929.53
928.106	2927.72
928.416	2905.8
928.725	2936.76
929.034	2851.79
929.344	2884.56
929.653	2924.56
929.962	2868.96
930.271	2854.73
930.581	2836.2
930.89	2788.74
931.199	2821.96
931.508	2782.64
931.817	2813.37
932.125	2768.18
932.434	2789.42
932.743	2721.85
933.051	2782.86
933.36	2717.56
933.669	2717.1
933.977	2718.91
934.286	2688.86
934.594	2712.13
934.902	2687.5
935.21	2670.55
935.519	2679.36
935.827	2642.76
936.135	2625.58
936.443	2642.76
936.751	2614.28
937.059	2611.12
937.367	2601.85
937.674	2622.19
937.982	2615.41
938.29	2595.52
938.597	2580.61
938.905	2544.68
939.213	2573.6
939.52	2529.09
939.827	2575.64
940.135	2514.4
940.442	2521.85
940.749	2489.31
941.056	2512.82
941.363	2493.61
941.67	2468.97
941.977	2452.7
942.284	2443.66
942.591	2442.99
942.898	2438.24
943.205	2427.62
943.511	2442.08
943.818	2402.76
944.125	2350.11
944.431	2397.11
944.738	2373.16
945.044	2365.7
945.35	2378.36
945.657	2338.36
945.963	2331.13
946.269	2315.08
946.575	2340.16
946.881	2343.55
947.187	2314.63
947.493	2275.76
947.799	2319.83
948.105	2288.19
948.41	2275.76
948.716	2287.06
949.022	2283.67
949.327	2248.87
949.633	2245.93
949.938	2238.02
950.244	2245.93
950.549	2224.46
950.854	2210.9
951.16	2192.37
951.465	2187.85
951.77	2179.72
952.075	2177.91
952.38	2135.2
952.685	2115.09
952.99	2122.09
953.294	2124.8
953.599	2125.48
953.904	2114.86
954.209	2119.15
954.513	2106.5
954.818	2095.2
955.122	2081.87
955.426	2099.27
955.731	2066.05
956.035	2080.28
956.339	2042.09
956.643	2061.53
956.948	2038.7
957.252	2041.42
957.556	2036.67
957.86	2023.34
958.163	2006.84
958.467	2042.09
958.771	1993.28
959.075	2003
959.378	2008.2
959.682	1966.39
959.985	1986.5
960.289	1957.12
960.592	1922.77
960.896	1946.5
961.199	1905.6
961.502	1919.84
961.805	1911.25
962.108	1909.67
962.411	1902.66
962.714	1888.2
963.017	1897.24
963.32	1885.71
963.623	1894.3
963.926	1858.37
964.228	1868.09
964.531	1839.16
964.833	1883.23
965.136	1846.39
965.438	1832.61
965.741	1814.08
966.043	1827.86
966.345	1802.33
966.648	1819.05
966.95	1801.65
967.252	1789.67
967.554	1793.74
967.856	1770.46
968.158	1774.3
968.46	1763.68
968.761	1772.27
969.063	1749.22
969.365	1752.84
969.666	1739.5
969.968	1712.38
970.269	1725.04
970.571	1724.36
970.872	1713.06
971.174	1700.86
971.475	1713.51
971.776	1686.4
972.077	1695.66
972.378	1685.04
972.679	1685.04
972.98	1642.56
973.281	1692.27
973.582	1648.43
973.883	1634.87
974.183	1651.59
974.484	1625.38
974.785	1616.34
975.085	1616.57
975.386	1625.83
975.686	1648.21
975.986	1602.78
976.287	1609.79
976.587	1586.29
976.887	1612.5
977.187	1556
977.487	1571.37
977.787	1558.72
978.087	1565.72
978.387	1549.45
978.687	1565.5
978.987	1525.5
979.286	1522.33
979.586	1526.63
979.885	1520.98
980.185	1507.87
980.484	1520.98
980.784	1542.67
981.083	1483.46
981.382	1503.8
981.682	1485.95
981.981	1496.57
982.28	1511.26
982.579	1460.64
982.878	1466.97
983.177	1443.24
983.475	1427.65
983.774	1445.5
984.073	1436.91
984.372	1419.74
984.67	1418.15
984.969	1448.44
985.267	1406.18
985.566	1407.08
985.864	1438.27
986.162	1443.24
986.461	1400.75
986.759	1415.67
987.057	1388.78
987.355	1357.82
987.653	1403.47
987.951	1366.4
988.249	1381.09
988.547	1362.79
988.844	1371.15
989.142	1363.24
989.44	1369.79
989.737	1332.73
990.035	1329.8
990.332	1353.52
990.63	1314.43
990.927	1308.78
991.224	1307.42
991.521	1309.23
991.819	1282.34
992.116	1320.08
992.413	1291.15
992.71	1292.28
993.006	1322.56
993.303	1275.11
993.6	1251.38
993.897	1246.63
994.193	1262.9
994.49	1274.88
994.787	1233.75
995.083	1218.61
995.379	1231.49
995.676	1211.15
995.972	1255.9
996.268	1231.72
996.565	1197.37
996.861	1192.4
997.157	1200.76
997.453	1212.06
997.749	1208.22
998.044	1201.21
998.34	1199.4
998.636	1174.32
998.932	1196.47
999.227	1161.21
999.523	1185.39
999.818	1173.19
1000.114	1151.5
1000.409	1170.25
1000.704	1153.53
1001	1165.28
1001.295	1164.6
1001.59	1130.48
1001.885	1150.82
1002.18	1114.66
1002.475	1137.48
1002.77	1105.39
1003.065	1141.55
1003.359	1102.23
1003.654	1088.22
1003.949	1069.24
1004.243	1073.08
1004.538	1074.89
1004.832	1088.45
1005.127	1059.97
1005.421	1076.02
1005.715	1066.98
1006.009	1053.87
1006.304	1050.71
1006.598	1045.74
1006.892	1050.25
1007.186	1053.87
1007.48	1051.61
1007.773	1029.46
1008.067	1045.96
1008.361	1004.83
1008.655	1040.76
1008.948	1032.63
1009.242	1018.17
1009.535	1004.15
1009.829	976.81
1010.122	995.34
1010.415	989.47
1010.708	970.26
1011.001	1004.15
1011.295	990.14
1011.588	958.73
1011.881	968.9
1012.173	946.75
1012.466	952.18
1012.759	971.84
1013.052	945.62
1013.344	964.16
1013.637	945.17
1013.93	928.45
1014.222	918.96
1014.514	935.46
1014.807	911.05
1015.099	926.19
1015.391	890.26
1015.683	915.12
1015.976	915.8
1016.268	898.85
1016.56	898.39
1016.851	907.43
1017.143	877.6
1017.435	868.56
1017.727	883.03
1018.018	857.72
1018.31	864.27
1018.602	899.98
1018.893	848.23
1019.185	862.24
1019.476	863.59
1019.767	841.9
1020.058	833.99
1020.35	856.59
1020.641	833.99
1020.932	835.12
1021.223	825.63
1021.514	811.39
1021.804	822.69
1022.095	814.1
1022.386	833.54
1022.677	815.91
1022.967	782.47
1023.258	777.72
1023.548	769.36
1023.839	805.97
1024.129	798.28
1024.419	789.24
1024.709	783.14
1025	770.49
1025.29	768.45
1025.58	755.12
1025.87	733.43
1026.16	750.83
1026.449	774.1
1026.739	751.51
1027.029	753.77
1027.319	731.17
1027.608	711.28
1027.898	735.46
1028.187	746.99
1028.477	744.73
1028.766	730.04
1029.055	725.97
1029.344	698.85
1029.634	698.63
1029.923	725.52
1030.212	743.6
1030.501	700.43
1030.79	710.15
1031.078	698.17
1031.367	662.92
1031.656	664.95
1031.945	679.42
1032.233	683.03
1032.522	669.93
1032.81	665.86
1033.099	674.9
1033.387	666.54
1033.675	672.64
1033.963	652.75
1034.251	659.3
1034.54	650.94
1034.828	654.11
1035.116	618.4
1035.403	651.62
1035.691	618.18
1035.979	618.18
1036.267	640.55
1036.554	623.37
1036.842	619.76
1037.129	616.14
1037.417	617.27
1037.704	620.66
1037.992	601.23
1038.279	633.99
1038.566	611.4
1038.853	611.4
1039.14	611.4
