Data from cardboard_FLMS001491_057.txt Node
Date: Tue Feb 07 11:39:44 GMT 2017
User: dcchb
Spectrometer: FLMS00149
Trigger mode: 0
Integration Time (sec): 2.000000E-2
Scans to average: 10
Electric dark correction enabled: true
Nonlinearity correction enabled: false
Boxcar width: 0
XAxis mode: Wavelengths
Number of Pixels in Spectrum: 2048
>>>>>Begin Spectral Data<<<<<
341.393	-18.12
341.776	-18.12
342.16	-18.12
342.543	-64.45
342.927	-64.67
343.31	-64.22
343.693	-84.11
344.077	-65.13
344.46	-73.49
344.843	-44.11
345.226	-46.82
345.61	-25.58
345.993	-5.69
346.376	-8.4
346.759	9.67
347.142	8.77
347.525	30.24
347.908	63.01
348.291	74.98
348.674	110.69
349.057	120.18
349.44	109.56
349.823	135.1
350.206	168.31
350.588	185.94
350.971	193.85
351.354	219.39
351.737	235.88
352.119	234.53
352.502	243.34
352.884	256.22
353.267	275.2
353.65	284.24
354.032	276.33
354.414	312.94
354.797	299.38
355.179	317.92
355.562	318.37
355.944	316.33
356.326	332.83
356.709	333.96
357.091	326.05
357.473	351.13
357.855	330.8
358.238	313.85
358.62	363.34
359.002	351.36
359.384	317.92
359.766	327.86
360.148	335.77
360.53	335.99
360.912	332.38
361.294	330.12
361.676	330.12
362.057	333.06
362.439	316.79
362.821	304.13
363.203	298.25
363.584	334.19
363.966	331.02
364.348	314.98
364.729	297.58
365.111	308.65
365.493	313.17
365.874	312.27
366.256	311.59
366.637	342.77
367.019	294.87
367.4	300.06
367.781	308.42
368.163	299.61
368.544	297.35
368.925	310.68
369.306	314.75
369.688	303.23
370.069	306.62
370.45	309.55
370.831	281.98
371.212	310.01
371.593	301.64
371.974	301.87
372.355	291.48
372.736	302.55
373.117	309.78
373.498	314.53
373.879	318.82
374.26	298.25
374.641	288.76
375.021	318.59
375.402	333.51
375.783	322.66
376.163	300.74
376.544	319.5
376.925	319.72
377.305	325.6
377.686	324.47
378.066	316.11
378.447	339.16
378.827	316.33
379.208	308.88
379.588	324.02
379.968	322.66
380.349	337.8
380.729	323.34
381.109	312.04
381.489	316.33
381.87	313.85
382.25	313.85
382.63	310.01
383.01	335.54
383.39	326.73
383.77	335.09
384.15	346.39
384.53	319.5
384.91	334.64
385.29	338.93
385.67	344.13
386.049	338.25
386.429	347.75
386.809	344.13
387.189	320.63
387.568	343.68
387.948	353.85
388.328	361.3
388.707	350.46
389.087	322.66
389.466	361.98
389.846	375.09
390.225	345.03
390.605	353.17
390.984	368.54
391.363	338.71
391.743	353.85
392.122	365.15
392.501	343.23
392.881	371.7
393.26	373.96
393.639	347.52
394.018	343.9
394.397	354.52
394.776	350.23
395.155	369.89
395.534	365.82
395.913	350.46
396.292	377.8
396.671	373.06
397.05	400.63
397.429	381.19
397.808	381.42
398.186	376.44
398.565	408.99
398.944	375.99
399.323	393.62
399.701	378.48
400.08	383.22
400.458	393.17
400.837	389.33
401.215	403.11
401.594	368.76
401.972	403.56
402.351	405.82
402.729	415.99
403.107	395.65
403.486	405.82
403.864	417.35
404.242	395.88
404.62	380.06
404.999	398.37
405.377	389.33
405.755	406.27
406.133	408.08
406.511	414.86
406.889	424.81
407.267	415.09
407.645	425.48
408.023	409.89
408.401	418.25
408.779	435.88
409.156	442.66
409.534	454.86
409.912	448.53
410.29	440.17
410.667	435.43
411.045	430.23
411.422	457.8
411.8	477.46
412.178	431.81
412.555	457.8
412.933	468.42
413.31	453.96
413.687	467.29
414.065	449.89
414.442	463.67
414.819	455.54
415.197	470.68
415.574	490.34
415.951	487.63
416.328	462.09
416.705	495.99
417.082	502.32
417.46	490.34
417.837	491.92
418.214	508.19
418.591	517.91
418.967	513.62
419.344	515.65
419.721	516.78
420.098	528.53
420.475	500.74
420.852	515.88
421.228	510.45
421.605	512.71
421.982	531.7
422.358	516.33
422.735	526.05
423.111	533.95
423.488	524.46
423.864	547.06
424.241	547.51
424.617	542.09
424.994	535.54
425.37	541.41
425.746	551.36
426.123	547.97
426.499	569.21
426.875	564.69
427.251	571.92
427.627	557.68
428.003	582.54
428.379	573.73
428.756	597.68
429.132	585.48
429.507	604.01
429.883	601.98
430.259	627.06
430.635	628.42
431.011	638.13
431.387	618.92
431.763	656.44
432.138	626.38
432.514	618.92
432.89	643.33
433.265	652.6
433.641	661.18
434.016	666.15
434.392	650.34
434.767	659.83
435.143	673.84
435.518	678.13
435.894	692.82
436.269	691.46
436.644	696.21
437.02	689.21
437.395	695.98
437.77	705.25
438.145	712.71
438.52	735.98
438.895	723.78
439.271	752.25
439.646	740.05
440.021	754.06
440.395	777.11
440.77	761.75
441.145	759.03
441.52	747.73
441.895	766.94
442.27	756.55
442.645	766.72
443.019	779.37
443.394	790.67
443.769	794.96
444.143	777.11
444.518	786.15
444.892	798.35
445.267	775.3
445.641	784.34
446.016	811.46
446.39	822.31
446.764	816.66
447.139	828.18
447.513	821.63
447.887	826.83
448.262	833.61
448.636	808.3
449.01	839.48
449.384	858.92
449.758	864.79
450.132	842.87
450.506	857.34
450.88	875.64
451.254	861.4
451.628	878.13
452.002	884.91
452.376	895.53
452.75	887.39
453.123	903.44
453.497	922.65
453.871	909.99
454.244	926.71
454.618	938.46
454.992	948.18
455.365	959.25
455.739	972.59
456.112	1000.61
456.486	1000.38
456.859	1011.91
457.232	1034.28
457.606	1010.33
457.979	1017.56
458.352	1027.28
458.725	1035.86
459.099	1033.83
459.472	1042.87
459.845	1072.25
460.218	1077.44
460.591	1080.16
460.964	1106.37
461.337	1115.18
461.71	1115.63
462.083	1146.82
462.456	1152.92
462.829	1132.36
463.201	1166.03
463.574	1198.34
463.947	1182.3
464.32	1216.42
464.692	1221.39
465.065	1228.17
465.438	1212.13
465.81	1242.18
466.183	1251.45
466.555	1290.32
466.928	1319.7
467.3	1328.06
467.672	1315.63
468.045	1349.98
468.417	1335.52
468.789	1362.63
469.161	1392.01
469.534	1410.54
469.906	1415.97
470.278	1423.65
470.65	1438.11
471.022	1478.56
471.394	1493.7
471.766	1497.77
472.138	1518.56
472.51	1540.26
472.882	1564.89
473.253	1566.47
473.625	1597.66
473.997	1620.93
474.369	1625.23
474.74	1658.9
475.112	1688.05
475.484	1693.02
475.855	1711.33
476.227	1753.81
476.598	1776.18
476.97	1767.82
477.341	1818.44
477.713	1837.88
478.084	1877.65
478.455	1940.47
478.827	1912.9
479.198	1997.65
479.569	2011.88
479.94	2034.48
480.311	2079.9
480.682	2084.2
481.053	2137.75
481.424	2166.91
481.795	2177.75
482.166	2235.15
482.537	2254.59
482.908	2326.22
483.279	2278.77
483.65	2343.17
484.021	2448.03
484.391	2420.68
484.762	2483.28
485.133	2471.53
485.503	2507.24
485.874	2555.82
486.244	2565.09
486.615	2636.5
486.985	2665.88
487.356	2691.41
487.726	2717.4
488.097	2799.21
488.467	2840.79
488.837	2911.29
489.207	2918.75
489.578	2953.1
489.948	2986.32
490.318	3043.04
490.688	3009.37
491.058	3089.59
491.428	3135.69
491.798	3188.8
492.168	3230.16
492.538	3257.05
492.908	3306.76
493.278	3351.06
493.648	3361.68
494.017	3395.57
494.387	3477.61
494.757	3487.1
495.126	3551.5
495.496	3528.9
495.866	3586.53
496.235	3632.63
496.605	3676.7
496.974	3680.54
497.344	3723.25
497.713	3758.95
498.082	3762.8
498.452	3827.43
498.821	3804.6
499.19	3866.07
499.559	3952.62
499.928	3941.32
500.298	4010.47
500.667	4092.05
501.036	4030.81
501.405	4150.81
501.774	4066.74
502.143	4147.19
502.512	4206.63
502.88	4246.63
503.249	4254.99
503.618	4306.74
503.987	4328.21
504.356	4365.94
504.724	4435.32
505.093	4425.83
505.462	4470.35
505.83	4476.9
506.199	4542.89
506.567	4590.12
506.936	4649.1
507.304	4699.95
507.672	4742.21
508.041	4735.2
508.409	4780.85
508.777	4812.49
509.145	4882.77
509.514	4934.52
509.882	4984.91
510.25	5038.02
510.618	5022.2
510.986	5040.05
511.354	5137.9
511.722	5144.23
512.09	5222.87
512.458	5246.83
512.826	5316.88
513.193	5349.2
513.561	5365.92
513.929	5454.05
514.297	5566.14
514.664	5573.82
515.032	5548.96
515.4	5668.96
515.767	5664.44
516.135	5734.95
516.502	5729.3
516.869	5805.91
517.237	5837.54
517.604	5906.92
517.972	6005.68
518.339	6016.07
518.706	6054.71
519.073	6152.79
519.44	6134.71
519.808	6273.92
520.175	6283.63
520.542	6343.97
520.909	6442.5
521.276	6419.68
521.643	6517.3
522.009	6564.76
522.376	6659.9
522.743	6719.55
523.11	6788.71
523.477	6847.69
523.843	6832.77
524.21	7041.58
524.577	7037.51
524.943	7079.32
525.31	7188.24
525.676	7200.45
526.043	7356.37
526.409	7370.84
526.776	7521.34
527.142	7493.55
527.508	7626.88
527.874	7656.93
528.241	7681.56
528.607	7778.51
528.973	7827.32
529.339	7862.58
529.705	7939.18
530.071	8060.31
530.437	8075.68
530.803	8166.52
531.169	8236.13
531.535	8205.39
531.901	8367.2
532.267	8438.15
532.632	8441.09
532.998	8502.33
533.364	8569.22
533.73	8636.11
534.095	8726.73
534.461	8735.77
534.826	8848.76
535.192	8824.58
535.557	8942.1
535.923	8995.2
536.288	9018.25
536.653	9108.42
537.019	9101.87
537.384	9167.63
537.749	9253.5
538.114	9338.92
538.479	9332.59
538.845	9408.75
539.21	9382.54
539.575	9455.3
539.94	9547.96
540.305	9641.51
540.67	9667.05
541.034	9719.25
541.399	9792.92
541.764	9850.09
542.129	9866.82
542.494	9956.76
542.858	10043.54
543.223	10041.73
543.587	10078.34
543.952	10149.52
544.316	10210.31
544.681	10222.29
545.045	10295.51
545.41	10420.02
545.774	10429.29
546.138	10434.49
546.503	10548.15
546.867	10548.38
547.231	10705.21
547.595	10796.51
547.959	10848.71
548.324	10838.32
548.688	10843.06
549.052	10921.48
549.416	10993.79
549.779	11032.21
550.143	11105.2
550.507	11213.22
550.871	11266.33
551.235	11285.31
551.599	11426.78
551.962	11444.63
552.326	11502.25
552.689	11577.05
553.053	11573.21
553.417	11587.68
553.78	11796.94
554.143	11768.69
554.507	11876.26
554.87	11982.02
555.234	12024.73
555.597	11996.93
555.96	12162.8
556.323	12247.32
556.686	12299.07
557.05	12316.24
557.413	12402.57
557.776	12434.43
558.139	12539.29
558.502	12590.81
558.865	12652.51
559.228	12790.13
559.59	12835.78
559.953	12910.35
560.316	13123
560.679	13081.2
561.041	13117.35
561.404	13294.75
561.767	13415.2
562.129	13354.63
562.492	13547.17
562.854	13483.9
563.217	13626.72
563.579	13694.29
563.941	13829.42
564.304	13853.6
564.666	13962.53
565.028	13992.36
565.39	14093.6
565.753	14153.71
566.115	14189.42
566.477	14357.09
566.839	14411.78
567.201	14511.44
567.563	14575.17
567.925	14710.08
568.287	14725.45
568.648	14725.22
569.01	14884.76
569.372	14968.38
569.734	14974.71
570.095	15067.81
570.457	15210.41
570.819	15216.51
571.18	15288.82
571.542	15295.83
571.903	15354.13
572.265	15496.27
572.626	15532.66
572.987	15625.76
573.349	15685.19
573.71	15770.16
574.071	15865.08
574.432	15950.95
574.794	16007.9
575.155	16122.92
575.516	16049.25
575.877	16115.92
576.238	16120.21
576.599	16270.04
576.96	16296.03
577.32	16382.8
577.681	16470.26
578.042	16549.35
578.403	16586.19
578.763	16550.26
579.124	16757.71
579.485	16739.63
579.845	16831.15
580.206	16792.96
580.566	16787.54
580.927	16849.46
581.287	16921.77
581.648	16923.35
582.008	17045.39
582.368	17030.7
582.728	17065.95
583.089	17096.91
583.449	17069.34
583.809	17192.5
584.169	17271.14
584.529	17248.77
584.889	17425.04
585.249	17292.84
585.609	17308.66
585.969	17433.62
586.329	17426.62
586.688	17467.29
587.048	17493.96
587.408	17471.59
587.768	17604.92
588.127	17462.32
588.487	17561.76
588.846	17637.91
589.206	17597.01
589.565	17707.51
589.925	17746.38
590.284	17666.16
590.643	17744.58
591.003	17805.82
591.362	17835.87
591.721	17828.87
592.08	17876.55
592.44	17854.18
592.799	17929.88
593.158	17957.23
593.517	17966.49
593.876	18016.89
594.235	18015.08
594.593	18062.53
594.952	18113.38
595.311	17919.49
595.67	18150.44
596.029	18247.84
596.387	18281.06
596.746	18329.19
597.104	18226.6
597.463	18247.16
597.822	18452.58
598.18	18357.22
598.538	18253.71
598.897	18491.22
599.255	18281.96
599.613	18653.93
599.972	18516.08
600.33	18614.61
600.688	18511.11
601.046	18634.04
601.404	18719.92
601.762	18642.63
602.12	18839.01
602.478	18827.94
602.836	18804.43
603.194	18768.73
603.552	18811.21
603.91	18841.04
604.268	18937.09
604.625	18899.35
604.983	18937.54
605.341	18938.44
605.698	19034.71
606.056	19071.77
606.413	19032.68
606.771	19175.05
607.128	19169.17
607.485	19169.62
607.843	19257.98
608.2	19371.43
608.557	19451.42
608.914	19315.83
609.272	19485.77
609.629	19568.93
609.986	19591.76
610.343	19444.64
610.7	19649.38
611.057	19616.17
611.414	19611.87
611.771	19738.42
612.127	19776.16
612.484	19744.75
612.841	19818.65
613.198	19682.38
613.554	19818.19
613.911	19902.03
614.267	20040.56
614.624	19970.51
614.98	19991.75
615.337	20059.77
615.693	20134.12
616.05	20110.62
616.406	20238.07
616.762	20173.21
617.118	20252.76
617.475	20288.46
617.831	20242.14
618.187	20320.1
618.543	20405.97
618.899	20536.14
619.255	20459.31
619.611	20431.28
619.967	20567.78
620.323	20623.37
620.678	20536.82
621.034	20513.77
621.39	20639.41
621.746	20563.94
622.101	20799.86
622.457	20584.05
622.812	20705.4
623.168	20727.1
623.523	20872.4
623.879	20814.1
624.234	20747.89
624.589	20845.96
624.945	20742.46
625.3	20883.93
625.655	20882.12
626.01	20957.82
626.365	20833.08
626.72	20935.45
627.075	20923.48
627.43	20948.79
627.785	20892.74
628.14	21016.13
628.495	21007.77
628.85	21034.88
629.205	20892.52
629.559	21170.7
629.914	21008.9
630.269	20979.74
630.623	20861.1
630.978	20935.23
631.332	20980.42
631.687	21124.37
632.041	21026.52
632.396	21095.45
632.75	20951.27
633.104	20978.16
633.459	20932.97
633.813	20949.46
634.167	20940.42
634.521	21022.91
634.875	20937.94
635.229	21045.51
635.583	20963.93
635.937	20860.2
636.291	20950.37
636.645	20986.98
636.999	20952.18
637.352	20983.81
637.706	20770.48
638.06	21068.1
638.413	20863.36
638.767	20796.47
639.121	20903.81
639.474	20846.87
639.828	20822.23
640.181	20824.27
640.534	20876.02
640.888	20937.49
641.241	20757.83
641.594	20672.63
641.947	20910.14
642.301	20828.11
642.654	20849.13
643.007	20804.83
643.36	20720.32
643.713	20800.09
644.066	20919.18
644.419	20635.57
644.771	20562.58
645.124	20419.53
645.477	20389.7
645.83	20342.47
646.182	20229.03
646.535	20238.97
646.888	20255.7
647.24	20065.42
647.593	20211.63
647.945	20196.26
648.298	20117.39
648.65	20066.1
649.002	20036.27
649.355	20137.06
649.707	20143.61
650.059	20202.82
650.411	20514.67
650.763	20570.94
651.115	20687.78
651.467	20690.94
651.819	20656.82
652.171	20720.32
652.523	20718.51
652.875	20640.77
653.227	20619.75
653.578	20796.92
653.93	20610.04
654.282	20647.1
654.633	20537.5
654.985	20618.4
655.337	20719.41
655.688	20651.62
656.039	20693.42
656.391	20561
656.742	20606.65
657.094	20549.02
657.445	20603.26
657.796	20621.34
658.147	20587.44
658.498	20653.88
658.849	20603.03
659.2	20647.78
659.551	20658.62
659.902	20691.16
660.253	20656.82
660.604	20728
660.955	20651.62
661.306	20740.2
661.656	20727.32
662.007	20712.63
662.358	20641.9
662.708	20729.81
663.059	20651.39
663.409	20522.81
663.76	20765.74
664.11	20718.06
664.461	20775.46
664.811	20736.14
665.161	20761.45
665.511	20666.98
665.862	20711.5
666.212	20696.14
666.562	20696.36
666.912	20726.64
667.262	20738.4
667.612	20676.7
667.962	20715.12
668.312	20729.36
668.662	20907.43
669.011	20756.47
669.361	20690.04
669.711	20777.94
670.06	20693.2
670.41	20723.93
670.76	20601.45
671.109	20876.7
671.459	20676.02
671.808	20644.84
672.157	20763.48
672.507	20578.85
672.856	20680.77
673.205	20810.48
673.554	20846.42
673.904	20710.83
674.253	20681.67
674.602	20695.91
674.951	20474
675.3	20300.89
675.649	20653.43
675.998	20553.77
676.346	20577.95
676.695	20691.84
677.044	20520.77
677.393	20641.22
677.741	20670.83
678.09	20565.07
678.438	20545.86
678.787	20529.81
679.135	20716.48
679.484	20492.75
679.832	20587.89
680.181	20433.09
680.529	20526.88
680.877	20501.34
681.225	20542.47
681.573	20576.14
681.922	20479.65
682.27	20344.06
682.618	20416.37
682.966	20376.37
683.314	20316.03
683.661	20336.15
684.009	20321.91
684.357	20346.32
684.705	20205.75
685.053	20217.96
685.4	20191.97
685.748	20096.83
686.095	20122.14
686.443	20130.73
686.79	20129.37
687.138	20142.25
687.485	20066.32
687.832	20045.31
688.18	20116.04
688.527	20047.34
688.874	19960.34
689.221	19974.8
689.568	19840.57
689.915	19805.76
690.262	19884.63
690.609	19788.82
690.956	19789.49
691.303	19649.61
691.65	19569.16
691.997	19732.55
692.344	19575.04
692.69	19557.18
693.037	19524.42
693.383	19309.05
693.73	19497.98
694.077	19373.46
694.423	19299.56
694.769	19317.87
695.116	19341.37
695.462	19317.19
695.808	19284.65
696.155	19263.41
696.501	19192.9
696.847	19104.54
697.193	18910.19
697.539	19058.67
697.885	18943.64
698.231	18867.71
698.577	18849.41
698.923	18889.63
699.269	18877.88
699.614	18758.11
699.96	18650.54
700.306	18747.94
700.651	18657.09
700.997	18621.84
701.342	18632.01
701.688	18518.11
702.033	18559.7
702.379	18548.62
702.724	18432.24
703.069	18392.92
703.415	18267.05
703.76	18332.58
704.105	18332.81
704.45	18282.41
704.795	18133.27
705.14	18134.4
705.485	18162.87
705.83	18007.39
706.175	18050.78
706.52	18051.01
706.865	17872.48
707.209	17961.29
707.554	17832.48
707.899	17966.94
708.243	17853.05
708.588	17743.67
708.932	17771.24
709.277	17619.83
709.621	17687.18
709.966	17573.73
710.31	17613.28
710.654	17427.97
710.998	17617.35
711.342	17488.76
711.687	17505.71
712.031	17450.57
712.375	17419.39
712.719	17394.08
713.063	17423.23
713.407	17529.89
713.75	17288.77
714.094	17332.38
714.438	17299.84
714.782	17333.51
715.125	17221.65
715.469	17286.06
715.812	17216.68
716.156	17158.83
716.499	17163.12
716.843	17154.99
717.186	17027.98
717.53	17085.84
717.873	17148.43
718.216	17075.21
718.559	16969.45
718.902	16886.75
719.246	17023.92
719.589	16962
719.932	16830.25
720.275	16905.5
720.617	16930.13
720.96	16788.67
721.303	16812.4
721.646	16802.91
721.989	16720.65
722.331	16741.44
722.674	16703.02
723.016	16685.62
723.359	16754.77
723.701	16751.38
724.044	16729.24
724.386	16599.75
724.729	16701.89
725.071	16585.06
725.413	16635.45
725.755	16597.04
726.097	16694.21
726.439	16513.65
726.782	16520.65
727.124	16655.79
727.465	16437.27
727.807	16505.06
728.149	16476.36
728.491	16406.53
728.833	16472.97
729.175	16409.02
729.516	16410.37
729.858	16415.57
730.199	16396.14
730.541	16302.35
730.882	16356.14
731.224	16333.31
731.565	16316.82
731.906	16284.95
732.248	16348.91
732.589	16246.08
732.93	16279.08
733.271	16299.42
733.612	16274.33
733.953	16289.7
734.294	16231.62
734.635	16190.04
734.976	16274.11
735.317	16183.03
735.658	16138.52
735.999	16242.47
736.339	16199.53
736.68	16146.2
737.021	16110.72
737.361	16121.79
737.702	16216.03
738.042	16124.96
738.383	16097.61
738.723	16195.92
739.063	16040.44
739.404	16079.08
739.744	16047.9
740.084	16094
740.424	16059.42
740.764	15943.95
741.104	16086.77
741.444	15986.43
741.784	16012.87
742.124	16061
742.464	15950.72
742.804	15882.93
743.143	15917.96
743.483	15918.41
743.823	15938.97
744.162	15910.73
744.502	15952.08
744.841	15872.76
745.181	15989.59
745.52	15890.61
745.86	15850.84
746.199	15891.52
746.538	15859.65
746.877	15860.11
747.216	15915.92
747.556	15785.76
747.895	15864.4
748.234	15795.02
748.573	15781.46
748.911	15788.02
749.25	15783.95
749.589	15668.92
749.928	15617.85
750.267	15802.03
750.605	15712.99
750.944	15675.03
751.283	15671.64
751.621	15786.89
751.96	15577.4
752.298	15709.83
752.636	15560.68
752.975	15605.65
753.313	15553.45
753.651	15664.4
753.989	15485.2
754.327	15486.1
754.666	15531.98
755.004	15573.79
755.342	15549.38
755.679	15517.29
756.017	15477.97
756.355	15452.43
756.693	15439.55
757.031	15370.17
757.368	15435.03
757.706	15335.37
758.044	15310.74
758.381	15227.58
758.719	15284.08
759.056	15252.89
759.394	15289.73
759.731	15120.46
760.068	15148.94
760.405	15073.46
760.743	15113.91
761.08	15036.85
761.417	15007.92
761.754	15018.09
762.091	14959.34
762.428	14959.79
762.765	14928.15
763.102	14941.94
763.438	14803.86
763.775	14737.2
764.112	14774.94
764.449	14799.12
764.785	14744.88
765.122	14656.3
765.458	14622.4
765.795	14611.32
766.131	14571.33
766.467	14530.87
766.804	14447.94
767.14	14392.12
767.476	14384.89
767.812	14358.45
768.148	14369.3
768.485	14294.05
768.821	14247.94
769.157	14278.68
769.492	14202.97
769.828	14136.54
770.164	14078.01
770.5	14082.75
770.836	14074.84
771.171	13991
771.507	13999.59
771.842	13859.93
772.178	13819.03
772.513	13791.69
772.849	13825.81
773.184	13663.33
773.519	13701.07
773.855	13701.74
774.19	13593.27
774.525	13609.09
774.86	13483.22
775.195	13497.23
775.53	13436.89
775.865	13383.33
776.2	13348.31
776.535	13214.98
776.87	13300.4
777.205	13187.86
777.539	13157.8
777.874	13148.76
778.209	13009.79
778.543	13097.47
778.878	12932.72
779.212	12958.71
779.547	12888.66
779.881	12957.58
780.215	12784.25
780.55	12843.91
780.884	12778.38
781.218	12705.61
781.552	12809.79
781.886	12702.45
782.22	12613.86
782.554	12629.23
782.888	12481.66
783.222	12481.66
783.556	12394.66
783.889	12401.21
784.223	12250.93
784.557	12318.05
784.89	12368.9
785.224	12264.95
785.557	12249.81
785.891	12154.21
786.224	12095.68
786.558	12068.57
786.891	12016.59
787.224	12039.64
787.557	11909.93
787.891	11967.78
788.224	11907.89
788.557	11960.1
788.89	11900.66
789.223	11929.36
789.556	11662.25
789.888	11829.25
790.221	11686.43
790.554	11573.89
790.887	11631.06
791.219	11571.86
791.552	11534.57
791.884	11438.75
792.217	11477.17
792.549	11419.54
792.882	11384.74
793.214	11340
793.546	11427
793.879	11312.88
794.211	11270.17
794.543	11290.28
794.875	11164.64
795.207	11249.15
795.539	11181.58
795.871	11134.35
796.203	11070.4
796.535	10964.19
796.867	11014.13
797.198	10983.4
797.53	10990.4
797.862	10882.38
798.193	10959.67
798.525	10916.28
798.856	10866.79
799.188	10765.32
799.519	10721.48
799.85	10688.04
800.182	10713.8
800.513	10715.16
800.844	10603.07
801.175	10709.51
801.506	10613.92
801.837	10659.11
802.168	10544.54
802.499	10473.81
802.83	10441.27
803.161	10418.44
803.491	10447.14
803.822	10410.31
804.153	10385.9
804.483	10282.63
804.814	10285.56
805.145	10245.56
805.475	10260.03
805.805	10214.6
806.136	10257.77
806.466	10287.82
806.796	10140.48
807.126	10128.5
807.457	10102.52
807.787	10051.9
808.117	10023.42
808.447	10070.2
808.777	10082.63
809.107	9938.45
809.436	9975.97
809.766	10032.91
810.096	9925.35
810.426	9864.33
810.755	9895.52
811.085	9863.65
811.414	9843.99
811.744	9811.45
812.073	9735.97
812.403	9721.28
812.732	9692.58
813.061	9702.98
813.39	9672.7
813.719	9681.96
814.049	9719.25
814.378	9670.89
814.707	9612.59
815.036	9613.49
815.365	9580.72
815.693	9454.17
816.022	9508.18
816.351	9477.45
816.68	9438.81
817.008	9501.4
817.337	9401.97
817.665	9373.04
817.994	9363.55
818.322	9397.68
818.651	9319.26
818.979	9293.95
819.307	9361.52
819.636	9275.19
819.964	9229.32
820.292	9254.63
820.62	9218.7
820.948	9270.22
821.276	9238.36
821.604	9231.13
821.932	9234.97
822.259	9264.12
822.587	9305.93
822.915	9171.69
823.243	9216.66
823.57	9191.13
823.898	9191.81
824.225	9222.09
824.553	9164.24
824.88	9188.87
825.207	9283.1
825.535	9227.74
825.862	9226.16
826.189	9239.71
826.516	9223.9
826.843	9224.12
827.17	9205.37
827.497	9327.17
827.824	9222.09
828.151	9260.28
828.478	9201.75
828.805	9221.41
829.131	9183.22
829.458	9222.99
829.785	9207.4
830.111	9211.24
830.438	9239.71
830.764	9210.34
831.09	9252.14
831.417	9190.45
831.743	9260.28
832.069	9211.47
832.395	9187.74
832.722	9212.37
833.048	9175.76
833.374	9223.44
833.7	9155.88
834.026	9219.6
834.351	9114.97
834.677	9093.05
835.003	9200.62
835.329	9194.29
835.654	9155.88
835.98	9053.28
836.306	9052.83
836.631	9047.18
836.956	9134.41
837.282	9124.01
837.607	9001.98
837.932	8997.69
838.258	8999.95
838.583	8988.87
838.908	8940.74
839.233	9011.92
839.558	8964.92
839.883	8889.89
840.208	8884.92
840.533	8958.14
840.858	8874.07
841.182	8903.9
841.507	8902.1
841.832	8832.49
842.156	8868.2
842.481	8830.91
842.805	8873.17
843.13	8836.11
843.454	8808.54
843.778	8744.13
844.103	8803.79
844.427	8707.53
844.751	8755.21
845.075	8760.41
845.399	8708.88
845.723	8673.85
846.047	8726.28
846.371	8612.16
846.695	8600.18
847.019	8502.78
847.343	8487.64
847.666	8499.4
847.99	8392.28
848.313	8358.83
848.637	8365.16
848.96	8360.64
849.284	8277.93
849.607	8306.18
849.931	8220.08
850.254	8207.43
850.577	8139.86
850.9	8101.44
851.223	8109.12
851.546	8019.18
851.869	8035
852.192	8085.39
852.515	7985.51
852.838	7938.51
853.161	7962.69
853.483	7875.68
853.806	7888.79
854.129	7834.78
854.451	7835.68
854.774	7847.21
855.096	7781.9
855.419	7778.51
855.741	7739.64
856.063	7737.38
856.385	7713.88
856.708	7718.17
857.03	7656.93
857.352	7649.7
857.674	7652.41
857.996	7631.4
858.318	7581.68
858.64	7516.37
858.961	7513.66
859.283	7517.05
859.605	7509.82
859.926	7489.03
860.248	7509.82
860.57	7432.76
860.891	7471.63
861.212	7397.96
861.534	7371.97
861.855	7387.56
862.176	7378.07
862.498	7378.29
862.819	7326.09
863.14	7309.6
863.461	7300.33
863.782	7310.05
864.103	7298.97
864.424	7322.48
864.745	7285.19
865.065	7268.47
865.386	7215.14
865.707	7203.61
866.027	7272.53
866.348	7168.81
866.668	7194.34
866.989	7125.19
867.309	7115.02
867.63	7171.29
867.95	7124.74
868.27	7056.5
868.59	7138.3
868.91	7107.79
869.23	7083.39
869.55	7074.8
869.87	7079.32
870.19	6995.48
870.51	7008.59
870.83	7128.81
871.15	7000.45
871.469	6973.11
871.789	7064.86
872.109	6991.86
872.428	7000
872.748	7077.74
873.067	7006.1
873.386	7027.12
873.706	6924.52
874.025	6918.87
874.344	6948.7
874.663	6998.87
874.982	6927.01
875.301	6954.35
875.62	6931.07
875.939	6896.05
876.258	6858.53
876.577	6853.56
876.896	6859.21
877.214	6849.5
877.533	6810.17
877.852	6854.01
878.17	6882.71
878.489	6814.69
878.807	6835.48
879.125	6821.7
879.444	6796.16
879.762	6772.21
880.08	6763.17
880.398	6724.07
880.716	6717.75
881.034	6715.04
881.352	6725.66
881.67	6696.28
881.988	6708.26
882.306	6653.34
882.624	6608.37
882.941	6690.4
883.259	6639.56
883.577	6596.39
883.894	6579.67
884.212	6543.74
884.529	6574.47
884.846	6556.62
885.164	6571.99
885.481	6542.84
885.798	6550.97
886.115	6479.56
886.432	6501.26
886.75	6441.6
887.067	6483.4
887.383	6427.36
887.7	6466.23
888.017	6401.15
888.334	6407.92
888.651	6435.49
888.967	6370.64
889.284	6307.81
889.6	6370.86
889.917	6293.13
890.233	6336.51
890.55	6231.21
890.866	6309.62
891.182	6256.74
891.498	6255.61
891.815	6232.79
892.131	6200.47
892.447	6183.98
892.763	6157.54
893.079	6217.65
893.395	6164.09
893.71	6129.29
894.026	6125.9
894.342	6154.82
894.657	6046.35
894.973	6096.29
895.289	6089.06
895.604	6023.53
895.92	5984.43
896.235	5934.72
896.55	5945.79
896.865	5978.56
897.181	5902.63
897.496	5950.76
897.811	5863.31
898.126	5916.64
898.441	5867.6
898.756	5903.76
899.071	5794.16
899.386	5849.3
899.7	5734.04
900.015	5727.94
900.33	5667.83
900.644	5661.28
900.959	5805.68
901.273	5676.19
901.588	5641.84
901.902	5630.54
902.216	5614.27
902.531	5552.35
902.845	5550.55
903.159	5572.24
903.473	5552.13
903.787	5529.98
904.101	5500.15
904.415	5506.03
904.729	5501.51
905.042	5383.54
905.356	5415.63
905.67	5403.21
905.984	5437.78
906.297	5406.82
906.611	5376.09
906.924	5357.56
907.237	5329.08
907.551	5307.61
907.864	5299.48
908.177	5350.78
908.491	5261.97
908.804	5257.67
909.117	5193.72
909.43	5128.64
909.743	5202.76
910.056	5137.22
910.368	5100.39
910.681	5127.96
910.994	5078.69
911.307	5113.27
911.619	5046.83
911.932	5049.09
912.244	4981.75
912.557	5020.84
912.869	4974.97
913.181	4985.14
913.494	4941.07
913.806	4915.53
914.118	4874.18
914.43	4859.04
914.742	4873.95
915.054	4811.36
915.366	4774.75
915.678	4829.21
915.99	4779.04
916.302	4727.29
916.613	4731.13
916.925	4713.73
917.236	4765.03
917.548	4724.81
917.859	4714.41
918.171	4643.9
918.482	4643.9
918.794	4628.54
919.105	4634.19
919.416	4628.08
919.727	4601.19
920.038	4570.68
920.349	4546.73
920.66	4501.99
920.971	4488.43
921.282	4505.15
921.593	4447.07
921.903	4447.07
922.214	4452.27
922.525	4457.02
922.835	4414.76
923.146	4408.66
923.456	4374.76
923.767	4351.48
924.077	4308.54
924.387	4309.67
924.697	4334.31
925.008	4265.38
925.318	4260.86
925.628	4272.16
925.938	4208.21
926.248	4184.48
926.558	4213.63
926.867	4163.46
927.177	4173.63
927.487	4128.21
927.796	4084.6
928.106	4114.88
928.416	4069
928.725	4067.2
929.034	4011.83
929.344	4057.93
929.653	4027.42
929.962	4051.83
930.271	4011.38
930.581	3988.78
930.89	3962.34
931.199	3914.66
931.508	3918.72
931.817	3876.01
932.125	3892.51
932.434	3895.45
932.743	3857.48
933.051	3830.14
933.36	3807.32
933.669	3806.19
933.977	3809.35
934.286	3776.36
934.594	3786.07
934.902	3775.45
935.21	3710.37
935.519	3754.44
935.827	3687.77
936.135	3696.13
936.443	3706.3
936.751	3664.04
937.059	3657.49
937.367	3666.3
937.674	3596.02
937.982	3654.32
938.29	3591.5
938.597	3572.97
938.905	3549.92
939.213	3556.47
939.52	3536.36
939.827	3554.89
940.135	3530.49
940.442	3508.57
940.749	3467.21
941.056	3468.79
941.363	3460.66
941.67	3400.77
941.977	3409.36
942.284	3391.73
942.591	3398.51
942.898	3344.95
943.205	3347.67
943.511	3357.61
943.818	3323.71
944.125	3340.43
944.431	3292.07
944.738	3351.51
945.044	3277.16
945.35	3272.87
945.657	3271.51
945.963	3240.55
946.269	3242.13
946.575	3209.14
946.881	3218.86
947.187	3164.17
947.493	3172.08
947.799	3179.99
948.105	3161.68
948.41	3128.69
948.716	3138.41
949.022	3137.05
949.327	3135.02
949.633	3076.49
949.938	3096.37
950.244	3075.13
950.549	3029.26
950.854	3044.17
951.16	3045.98
951.465	2989.26
951.77	2992.65
952.075	3022.7
952.38	3021.57
952.685	3005.75
952.99	2945.64
953.294	2940.67
953.599	2914.91
953.904	2874.46
954.209	2915.81
954.513	2900.45
954.818	2899.77
955.122	2893.67
955.426	2838.08
955.731	2831.52
956.035	2856.15
956.339	2851.18
956.643	2826.32
956.948	2787.23
957.252	2771.86
957.556	2747.46
957.86	2750.17
958.163	2787.68
958.467	2739.09
958.771	2729.38
959.075	2753.33
959.378	2699.77
959.682	2703.16
959.985	2655.93
960.289	2674.46
960.592	2653.45
960.896	2650.06
961.199	2664.07
961.502	2637.85
961.805	2637.85
962.108	2603.05
962.411	2564.64
962.714	2581.81
963.017	2591.75
963.32	2599.66
963.623	2571.19
963.926	2545.43
964.228	2542.72
964.531	2558.76
964.833	2528.93
965.136	2483.51
965.438	2474.24
965.741	2500
966.043	2480.57
966.345	2434.92
966.648	2457.29
966.95	2453
967.252	2439.89
967.554	2443.06
967.856	2402.83
968.158	2394.92
968.46	2391.53
968.761	2395.6
969.063	2401.02
969.365	2377.52
969.666	2354.02
969.968	2325.32
970.269	2358.31
970.571	2310.86
970.872	2304.76
971.174	2346.56
971.475	2299.11
971.776	2307.02
972.077	2272.67
972.378	2252.33
972.679	2296.39
972.98	2246.9
973.281	2273.34
973.582	2254.59
973.883	2238.77
974.183	2215.49
974.484	2212.1
974.785	2225.44
975.085	2187.24
975.386	2213.91
975.686	2175.72
975.986	2170.07
976.287	2174.59
976.587	2127.36
976.887	2134.59
977.187	2149.05
977.487	2145.44
977.787	2137.53
978.087	2111.77
978.387	2115.38
978.687	2102.5
978.987	2096.63
979.286	2058.66
979.586	2062.5
979.885	2049.62
980.185	2036.51
980.484	2064.31
980.784	2006.01
981.083	2004.65
981.382	2040.13
981.682	2005.78
981.981	1999.68
982.28	1983.41
982.579	1991.09
982.878	1973.92
983.177	1957.19
983.475	1952.45
983.774	1965.56
984.073	1935.5
984.372	1933.01
984.67	1947.03
984.969	1927.14
985.267	1914.03
985.566	1926.69
985.864	1917.65
986.162	1904.99
986.461	1900.7
986.759	1890.3
987.057	1861.83
987.355	1867.93
987.653	1851.21
987.951	1829.51
988.249	1836.75
988.547	1804.88
988.844	1782.06
989.142	1800.59
989.44	1789.97
989.737	1785.9
990.035	1767.14
990.332	1784.32
990.63	1753.81
990.927	1750.19
991.224	1773.24
991.521	1740.48
991.819	1712.23
992.116	1710.42
992.413	1714.94
992.71	1693.25
993.006	1727.37
993.303	1715.17
993.6	1726.47
993.897	1688.95
994.193	1678.11
994.49	1660.48
994.787	1683.76
995.083	1646.92
995.379	1644.89
995.676	1648.05
995.972	1652.12
996.268	1641.95
996.565	1624.55
996.861	1626.58
997.157	1623.64
997.453	1612.12
997.749	1573.7
998.044	1584.1
998.34	1577.09
998.636	1615.51
998.932	1562.85
999.227	1531.44
999.523	1567.83
999.818	1531.67
1000.114	1541.61
1000.409	1521.95
1000.704	1515.62
1001	1529.18
1001.295	1507.71
1001.59	1493.93
1001.885	1502.29
1002.18	1466.81
1002.475	1486.92
1002.77	1461.61
1003.065	1464.55
1003.359	1462.97
1003.654	1458.9
1003.949	1427.72
1004.243	1426.59
1004.538	1406.02
1004.832	1442.63
1005.127	1405.57
1005.421	1413.48
1005.715	1406.7
1006.009	1399.24
1006.304	1413.48
1006.598	1372.12
1006.892	1374.38
1007.186	1374.84
1007.48	1387.94
1007.773	1340.04
1008.067	1368.28
1008.361	1340.49
1008.655	1309.3
1008.948	1328.28
1009.242	1329.41
1009.535	1291.9
1009.829	1325.35
1010.122	1296.42
1010.415	1310.66
1010.708	1280.38
1011.001	1263.43
1011.295	1266.14
1011.588	1255.52
1011.881	1263.65
1012.173	1242.86
1012.466	1265.24
1012.759	1256.65
1013.052	1224.78
1013.344	1206.48
1013.637	1233.82
1013.93	1225.46
1014.222	1207.84
1014.514	1192.24
1014.807	1187.5
1015.099	1187.95
1015.391	1221.62
1015.683	1180.49
1015.976	1157.89
1016.268	1185.46
1016.56	1160.83
1016.851	1152.92
1017.143	1135.3
1017.435	1131
1017.727	1149.76
1018.018	1114.73
1018.31	1135.3
1018.602	1109.08
1018.893	1091.45
1019.185	1106.37
1019.476	1098.91
1019.767	1100.72
1020.058	1078.8
1020.35	1055.3
1020.641	1051.91
1020.932	1036.09
1021.223	1058.69
1021.514	1035.18
1021.804	1017.56
1022.095	1031.79
1022.386	1013.26
1022.677	992.7
1022.967	988.86
1023.258	1011.68
1023.548	1015.3
1023.839	987.73
1024.129	979.59
1024.419	980.72
1024.709	963.1
1025	965.58
1025.29	982.08
1025.58	942.98
1025.87	968.52
1026.16	954.51
1026.449	958.8
1026.739	936.88
1027.029	932.59
1027.319	921.06
1027.608	912.93
1027.898	936.66
1028.187	942.08
1028.477	906.15
1028.766	905.24
1029.055	907.73
1029.344	864.34
1029.634	875.87
1029.923	875.64
1030.212	896.21
1030.501	867.96
1030.79	847.84
1031.078	855.53
1031.367	824.12
1031.656	857.56
1031.945	833.38
1032.233	822.99
1032.522	841.74
1032.81	812.82
1033.099	834.06
1033.387	833.38
1033.675	822.08
1033.963	797
1034.251	817.79
1034.54	808.07
1034.828	807.39
1035.116	810.33
1035.403	782.08
1035.691	807.17
1035.979	774.4
1036.267	763.1
1036.554	777.79
1036.842	780.5
1037.129	784.12
1037.417	768.98
1037.704	742.31
1037.992	778.24
1038.279	748.64
1038.566	724.91
1038.853	724.91
1039.14	724.91
