Data from cardboard_FLMS001491_049.txt Node
Date: Tue Feb 07 11:39:31 GMT 2017
User: dcchb
Spectrometer: FLMS00149
Trigger mode: 0
Integration Time (sec): 2.000000E-2
Scans to average: 10
Electric dark correction enabled: true
Nonlinearity correction enabled: false
Boxcar width: 0
XAxis mode: Wavelengths
Number of Pixels in Spectrum: 2048
>>>>>Begin Spectral Data<<<<<
341.393	-10.52
341.776	-10.52
342.16	-10.52
342.543	-60.92
342.927	-61.14
343.31	-56.62
343.693	-71.09
344.077	-75.38
344.46	-59.11
344.843	-53.46
345.226	-16.17
345.61	-34.7
345.993	-18.88
346.376	-15.95
346.759	17.05
347.142	34.22
347.525	28.35
347.908	52.3
348.291	76.71
348.674	82.36
349.057	110.38
349.44	129.81
349.823	145.86
350.206	174.11
350.588	195.8
350.971	209.81
351.354	226.53
351.737	236.48
352.119	241
352.502	228.34
352.884	253.2
353.267	264.72
353.65	285.97
354.032	288.68
354.414	298.4
354.797	295.23
355.179	315.57
355.562	311.5
355.944	321.67
356.326	330.71
356.709	309.92
357.091	316.93
357.473	347.21
357.855	315.57
358.238	330.49
358.62	331.16
359.002	327.1
359.384	313.31
359.766	310.37
360.148	342.46
360.53	337.49
360.912	335.23
361.294	331.16
361.676	303.37
362.057	324.16
362.439	312.86
362.821	317.83
363.203	323.71
363.584	309.24
363.966	296.36
364.348	313.76
364.729	307.44
365.111	314.67
365.493	315.12
365.874	313.31
366.256	313.76
366.637	293.65
367.019	290.26
367.4	322.35
367.781	270.15
368.163	287.77
368.544	288.23
368.925	317.83
369.306	315.34
369.688	292.29
370.069	325.51
370.45	296.14
370.831	309.7
371.212	299.53
371.593	294.55
371.974	296.81
372.355	292.52
372.736	286.87
373.117	309.47
373.498	294.33
373.879	293.65
374.26	280.54
374.641	288.68
375.021	318.73
375.402	310.37
375.783	308.57
376.163	295.46
376.544	316.02
376.925	330.03
377.305	274.44
377.686	306.31
378.066	313.54
378.447	317.6
378.827	305.18
379.208	304.72
379.588	307.44
379.968	325.06
380.349	312.86
380.729	306.98
381.109	336.14
381.489	323.93
381.87	316.7
382.25	323.03
382.63	343.82
383.01	313.76
383.39	297.94
383.77	340.2
384.15	317.6
384.53	320.99
384.91	328.23
385.29	302.46
385.67	334.55
386.049	328.68
386.429	337.72
386.809	338.17
387.189	322.8
387.568	331.84
387.948	333.65
388.328	317.15
388.707	334.33
389.087	335.68
389.466	333.65
389.846	345.4
390.225	325.06
390.605	351.95
390.984	332.07
391.363	339.07
391.743	346.3
392.122	339.3
392.501	339.07
392.881	384.04
393.26	339.98
393.639	336.81
394.018	341.56
394.397	332.97
394.776	337.49
395.155	349.24
395.534	340.2
395.913	354.67
396.292	334.33
396.671	372.97
397.05	358.96
397.429	362.58
397.808	353.54
398.186	350.37
398.565	343.59
398.944	366.19
399.323	352.63
399.701	369.58
400.08	368.45
400.458	374.1
400.837	354.67
401.215	381.56
401.594	353.08
401.972	365.51
402.351	372.74
402.729	357.15
403.107	397.83
403.486	379.52
403.864	376.81
404.242	388.11
404.62	401.67
404.999	410.03
405.377	384.72
405.755	381.11
406.133	387.66
406.511	384.5
406.889	401.22
407.267	403.93
407.645	417.94
408.023	391.5
408.401	388.56
408.779	407.32
409.156	386.76
409.534	406.19
409.912	428.56
410.29	419.3
410.667	405.51
411.045	432.4
411.422	420.43
411.8	414.78
412.178	417.26
412.555	422.69
412.933	417.04
413.31	433.53
413.687	425.85
414.065	422.23
414.442	416.36
414.819	424.95
415.197	433.99
415.574	432.4
415.951	440.54
416.328	450.26
416.705	453.65
417.082	452.52
417.46	441.67
417.837	444.61
418.214	448.22
418.591	453.65
418.967	469.24
419.344	465.62
419.721	473.31
420.098	473.76
420.475	473.76
420.852	446.41
421.228	463.59
421.605	463.14
421.982	473.53
422.358	485.51
422.735	477.15
423.111	509.69
423.488	503.81
423.864	493.19
424.241	490.48
424.617	492.97
424.994	516.92
425.37	473.31
425.746	531.84
426.123	511.05
426.499	516.24
426.875	497.26
427.251	504.94
427.627	524.38
428.003	524.83
428.379	524.15
428.756	525.06
429.132	534.77
429.507	540.2
429.883	530.71
430.259	558.5
430.635	540.2
431.011	549.01
431.387	563.47
431.763	549.24
432.138	578.16
432.514	563.25
432.89	566.19
433.265	588.11
433.641	596.47
434.016	575.22
434.392	574.32
434.767	591.04
435.143	604.38
435.518	600.76
435.894	584.72
436.269	610.48
436.644	613.87
437.02	607.54
437.395	610.48
437.77	624.72
438.145	625.17
438.52	618.39
438.895	632.17
439.271	629.23
439.646	647.54
440.021	664.26
440.395	654.09
440.77	650.93
441.145	659.52
441.52	666.07
441.895	685.73
442.27	693.19
442.645	691.15
443.019	649.8
443.394	697.03
443.769	663.58
444.143	675.11
444.518	720.53
444.892	703.13
445.267	699.74
445.641	681.89
446.016	706.75
446.39	726.18
446.764	731.83
447.139	700.65
447.513	721.21
447.887	739.97
448.262	714.88
448.636	717.14
449.01	716.92
449.384	723.24
449.758	748.55
450.132	757.37
450.506	751.72
450.88	742.68
451.254	762.56
451.628	753.07
452.002	762.34
452.376	779.06
452.75	789
453.123	792.85
453.497	792.85
453.871	802.34
454.244	790.81
454.618	785.16
454.992	812.73
455.365	796.91
455.739	836.91
456.112	843.69
456.486	855.67
456.859	845.05
457.232	895.22
457.606	854.31
457.979	881.88
458.352	891.37
458.725	897.02
459.099	896.57
459.472	889.57
459.845	899.28
460.218	909
460.591	913.52
460.964	913.97
461.337	955.1
461.71	929.79
462.083	943.35
462.456	974.54
462.829	975.21
463.201	972.05
463.574	974.54
463.947	1009.79
464.32	1008.43
464.692	1017.7
465.065	1036.23
465.438	1034.42
465.81	1052.5
466.183	1034.2
466.555	1095.21
466.928	1054.08
467.3	1093.4
467.672	1096.34
468.045	1113.97
468.417	1107.41
468.789	1132.5
469.161	1147.19
469.534	1157.81
469.906	1182.67
470.278	1189.9
470.65	1199.39
471.022	1217.69
471.394	1242.55
471.766	1233.29
472.138	1251.14
472.51	1249.33
472.882	1286.39
473.253	1302.66
473.625	1318.93
473.997	1336.33
474.369	1359.61
474.74	1356.9
475.112	1392.6
475.484	1400.06
475.855	1416.56
476.227	1455.88
476.598	1446.61
476.97	1485.48
477.341	1498.82
477.713	1528.65
478.084	1519.38
478.455	1583.79
478.827	1605.71
479.198	1617.23
479.569	1636.21
479.94	1650
480.311	1677.57
480.682	1703.33
481.053	1695.87
481.424	1783.78
481.795	1744.91
482.166	1784.01
482.537	1856.55
482.908	1836.66
483.279	1863.55
483.65	1909.65
484.021	1964.57
484.391	1962.76
484.762	1982.19
485.133	1990.56
485.503	2013.83
485.874	2070.1
486.244	2087.95
486.615	2145.35
486.985	2129.76
487.356	2215.18
487.726	2189.19
488.097	2271.45
488.467	2258.12
488.837	2309.19
489.207	2328.17
489.578	2393.93
489.948	2383.09
490.318	2430.09
490.688	2396.19
491.058	2456.31
491.428	2522.29
491.798	2533.82
492.168	2556.64
492.538	2584.44
492.908	2638.67
493.278	2607.04
493.648	2680.93
494.017	2713.7
494.387	2683.42
494.757	2786.69
495.126	2776.3
495.496	2816.75
495.866	2829.63
496.235	2822.62
496.605	2852.68
496.974	2868.27
497.344	2938.33
497.713	2905.33
498.082	2952.79
498.452	3001.15
498.821	3033.01
499.19	3103.97
499.559	3048.83
499.928	3112.33
500.298	3121.15
500.667	3164.31
501.036	3163.18
501.405	3211.31
501.774	3170.19
502.143	3226.45
502.512	3292.89
502.88	3302.38
503.249	3280.01
503.618	3329.05
503.987	3339.45
504.356	3384.87
504.724	3423.29
505.093	3414.25
505.462	3457.86
505.83	3520.46
506.199	3542.38
506.567	3540.12
506.936	3570.63
507.304	3617.18
507.672	3596.84
508.041	3703.5
508.409	3687.46
508.777	3717.52
509.145	3791.19
509.514	3765.42
509.882	3819.43
510.25	3803.61
510.618	3894.69
510.986	3943.05
511.354	3949.83
511.722	4009.71
512.09	4011.07
512.458	4071.63
512.826	4092.65
513.193	4077.28
513.561	4157.73
513.929	4185.53
514.297	4203.83
514.664	4243.83
515.032	4288.12
515.4	4330.83
515.767	4326.31
516.135	4406.08
516.502	4387.78
516.869	4455.35
517.237	4472.52
517.604	4468.68
517.972	4546.42
518.339	4581.67
518.706	4656.47
519.073	4657.15
519.44	4679.3
519.808	4770.14
520.175	4793.65
520.542	4869.12
520.909	4903.02
521.276	4870.03
521.643	4953.19
522.009	4951.38
522.376	5038.38
522.743	5060.76
523.11	5152.28
523.477	5182.56
523.843	5204.48
524.21	5264.82
524.577	5305.5
524.943	5337.36
525.31	5400.86
525.676	5445.61
526.043	5466.62
526.409	5545.26
526.776	5577.81
527.142	5619.16
527.508	5671.59
527.874	5714.75
528.241	5733.96
528.607	5755.2
528.973	5840.62
529.339	5838.82
529.705	5907.06
530.071	6023.22
530.437	6051.47
530.803	6092.82
531.169	6147.28
531.535	6125.36
531.901	6222.99
532.267	6225.7
532.632	6272.7
532.998	6344.11
533.364	6405.58
533.73	6363.1
534.095	6448.06
534.461	6468.18
534.826	6544.56
535.192	6578.91
535.557	6594.73
535.923	6631.56
536.288	6694.39
536.653	6686.25
537.019	6728.96
537.384	6821.39
537.749	6830.88
538.114	6824.55
538.479	6859.13
538.845	6980.48
539.21	6977.54
539.575	6976.64
539.94	7054.15
540.305	7118.1
540.67	7117.88
541.034	7141.83
541.399	7175.73
541.764	7219.12
542.129	7244.88
542.494	7305.22
542.858	7319.23
543.223	7351.77
543.587	7438.32
543.952	7426.34
544.316	7469.73
544.681	7458.43
545.045	7539.34
545.41	7553.57
545.774	7584.76
546.138	7647.36
546.503	7711.08
546.867	7633.12
547.231	7775.26
547.595	7796.73
547.959	7877.18
548.324	7845.54
548.688	7930.74
549.052	7975.26
549.416	7976.39
549.779	8005.54
550.143	8057.51
550.507	8102.94
550.871	8123.28
551.235	8192.43
551.599	8217.74
551.962	8223.84
552.326	8294.8
552.689	8345.64
553.053	8362.59
553.417	8361.91
553.78	8517.84
554.143	8467.9
554.507	8577.95
554.87	8576.37
555.234	8730.49
555.597	8652.53
555.96	8674.45
556.323	8752.41
556.686	8864.95
557.05	8866.98
557.413	8942.69
557.776	8996.02
558.139	8972.29
558.502	9045.06
558.865	9143.36
559.228	9222
559.59	9191.04
559.953	9226.07
560.316	9365.28
560.679	9352.4
561.041	9487.53
561.404	9529.79
561.767	9528.66
562.129	9525.5
562.492	9700.41
562.854	9624.7
563.217	9735.66
563.579	9733.4
563.941	9821.54
564.304	9889.1
564.666	10031.25
565.028	9986.5
565.39	10064.24
565.753	10075.54
566.115	10155.54
566.477	10261.98
566.839	10238.7
567.201	10404.35
567.563	10380.16
567.925	10492.7
568.287	10410.9
568.648	10480.95
569.01	10578.35
569.372	10635.07
569.734	10594.85
570.095	10700.61
570.457	10798.01
570.819	10802.98
571.18	10822.64
571.542	10866.93
571.903	10979.7
572.265	11006.36
572.626	10993.93
572.987	11083.42
573.349	11092.24
573.71	11158
574.071	11231.22
574.432	11274.83
574.794	11354.6
575.155	11368.84
575.516	11339.46
575.877	11365
576.238	11437.09
576.599	11507.37
576.96	11554.6
577.32	11537.65
577.681	11694.48
578.042	11702.84
578.403	11639.11
578.763	11717.76
579.124	11739.68
579.485	11768.83
579.845	11876.62
580.206	11847.02
580.566	11789.85
580.927	11907.13
581.287	11954.81
581.648	11850.41
582.008	11976.96
582.368	12043.85
582.728	12022.61
583.089	11990.29
583.449	12105.77
583.809	12129.72
584.169	12141.93
584.529	12134.92
584.889	12251.53
585.249	12229.38
585.609	12174.02
585.969	12320.9
586.329	12247.01
586.688	12310.28
587.048	12333.79
587.408	12332.66
587.768	12366.78
588.127	12333.79
588.487	12251.53
588.846	12438.64
589.206	12335.59
589.565	12442.03
589.925	12515.93
590.284	12408.13
590.643	12485.87
591.003	12516.38
591.362	12558.64
591.721	12493.56
592.08	12595.02
592.44	12581.46
592.799	12607.23
593.158	12539.88
593.517	12664.62
593.876	12664.17
594.235	12686.09
594.593	12688.13
594.952	12651.07
595.311	12676.83
595.67	12727.67
596.029	12802.7
596.387	12880.66
596.746	12882.7
597.104	12851.06
597.463	12832.76
597.822	12865.98
598.18	12820.1
598.538	12812.64
598.897	13036.37
599.255	12872.3
599.613	13123.6
599.972	12927.89
600.33	13030.72
600.688	12939.42
601.046	13054.9
601.404	13110.94
601.762	13042.24
602.12	13162.69
602.478	13079.75
602.836	13154.78
603.194	13145.97
603.552	13139.19
603.91	13075.46
604.268	13211.73
604.625	13171.5
604.983	13289.92
605.341	13219.86
605.698	13353.65
606.056	13424.83
606.413	13335.79
606.771	13397.94
607.128	13374.21
607.485	13290.82
607.843	13422.8
608.2	13491.27
608.557	13522.91
608.914	13497.37
609.272	13506.18
609.629	13591.15
609.986	13574.43
610.343	13522.68
610.7	13666.41
611.057	13688.55
611.414	13612.85
611.771	13705.95
612.127	13738.04
612.484	13738.95
612.841	13729.91
613.198	13798.83
613.554	13789.79
613.911	13852.39
614.267	13832.05
614.624	13943.91
614.98	13938.94
615.337	14030.46
615.693	13969.22
616.05	13999.96
616.406	14076.11
616.762	14042.89
617.118	14034.76
617.475	14043.35
617.831	14178.26
618.187	14140.29
618.543	14149.78
618.899	14257.35
619.255	14199.95
619.611	14256.45
619.967	14327.86
620.323	14326.73
620.678	14267.52
621.034	14260.97
621.39	14283.57
621.746	14205.6
622.101	14504.12
622.457	14366.95
622.812	14290.8
623.168	14473.16
623.523	14452.83
623.879	14543.22
624.234	14464.58
624.589	14419.38
624.945	14478.59
625.3	14493.28
625.655	14537.57
626.01	14484.69
626.365	14564.24
626.72	14450.57
627.075	14520.62
627.43	14592.94
627.785	14507.51
628.14	14524.46
628.495	14545.71
628.85	14597.91
629.205	14510.9
629.559	14611.01
629.914	14496.67
630.269	14561.52
630.623	14505.48
630.978	14537.57
631.332	14587.96
631.687	14630.67
632.041	14564.91
632.396	14515.2
632.75	14601.97
633.104	14640.17
633.459	14618.02
633.813	14517.23
634.167	14518.36
634.521	14538.47
634.875	14644.69
635.229	14609.88
635.583	14530.56
635.937	14584.57
636.291	14580.96
636.645	14470
636.999	14439.27
637.352	14519.94
637.706	14417.12
638.06	14495.76
638.413	14477.91
638.767	14466.61
639.121	14521.75
639.474	14385.94
639.828	14346.39
640.181	14470
640.534	14508.64
640.888	14397.01
641.241	14368.08
641.594	14319.27
641.947	14489.66
642.301	14404.01
642.654	14394.97
643.007	14421.87
643.36	14416.89
643.713	14398.14
644.066	14379.16
644.419	14305.49
644.771	14288.08
645.124	14155.43
645.477	14099.84
645.83	13980.52
646.182	14007.64
646.535	13928.32
646.888	13982.56
647.24	13912.95
647.593	14018.94
647.945	13976.68
648.298	13917.93
648.65	13866.17
649.002	13827.98
649.355	13990.01
649.707	13889.23
650.059	14008.32
650.411	14165.6
650.763	14164.92
651.115	14289.89
651.467	14321.76
651.819	14314.3
652.171	14220.29
652.523	14200.86
652.875	14236.33
653.227	14246.28
653.578	14288.99
653.93	14246.73
654.282	14270.46
654.633	14151.59
654.985	14204.47
655.337	14234.75
655.688	14238.59
656.039	14168.54
656.391	14158.14
656.742	14253.06
657.094	14260.97
657.445	14274.75
657.796	14261.64
658.147	14233.85
658.498	14221.87
658.849	14277.92
659.2	14287.18
659.551	14168.77
659.902	14363.79
660.253	14241.08
660.604	14270.91
660.955	14225.26
661.306	14282.44
661.656	14236.79
662.007	14261.42
662.358	14218.71
662.708	14176.9
663.059	14251.25
663.409	14115.43
663.76	14268.2
664.11	14199.5
664.461	14229.56
664.811	14299.84
665.161	14266.16
665.511	14141.42
665.862	14321.76
666.212	14285.6
666.562	14294.64
666.912	14290.12
667.262	14202.66
667.612	14233.62
667.962	14236.33
668.312	14164.02
668.662	14368.08
669.011	14265.03
669.361	14283.57
669.711	14255.32
670.06	14340.74
670.41	14255.09
670.76	14212.61
671.109	14271.36
671.459	14270.68
671.808	14299.38
672.157	14192.27
672.507	14200.63
672.856	14232.04
673.205	14195.66
673.554	14293.06
673.904	14241.31
674.253	14319.5
674.602	14250.8
674.951	14045.83
675.3	14084.93
675.649	14305.03
675.998	14201.31
676.346	14197.24
676.695	14383
677.044	14213.51
677.393	14197.69
677.741	14279.95
678.09	14177.58
678.438	14145.72
678.787	14290.8
679.135	14258.26
679.484	14101.65
679.832	14250.35
680.181	14139.16
680.529	14186.17
680.877	14171.93
681.225	14137.58
681.573	14234.75
681.922	14020.3
682.27	14100.52
682.618	14169.67
682.966	14093.51
683.314	14117.47
683.661	14075.43
684.009	14025.04
684.357	13947.3
684.705	13927.19
685.053	13983.69
685.4	14047.87
685.748	13912.05
686.095	13954.31
686.443	13880.19
686.79	13842.45
687.138	13887.64
687.485	13906.17
687.832	13858.72
688.18	13832.73
688.527	13858.72
688.874	13838.83
689.221	13758.38
689.568	13779.62
689.915	13689.91
690.262	13723.35
690.609	13729.68
690.956	13630.93
691.303	13629.12
691.65	13626.41
691.997	13569.01
692.344	13532.17
692.69	13505.28
693.037	13498.5
693.383	13453.3
693.73	13472.96
694.077	13374.44
694.423	13454.89
694.769	13379.63
695.116	13280.2
695.462	13340.99
695.808	13260.77
696.155	13359.97
696.501	13202.69
696.847	13262.58
697.193	13124.95
697.539	13205.63
697.885	13033.43
698.231	13099.42
698.577	13120.21
698.923	13052.86
699.269	13061
699.614	13046.76
699.96	12976.93
700.306	12952.3
700.651	12994.79
700.997	12895.13
701.342	12914.56
701.688	12853.55
702.033	12837.28
702.379	12818.74
702.724	12780.33
703.069	12844.73
703.415	12596.6
703.76	12656.49
704.105	12671.63
704.45	12690.61
704.795	12595.7
705.14	12556.6
705.485	12577.17
705.83	12555.7
706.175	12517.96
706.52	12532.88
706.865	12465.53
707.209	12372.65
707.554	12445.65
707.899	12470.73
708.243	12345.31
708.588	12343.05
708.932	12219.44
709.277	12234.81
709.621	12362.94
709.966	12145.99
710.31	12282.49
710.654	12091.08
710.998	12163.39
711.342	12131.53
711.687	12173.56
712.031	12029.84
712.375	12023.29
712.719	12118.2
713.063	12095.37
713.407	12101.02
713.75	12018.31
714.094	12051.53
714.438	11957.75
714.782	11988.03
715.125	11908.71
715.469	12034.58
715.812	11916.62
716.156	11819.22
716.499	11883.4
716.843	11852.89
717.186	11766.34
717.53	11916.17
717.873	11904.87
718.216	11742.16
718.559	11876.85
718.902	11774.03
719.246	11782.39
719.589	11747.59
719.932	11694.25
720.275	11723.18
720.617	11731.99
720.96	11655.61
721.303	11699
721.646	11701.26
721.989	11647.48
722.331	11706.23
722.674	11635.27
723.016	11657.87
723.359	11633.47
723.701	11650.64
724.044	11491.77
724.386	11555.73
724.729	11609.96
725.071	11598.44
725.413	11507.82
725.755	11550.08
726.097	11510.08
726.439	11440.25
726.782	11595.95
727.124	11579.68
727.465	11464.2
727.807	11434.6
728.149	11398.67
728.491	11454.26
728.833	11447.03
729.175	11430.53
729.516	11396.18
729.858	11341.5
730.199	11338.78
730.541	11354.15
730.882	11353.7
731.224	11371.33
731.565	11272.12
731.906	11361.83
732.248	11270.99
732.589	11273.25
732.93	11272.34
733.271	11301.95
733.612	11273.47
733.953	11325
734.294	11225.11
734.635	11250.2
734.976	11270.09
735.317	11205
735.658	11280.71
735.999	11225.34
736.339	11240.03
736.68	11209.3
737.021	11223.76
737.361	11202.97
737.702	11228.05
738.042	11161.16
738.383	11134.5
738.723	11186.47
739.063	11180.37
739.404	11251.1
739.744	11151.67
740.084	11163.65
740.424	11166.58
740.764	11146.02
741.104	11147.83
741.444	11038.45
741.784	11104.21
742.124	11142.4
742.464	11007.72
742.804	11049.75
743.143	11099.02
743.483	11076.64
743.823	11016.76
744.162	11009.75
744.502	11048.85
744.841	11000.26
745.181	11037.55
745.52	11025.8
745.86	11007.27
746.199	10923.88
746.538	10974.27
746.877	11065.8
747.216	10946.93
747.556	10932.92
747.895	10998
748.234	10924.56
748.573	10942.41
748.911	10936.31
749.25	11027.15
749.589	10873.71
749.928	10978.12
750.267	10892.47
750.605	10919.36
750.944	10903.32
751.283	10882.3
751.621	10891.56
751.96	10796.65
752.298	10846.82
752.636	10845.92
752.975	10788.74
753.313	10768.63
753.651	10865.35
753.989	10752.13
754.327	10752.81
754.666	10751.23
755.004	10779.48
755.342	10769.31
755.679	10744.22
756.017	10698.35
756.355	10698.57
756.693	10657.22
757.031	10609.76
757.368	10590.55
757.706	10635.53
758.044	10576.77
758.381	10699.03
758.719	10525.47
759.056	10597.33
759.394	10659.03
759.731	10488.41
760.068	10426.72
760.405	10525.92
760.743	10408.19
761.08	10527.96
761.417	10373.84
761.754	10381.97
762.091	10300.84
762.428	10313.05
762.765	10284.12
763.102	10345.14
763.438	10194.18
763.775	10193.28
764.112	10213.62
764.449	10212.94
764.785	10141.98
765.122	10090.91
765.458	10106.73
765.795	10048.42
766.131	10081.19
766.467	10047.74
766.804	9960.51
767.14	9953.51
767.476	9970.46
767.812	9978.14
768.148	10011.14
768.485	9811.14
768.821	9834.42
769.157	9883
769.492	9803.23
769.828	9806.39
770.164	9746.28
770.5	9718.49
770.836	9723.91
771.171	9652.05
771.507	9691.37
771.842	9565.05
772.178	9614.76
772.513	9576.34
772.849	9572.5
773.184	9507.42
773.519	9548.77
773.855	9515.33
774.19	9454.31
774.525	9364.37
774.86	9412.05
775.195	9375.45
775.53	9314.66
775.865	9329.12
776.2	9258.39
776.535	9203.02
776.87	9238.73
777.205	9200.99
777.539	9138.39
777.874	9130.71
778.209	9131.61
778.543	9108.56
778.878	8988.56
779.212	9009.58
779.547	9012.29
779.881	9015.91
780.215	8933.65
780.55	8967.09
780.884	8873.76
781.218	8848.23
781.552	8868.11
781.886	8855.23
782.22	8739.76
782.554	8751.06
782.888	8642.36
783.222	8673.32
783.556	8627.44
783.889	8580.89
784.223	8504.96
784.557	8520.33
784.89	8581.79
785.224	8506.32
785.557	8444.17
785.891	8444.85
786.224	8383.16
786.558	8435.36
786.891	8369.37
787.224	8330.28
787.557	8295.25
787.891	8259.54
788.224	8347.45
788.557	8286.21
788.89	8271.29
789.223	8231.97
789.556	8172.31
789.888	8155.14
790.221	8099.55
790.554	8093.67
790.887	8081.69
791.219	8016.84
791.552	7978.65
791.884	7987.01
792.217	8001.02
792.549	8008.25
792.882	7883.73
793.214	7915.6
793.546	7851.64
793.879	7884.64
794.211	7750.63
794.543	7859.1
794.875	7806.22
795.207	7822.94
795.539	7765.09
795.871	7731.2
796.203	7675.15
796.535	7628.82
796.867	7637.19
797.198	7617.75
797.53	7681.03
797.862	7596.96
798.193	7580.46
798.525	7569.39
798.856	7536.62
799.188	7503.63
799.519	7492.56
799.85	7439.45
800.182	7433.58
800.513	7425.67
800.844	7422.28
801.175	7458.21
801.506	7436.06
801.837	7324.2
802.168	7383.41
802.499	7222.73
802.83	7312.22
803.161	7229.97
803.491	7297.31
803.822	7250.53
804.153	7179.35
804.483	7169.4
804.814	7149.74
805.145	7181.15
805.475	7124.88
805.805	7180.7
806.136	7126.24
806.466	7057.31
806.796	7129.63
807.126	7091.21
807.457	7022.97
807.787	7000.82
808.117	7017.99
808.447	6930.54
808.777	7009.86
809.107	6923.08
809.436	6960.37
809.766	6953.81
810.096	6909.3
810.426	6921.05
810.755	6895.06
811.085	6790.43
811.414	6814.61
811.744	6846.7
812.073	6796.53
812.403	6775.29
812.732	6769.64
813.061	6803.99
813.39	6743.88
813.719	6747.04
814.049	6748.62
814.378	6752.01
814.707	6702.07
815.036	6670.43
815.365	6647.83
815.693	6584.33
816.022	6580.49
816.351	6605.35
816.68	6563.77
817.008	6606.7
817.337	6544.56
817.665	6511.34
817.994	6593.15
818.322	6556.08
818.651	6477.67
818.979	6491.45
819.307	6502.07
819.636	6501.85
819.964	6454.17
820.292	6481.28
820.62	6465.92
820.948	6420.95
821.276	6469.53
821.604	6425.01
821.932	6417.56
822.259	6415.98
822.587	6482.64
822.915	6394.06
823.243	6446.71
823.57	6403.77
823.898	6452.36
824.225	6430.44
824.553	6422.53
824.88	6404.68
825.207	6467.05
825.535	6437.9
825.862	6422.53
826.189	6434.51
826.516	6445.13
826.843	6428.4
827.17	6465.47
827.497	6446.26
827.824	6430.21
828.151	6469.53
828.478	6490.55
828.805	6419.82
829.131	6436.09
829.458	6449.19
829.785	6407.61
830.111	6411
830.438	6423.66
830.764	6357.45
831.09	6442.64
831.417	6420.5
831.743	6402.64
832.069	6415.75
832.395	6385.69
832.722	6385.24
833.048	6393.6
833.374	6363.55
833.7	6393.38
834.026	6368.07
834.351	6416.65
834.677	6356.99
835.003	6341.4
835.329	6389.76
835.654	6371.23
835.98	6345.47
836.306	6347.28
836.631	6348.86
836.956	6356.32
837.282	6387.73
837.607	6345.69
837.932	6275.41
838.258	6314.74
838.583	6346.82
838.908	6274.51
839.233	6294.62
839.558	6267.28
839.883	6234.96
840.208	6208.98
840.533	6262.76
840.858	6234.29
841.182	6234.51
841.507	6213.72
841.832	6231.35
842.156	6219.82
842.481	6171.24
842.805	6161.74
843.13	6156.55
843.454	6169.65
843.778	6130.56
844.103	6127.62
844.427	6115.64
844.751	6126.72
845.075	6072.48
845.399	6059.15
845.723	5975.08
846.047	6004.69
846.371	6000.39
846.695	6001.97
847.019	5964.24
847.343	5933.5
847.666	5907.97
847.99	5918.14
848.313	5905.03
848.637	5839.49
848.96	5792.94
849.284	5817.35
849.607	5808.99
849.931	5796.33
850.254	5716.78
850.577	5749.55
850.9	5655.77
851.223	5662.55
851.546	5616.22
851.869	5628.43
852.192	5665.71
852.515	5587.52
852.838	5551.59
853.161	5587.97
853.483	5531.03
853.806	5511.82
854.129	5504.13
854.451	5486.28
854.774	5450.13
855.096	5458.26
855.419	5452.38
855.741	5369
856.063	5448.32
856.385	5338.04
856.708	5328.77
857.03	5392.5
857.352	5348.66
857.674	5380.3
857.996	5330.35
858.318	5267.53
858.64	5305.95
858.961	5284.48
859.283	5319.96
859.605	5228.44
859.926	5250.36
860.248	5221.88
860.57	5244.03
860.891	5242.67
861.212	5195.44
861.534	5153.18
861.855	5139.85
862.176	5157.48
862.498	5184.37
862.819	5157.48
863.14	5162.22
863.461	5141.43
863.782	5110.25
864.103	5120.87
864.424	5091.94
864.745	5139.17
865.065	5091.94
865.386	5119.51
865.707	5069.34
866.027	5057.14
866.348	5051.49
866.668	5089.68
866.989	5022.79
867.309	4993.19
867.63	4988.44
867.95	5005.84
868.27	4954.09
868.59	5026.63
868.91	4980.76
869.23	4988.22
869.55	4968.33
869.87	5025.73
870.19	4956.8
870.51	4967.88
870.83	5010.59
871.15	4991.15
871.469	4882.68
871.789	4947.99
872.109	4954.77
872.428	4923.59
872.748	4920.2
873.067	4928.56
873.386	4896.24
873.706	4932.17
874.025	4895.11
874.344	4901.44
874.663	4938.05
874.982	4858.73
875.301	4846.98
875.62	4864.6
875.939	4888.56
876.258	4831.61
876.577	4780.76
876.896	4843.36
877.214	4834.32
877.533	4778.5
877.852	4772.4
878.17	4820.99
878.489	4799.07
878.807	4815.34
879.125	4788.67
879.444	4765.17
879.762	4797.26
880.08	4779.86
880.398	4738.05
880.716	4782.35
881.034	4726.98
881.352	4723.59
881.67	4696.25
881.988	4718.62
882.306	4667.55
882.624	4681.11
882.941	4689.02
883.259	4647.43
883.577	4644.5
883.894	4643.37
884.212	4670.94
884.529	4645.63
884.846	4582.8
885.164	4578.96
885.481	4602.01
885.798	4599.98
886.115	4561.79
886.432	4577.83
886.75	4553.88
887.067	4573.09
887.383	4534.44
887.7	4539.87
888.017	4520.88
888.334	4535.35
888.651	4517.04
888.967	4547.32
889.284	4476.59
889.6	4474.56
889.917	4489.92
890.233	4432.07
890.55	4435.01
890.866	4406.54
891.182	4403.82
891.498	4391.85
891.815	4398.85
892.131	4384.16
892.447	4413.54
892.763	4375.8
893.079	4348.23
893.395	4342.58
893.71	4287.67
894.026	4335.58
894.342	4270.5
894.657	4260.1
894.973	4268.91
895.289	4295.35
895.604	4223.26
895.92	4246.31
896.235	4179.2
896.55	4242.02
896.865	4176.49
897.181	4223.26
897.496	4196.6
897.811	4172.19
898.126	4149.14
898.441	4132.42
898.756	4115.47
899.071	4111.18
899.386	4099.2
899.7	4048.58
900.015	4061.01
900.33	4040.44
900.644	4050.84
900.959	4057.17
901.273	4044.74
901.588	4043.61
901.902	4009.48
902.216	3948.24
902.531	3974.68
902.845	3952.76
903.159	3921.58
903.473	3943.95
903.787	3915.93
904.101	3874.35
904.415	3847.23
904.729	3893.33
905.042	3826.21
905.356	3833.44
905.67	3806.1
905.984	3821.69
906.297	3825.08
906.611	3783.73
906.924	3792.77
907.237	3771.07
907.551	3749.83
907.864	3695.37
908.177	3714.8
908.491	3731.75
908.804	3708.02
909.117	3686.78
909.43	3654.69
909.743	3672.77
910.056	3655.82
910.368	3658.99
910.681	3609.5
910.994	3631.19
911.307	3624.18
911.619	3562.72
911.932	3566.11
912.244	3554.81
912.557	3561.81
912.869	3541.93
913.181	3546.67
913.494	3539.44
913.806	3516.62
914.118	3471.65
914.43	3474.58
914.742	3493.79
915.054	3471.65
915.366	3463.28
915.678	3398.65
915.99	3368.82
916.302	3425.55
916.613	3380.12
916.925	3407.01
917.236	3392.55
917.548	3347.58
917.859	3350.07
918.171	3320.92
918.482	3329.73
918.794	3285.21
919.105	3307.58
919.416	3263.06
919.727	3263.29
920.038	3242.73
920.349	3219
920.66	3216.96
920.971	3211.54
921.282	3196.85
921.593	3170.64
921.903	3167.25
922.214	3160.47
922.525	3159.79
922.835	3160.69
923.146	3114.14
923.456	3093.12
923.767	3052.22
924.077	3080.02
924.387	3041.6
924.697	3085.44
925.008	3076.18
925.318	3007.48
925.628	3023.3
925.938	3039.57
926.248	3008.83
926.558	2994.82
926.867	2989.4
927.177	2970.42
927.487	2950.53
927.796	2923.19
928.106	2929.51
928.416	2923.86
928.725	2892.45
929.034	2865.11
929.344	2883.41
929.653	2883.19
929.962	2847.03
930.271	2883.19
930.581	2828.73
930.89	2833.92
931.199	2812.45
931.508	2825.79
931.817	2786.47
932.125	2789.18
932.434	2789.18
932.743	2760.48
933.051	2718.9
933.36	2739.69
933.669	2740.59
933.977	2759.57
934.286	2745.11
934.594	2717.77
934.902	2715.96
935.21	2702.17
935.519	2720.25
935.827	2682.06
936.135	2706.02
936.443	2630.54
936.751	2637.54
937.059	2605.68
937.367	2610.65
937.674	2619.47
937.982	2599.35
938.29	2579.47
938.597	2572.91
938.905	2553.7
939.213	2546.7
939.52	2535.17
939.827	2535.63
940.135	2532.46
940.442	2531.33
940.749	2506.47
941.056	2516.87
941.363	2496.3
941.67	2491.78
941.977	2468.96
942.284	2439.36
942.591	2407.95
942.898	2431.22
943.205	2412.24
943.511	2438.45
943.818	2415.63
944.125	2385.35
944.431	2421.05
944.738	2405.23
945.044	2414.72
945.35	2370.88
945.657	2351
945.963	2351.22
946.269	2349.42
946.575	2341.96
946.881	2337.66
947.187	2294.28
947.493	2319.59
947.799	2268.06
948.105	2298.34
948.41	2273.49
948.716	2283.2
949.022	2256.08
949.327	2282.07
949.633	2241.4
949.938	2228.51
950.244	2233.71
950.549	2202.07
950.854	2191.68
951.16	2202.53
951.465	2211.79
951.77	2186.03
952.075	2149.87
952.38	2180.15
952.685	2176.76
952.99	2137.44
953.294	2138.12
953.599	2115.52
953.904	2111.91
954.209	2101.74
954.513	2106.48
954.818	2097.44
955.122	2077.56
955.426	2131.12
955.731	2080.5
956.035	2062.64
956.339	2067.84
956.643	2074.39
956.948	2046.37
957.252	2030.55
957.556	2014.96
957.86	1994.85
958.163	2018.58
958.467	2014.06
958.771	2004.57
959.075	2007.96
959.378	1958.92
959.682	1953.49
959.985	1974.96
960.289	1972.93
960.592	1963.44
960.896	1951.23
961.199	1934.29
961.502	1946.94
961.805	1939.93
962.108	1901.97
962.411	1881.63
962.714	1903.1
963.017	1911.24
963.32	1912.82
963.623	1897.22
963.926	1904.68
964.228	1863.1
964.531	1875.53
964.833	1834.17
965.136	1838.92
965.438	1852.71
965.741	1856.32
966.043	1816.77
966.345	1835.76
966.648	1807.73
966.95	1822.2
967.252	1796.44
967.554	1799.37
967.856	1788.07
968.158	1799.83
968.46	1770.22
968.761	1776.32
969.063	1747.85
969.365	1731.58
969.666	1735.19
969.968	1744.01
970.269	1727.74
970.571	1678.25
970.872	1716.89
971.174	1689.32
971.475	1678.92
971.776	1686.83
972.077	1693.61
972.378	1715.08
972.679	1653.61
972.98	1691.81
973.281	1690
973.582	1679.83
973.883	1667.63
974.183	1669.66
974.484	1652.48
974.785	1637.12
975.085	1638.02
975.386	1636.89
975.686	1608.87
975.986	1599.6
976.287	1608.42
976.587	1573.39
976.887	1594.63
977.187	1607.97
977.487	1581.75
977.787	1586.72
978.087	1553.5
978.387	1571.13
978.687	1555.76
978.987	1531.58
979.286	1530.45
979.586	1536.56
979.885	1515.99
980.185	1530.68
980.484	1525.93
980.784	1485.94
981.083	1498.36
981.382	1513.73
981.682	1540.17
981.981	1477.12
982.28	1458.59
982.579	1464.24
982.878	1481.42
983.177	1443.22
983.475	1468.31
983.774	1452.04
984.073	1428.76
984.372	1414.3
984.67	1440.51
984.969	1438.71
985.267	1436.45
985.566	1438.25
985.864	1421.3
986.162	1396.22
986.461	1393.96
986.759	1388.99
987.057	1395.32
987.355	1385.83
987.653	1403
987.951	1415.43
988.249	1364.81
988.547	1396.45
988.844	1353.96
989.142	1361.19
989.44	1334.75
989.737	1349.44
990.035	1332.72
990.332	1325.94
990.63	1339.05
990.927	1298.6
991.224	1320.74
991.521	1319.61
991.819	1288.43
992.116	1299.73
992.413	1299.95
992.71	1294.75
993.006	1292.95
993.303	1277.81
993.6	1280.29
993.897	1266.73
994.193	1245.04
994.49	1250.24
994.787	1240.74
995.083	1261.53
995.379	1227.41
995.676	1245.94
995.972	1245.72
996.268	1238.71
996.565	1225.15
996.861	1225.83
997.157	1221.54
997.453	1205.94
997.749	1227.19
998.044	1193.97
998.34	1194.19
998.636	1209.11
998.932	1190.58
999.227	1172.27
999.523	1173.18
999.818	1165.04
1000.114	1143.8
1000.409	1164.14
1000.704	1157.13
1001	1133.63
1001.295	1134.53
1001.59	1124.14
1001.885	1147.19
1002.18	1121.43
1002.475	1117.58
1002.77	1124.82
1003.065	1124.82
1003.359	1129.33
1003.654	1092.27
1003.949	1105.61
1004.243	1114.42
1004.538	1086.85
1004.832	1090.47
1005.127	1085.95
1005.421	1076.68
1005.715	1077.58
1006.009	1061.31
1006.304	1063.57
1006.598	1029.9
1006.892	1053.86
1007.186	1023.35
1007.48	1046.85
1007.773	1044.59
1008.067	1032.61
1008.361	1020.41
1008.655	1032.16
1008.948	1033.29
1009.242	1023.35
1009.535	1017.93
1009.829	979.73
1010.122	1020.41
1010.415	998.04
1010.708	999.62
1011.001	965.72
1011.295	957.36
1011.588	973.86
1011.881	973.18
1012.173	959.62
1012.466	971.82
1012.759	958.04
1013.052	934.31
1013.344	973.18
1013.637	935.44
1013.93	932.05
1014.222	947.87
1014.514	953.29
1014.807	936.12
1015.099	955.55
1015.391	901.32
1015.683	925.72
1015.976	892.28
1016.268	895.89
1016.56	892.73
1016.851	886.18
1017.143	869.45
1017.435	905.16
1017.727	882.11
1018.018	903.8
1018.31	871.49
1018.602	887.53
1018.893	874.2
1019.185	852.96
1019.476	841.88
1019.767	873.52
1020.058	821.55
1020.35	852.28
1020.641	849.57
1020.932	855.22
1021.223	840.08
1021.514	815.22
1021.804	817.03
1022.095	833.3
1022.386	814.77
1022.677	815.22
1022.967	806.63
1023.258	809.57
1023.548	791.94
1023.839	806.41
1024.129	775.9
1024.419	784.94
1024.709	767.99
1025	765.5
1025.29	740.87
1025.58	746.97
1025.87	764.6
1026.16	773.41
1026.449	774.77
1026.739	746.52
1027.029	747.88
1027.319	764.37
1027.608	742.45
1027.898	738.84
1028.187	746.29
1028.477	734.32
1028.766	741.1
1029.055	732.06
1029.344	719.85
1029.634	739.97
1029.923	706.07
1030.212	708.33
1030.501	687.54
1030.79	698.84
1031.078	693.64
1031.367	681.44
1031.656	697.03
1031.945	697.93
1032.233	680.08
1032.522	700.42
1032.81	683.02
1033.099	675.56
1033.387	670.82
1033.675	667.43
1033.963	686.86
1034.251	652.96
1034.54	656.58
1034.828	665.17
1035.116	687.76
1035.403	637.37
1035.691	635.79
1035.979	651.83
1036.267	634.66
1036.554	615.22
1036.842	619.07
1037.129	610.48
1037.417	622.91
1037.704	633.3
1037.992	646.64
1038.279	618.39
1038.566	615.9
1038.853	615.9
1039.14	615.9
