Data from cardboard_FLMS001491_090.txt Node
Date: Tue Feb 07 11:40:17 GMT 2017
User: dcchb
Spectrometer: FLMS00149
Trigger mode: 0
Integration Time (sec): 2.000000E-2
Scans to average: 10
Electric dark correction enabled: true
Nonlinearity correction enabled: false
Boxcar width: 0
XAxis mode: Wavelengths
Number of Pixels in Spectrum: 2048
>>>>>Begin Spectral Data<<<<<
341.393	6.71
341.776	6.71
342.16	6.71
342.543	-57.7
342.927	-58.83
343.31	-34.87
343.693	-67.64
344.077	-79.62
344.46	-78.94
344.843	-48.43
345.226	-33.97
345.61	-12.27
345.993	-31.71
346.376	-16.34
346.759	2.87
347.142	23.43
347.525	35.86
347.908	39.7
348.291	76.31
348.674	95.07
349.057	130.55
349.44	118.12
349.823	144.33
350.206	169.87
350.588	197.89
350.971	202.86
351.354	240.6
351.737	229.75
352.119	258.68
352.502	272.24
352.884	280.15
353.267	272.01
353.65	292.13
354.032	297.77
354.414	316.98
354.797	348.62
355.179	328.96
355.562	326.93
355.944	333.03
356.326	321.28
356.709	338.23
357.091	325.12
357.473	345.46
357.855	352.46
358.238	357.66
358.62	335.51
359.002	350.2
359.384	346.13
359.766	356.53
360.148	357.43
360.53	345.23
360.912	327.83
361.294	338.9
361.676	341.16
362.057	349.98
362.439	332.35
362.821	331.67
363.203	316.53
363.584	309.75
363.966	325.57
364.348	329.86
364.729	327.38
365.111	327.38
365.493	319.47
365.874	316.31
366.256	306.81
366.637	328.28
367.019	338.68
367.4	337.77
367.781	350.65
368.163	325.8
368.544	325.57
368.925	343.65
369.306	313.59
369.688	324.21
370.069	315.18
370.45	337.77
370.831	331.67
371.212	321.95
371.593	315.18
371.974	320.6
372.355	313.59
372.736	335.29
373.117	317.44
373.498	324.21
373.879	318.34
374.26	341.16
374.641	330.77
375.021	325.34
375.402	321.28
375.783	317.66
376.163	341.16
376.544	321.28
376.925	330.54
377.305	342.07
377.686	346.81
378.066	332.8
378.447	331.45
378.827	335.29
379.208	349.75
379.588	345.46
379.968	350.43
380.349	335.29
380.729	340.71
381.109	333.48
381.489	371.67
381.87	378.68
382.25	362.86
382.63	352.46
383.01	369.19
383.39	364.21
383.77	359.02
384.15	360.37
384.53	361.28
384.91	351.78
385.29	368.28
385.67	370.32
386.049	368.28
386.429	390.65
386.809	366.02
387.189	373.7
387.568	385.91
387.948	374.38
388.328	373.25
388.707	378
389.087	385.91
389.466	387.26
389.846	380.94
390.225	384.78
390.605	376.64
390.984	389.52
391.363	405.57
391.743	410.54
392.122	396.3
392.501	386.81
392.881	403.08
393.26	407.83
393.639	411.22
394.018	400.6
394.397	419.35
394.776	421.61
395.155	418.9
395.534	416.87
395.913	420.26
396.292	423.42
396.671	418.68
397.05	415.74
397.429	398.56
397.808	435.4
398.186	433.82
398.565	422.97
398.944	424.78
399.323	436.75
399.701	434.04
400.08	450.76
400.458	430.43
400.837	441.5
401.215	462.29
401.594	444.21
401.972	458.45
402.351	474.49
402.729	455.96
403.107	458
403.486	486.24
403.864	452.8
404.242	484.21
404.62	458.9
404.999	478.33
405.377	474.72
405.755	482.85
406.133	475.62
406.511	483.31
406.889	500.93
407.267	495.28
407.645	502.97
408.023	503.87
408.401	508.84
408.779	512.23
409.156	513.36
409.534	538.22
409.912	540.48
410.29	525.57
410.667	547.49
411.045	521.27
411.422	555.62
411.8	536.64
412.178	575.96
412.555	584.09
412.933	554.04
413.31	564.89
413.687	559.69
414.065	592.68
414.442	583.64
414.819	564.66
415.197	588.61
415.574	595.17
415.951	585.68
416.328	595.17
416.705	603.98
417.082	607.37
417.46	606.24
417.837	624.77
418.214	611.44
418.591	632
418.967	610.99
419.344	622.29
419.721	649.86
420.098	631.55
420.475	654.6
420.852	641.95
421.228	642.17
421.605	639.01
421.982	668.16
422.358	667.03
422.735	675.62
423.111	680.36
423.488	682.62
423.864	663.41
424.241	695.5
424.617	691.44
424.994	691.44
425.37	708.39
425.746	700.48
426.123	731.44
426.499	746.35
426.875	719.68
427.251	714.49
427.627	742.73
428.003	742.96
428.379	751.1
428.756	768.27
429.132	756.97
429.507	804.88
429.883	780.93
430.259	810.98
430.635	800.59
431.011	803.75
431.387	837.2
431.763	830.64
432.138	853.01
432.514	828.83
432.89	860.02
433.265	851.21
433.641	882.62
434.016	882.84
434.392	915.61
434.767	933.01
435.143	883.97
435.518	911.54
435.894	909.96
436.269	921.04
436.644	922.17
437.02	921.04
437.395	959.68
437.77	944.31
438.145	961.94
438.52	982.5
438.895	1001.48
439.271	973.46
439.646	984.08
440.021	1010.07
440.395	1012.11
440.77	1010.98
441.145	1018.89
441.52	1022.05
441.895	1019.79
442.27	1054.82
442.645	1012.33
443.019	1043.07
443.394	1057.98
443.769	1066.34
444.143	1046.46
444.518	1090.75
444.892	1096.4
445.267	1082.84
445.641	1087.36
446.016	1099.34
446.39	1108.15
446.764	1094.14
447.139	1133.91
447.513	1117.19
447.887	1137.98
448.262	1133.68
448.636	1127.13
449.01	1128.49
449.384	1178.66
449.758	1179.79
450.132	1198.99
450.506	1211.65
450.88	1179.11
451.254	1200.8
451.628	1202.38
452.002	1220.24
452.376	1247.35
452.75	1251.87
453.123	1261.37
453.497	1302.95
453.871	1280.8
454.244	1300.23
454.618	1303.62
454.992	1314.92
455.365	1357.18
455.739	1365.54
456.112	1372.77
456.486	1372.55
456.859	1379.1
457.232	1362.83
457.606	1427.69
457.979	1446.22
458.352	1445.99
458.725	1469.04
459.099	1509.04
459.472	1523.73
459.845	1505.88
460.218	1526.44
460.591	1554.01
460.964	1561.92
461.337	1591.07
461.71	1589.72
462.083	1632.2
462.456	1648.02
462.829	1657.74
463.201	1655.03
463.574	1670.17
463.947	1700.9
464.32	1752.88
464.692	1754.23
465.065	1765.98
465.438	1788.58
465.81	1820.67
466.183	1823.61
466.555	1839.2
466.928	1890.95
467.3	1862.71
467.672	1922.82
468.045	1937.96
468.417	1971.85
468.789	1964.85
469.161	1964.85
469.534	2022.7
469.906	2062.02
470.278	2072.64
470.65	2090.04
471.022	2115.13
471.394	2199.19
471.766	2170.95
472.138	2206.43
472.51	2262.92
472.882	2324.16
473.253	2291.17
473.625	2309.25
473.997	2394.22
474.369	2411.17
474.74	2404.61
475.112	2460.43
475.484	2541.78
475.855	2567.77
476.227	2576.36
476.598	2646.19
476.97	2670.82
477.341	2719.41
477.713	2777.71
478.084	2781.55
478.455	2889.8
478.827	2876.46
479.198	2971.6
479.569	2982.22
479.94	3031.04
480.311	3062.67
480.682	3133.18
481.053	3195.55
481.424	3234.19
481.795	3307.41
482.166	3354.64
482.537	3358.03
482.908	3471.7
483.279	3482.32
483.65	3580.17
484.021	3619.04
484.391	3682.09
484.762	3732.49
485.133	3753.28
485.503	3781.07
485.874	3901.07
486.244	3943.1
486.615	4017.22
486.985	4069.43
487.356	4106.49
487.726	4161.18
488.097	4219.71
488.467	4249.31
488.837	4358.91
489.207	4392.81
489.578	4467.61
489.948	4518.68
490.318	4612.46
490.688	4627.83
491.058	4713.03
491.428	4781.27
491.798	4851.78
492.168	4899.91
492.538	4989.4
492.908	5021.94
493.278	5078.89
493.648	5119.57
494.017	5178.78
494.387	5253.8
494.757	5311.43
495.126	5409.5
495.496	5422.61
495.866	5526.56
496.235	5461.93
496.605	5544.42
496.974	5587.58
497.344	5658.76
497.713	5715.26
498.082	5763.39
498.452	5824.63
498.821	5905.31
499.19	5957.51
499.559	5962.26
499.928	6001.13
500.298	6090.62
500.667	6149.37
501.036	6164.29
501.405	6265.3
501.774	6250.39
502.143	6287.45
502.512	6371.06
502.88	6485.63
503.249	6535.35
503.618	6501.91
503.987	6588.91
504.356	6625.07
504.724	6707.1
505.093	6719.53
505.462	6792.97
505.83	6849.69
506.199	6943.7
506.567	7016.47
506.936	7024.83
507.304	7150.02
507.672	7218.27
508.041	7342.79
508.409	7315.9
508.777	7400.19
509.145	7434.54
509.514	7450.13
509.882	7574.87
510.25	7644.47
510.618	7705.26
510.986	7732.61
511.354	7883.11
511.722	7896.22
512.09	7974.86
512.458	8058.47
512.826	8123.33
513.193	8156.78
513.561	8169.66
513.929	8271.35
514.297	8346.15
514.664	8439.93
515.032	8489.2
515.4	8590.89
515.767	8667.72
516.135	8712.02
516.502	8783.65
516.869	8918.56
517.237	8923.31
517.604	8950.43
517.972	9100.71
518.339	9165.34
518.706	9189.29
519.073	9331.44
519.44	9475.61
519.808	9451.43
520.175	9528.94
520.542	9667.25
520.909	9762.38
521.276	9791.31
521.643	9900.91
522.009	10014.13
522.376	10074.47
522.743	10136.39
523.11	10271.98
523.477	10372.99
523.843	10505.64
524.21	10671.06
524.577	10700.66
524.943	10731.62
525.31	10878.29
525.676	11011.39
526.043	11022.24
526.409	11179.75
526.776	11319.41
527.142	11317.6
527.508	11397.6
527.874	11591.71
528.241	11685.72
528.607	11794.2
528.973	11860.18
529.339	11864.48
529.705	12075.77
530.071	12286.84
530.437	12292.49
530.803	12421.07
531.169	12470.11
531.535	12494.97
531.901	12529.54
532.267	12611.8
532.632	12758.24
532.998	12851.79
533.364	12995.29
533.73	13109.64
534.095	13219.24
534.461	13164.1
534.826	13243.87
535.192	13281.84
535.557	13544.66
535.923	13556.18
536.288	13683.19
536.653	13661.04
537.019	13772.45
537.384	13838.66
537.749	13926.57
538.114	14023.29
538.479	13972.22
538.845	14152.1
539.21	14191.65
539.575	14249.72
539.94	14369.04
540.305	14413.56
540.67	14568.13
541.034	14609.49
541.399	14743.95
541.764	14723.61
542.129	14915.92
542.494	14929.71
542.858	15061.91
543.223	15063.94
543.587	15164.05
543.952	15222.35
544.316	15241.79
544.681	15305.74
545.045	15495.12
545.41	15484.49
545.774	15651.95
546.138	15609.69
546.503	15694.88
546.867	15798.16
547.231	15910.47
547.595	15964.03
547.959	16069.79
548.324	16138.04
548.688	16220.52
549.052	16316.56
549.416	16331.48
549.779	16392.04
550.143	16502.77
550.507	16696.21
550.871	16755.2
551.235	16855.98
551.599	16960.39
551.962	17012.59
552.326	17146.6
552.689	17191.34
553.053	17210.32
553.417	17254.84
553.78	17438.79
554.143	17481.5
554.507	17700.25
554.87	17672.69
555.234	17972.34
555.597	17802.85
555.96	17878.56
556.323	18026.57
556.686	18093.92
557.05	18265.89
557.413	18300.69
557.776	18395.83
558.139	18447.58
558.502	18655.03
558.865	18708.59
559.228	18874.46
559.59	18915.59
559.953	19129.82
560.316	19257.5
560.679	19247.11
561.041	19486.87
561.404	19620.66
561.767	19777.04
562.129	19652.07
562.492	19937.03
562.854	20029.23
563.217	19994.21
563.579	20155.56
563.941	20243.92
564.304	20393.74
564.666	20580.86
565.028	20631.48
565.39	20692.72
565.753	20883.22
566.115	20965.03
566.477	21172.48
566.839	21128.19
567.201	21355.75
567.563	21459.7
567.925	21584.67
568.287	21599.36
568.648	21638.23
569.01	21871.67
569.372	22053.59
569.734	21939.24
570.095	22152.12
570.457	22390.53
570.819	22254.94
571.18	22373.35
571.542	22552.56
571.903	22624.19
572.265	22731.76
572.626	22803.17
572.987	22930.4
573.349	22964.3
573.71	23118.64
574.071	23151.19
574.432	23301.01
574.794	23539.42
575.155	23537.39
575.516	23500.33
575.877	23701.68
576.238	23731.51
576.599	23727.44
576.96	23845.4
577.32	23869.81
577.681	24088.56
578.042	24113.19
578.403	24097.37
578.763	24206.75
579.124	24350.93
579.485	24452.17
579.845	24543.24
580.206	24451.49
580.566	24555.22
580.927	24536.69
581.287	24735.55
581.648	24671.15
582.008	24763.57
582.368	24852.38
582.728	24866.85
583.089	24893.74
583.449	24884.02
583.809	24978.93
584.169	25048.31
584.529	25067.74
584.889	25222.09
585.249	25098.7
585.609	25092.83
585.969	25242.2
586.329	25289.21
586.688	25252.6
587.048	25442.65
587.408	25349.09
587.768	25365.59
588.127	25502.54
588.487	25404.23
588.846	25680.16
589.206	25609.65
589.565	25494.85
589.925	25810.1
590.284	25738.01
590.643	25730.1
591.003	25864.79
591.362	25873.83
591.721	25967.38
592.08	25886.48
592.44	25994.27
592.799	26042.86
593.158	25940.49
593.517	26076.08
593.876	26062.07
594.235	26003.31
594.593	26161.05
594.952	26331.89
595.311	26251.89
595.67	26408.5
596.029	26509.06
596.387	26513.36
596.746	26499.35
597.104	26504.32
597.463	26504.54
597.822	26680.36
598.18	26519.68
598.538	26565.56
598.897	26826.57
599.255	26535.73
599.613	26925.55
599.972	26828.83
600.33	26842.16
600.688	26716.29
601.046	26946.11
601.404	27015.04
601.762	27042.38
602.12	27049.39
602.478	27156.05
602.836	27236.95
603.194	27096.39
603.552	27246.67
603.91	27187.69
604.268	27381.36
604.625	27190.85
604.983	27276.95
605.341	27362.37
605.698	27335.26
606.056	27563.27
606.413	27587.23
606.771	27572.99
607.128	27646.66
607.485	27617.73
607.843	27711.52
608.2	27754.91
608.557	27810.05
608.914	27807.11
609.272	27799.42
609.629	28085.07
609.986	28119.87
610.343	28053.2
610.7	28260.43
611.057	28229.47
611.414	28181.34
611.771	28267.43
612.127	28349.47
612.484	28436.7
612.841	28505.85
613.198	28310.82
613.554	28446.19
613.911	28640.53
614.267	28700.64
614.624	28558.95
614.98	28677.14
615.337	28755.78
615.693	28754.43
616.05	28693.41
616.406	29042.33
616.762	28843.01
617.118	28955.55
617.475	28905.84
617.831	29030.35
618.187	29120.97
618.543	29262.21
618.899	29202.78
619.255	29196.9
619.611	29237.13
619.967	29390.34
620.323	29352.15
620.678	29387.63
621.034	29316.67
621.39	29387.41
621.746	29320.06
622.101	29716.21
622.457	29558.93
622.812	29468.76
623.168	29483.67
623.523	29647.51
623.879	29768.86
624.234	29499.49
624.589	29674.86
624.945	29733.61
625.3	29731.35
625.655	29685.48
626.01	29753.95
626.365	29741.52
626.72	29749.66
627.075	29700.17
627.43	29671.92
627.785	29681.63
628.14	29617.68
628.495	29815.42
628.85	29724.57
629.205	29772.48
629.559	29888.86
629.914	29762.54
630.269	29785.36
630.623	29681.18
630.978	29661.97
631.332	29795.98
631.687	29833.5
632.041	29706.49
632.396	29922.76
632.75	29784.23
633.104	29821.29
633.459	29662.88
633.813	29703.78
634.167	29662.88
634.521	29727.28
634.875	29831.24
635.229	29787.39
635.583	29527.29
635.937	29606.83
636.291	29630.79
636.645	29564.58
636.999	29525.93
637.352	29667.85
637.706	29367.97
638.06	29509.21
638.413	29667.4
638.767	29573.84
639.121	29534.07
639.474	29342.21
639.828	29454.52
640.181	29374.98
640.534	29508.08
640.888	29438.93
641.241	29409.1
641.594	29307.86
641.947	29489.32
642.301	29300.4
642.654	29296.11
643.007	29348.31
643.36	29376.78
643.713	29374.07
644.066	29352.38
644.419	29167.52
644.771	28937.25
645.124	28774.54
645.477	28705.39
645.83	28597.82
646.182	28460.88
646.535	28365.29
646.888	28531.38
647.24	28461.1
647.593	28531.83
647.945	28629.01
648.298	28336.13
648.65	28341.78
649.002	28235.12
649.355	28448.22
649.707	28305.17
650.059	28506.75
650.411	28779.96
650.763	28818.38
651.115	29136.11
651.467	29058.15
651.819	29031.71
652.171	29023.57
652.523	29021.09
652.875	29016.12
653.227	28970.02
653.578	29140.18
653.93	29026.28
654.282	28913.07
654.633	28890.7
654.985	28932.95
655.337	29068.54
655.688	28996.46
656.039	29124.59
656.391	28967.76
656.742	28988.55
657.094	28869.9
657.445	29094.08
657.796	28891.6
658.147	28808.89
658.498	29055.89
658.849	29030.13
659.2	28934.76
659.551	28796.23
659.902	29046.17
660.253	28861.32
660.604	28992.61
660.955	28783.35
661.306	29031.03
661.656	28903.12
662.007	28965.27
662.358	28912.84
662.708	29041.43
663.059	28998.26
663.409	28709.46
663.76	29036.68
664.11	28973.4
664.461	29000.3
664.811	29012.95
665.161	28972.73
665.511	28914.42
665.862	29001.88
666.212	29135.43
666.562	29139.5
666.912	29045.04
667.262	29007.53
667.612	29058.15
667.962	28977.7
668.312	28855.22
668.662	29149.9
669.011	29097.47
669.361	28935.89
669.711	29046.4
670.06	28944.71
670.41	28941.77
670.76	28808.89
671.109	29099.05
671.459	28857.93
671.808	28902.9
672.157	28922.56
672.507	28769.79
672.856	28811.83
673.205	28891.15
673.554	28890.47
673.904	28868.55
674.253	29093.18
674.602	28860.19
674.951	28496.58
675.3	28440.09
675.649	28821.54
675.998	28853.63
676.346	28788.55
676.695	29019.05
677.044	28685.73
677.393	28748.33
677.741	28870.36
678.09	28699.06
678.438	28718.27
678.787	28735.45
679.135	28683.92
679.484	28719.4
679.832	28661.32
680.181	28558.95
680.529	28629.23
680.877	28466.07
681.225	28522.34
681.573	28719.63
681.922	28391.27
682.27	28532.29
682.618	28511.5
682.966	28468.56
683.314	28422.23
683.661	28314.89
684.009	28219.98
684.357	28180.21
684.705	28182.69
685.053	28109.7
685.4	28216.81
685.748	28030.38
686.095	28062.92
686.443	27983.83
686.79	27969.82
687.138	28052.98
687.485	27972.3
687.832	27829.71
688.18	27945.86
688.527	27796.94
688.874	27785.64
689.221	27654.57
689.568	27606.44
689.915	27677.17
690.262	27556.72
690.609	27507.68
690.956	27401.69
691.303	27484.63
691.65	27237.41
691.997	27328.93
692.344	27233.11
692.69	27161.48
693.037	27274.01
693.383	26916.06
693.73	27121.48
694.077	26867.02
694.423	26909.73
694.769	26875.38
695.116	26817.76
695.462	26751.09
695.808	26714.93
696.155	26697.76
696.501	26520.81
696.847	26458.44
697.193	26301.16
697.539	26394.49
697.885	26347.26
698.231	26318.33
698.577	26253.7
698.923	26145.23
699.269	25991.79
699.614	26036.08
699.96	25885.35
700.306	25909.08
700.651	25834.28
700.997	25665.24
701.342	25765.58
701.688	25642.19
702.033	25688.52
702.379	25659.82
702.724	25486.49
703.069	25540.73
703.415	25223.9
703.76	25324.46
704.105	25300.96
704.45	25256.21
704.795	24997.24
705.14	24941.19
705.485	24999.27
705.83	24922.44
706.175	25004.47
706.52	24862.33
706.865	24806.51
707.209	24793.85
707.554	24726.28
707.899	24733.52
708.243	24599.96
708.588	24512.96
708.932	24479.74
709.277	24416.69
709.621	24467.99
709.966	24162.23
710.31	24271.38
710.654	24216.47
710.998	24295.34
711.342	24157.94
711.687	24210.82
712.031	24115.45
712.375	23999.07
712.719	24003.59
713.063	23960.43
713.407	24082.01
713.75	23922.24
714.094	23930.83
714.438	23830.72
714.782	23927.21
715.125	23827.33
715.469	23887.21
715.812	23721.57
716.156	23604.05
716.499	23524.73
716.843	23669.36
717.186	23536.94
717.53	23627.78
717.873	23691.51
718.216	23561.8
718.559	23438.41
718.902	23377.62
719.246	23324.97
719.589	23391.63
719.932	23211.97
720.275	23197.96
720.617	23129.49
720.96	23135.59
721.303	23195.93
721.646	23176.72
721.989	23083.39
722.331	23256.04
722.674	23076.16
723.016	23138.98
723.359	23071.64
723.701	23103.73
724.044	22870.06
724.386	22888.37
724.729	22995.48
725.071	22872.32
725.413	22866.45
725.755	22753
726.097	22819.44
726.439	22816.96
726.782	22798.2
727.124	22838.2
727.465	22666
727.807	22701.48
728.149	22627.36
728.491	22621.48
728.833	22650.18
729.175	22576.96
729.516	22422.39
729.858	22491.32
730.199	22565.66
730.541	22447.02
730.882	22532.9
731.224	22600.69
731.565	22412.22
731.906	22532.67
732.248	22496.06
732.589	22306.46
732.93	22283.19
733.271	22384.43
733.612	22357.99
733.953	22432.79
734.294	22318.21
734.635	22283.19
734.976	22394.59
735.317	22265.33
735.658	22258.78
735.999	22144.88
736.339	22173.36
736.68	22327.93
737.021	22181.95
737.361	22143.08
737.702	22116.64
738.042	22179.23
738.383	22062.85
738.723	22163.87
739.063	22023.53
739.404	22036.41
739.744	22057.65
740.084	22001.38
740.424	21984.21
740.764	21968.84
741.104	22132.45
741.444	22027.6
741.784	21845.23
742.124	21997.09
742.464	21964.55
742.804	21959.8
743.143	21864.44
743.483	21901.27
743.823	21868.73
744.162	21840.49
744.502	21834.16
744.841	21743.76
745.181	21950.09
745.52	21823.76
745.86	21767.94
746.199	21856.98
746.538	21796.87
746.877	21897.66
747.216	21718.91
747.556	21764.55
747.895	21781.96
748.234	21665.8
748.573	21626.25
748.911	21729.75
749.25	21607.04
749.589	21628.29
749.928	21831.67
750.267	21698.34
750.605	21602.98
750.944	21589.64
751.283	21466.48
751.621	21531.34
751.96	21496.31
752.298	21552.81
752.636	21544.22
752.975	21478.91
753.313	21402.76
753.651	21442.3
753.989	21491.79
754.327	21448.18
754.666	21213.38
755.004	21322.76
755.342	21337
755.679	21326.83
756.017	21268.3
756.355	21244.57
756.693	21315.3
757.031	21268.07
757.368	21156.89
757.706	21113.72
758.044	21059.94
758.381	21145.14
758.719	20952.37
759.056	21082.76
759.394	20938.59
759.731	20838.03
760.068	20882.09
760.405	20839.61
760.743	20879.15
761.08	20914.18
761.417	20760.06
761.754	20724.36
762.091	20666.5
762.428	20589.44
762.765	20553.29
763.102	20624.7
763.438	20438.26
763.775	20399.39
764.112	20527.3
764.449	20426.51
764.785	20337.25
765.122	20190.81
765.458	20201.88
765.795	20221.09
766.131	20127.99
766.467	20127.31
766.804	20119.4
767.14	19954.88
767.476	19960.31
767.812	19891.61
768.148	19948.11
768.485	19788.11
768.821	19663.82
769.157	19629.24
769.492	19697.26
769.828	19762.57
770.164	19524.84
770.5	19441.23
770.836	19534.78
771.171	19358.97
771.507	19395.13
771.842	19148.58
772.178	19153.78
772.513	19170.5
772.849	19160.78
773.184	19048.69
773.519	18984.06
773.855	18976.83
774.19	18803.73
774.525	18824.52
774.86	18781.36
775.195	18763.5
775.53	18665.88
775.865	18581.81
776.2	18560.12
776.535	18401.25
776.87	18401.48
777.205	18271.54
777.539	18323.29
777.874	18313.12
778.209	18104.54
778.543	18157.42
778.878	18056.63
779.212	18067.25
779.547	17944.09
779.881	17936.86
780.215	17770.99
780.55	17870.19
780.884	17762.17
781.218	17646.25
781.552	17734.38
781.886	17667.49
782.22	17596.3
782.554	17562.63
782.888	17326.25
783.222	17238.35
783.556	17148.18
783.889	17214.84
784.223	17124.22
784.557	17036.32
784.89	17057.56
785.224	16958.58
785.557	16843.33
785.891	16867.51
786.224	16808.08
786.558	16748.87
786.891	16683.11
787.224	16468.87
787.557	16551.81
787.891	16542.32
788.224	16498.48
788.557	16445.37
788.89	16409.44
789.223	16296.9
789.556	16277.92
789.888	16243.34
790.221	16184.14
790.554	16044.48
790.887	16078.83
791.219	16023.01
791.552	16043.35
791.884	15927.65
792.217	15861.89
792.549	15834.54
792.882	15750.7
793.214	15783.02
793.546	15749.8
793.879	15542.35
794.211	15578.5
794.543	15645.62
794.875	15474.55
795.207	15499.63
795.539	15449.47
795.871	15471.16
796.203	15326.31
796.535	15239.98
796.867	15198.63
797.198	15129.93
797.53	15146.2
797.862	15046.77
798.193	15178.97
798.525	14974
798.856	15054.9
799.188	14854.23
799.519	14783.27
799.85	14783.95
800.182	14760.22
800.513	14756.15
800.844	14657.62
801.175	14745.08
801.506	14686.1
801.837	14583.05
802.168	14596.83
802.499	14407.23
802.83	14472.54
803.161	14381.47
803.491	14432.09
803.822	14401.81
804.153	14256.05
804.483	14218.31
804.814	14231.42
805.145	14092.44
805.475	14203.4
805.805	14013.35
806.136	14148.03
806.466	14080.92
806.796	13924.31
807.126	13885.67
807.457	13938.77
807.787	13865.1
808.117	13849.96
808.447	13818.78
808.777	13858.32
809.107	13817.65
809.436	13772
809.766	13699.23
810.096	13663.3
810.426	13594.6
810.755	13710.08
811.085	13599.57
811.414	13518.67
811.744	13515.73
812.073	13493.59
812.403	13357.09
812.732	13419.01
813.061	13437.77
813.39	13320.03
813.719	13253.59
814.049	13357.09
814.378	13268.28
814.707	13155.29
815.036	13267.15
815.365	13052.92
815.693	13094.27
816.022	13051.56
816.351	13040.94
816.68	13005.24
817.008	13062.41
817.337	12930.21
817.665	12800.04
817.994	12976.99
818.322	12938.57
818.651	12876.2
818.979	12867.16
819.307	12894.51
819.636	12773.83
819.964	12819.25
820.292	12759.82
820.62	12832.81
820.948	12771.8
821.276	12741.74
821.604	12702.42
821.932	12625.13
822.259	12718.92
822.587	12665.36
822.915	12589.2
823.243	12697.22
823.57	12669.88
823.898	12663.78
824.225	12698.13
824.553	12649.77
824.88	12632.59
825.207	12645.7
825.535	12616.09
825.862	12708.75
826.189	12615.87
826.516	12726.83
826.843	12711.46
827.17	12727.5
827.497	12769.99
827.824	12657.22
828.151	12713.04
828.478	12664.68
828.805	12715.08
829.131	12584.91
829.458	12603.89
829.785	12550.33
830.111	12648.64
830.438	12725.7
830.764	12710.33
831.09	12702.65
831.417	12607.73
831.743	12665.81
832.069	12616.32
832.395	12581.07
832.722	12634.63
833.048	12639.6
833.374	12652.48
833.7	12538.58
834.026	12539.49
834.351	12634.85
834.677	12630.56
835.003	12548.98
835.329	12547.62
835.654	12568.86
835.98	12529.54
836.306	12527.96
836.631	12414.97
836.956	12543.78
837.282	12505.59
837.607	12361.64
837.932	12377.68
838.258	12445.7
838.583	12390.79
838.908	12281.64
839.233	12384.46
839.558	12348.76
839.883	12281.41
840.208	12231.92
840.533	12272.38
840.858	12221.53
841.182	12307.4
841.507	12255.65
841.832	12151.47
842.156	12169.33
842.481	12167.07
842.805	12144.69
843.13	12018.37
843.454	11990.57
843.778	11979.73
844.103	11949.9
844.427	11945.83
844.751	11998.48
845.075	11932.27
845.399	11883.01
845.723	11831.48
846.047	11879.84
846.371	11797.59
846.695	11734.54
847.019	11715.33
847.343	11715.78
847.666	11580.42
847.99	11483.47
848.313	11496.8
848.637	11443.47
848.96	11480.98
849.284	11412.96
849.607	11300.2
849.931	11303.36
850.254	11197.15
850.577	11118.73
850.9	11120.77
851.223	11025.63
851.546	11038.51
851.869	11001.22
852.192	11015.01
852.515	10906.54
852.838	10862.02
853.161	10873.54
853.483	10825.18
853.806	10794.67
854.129	10787.67
854.451	10759.19
854.774	10685.98
855.096	10655.24
855.419	10593.1
855.741	10602.81
856.063	10509.94
856.385	10497.28
856.708	10450.95
857.03	10417.06
857.352	10422.71
857.674	10435.36
857.996	10351.07
858.318	10324.63
858.64	10256.83
858.961	10290.73
859.283	10276.27
859.605	10177.06
859.926	10233.56
860.248	10224.07
860.57	10145.43
860.891	10112.43
861.212	10126.44
861.534	10066.78
861.855	10076.95
862.176	10014.81
862.498	10014.13
862.819	10062.26
863.14	10013.68
863.461	9974.58
863.782	9969.61
864.103	9909.73
864.424	9845.32
864.745	9950.4
865.065	9832.67
865.386	9870.18
865.707	9838.99
866.027	9834.25
866.348	9789.73
866.668	9819.78
866.989	9776.4
867.309	9695.49
867.63	9719.22
867.95	9731.88
868.27	9685.78
868.59	9695.72
868.91	9688.71
869.23	9706.11
869.55	9660.69
869.87	9648.04
870.19	9643.52
870.51	9628.6
870.83	9635.61
871.15	9576.4
871.469	9617.53
871.789	9619.11
872.109	9585.67
872.428	9524.42
872.748	9568.49
873.067	9561.26
873.386	9543.86
873.706	9496.63
874.025	9454.82
874.344	9410.76
874.663	9453.24
874.982	9454.6
875.301	9461.38
875.62	9382.96
875.939	9314.49
876.258	9396.52
876.577	9341.15
876.896	9423.64
877.214	9334.83
877.533	9275.84
877.852	9240.36
878.17	9337.99
878.489	9241.27
878.807	9299.12
879.125	9227.71
879.444	9253.7
879.762	9142.51
880.08	9199.91
880.398	9142.51
880.716	9123.08
881.034	9110.2
881.352	9091.22
881.67	9088.73
881.988	9075.4
882.306	9031.33
882.624	9023.87
882.941	9006.02
883.259	9001.27
883.577	8946.59
883.894	8964.21
884.212	8947.49
884.529	8928.96
884.846	8908.62
885.164	8916.98
885.481	8882.41
885.798	8909.75
886.115	8781.85
886.432	8862.97
886.75	8739.13
887.067	8809.64
887.383	8764.67
887.7	8756.08
888.017	8743.65
888.334	8718.8
888.651	8715.41
888.967	8677.89
889.284	8735.97
889.6	8596.77
889.917	8580.95
890.233	8575.07
890.55	8546.82
890.866	8504.56
891.182	8533.26
891.498	8492.14
891.815	8500.27
892.131	8383.89
892.447	8376.43
892.763	8353.61
893.079	8320.84
893.395	8263.44
893.71	8345.92
894.026	8328.3
894.342	8248.3
894.657	8252.82
894.973	8224.12
895.289	8213.5
895.604	8181.18
895.92	8190
896.235	8088.98
896.55	8095.08
896.865	8061.19
897.181	8045.14
897.496	7991.13
897.811	8021.19
898.126	7938.25
898.441	7910.91
898.756	7915.65
899.071	7892.15
899.386	7915.43
899.7	7816.22
900.015	7765.15
900.33	7693.06
900.644	7673.17
900.959	7711.82
901.273	7722.66
901.588	7649.67
901.902	7664.81
902.216	7554.76
902.531	7554.98
902.845	7526.51
903.159	7498.04
903.473	7476.79
903.787	7511.37
904.101	7429.56
904.415	7463.01
904.729	7390.92
905.042	7349.79
905.356	7368.32
905.67	7347.53
905.984	7279.06
906.297	7222.56
906.611	7258.27
906.924	7190.93
907.237	7206.29
907.551	7165.84
907.864	7119.97
908.177	7105.28
908.491	7063.47
908.804	7052.63
909.117	7031.61
909.43	6962.91
909.743	6931.95
910.056	6967.43
910.368	6892.18
910.681	6820.99
910.994	6807.89
911.307	6825.96
911.619	6745.51
911.932	6759.53
912.244	6723.82
912.557	6683.82
912.869	6709.81
913.181	6611.73
913.494	6669.58
913.806	6546.88
914.118	6603.82
914.43	6549.36
914.742	6523.37
915.054	6505.07
915.366	6482.47
915.678	6438.4
915.99	6438.4
916.302	6354.11
916.613	6385.98
916.925	6439.76
917.236	6325.19
917.548	6364.96
917.859	6305.98
918.171	6239.31
918.482	6283.38
918.794	6257.62
919.105	6182.14
919.416	6156.15
919.727	6154.57
920.038	6080.45
920.349	6088.81
920.66	6124.06
920.971	6033.22
921.282	5993.22
921.593	5996.38
921.903	5927.01
922.214	5944.86
922.525	5905.54
922.835	5920.23
923.146	5895.59
923.456	5820.57
923.767	5830.06
924.077	5784.41
924.387	5750.74
924.697	5724.3
925.008	5735.6
925.318	5690.63
925.628	5705.32
925.938	5654.02
926.248	5618.76
926.558	5590.97
926.867	5604.08
927.177	5530.86
927.487	5557.75
927.796	5458.77
928.106	5497.64
928.416	5441.59
928.725	5496.06
929.034	5387.13
929.344	5440.92
929.653	5374.48
929.962	5353.23
930.271	5324.76
930.581	5288.83
930.89	5294.48
931.199	5265.78
931.508	5217.19
931.817	5232.56
932.125	5231.2
932.434	5197.31
932.743	5182.62
933.051	5151.21
933.36	5107.82
933.669	5061.94
933.977	5061.49
934.286	5047.93
934.594	5000.48
934.902	4990.53
935.21	4936.52
935.519	4983.75
935.827	4921.38
936.135	4920.93
936.443	4852.91
936.751	4869.63
937.059	4860.14
937.367	4812.46
937.674	4833.47
937.982	4847.26
938.29	4789.41
938.597	4756.64
938.905	4742.86
939.213	4695.63
939.52	4677.77
939.827	4683.42
940.135	4623.31
940.442	4632.35
940.749	4621.73
941.056	4576.98
941.363	4521.17
941.67	4564.56
941.977	4506.48
942.284	4487.27
942.591	4506.25
942.898	4465.8
943.205	4459.93
943.511	4465.8
943.818	4455.41
944.125	4404.33
944.431	4374.28
944.738	4389.42
945.044	4372.47
945.35	4288.4
945.657	4325.01
945.963	4283.66
946.269	4273.72
946.575	4304
946.881	4268.52
947.187	4224.9
947.493	4207.28
947.799	4209.08
948.105	4152.36
948.41	4153.49
948.716	4132.48
949.022	4111.69
949.327	4108.97
949.633	4049.77
949.938	4107.84
950.244	4084.79
950.549	4054.74
950.854	3963.89
951.16	4001.63
951.465	3972.03
951.77	4002.99
952.075	3962.09
952.38	3953.27
952.685	3902.2
952.99	3830.79
953.294	3921.63
953.599	3877.34
953.904	3829.21
954.209	3842.31
954.513	3813.61
954.818	3829.89
955.122	3760.06
955.426	3752.15
955.731	3717.12
956.035	3712.37
956.339	3766.84
956.643	3726.39
956.948	3725.48
957.252	3640.74
957.556	3657.69
957.86	3643
958.163	3618.59
958.467	3628.31
958.771	3602.55
959.075	3597.12
959.378	3573.39
959.682	3601.19
959.985	3538.59
960.289	3564.81
960.592	3530.68
960.896	3508.99
961.199	3449.1
961.502	3495.43
961.805	3440.52
962.108	3463.57
962.411	3417.24
962.714	3380.18
963.017	3392.83
963.32	3381.08
963.623	3388.54
963.926	3363.68
964.228	3334.76
964.531	3349.9
964.833	3323.91
965.136	3252.05
965.438	3250.92
965.741	3259.5
966.043	3250.92
966.345	3266.96
966.648	3235.55
966.95	3176.12
967.252	3172.95
967.554	3174.08
967.856	3172.95
968.158	3163.01
968.46	3165.5
968.761	3077.59
969.063	3150.36
969.365	3112.62
969.666	3098.6
969.968	3082.11
970.269	3072.84
970.571	3038.95
970.872	3078.72
971.174	3019.06
971.475	3040.98
971.776	3034.2
972.077	2988.55
972.378	2962.11
972.679	2978.83
972.98	2944.03
973.281	2924.82
973.582	2908.33
973.883	2948.78
974.183	2876.46
974.484	2896.8
974.785	2870.14
975.085	2876.46
975.386	2853.87
975.686	2833.08
975.986	2852.06
976.287	2827.88
976.587	2794.66
976.887	2805.51
977.187	2747.2
977.487	2760.08
977.787	2746.3
978.087	2741.1
978.387	2718.05
978.687	2724.38
978.987	2723.02
979.286	2727.99
979.586	2705.85
979.885	2669.69
980.185	2650.48
980.484	2653.87
980.784	2649.58
981.083	2626.3
981.382	2628.33
981.682	2626.53
981.981	2562.8
982.28	2577.26
982.579	2575.91
982.878	2505.17
983.177	2551.5
983.475	2528
983.774	2485.29
984.073	2528.22
984.372	2499.98
984.67	2486.19
984.969	2490.94
985.267	2483.03
985.566	2472.41
985.864	2427.21
986.162	2471.5
986.461	2473.76
986.759	2401.22
987.057	2420.88
987.355	2414.33
987.653	2413.88
987.951	2374.1
988.249	2355.35
988.547	2370.04
988.844	2365.29
989.142	2348.12
989.44	2355.57
989.737	2319.19
990.035	2319.64
990.332	2286.65
990.63	2303.6
990.927	2297.5
991.224	2272.19
991.521	2244.84
991.819	2217.27
992.116	2215.01
992.413	2202.13
992.71	2230.38
993.006	2199.87
993.303	2191.96
993.6	2184.05
993.897	2187.89
994.193	2173.21
994.49	2136.82
994.787	2138.18
995.083	2131.17
995.379	2124.62
995.676	2105.41
995.972	2106.77
996.268	2105.86
996.565	2099.54
996.861	2040.55
997.157	2019.31
997.453	2038.07
997.749	2060.67
998.044	2029.03
998.34	2036.49
998.636	2026.54
998.932	2005.75
999.227	2026.32
999.523	2017.05
999.818	1958.75
1000.114	1981.8
1000.409	1967.79
1000.704	1953.78
1001	1903.16
1001.295	1919.65
1001.59	1928.24
1001.885	1931.4
1002.18	1898.18
1002.475	1892.99
1002.77	1867
1003.065	1871.29
1003.359	1852.08
1003.654	1836.72
1003.949	1827
1004.243	1824.51
1004.538	1821.8
1004.832	1800.11
1005.127	1791.52
1005.421	1780.22
1005.715	1750.39
1006.009	1775.02
1006.304	1747.91
1006.598	1688.92
1006.892	1741.13
1007.186	1726.21
1007.48	1707.68
1007.773	1707.91
1008.067	1726.89
1008.361	1697.96
1008.655	1688.92
1008.948	1675.59
1009.242	1648.25
1009.535	1659.55
1009.829	1674.46
1010.122	1658.87
1010.415	1634.01
1010.708	1615.93
1011.001	1592.88
1011.295	1595.37
1011.588	1604.63
1011.881	1593.79
1012.173	1576.61
1012.466	1565.09
1012.759	1541.13
1013.052	1577.06
1013.344	1556.72
1013.637	1518.31
1013.93	1539.32
1014.222	1500.45
1014.514	1504.07
1014.807	1490.51
1015.099	1481.7
1015.391	1475.14
1015.683	1491.64
1015.976	1468.59
1016.268	1448.48
1016.56	1445.32
1016.851	1425.43
1017.143	1453.9
1017.435	1421.13
1017.727	1408.25
1018.018	1407.58
1018.31	1416.16
1018.602	1396.5
1018.893	1392.89
1019.185	1361.25
1019.476	1391.31
1019.767	1349.95
1020.058	1357.63
1020.35	1316.96
1020.641	1306.11
1020.932	1304.3
1021.223	1305.43
1021.514	1304.75
1021.804	1291.87
1022.095	1292.1
1022.386	1277.86
1022.677	1273.34
1022.967	1283.96
1023.258	1265.88
1023.548	1243.96
1023.839	1235.15
1024.129	1205.1
1024.419	1233.34
1024.709	1205.1
1025	1216.39
1025.29	1186.79
1025.58	1177.3
1025.87	1197.64
1026.16	1183.4
1026.449	1195.15
1026.739	1157.41
1027.029	1165.77
1027.319	1136.85
1027.608	1130.75
1027.898	1137.75
1028.187	1130.3
1028.477	1123.52
1028.766	1116.28
1029.055	1093.01
1029.344	1102.5
1029.634	1082.39
1029.923	1114.7
1030.212	1078.09
1030.501	1051.65
1030.79	1060.69
1031.078	1050.3
1031.367	1047.36
1031.656	1039.68
1031.945	1049.85
1032.233	1053.01
1032.522	1013.69
1032.81	1015.95
1033.099	1016.17
1033.387	1029.28
1033.675	991.32
1033.963	1007.59
1034.251	971.43
1034.54	968.49
1034.828	965.1
1035.116	970.75
1035.403	947.25
1035.691	955.38
1035.979	987.25
1036.267	944.76
1036.554	930.75
1036.842	924.88
1037.129	931.43
1037.417	906.57
1037.704	917.42
1037.992	913.8
1038.279	893.69
1038.566	904.31
1038.853	904.31
1039.14	904.31
