Data from cardboard_FLMS001491_026.txt Node
Date: Tue Feb 07 11:39:11 GMT 2017
User: dcchb
Spectrometer: FLMS00149
Trigger mode: 0
Integration Time (sec): 2.000000E-2
Scans to average: 10
Electric dark correction enabled: true
Nonlinearity correction enabled: false
Boxcar width: 0
XAxis mode: Wavelengths
Number of Pixels in Spectrum: 2048
>>>>>Begin Spectral Data<<<<<
341.393	-16.5
341.776	-16.5
342.16	-16.5
342.543	-48.81
342.927	-77.74
343.31	-73.44
343.693	-71.64
344.077	-68.92
344.46	-52.88
344.843	-56.95
345.226	-42.71
345.61	-31.86
345.993	-29.15
346.376	1.13
346.759	27.8
347.142	34.58
347.525	23.5
347.908	51.52
348.291	76.16
348.674	91.07
349.057	121.8
349.44	121.8
349.823	126.1
350.206	172.65
350.588	173.33
350.971	205.19
351.354	220.33
351.737	235.25
352.119	233.67
352.502	271.18
352.884	250.84
353.267	260.33
353.65	281.35
354.032	289.26
354.414	305.53
354.797	304.4
355.179	318.86
355.562	308.47
355.944	315.92
356.326	344.4
356.709	325.64
357.091	316.83
357.473	325.87
357.855	331.52
358.238	351.18
358.62	334.45
359.002	356.83
359.384	340.1
359.766	334.91
360.148	327.9
360.53	328.35
360.912	329.48
361.294	327.68
361.676	312.99
362.057	329.48
362.439	322.93
362.821	309.82
363.203	327.45
363.584	315.02
363.966	291.52
364.348	308.24
364.729	299.2
365.111	309.37
365.493	335.13
365.874	325.64
366.256	313.89
366.637	297.17
367.019	305.75
367.4	304.4
367.781	311.86
368.163	268.69
368.544	286.32
368.925	290.39
369.306	299.88
369.688	293.78
370.069	320.22
370.45	303.49
370.831	297.39
371.212	306.66
371.593	310.95
371.974	325.42
372.355	309.14
372.736	296.94
373.117	308.92
373.498	311.4
373.879	305.98
374.26	308.24
374.641	336.04
375.021	298.52
375.402	303.49
375.783	307.56
376.163	305.08
376.544	317.96
376.925	302.59
377.305	315.92
377.686	313.89
378.066	308.24
378.447	304.85
378.827	316.6
379.208	328.8
379.588	315.7
379.968	316.83
380.349	298.07
380.729	315.02
381.109	314.79
381.489	318.64
381.87	335.13
382.25	326.09
382.63	308.24
383.01	317.73
383.39	337.17
383.77	334
384.15	314.79
384.53	325.87
384.91	318.41
385.29	328.8
385.67	324.29
386.049	338.3
386.429	325.87
386.809	337.17
387.189	317.51
387.568	328.13
387.948	340.1
388.328	344.4
388.707	342.82
389.087	344.4
389.466	332.19
389.846	320.9
390.225	346.21
390.605	331.06
390.984	344.62
391.363	357.05
391.743	333.55
392.122	364.06
392.501	344.85
392.881	366.32
393.26	378.75
393.639	366.32
394.018	342.14
394.397	334.23
394.776	345.3
395.155	368.8
395.534	376.26
395.913	340.1
396.292	352.53
396.671	362.02
397.05	376.94
397.429	374.23
397.808	378.07
398.186	367
398.565	366.77
398.944	377.84
399.323	368.35
399.701	361.35
400.08	383.27
400.458	356.83
400.837	393.89
401.215	373.78
401.594	373.78
401.972	370.61
402.351	370.61
402.729	363.38
403.107	384.17
403.486	388.92
403.864	390.72
404.242	393.66
404.62	385.75
404.999	395.47
405.377	374.23
405.755	420.1
406.133	365.19
406.511	406.09
406.889	408.12
407.267	414.45
407.645	392.08
408.023	405.64
408.401	391.18
408.779	414.9
409.156	413.32
409.534	411.51
409.912	407.67
410.29	423.49
410.667	408.8
411.045	421.46
411.422	416.94
411.8	430.27
412.178	426.2
412.555	409.71
412.933	417.39
413.31	443.38
413.687	418.29
414.065	426.88
414.442	430.5
414.819	433.89
415.197	434.79
415.574	459.87
415.951	439.99
416.328	433.43
416.705	448.8
417.082	448.35
417.46	463.49
417.837	446.77
418.214	447.22
418.591	473.21
418.967	448.58
419.344	455.58
419.721	474.11
420.098	476.37
420.475	465.52
420.852	477.5
421.228	485.41
421.605	450.84
421.982	470.27
422.358	491.06
422.735	479.99
423.111	501.68
423.488	472.3
423.864	505.98
424.241	527.9
424.617	496.48
424.994	497.16
425.37	498.97
425.746	504.39
426.123	517.95
426.499	510.72
426.875	517.95
427.251	515.92
427.627	518.4
428.003	539.87
428.379	525.64
428.756	535.35
429.132	544.17
429.507	540.32
429.883	545.07
430.259	553.43
430.635	528.35
431.011	550.49
431.387	531.06
431.763	570.38
432.138	569.02
432.514	569.7
432.89	566.76
433.265	560.89
433.641	576.93
434.016	588.46
434.392	590.94
434.767	597.72
435.143	620.32
435.518	596.14
435.894	612.64
436.269	605.18
436.644	613.77
437.02	619.19
437.395	630.49
437.77	638.63
438.145	645.41
438.52	628.68
438.895	633.66
439.271	646.08
439.646	650.38
440.021	638.85
440.395	666.88
440.77	632.3
441.145	656.48
441.52	644.73
441.895	671.85
442.27	670.94
442.645	670.72
443.019	689.02
443.394	673.43
443.769	704.61
444.143	687.21
444.518	694.22
444.892	690.38
445.267	721.34
445.641	703.48
446.016	694.9
446.39	723.82
446.764	720.21
447.139	707.55
447.513	735.35
447.887	738.29
448.262	698.74
448.636	741
449.01	731.51
449.384	731.05
449.758	735.57
450.132	740.32
450.506	737.83
450.88	755.23
451.254	753.65
451.628	776.48
452.002	760.43
452.376	788.45
452.75	776.25
453.123	784.61
453.497	801.33
453.871	788.68
454.244	813.31
454.618	817.15
454.992	829.13
455.365	827.32
455.739	843.37
456.112	817.38
456.486	811.73
456.859	875.91
457.232	850.37
457.606	876.81
457.979	886.08
458.352	870.03
458.725	910.03
459.099	888.11
459.472	884.95
459.845	921.56
460.218	891.28
460.591	907.77
460.964	944.16
461.337	946.87
461.71	969.47
462.083	950.48
462.456	985.28
462.829	980.09
463.201	977.15
463.574	985.51
463.947	1013.98
464.32	1005.85
464.692	1013.31
465.065	1029.8
465.438	1048.33
465.81	1032.97
466.183	1074.32
466.555	1045.85
466.928	1084.72
467.3	1048.56
467.672	1100.31
468.045	1117.26
468.417	1113.42
468.789	1144.83
469.161	1154.55
469.534	1161.33
469.906	1191.83
470.278	1170.36
470.65	1208.78
471.022	1179.18
471.394	1224.15
471.766	1241.55
472.138	1225.96
472.51	1216.24
472.882	1258.27
473.253	1321.77
473.625	1313.19
473.997	1350.47
474.369	1348.67
474.74	1339.17
475.112	1398.38
475.484	1385.95
475.855	1406.97
476.227	1442.45
476.598	1458.04
476.97	1491.94
477.341	1517.25
477.713	1519.73
478.084	1546.4
478.455	1557.25
478.827	1566.29
479.198	1611.48
479.569	1645.38
479.94	1660.52
480.311	1656.91
480.682	1694.87
481.053	1720.86
481.424	1782.33
481.795	1778.03
482.166	1816.68
482.537	1800.63
482.908	1830.01
483.279	1879.5
483.65	1899.61
484.021	1943.68
484.391	1959.72
484.762	1984.13
485.133	1974.86
485.503	2016.22
485.874	2097.12
486.244	2086.27
486.615	2157.68
486.985	2134.41
487.356	2136.67
487.726	2190
488.097	2264.35
488.467	2245.36
488.837	2326.72
489.207	2324.01
489.578	2365.14
489.948	2369.88
490.318	2433.61
490.688	2426.15
491.058	2483.32
491.428	2473.38
491.798	2535.75
492.168	2581.18
492.538	2579.82
492.908	2605.81
493.278	2650.1
493.648	2666.82
494.017	2655.98
494.387	2700.95
494.757	2748.18
495.126	2766.48
495.496	2774.62
495.866	2843.32
496.235	2851
496.605	2862.75
496.974	2864.56
497.344	2936.65
497.713	2979.13
498.082	2995.18
498.452	2995.18
498.821	3031.56
499.19	3014.38
499.559	3078.56
499.928	3118.56
500.298	3117.21
500.667	3176.41
501.036	3183.87
501.405	3197.66
501.774	3232.01
502.143	3239.46
502.512	3250.54
502.88	3328.5
503.249	3333.7
503.618	3403.98
503.987	3392.45
504.356	3411.66
504.724	3397.2
505.093	3488.04
505.462	3486.46
505.83	3523.52
506.199	3568.95
506.567	3590.41
506.936	3592.9
507.304	3650.07
507.672	3655.05
508.041	3696.17
508.409	3769.84
508.777	3725.55
509.145	3794.7
509.514	3829.28
509.882	3845.55
510.25	3862.27
510.618	3914.7
510.986	3950.63
511.354	3950.18
511.722	4043.28
512.09	4055.49
512.458	4064.53
512.826	4077.86
513.193	4136.39
513.561	4196.5
513.929	4174.81
514.297	4239.21
514.664	4314.24
515.032	4323.5
515.4	4382.71
515.767	4389.72
516.135	4406.21
516.502	4394.23
516.869	4506.32
517.237	4485.08
517.604	4532.76
517.972	4574.79
518.339	4628.13
518.706	4621.57
519.073	4695.47
519.44	4713.55
519.808	4759.65
520.175	4822.7
520.542	4866.99
520.909	4906.54
521.276	4940.21
521.643	4957.38
522.009	5020.88
522.376	5095.91
522.743	5118.51
523.11	5198.28
523.477	5240.09
523.843	5276.92
524.21	5309.92
524.577	5332.74
524.943	5363.25
525.31	5427.2
525.676	5538.84
526.043	5592.17
526.409	5591.72
526.776	5653.18
527.142	5669.68
527.508	5713.07
527.874	5755.78
528.241	5817.25
528.607	5910.35
528.973	5922.78
529.339	5930.01
529.705	6030.35
530.071	6104.02
530.437	6117.81
530.803	6134.08
531.169	6186.96
531.535	6164.58
531.901	6240.29
532.267	6290.68
532.632	6366.61
532.998	6380.62
533.364	6430.57
533.73	6452.49
534.095	6554.86
534.461	6583.1
534.826	6635.08
535.192	6601.41
535.557	6685.93
535.923	6731.35
536.288	6830.1
536.653	6827.39
537.019	6815.64
537.384	6907.39
537.749	6930.89
538.114	6975.86
538.479	6980.16
538.845	7049.31
539.21	7051.57
539.575	7089.53
539.94	7148.96
540.305	7239.13
540.67	7149.87
541.034	7302.86
541.399	7298.34
541.764	7362.74
542.129	7311.45
542.494	7387.38
542.858	7479.35
543.223	7522.74
543.587	7566.81
543.952	7519.58
544.316	7660.14
544.681	7626.69
545.045	7672.57
545.41	7777.2
545.774	7770.87
546.138	7768.84
546.503	7846.35
546.867	7909.17
547.231	7979.9
547.595	7988.72
547.959	8020.13
548.324	8040.24
548.688	8071.2
549.052	8136.74
549.416	8173.57
549.779	8194.81
550.143	8240.01
550.507	8315.04
550.871	8334.47
551.235	8381.25
551.599	8464.18
551.962	8462.83
552.326	8517.52
552.689	8529.04
553.053	8520.91
553.417	8583.05
553.78	8722.71
554.143	8739.88
554.507	8809.03
554.87	8811.29
555.234	8902.59
555.597	8930.16
555.96	8972.42
556.323	8985.53
556.686	9037.05
557.05	9071.17
557.413	9136.26
557.776	9266.65
558.139	9278.85
558.502	9266.87
558.865	9339.19
559.228	9375.57
559.59	9447.21
559.953	9542.57
560.316	9612.4
560.679	9611.05
561.041	9718.61
561.404	9764.49
561.767	9816.24
562.129	9798.16
562.492	9940.3
562.854	9962.9
563.217	9985.05
563.579	10086.74
563.941	10110.47
564.304	10190.01
564.666	10348.65
565.028	10225.72
565.39	10256.45
565.753	10375.55
566.115	10482.89
566.477	10521.08
566.839	10612.15
567.201	10700.51
567.563	10672.94
567.925	10764.69
568.287	10800.85
568.648	10812.37
569.01	10948.41
569.372	10935.31
569.734	10957.23
570.095	11088.3
570.457	11104.11
570.819	11176.2
571.18	11181.17
571.542	11247.39
571.903	11245.81
572.265	11365.12
572.626	11394.95
572.987	11415.07
573.349	11516.76
573.71	11513.82
574.071	11517.21
574.432	11607.83
574.794	11737.54
575.155	11718.11
575.516	11792.91
575.877	11797.66
576.238	11833.14
576.599	11912.46
576.96	11898.44
577.32	11900.7
577.681	12086.01
578.042	12089.17
578.403	12086.01
578.763	12105.9
579.124	12115.84
579.485	12187.48
579.845	12321.71
580.206	12281.48
580.566	12257.3
580.927	12365.78
581.287	12313.8
581.648	12360.13
582.008	12465.89
582.368	12490.52
582.728	12485.77
583.089	12546.56
583.449	12608.03
583.809	12498.88
584.169	12589.5
584.529	12538.43
584.889	12685.54
585.249	12627.92
585.609	12604.19
585.969	12704.52
586.329	12709.5
586.688	12691.42
587.048	12710.4
587.408	12693.45
587.768	12734.58
588.127	12838.53
588.487	12765.77
588.846	12896.38
589.206	12866.55
589.565	12807.8
589.925	12908.59
590.284	12900.23
590.643	12972.99
591.003	12895.48
591.362	13049.37
591.721	13048.02
592.08	13021.35
592.44	13076.04
592.799	13133.89
593.158	13118.07
593.517	13149.03
593.876	13183.61
594.235	13177.05
594.593	13161.01
594.952	13195.36
595.311	13172.08
595.67	13155.81
596.029	13257.5
596.387	13271.29
596.746	13364.85
597.104	13325.07
597.463	13339.99
597.822	13356.71
598.18	13321.68
598.538	13371.4
598.897	13424.96
599.255	13330.04
599.613	13561.9
599.972	13498.4
600.33	13545.18
600.688	13511.28
601.046	13599.87
601.404	13536.82
601.762	13581.34
602.12	13682.8
602.478	13714.89
602.836	13697.49
603.194	13708.34
603.552	13757.83
603.91	13586.54
604.268	13878.05
604.625	13801.67
604.983	13845.96
605.341	13707.89
605.698	13813.2
606.056	13853.65
606.413	13899.75
606.771	13980.42
607.128	14089.57
607.485	13983.81
607.843	13995.11
608.2	14145.84
608.557	14120.08
608.914	14107.65
609.272	14163.7
609.629	14128.22
609.986	14300.64
610.343	14171.6
610.7	14264.26
611.057	14343.58
611.414	14351.49
611.771	14264.94
612.127	14348.55
612.484	14351.94
612.841	14384.03
613.198	14459.73
613.554	14375.67
613.911	14483.46
614.267	14443.91
614.624	14493.86
614.98	14530.01
615.337	14605.49
615.693	14629.67
616.05	14617.02
616.406	14678.48
616.762	14636.23
617.118	14660.86
617.475	14680.97
617.831	14654.76
618.187	14759.39
618.543	14760.97
618.899	14941.3
619.255	14892.94
619.611	14861.08
619.967	14940.4
620.323	14888.87
620.678	14887.29
621.034	14943.56
621.39	14847.52
621.746	14897.01
622.101	15051.13
622.457	14899.5
622.812	14917.8
623.168	15076.21
623.523	15021.07
623.879	15028.76
624.234	14981.75
624.589	15101.52
624.945	15090.45
625.3	15141.3
625.655	15131.58
626.01	15072.37
626.365	15168.64
626.72	15113.5
627.075	15131.81
627.43	15104.69
627.785	15112.15
628.14	15180.84
628.495	15180.84
628.85	15058.36
629.205	15153.5
629.559	15222.2
629.914	15183.1
630.269	15169.54
630.623	15155.53
630.978	15110.56
631.332	15278.92
631.687	15182.43
632.041	15130.68
632.396	15164.57
632.75	15178.36
633.104	15165.93
633.459	15097
633.813	15151.92
634.167	15117.34
634.521	15184.91
634.875	15204.57
635.229	15245.7
635.583	15140.17
635.937	15137.23
636.291	15153.05
636.645	15179.04
636.999	15155.76
637.352	15099.72
637.706	14979.72
638.06	15129.09
638.413	15122.31
638.767	15073.5
639.121	15100.39
639.474	15000.74
639.828	15069.43
640.181	15080.06
640.534	15130.22
640.888	15099.04
641.241	15019.72
641.594	14969.55
641.947	15070.79
642.301	14993.96
642.654	15104.69
643.007	15055.2
643.36	15113.95
643.713	14978.82
644.066	15083.22
644.419	14972.49
644.771	14995.09
645.124	14780.85
645.477	14654.76
645.83	14710.35
646.182	14632.61
646.535	14587.19
646.888	14669.44
647.24	14553.97
647.593	14613.18
647.945	14620.41
648.298	14561.88
648.65	14542.89
649.002	14475.55
649.355	14610.69
649.707	14611.59
650.059	14707.64
650.411	14884.35
650.763	14875.99
651.115	14964.13
651.467	14908.53
651.819	15003.22
652.171	14979.72
652.523	14872.15
652.875	14934.97
653.227	14900.63
653.578	14967.97
653.93	15066.95
654.282	14919.83
654.633	14762.1
654.985	14919.16
655.337	14927.97
655.688	14882.32
656.039	14943.34
656.391	14805.49
656.742	14917.57
657.094	14931.36
657.445	14993.28
657.796	14819.95
658.147	14890.46
658.498	14937.69
658.849	14937.46
659.2	14965.48
659.551	14909.44
659.902	14971.81
660.253	14938.82
660.604	14917.35
660.955	14927.74
661.306	14940.4
661.656	14870.8
662.007	14946.95
662.358	14937.01
662.708	14919.61
663.059	14939.04
663.409	14792.15
663.76	14967.74
664.11	14927.74
664.461	14875.77
664.811	15032.37
665.161	15004.35
665.511	15024.46
665.862	14992.15
666.212	14996.44
666.562	15068.3
666.912	15018.59
667.262	14977.23
667.612	14890.23
667.962	14991.92
668.312	14899.5
668.662	14992.15
669.011	15023.33
669.361	15005.03
669.711	14961.87
670.06	14965.03
670.41	14909.21
670.76	14872.83
671.109	15046.38
671.459	14867.86
671.808	14902.43
672.157	14975.65
672.507	14903.34
672.856	14962.77
673.205	14935.43
673.554	14989.66
673.904	14910.79
674.253	15067.4
674.602	14983.11
674.951	14672.61
675.3	14606.4
675.649	14916.9
675.998	14897.46
676.346	14925.71
676.695	14935.65
677.044	14800.06
677.393	14902.43
677.741	14964.35
678.09	14812.49
678.438	14871.7
678.787	14877.12
679.135	14931.13
679.484	14784.7
679.832	14864.69
680.181	14811.81
680.529	14842.55
680.877	14808.88
681.225	14798.93
681.573	14862.66
681.922	14829.21
682.27	14779.27
682.618	14830.12
682.966	14723.91
683.314	14749.89
683.661	14700.18
684.009	14726.39
684.357	14684.36
684.705	14674.42
685.053	14661.76
685.4	14690.69
685.748	14676.22
686.095	14591.48
686.443	14487.08
686.79	14553.29
687.138	14610.24
687.485	14570.01
687.832	14465.83
688.18	14455.89
688.527	14437.59
688.874	14462.44
689.221	14385.61
689.568	14333.41
689.915	14359.4
690.262	14340.19
690.609	14237.59
690.956	14247.53
691.303	14268.55
691.65	14176.8
691.997	14193.75
692.344	14119.63
692.69	14153.07
693.037	14170.7
693.383	14055.9
693.73	14161.44
694.077	14027.2
694.423	14024.26
694.769	13982.46
695.116	13906.53
695.462	13985.17
695.808	13904.27
696.155	13984.04
696.501	13798.51
696.847	13786.76
697.193	13803.03
697.539	13823.59
697.885	13751.5
698.231	13661.79
698.577	13598.29
698.923	13581.11
699.269	13542.24
699.614	13552.41
699.96	13503.37
700.306	13494.33
700.651	13434.9
700.997	13429.93
701.342	13400.78
701.688	13433.77
702.033	13323.72
702.379	13368.91
702.724	13294.34
703.069	13442.81
703.415	13217.96
703.76	13292.31
704.105	13250.95
704.45	13203.04
704.795	13112.42
705.14	13099.77
705.485	13091.86
705.83	13051.41
706.175	13087.57
706.52	13032.2
706.865	12938.42
707.209	13028.81
707.554	12904.75
707.899	12924.18
708.243	12871.75
708.588	12913.11
708.932	12795.37
709.277	12802.38
709.621	12817.97
709.966	12754.47
710.31	12754.47
710.654	12687.12
710.998	12644.41
711.342	12754.92
711.687	12647.8
712.031	12553.12
712.375	12643.06
712.719	12622.49
713.063	12668.37
713.407	12679.21
713.75	12491.2
714.094	12517.41
714.438	12503.85
714.782	12473.57
715.125	12439.67
715.469	12497.75
715.812	12408.26
716.156	12347.25
716.499	12406.68
716.843	12378.88
717.186	12293.91
717.53	12359
717.873	12344.76
718.216	12317.87
718.559	12235.16
718.902	12320.81
719.246	12347.92
719.589	12200.13
719.932	12217.53
720.275	12178.89
720.617	12204.2
720.96	12171.66
721.303	12139.79
721.646	12173.92
721.989	12022.06
722.331	12216.4
722.674	12084.43
723.016	12144.77
723.359	12131.66
723.701	12116.74
724.044	12024.99
724.386	12093.92
724.729	12086.24
725.071	11997.88
725.413	12079.68
725.755	12022.51
726.097	11980.02
726.439	11926.69
726.782	12043.53
727.124	11980.7
727.465	11921.49
727.807	11921.72
728.149	11900.93
728.491	11943.64
728.833	11874.04
729.175	11845.79
729.516	11898.67
729.858	11844.66
730.199	11900.93
730.541	11862.74
730.882	11823.87
731.224	11860.03
731.565	11672.24
731.906	11726.25
732.248	11765.11
732.589	11764.44
732.93	11829.75
733.271	11772.12
733.612	11750.65
733.953	11726.7
734.294	11745.68
734.635	11733.02
734.976	11704.1
735.317	11729.41
735.658	11726.25
735.999	11719.24
736.339	11694.16
736.68	11716.98
737.021	11660.71
737.361	11650.99
737.702	11632.01
738.042	11598.34
738.383	11603.99
738.723	11654.38
739.063	11643.08
739.404	11619.36
739.744	11628.85
740.084	11607.15
740.424	11634.27
740.764	11632.24
741.104	11667.94
741.444	11613.03
741.784	11555.85
742.124	11648.73
742.464	11549.3
742.804	11528.51
743.143	11491
743.483	11528.74
743.823	11463.88
744.162	11498
744.502	11489.87
744.841	11408.97
745.181	11533.03
745.52	11465.69
745.86	11369.42
746.199	11451
746.538	11490.55
746.877	11541.17
747.216	11488.51
747.556	11399.47
747.895	11392.92
748.234	11389.98
748.573	11394.95
748.911	11302.53
749.25	11406.03
749.589	11317.67
749.928	11354.05
750.267	11339.81
750.605	11411
750.944	11300.04
751.283	11247.84
751.621	11300.04
751.96	11266.82
752.298	11234.51
752.636	11289.65
752.975	11265.69
753.313	11229.08
753.651	11291.45
753.989	11229.76
754.327	11235.18
754.666	11159.25
755.004	11128.29
755.342	11178.69
755.679	11163.32
756.017	11111.35
756.355	11194.06
756.693	11058.24
757.031	11108.18
757.368	11013.72
757.706	11066.83
758.044	11022.54
758.381	11043.78
758.719	10966.49
759.056	10937.57
759.394	10938.92
759.731	10868.41
760.068	10855.53
760.405	10907.74
760.743	10818.02
761.08	10993.38
761.417	10773.5
761.754	10805.14
762.091	10749.1
762.428	10797.46
762.765	10696.44
763.102	10760.62
763.438	10701.19
763.775	10651.25
764.112	10679.04
764.449	10705.03
764.785	10653.96
765.122	10573.96
765.458	10557.46
765.795	10554.3
766.131	10518.82
766.467	10423
766.804	10474.07
767.14	10366.51
767.476	10418.26
767.812	10351.14
768.148	10333.29
768.485	10333.97
768.821	10295.55
769.157	10205.83
769.492	10241.09
769.828	10245.83
770.164	10178.72
770.5	10140.3
770.836	10151.82
771.171	10056.91
771.507	10082.9
771.842	9954.99
772.178	9989.12
772.513	10032.73
772.849	9985.73
773.184	9936.91
773.519	9903.24
773.855	9882.68
774.19	9816.24
774.525	9855.79
774.86	9813.98
775.195	9836.35
775.53	9700.99
775.865	9728.56
776.2	9645.62
776.535	9573.31
776.87	9641.33
777.205	9553.87
777.539	9504.16
777.874	9512.74
778.209	9427.77
778.543	9426.64
778.878	9363.6
779.212	9372.86
779.547	9298.06
779.881	9314.33
780.215	9325.63
780.55	9309.59
780.884	9219.64
781.218	9198.63
781.552	9227.1
781.886	9114.11
782.22	9117.73
782.554	9074.11
782.888	9004.06
783.222	9020.55
783.556	8944.17
783.889	8981.01
784.223	8932.87
784.557	8841.58
784.89	8923.83
785.224	8877.96
785.557	8828.02
785.891	8810.16
786.224	8722.26
786.558	8717.96
786.891	8705.76
787.224	8674.8
787.557	8660.11
787.891	8684.97
788.224	8617.17
788.557	8596.16
788.89	8617.63
789.223	8575.59
789.556	8471.42
789.888	8485.65
790.221	8471.19
790.554	8480
790.887	8388.93
791.219	8377.41
791.552	8372.44
791.884	8309.16
792.217	8317.52
792.549	8327.92
792.882	8230.52
793.214	8171.08
793.546	8246.11
793.879	8206.79
794.211	8146
794.543	8101.71
794.875	8127.02
795.207	8069.17
795.539	8095.61
795.871	8058.09
796.203	8026.68
796.535	8048.38
796.867	7970.19
797.198	7976.06
797.53	7944.42
797.862	7874.82
798.193	7958.89
798.525	7802.28
798.856	7909.17
799.188	7830.75
799.519	7761.6
799.85	7731.32
800.182	7730.19
800.513	7719.35
800.844	7674.6
801.175	7762.96
801.506	7681.15
801.837	7661.27
802.168	7562.29
802.499	7624.88
802.83	7538.78
803.161	7579.46
803.491	7556.19
803.822	7551.44
804.153	7455.62
804.483	7485.68
804.814	7374.5
805.145	7414.27
805.475	7416.98
805.805	7370.2
806.136	7327.04
806.466	7357.09
806.796	7387.15
807.126	7282.52
807.457	7261.28
807.787	7283.42
808.117	7302.86
808.447	7301.5
808.777	7267.15
809.107	7201.62
809.436	7213.6
809.766	7132.02
810.096	7152.58
810.426	7167.04
810.755	7105.12
811.085	7123.2
811.414	7158.46
811.744	7136.76
812.073	7108.06
812.403	7005.92
812.732	7054.96
813.061	7019.02
813.39	6989.42
813.719	6974.28
814.049	7042.07
814.378	6976.09
814.707	6934.28
815.036	6944
815.365	6913.49
815.693	6876.88
816.022	6907.61
816.351	6871.46
816.68	6866.71
817.008	6826.71
817.337	6755.53
817.665	6737.22
817.994	6791.23
818.322	6786.94
818.651	6723.21
818.979	6699.26
819.307	6757.79
819.636	6737.9
819.964	6678.47
820.292	6737.22
820.62	6736.55
820.948	6692.71
821.276	6709.2
821.604	6689.54
821.932	6686.83
822.259	6693.84
822.587	6711.24
822.915	6660.39
823.243	6680.5
823.57	6681.63
823.898	6684.12
824.225	6676.21
824.553	6684.12
824.88	6658.81
825.207	6712.14
825.535	6678.69
825.862	6682.08
826.189	6677.34
826.516	6689.09
826.843	6728.41
827.17	6707.39
827.497	6704.91
827.824	6650.9
828.151	6728.41
828.478	6639.6
828.805	6749.88
829.131	6673.04
829.458	6649.09
829.785	6599.83
830.111	6711.69
830.438	6721.63
830.764	6664.68
831.09	6698.13
831.417	6665.59
831.743	6635.31
832.069	6687.06
832.395	6652.03
832.722	6642.76
833.048	6682.31
833.374	6678.02
833.7	6629.2
834.026	6636.21
834.351	6691.35
834.677	6656.77
835.003	6697.23
835.329	6603.22
835.654	6560.73
835.98	6614.29
836.306	6652.93
836.631	6594.85
836.956	6624.68
837.282	6653.84
837.607	6570.67
837.932	6536.33
838.258	6597.11
838.583	6556.44
838.908	6546.95
839.233	6560.73
839.558	6489.55
839.883	6488.42
840.208	6529.55
840.533	6478.47
840.858	6504.01
841.182	6464.69
841.507	6449.55
841.832	6453.84
842.156	6441.19
842.481	6459.27
842.805	6409.77
843.13	6382.21
843.454	6355.31
843.778	6333.84
844.103	6326.84
844.427	6317.35
844.751	6305.37
845.075	6351.92
845.399	6311.7
845.723	6281.87
846.047	6256.56
846.371	6183.34
846.695	6196.22
847.019	6192.38
847.343	6102.66
847.666	6148.99
847.99	6111.03
848.313	6092.95
848.637	6078.71
848.96	6053.85
849.284	6065.6
849.607	5989.9
849.931	5995.32
850.254	5925.72
850.577	5916.45
850.9	5905.16
851.223	5865.61
851.546	5841.88
851.869	5839.62
852.192	5824.03
852.515	5781.99
852.838	5798.04
853.161	5787.64
853.483	5800.3
853.806	5762.11
854.129	5718.95
854.451	5731.83
854.774	5689.34
855.096	5673.75
855.419	5621.55
855.741	5628.33
856.063	5672.62
856.385	5603.02
856.708	5588.1
857.03	5576.8
857.352	5558.72
857.674	5552.4
857.996	5516.24
858.318	5490.25
858.64	5529.57
858.961	5453.64
859.283	5484.38
859.605	5477.37
859.926	5429.69
860.248	5457.03
860.57	5442.57
860.891	5446.64
861.212	5405.28
861.534	5382.01
861.855	5354.21
862.176	5376.81
862.498	5350.14
862.819	5357.37
863.14	5354.44
863.461	5344.27
863.782	5352.85
864.103	5331.61
864.424	5309.46
864.745	5334.32
865.065	5295.91
865.386	5263.14
865.707	5278.96
866.027	5229.69
866.348	5248.9
866.668	5231.5
866.989	5242.12
867.309	5198.06
867.63	5213.2
867.95	5262.69
868.27	5226.08
868.59	5223.14
868.91	5209.81
869.23	5202.8
869.55	5121.22
869.87	5193.31
870.19	5216.13
870.51	5177.49
870.83	5188.34
871.15	5101.79
871.469	5114.67
871.789	5185.63
872.109	5121.9
872.428	5114.44
872.748	5152.86
873.067	5088.23
873.386	5139.3
873.706	5109.7
874.025	5123.48
874.344	5053.88
874.663	5050.26
874.982	5046.65
875.301	5062.24
875.62	5086.65
875.939	5016.14
876.258	5025.86
876.577	5033.09
876.896	5052.97
877.214	5015.91
877.533	5033.54
877.852	5001.22
878.17	5006.65
878.489	5045.07
878.807	4981.34
879.125	5012.3
879.444	4945.86
879.762	4986.99
880.08	4965.75
880.398	4908.12
880.716	4917.84
881.034	4888.23
881.352	4950.15
881.67	4887.1
881.988	4885.52
882.306	4890.27
882.624	4872.64
882.941	4853.66
883.259	4860.44
883.577	4876.71
883.894	4857.73
884.212	4805.52
884.529	4792.87
884.846	4818.86
885.164	4783.15
885.481	4808.46
885.798	4766.2
886.115	4743.38
886.432	4793.55
886.75	4768.24
887.067	4768.01
887.383	4737.5
887.7	4754.45
888.017	4689.14
888.334	4704.28
888.651	4725.07
888.967	4676.71
889.284	4729.37
889.6	4681.68
889.917	4678.3
890.233	4651.4
890.55	4680.33
890.866	4592.2
891.182	4579.31
891.498	4578.86
891.815	4604.4
892.131	4587.45
892.447	4565.3
892.763	4522.82
893.079	4522.14
893.395	4530.73
893.71	4491.18
894.026	4481.69
894.342	4485.53
894.657	4508.81
894.973	4426.1
895.289	4465.87
895.604	4443.5
895.92	4431.97
896.235	4411.64
896.55	4437.17
896.865	4354.69
897.181	4336.61
897.496	4426.32
897.811	4344.29
898.126	4335.71
898.441	4318.98
898.756	4281.7
899.071	4305.2
899.386	4276.72
899.7	4218.19
900.015	4195.6
900.33	4203.28
900.644	4187.69
900.959	4279.21
901.273	4173.68
901.588	4186.33
901.902	4140.68
902.216	4121.93
902.531	4123.28
902.845	4148.37
903.159	4092.77
903.473	4126.67
903.787	4089.61
904.101	4072.44
904.415	4067.92
904.729	4033.11
905.042	4056.62
905.356	3977.75
905.67	4016.62
905.984	4005.32
906.297	3959.67
906.611	3951.08
906.924	3965.09
907.237	3941.59
907.551	3910.41
907.864	3906.56
908.177	3885.1
908.491	3895.26
908.804	3888.71
909.117	3844.42
909.43	3847.13
909.743	3810.3
910.056	3787.02
910.368	3814.59
910.681	3773.69
910.994	3764.65
911.307	3758.32
911.619	3712.22
911.932	3745.66
912.244	3718.77
912.557	3711.09
912.869	3690.3
913.181	3635.38
913.494	3689.17
913.806	3614.14
914.118	3651.2
914.43	3610.98
914.742	3602.17
915.054	3595.61
915.366	3592.22
915.678	3560.13
915.99	3527.82
916.302	3544.31
916.613	3511.77
916.925	3481.72
917.236	3525.11
917.548	3470.42
917.859	3484.2
918.171	3491.43
918.482	3425.67
918.794	3436.97
919.105	3433.13
919.416	3379.8
919.727	3397.88
920.038	3377.99
920.349	3344.54
920.66	3361.27
920.971	3367.37
921.282	3345.67
921.593	3326.01
921.903	3298.22
922.214	3271.78
922.525	3314.04
922.835	3291.44
923.146	3252.12
923.456	3243.08
923.767	3239.46
924.077	3217.54
924.387	3213.02
924.697	3183.19
925.008	3209.86
925.318	3140.03
925.628	3157.88
925.938	3183.87
926.248	3124.44
926.558	3096.87
926.867	3103.87
927.177	3110.65
927.487	3080.37
927.796	3110.43
928.106	3092.35
928.416	3058.68
928.725	3021.62
929.034	3030.43
929.344	3041.28
929.653	3018.9
929.962	2952.69
930.271	2945.23
930.581	2959.24
930.89	2955.4
931.199	2927.83
931.508	2907.95
931.817	2918.12
932.125	2913.37
932.434	2933.48
932.743	2856.87
933.051	2842.86
933.36	2867.95
933.669	2811.9
933.977	2853.71
934.286	2843.77
934.594	2822.98
934.902	2788.63
935.21	2738.23
935.519	2773.26
935.827	2768.06
936.135	2745.69
936.443	2756.31
936.751	2745.46
937.059	2717.22
937.367	2701.17
937.674	2709.76
937.982	2704.56
938.29	2689.19
938.597	2686.94
938.905	2642.42
939.213	2639.48
939.52	2657.56
939.827	2667.27
940.135	2617.11
940.442	2632.7
940.749	2595.86
941.056	2587.95
941.363	2555.87
941.67	2600.38
941.977	2543.66
942.284	2528.97
942.591	2538.24
942.898	2569.88
943.205	2507.96
943.511	2521.29
943.818	2518.13
944.125	2486.49
944.431	2528.52
944.738	2469.77
945.044	2455.98
945.35	2457.79
945.657	2471.35
945.963	2451.23
946.269	2440.39
946.575	2415.08
946.881	2432.93
947.187	2418.24
947.493	2392.48
947.799	2406.26
948.105	2382.54
948.41	2367.17
948.716	2383.89
949.022	2360.16
949.327	2343.44
949.633	2308.87
949.938	2314.52
950.244	2324.91
950.549	2261.64
950.854	2261.18
951.16	2286.72
951.465	2302.09
951.77	2272.93
952.075	2248.98
952.38	2257.57
952.685	2273.39
952.99	2255.31
953.294	2220.51
953.599	2211.47
953.904	2212.15
954.209	2176.89
954.513	2201.75
954.818	2156.55
955.122	2154.75
955.426	2165.82
955.731	2159.94
956.035	2171.69
956.339	2133.96
956.643	2138.02
956.948	2145.25
957.252	2113.84
957.556	2142.99
957.86	2072.26
958.163	2083.11
958.467	2062.09
958.771	2077.23
959.075	2088.08
959.378	2081.08
959.682	2074.75
959.985	2057.57
960.289	2035.88
960.592	1999.04
960.896	2019.83
961.199	2026.61
961.502	2027.29
961.805	2014.64
962.108	1980.96
962.411	1977.8
962.714	1941.64
963.017	1969.21
963.32	1970.12
963.623	1961.53
963.926	1943
964.228	1935.09
964.531	1925.83
964.833	1913.85
965.136	1905.26
965.438	1916.56
965.741	1906.16
966.043	1884.47
966.345	1896.9
966.648	1863
966.95	1901.19
967.252	1870.69
967.554	1862.1
967.856	1864.36
968.158	1821.87
968.46	1850.8
968.761	1823.45
969.063	1833.62
969.365	1799.73
969.666	1798.14
969.968	1777.81
970.269	1804.47
970.571	1768.77
970.872	1776.22
971.174	1787.75
971.475	1782.55
971.776	1751.59
972.077	1740.97
972.378	1750.24
972.679	1735.32
972.98	1728.77
973.281	1710.69
973.582	1727.64
973.883	1694.19
974.183	1688.77
974.484	1700.75
974.785	1706.4
975.085	1676.11
975.386	1706.62
975.686	1659.84
975.986	1677.47
976.287	1678.37
976.587	1641.54
976.887	1650.58
977.187	1633.63
977.487	1633.4
977.787	1623.23
978.087	1596.34
978.387	1580.52
978.687	1629.34
978.987	1592.73
979.286	1606.51
979.586	1597.47
979.885	1600.41
980.185	1555.44
980.484	1571.48
980.784	1565.16
981.083	1552.5
981.382	1555.89
981.682	1559.06
981.981	1530.13
982.28	1557.25
982.579	1536.46
982.878	1521.77
983.177	1543.91
983.475	1515.44
983.774	1502.11
984.073	1484.03
984.372	1480.19
984.67	1505.05
984.969	1519.28
985.267	1462.11
985.566	1473.18
985.864	1469.79
986.162	1471.6
986.461	1431.15
986.759	1457.36
987.057	1447.65
987.355	1471.37
987.653	1434.99
987.951	1405.16
988.249	1440.87
988.547	1411.04
988.844	1423.47
989.142	1405.39
989.44	1374.88
989.737	1378.95
990.035	1391.6
990.332	1374.43
990.63	1338.72
990.927	1369.68
991.224	1360.42
991.521	1366.97
991.819	1347.54
992.116	1365.39
992.413	1340.98
992.71	1360.64
993.006	1339.4
993.303	1322.45
993.6	1310.47
993.897	1312.28
994.193	1342.79
994.49	1313.64
994.787	1319.74
995.083	1287.88
995.379	1295.79
995.676	1302.56
995.972	1284.26
996.268	1277.25
996.565	1277.71
996.861	1251.72
997.157	1239.52
997.453	1252.85
997.749	1258.5
998.044	1244.26
998.34	1264.37
998.636	1250.81
998.932	1229.35
999.227	1205.62
999.523	1182.34
999.818	1221.89
1000.114	1219.18
1000.409	1211.49
1000.704	1190.25
1001	1219.63
1001.295	1196.35
1001.59	1187.77
1001.885	1192.74
1002.18	1141.89
1002.475	1177.14
1002.77	1160.87
1003.065	1164.04
1003.359	1153.19
1003.654	1151.61
1003.949	1147.77
1004.243	1153.19
1004.538	1120.87
1004.832	1132.63
1005.127	1103.02
1005.421	1120.65
1005.715	1112.97
1006.009	1114.09
1006.304	1106.41
1006.598	1065.51
1006.892	1100.08
1007.186	1061.44
1007.48	1078.16
1007.773	1095.56
1008.067	1083.81
1008.361	1077.49
1008.655	1064.83
1008.948	1028.22
1009.242	1045.85
1009.535	1034.78
1009.829	1040.65
1010.122	1018.73
1010.415	1024.83
1010.708	1003.14
1011.001	1019.41
1011.295	1028.22
1011.588	992.29
1011.881	1026.41
1012.173	1001.56
1012.466	999.75
1012.759	1006.53
1013.052	987.77
1013.344	986.41
1013.637	1002.91
1013.93	979.64
1014.222	965.17
1014.514	973.08
1014.807	956.36
1015.099	969.24
1015.391	961.1
1015.683	950.71
1015.976	911.16
1016.268	912.52
1016.56	933.08
1016.851	917.72
1017.143	903.71
1017.435	936.92
1017.727	905.74
1018.018	929.47
1018.31	893.54
1018.602	919.98
1018.893	892.18
1019.185	904.61
1019.476	879.52
1019.767	882.24
1020.058	891.5
1020.35	887.43
1020.641	856.25
1020.932	855.8
1021.223	858.28
1021.514	853.08
1021.804	849.24
1022.095	840.2
1022.386	852.86
1022.677	837.94
1022.967	839.07
1023.258	832.97
1023.548	824.39
1023.839	825.74
1024.129	811.73
1024.419	824.61
1024.709	793.43
1025	783.71
1025.29	806.31
1025.58	790.94
1025.87	779.64
1026.16	786.65
1026.449	780.77
1026.739	778.74
1027.029	767.44
1027.319	754.1
1027.608	757.49
1027.898	740.55
1028.187	771.05
1028.477	750.94
1028.766	729.47
1029.055	731.05
1029.344	765.18
1029.634	724.27
1029.923	727.89
1030.212	748.45
1030.501	729.7
1030.79	722.69
1031.078	728.57
1031.367	706.2
1031.656	719.08
1031.945	702.35
1032.233	708
1032.522	695.12
1032.81	705.97
1033.099	681.34
1033.387	690.15
1033.675	705.29
1033.963	684.95
1034.251	700.55
1034.54	669.36
1034.828	661.68
1035.116	668.01
1035.403	667.55
1035.691	665.29
1035.979	669.81
1036.267	663.71
1036.554	677.27
1036.842	649.25
1037.129	652.19
1037.417	636.14
1037.704	645.18
1037.992	664.62
1038.279	632.07
1038.566	636.59
1038.853	636.59
1039.14	636.59
