Data from cardboard_FLMS001491_020.txt Node
Date: Tue Feb 07 11:39:02 GMT 2017
User: dcchb
Spectrometer: FLMS00149
Trigger mode: 0
Integration Time (sec): 2.000000E-2
Scans to average: 10
Electric dark correction enabled: true
Nonlinearity correction enabled: false
Boxcar width: 0
XAxis mode: Wavelengths
Number of Pixels in Spectrum: 2048
>>>>>Begin Spectral Data<<<<<
341.393	-15.38
341.776	-15.38
342.16	-15.38
342.543	-74.36
342.927	-58.32
343.31	-74.59
343.693	-90.18
344.077	-68.49
344.46	-66.68
344.843	-52.44
345.226	-43.4
345.61	-20.8
345.993	-3.18
346.376	8.8
346.759	13.09
347.142	24.62
347.525	24.39
347.908	66.88
348.291	54
348.674	108.01
349.057	119.98
349.44	120.21
349.823	139.64
350.206	168.57
350.588	176.93
350.971	215.57
351.354	241.34
351.737	237.04
352.119	232.07
352.502	254.44
352.884	269.36
353.267	268.91
353.65	291.5
354.032	291.96
354.414	308.45
354.797	307.32
355.179	309.81
355.562	314.55
355.944	319.53
356.326	331.05
356.709	330.15
357.091	335.12
357.473	320.43
357.855	325.85
358.238	332.41
358.62	320.88
359.002	332.18
359.384	329.24
359.766	335.57
360.148	324.72
360.53	334.89
360.912	336.93
361.294	330.82
361.676	334.89
362.057	353.65
362.439	318.85
362.821	315.46
363.203	313.88
363.584	328.56
363.966	322.24
364.348	311.16
364.729	310.26
365.111	323.59
365.493	322.24
365.874	317.72
366.256	319.07
366.637	316.14
367.019	311.62
367.4	334.67
367.781	328.34
368.163	311.84
368.544	294.22
368.925	297.83
369.306	296.7
369.688	313.65
370.069	304.38
370.45	312.97
370.831	309.13
371.212	291.73
371.593	305.74
371.974	290.6
372.355	327.43
372.736	303.03
373.117	293.31
373.498	311.16
373.879	316.81
374.26	305.06
374.641	311.16
375.021	321.79
375.402	327.21
375.783	315.01
376.163	349.58
376.544	323.14
376.925	310.94
377.305	319.98
377.686	308.68
378.066	322.92
378.447	318.17
378.827	327.89
379.208	341.9
379.588	317.94
379.968	331.95
380.349	332.41
380.729	337.83
381.109	326.53
381.489	332.41
381.87	336.93
382.25	343.48
382.63	341.45
383.01	341.9
383.39	345.06
383.77	332.86
384.15	314.55
384.53	347.1
384.91	342.35
385.29	342.35
385.67	329.47
386.049	351.84
386.429	348
386.809	363.59
387.189	326.3
387.568	335.12
387.948	352.97
388.328	366.76
388.707	362.24
389.087	364.04
389.466	353.2
389.846	344.16
390.225	369.47
390.605	348.9
390.984	359.07
391.363	374.44
391.743	355.68
392.122	397.94
392.501	371.05
392.881	376.02
393.26	368.11
393.639	383.25
394.018	364.5
394.397	381.22
394.776	366.98
395.155	364.27
395.534	369.24
395.913	388.22
396.292	398.62
396.671	390.94
397.05	381.22
397.429	388.22
397.808	376.7
398.186	408.34
398.565	385.29
398.944	407.21
399.323	389.81
399.701	395.68
400.08	404.72
400.458	388
400.837	417.6
401.215	406.08
401.594	395.68
401.972	417.38
402.351	396.36
402.729	411.05
403.107	420.99
403.486	418.51
403.864	420.31
404.242	432.29
404.62	430.48
404.999	422.8
405.377	433.87
405.755	456.25
406.133	436.58
406.511	440.43
406.889	445.17
407.267	427.55
407.645	445.4
408.023	443.59
408.401	455.12
408.779	428.22
409.156	437.49
409.534	460.76
409.912	441.33
410.29	465.96
410.667	475
411.045	492.4
411.422	477.49
411.8	478.39
412.178	482.69
412.555	483.36
412.933	484.49
413.31	518.39
413.687	502.12
414.065	484.72
414.442	540.54
414.819	525.62
415.197	521.55
415.574	493.76
415.951	509.58
416.328	523.36
416.705	551.61
417.082	559.29
417.46	538.73
417.837	538.28
418.214	548.9
418.591	566.52
418.967	539.63
419.344	556.58
419.721	568.11
420.098	570.37
420.475	553.19
420.852	540.31
421.228	555
421.605	552.51
421.982	572.17
422.358	581.21
422.735	570.59
423.111	595.9
423.488	597.03
423.864	571.72
424.241	585.28
424.617	610.37
424.994	605.39
425.37	610.82
425.746	606.75
426.123	626.41
426.499	614.88
426.875	630.48
427.251	629.8
427.627	616.24
428.003	648.1
428.379	653.3
428.756	663.02
429.132	653.08
429.507	659.18
429.883	651.72
430.259	692.4
430.635	687.65
431.011	692.17
431.387	712.28
431.763	695.33
432.138	702.79
432.514	720.42
432.89	700.53
433.265	719.06
433.641	737.59
434.016	735.56
434.392	751.15
434.767	738.72
435.143	747.99
435.518	761.55
435.894	777.14
436.269	774.43
436.644	778.04
437.02	788.67
437.395	784.37
437.77	792.96
438.145	812.85
438.52	846.29
438.895	811.49
439.271	828.44
439.646	834.54
440.021	854.43
440.395	839.74
440.77	835.9
441.145	865.05
441.52	878.38
441.895	862.11
442.27	871.83
442.645	885.16
443.019	880.41
443.394	882.22
443.769	880.19
444.143	890.13
444.518	910.7
444.892	896.23
445.267	899.4
445.641	931.26
446.016	937.14
446.39	928.78
446.764	916.35
447.139	937.59
447.513	922.9
447.887	938.94
448.262	951.6
448.636	968.32
449.01	973.29
449.384	961.32
449.758	962.22
450.132	993.18
450.506	974.2
450.88	980.53
451.254	1004.71
451.628	1010.35
452.002	1021.2
452.376	1034.08
452.75	1018.04
453.123	1023.24
453.497	1047.19
453.871	1052.61
454.244	1079.73
454.618	1098.94
454.992	1108.43
455.365	1108.43
455.739	1127.87
456.112	1139.62
456.486	1142.33
456.859	1144.36
457.232	1147.3
457.606	1164.7
457.979	1164.25
458.352	1199.28
458.725	1213.51
459.099	1223.91
459.472	1226.17
459.845	1241.76
460.218	1249.9
460.591	1279.27
460.964	1256.22
461.337	1286.73
461.71	1301.87
462.083	1375.77
462.456	1335.32
462.829	1329.67
463.201	1350.01
463.574	1380.29
463.947	1362.89
464.32	1372.38
464.692	1415.77
465.065	1419.61
465.438	1442.89
465.81	1472.49
466.183	1491.7
466.555	1501.64
466.928	1524.69
467.3	1546.84
467.672	1546.61
468.045	1578.7
468.417	1569.66
468.789	1602.66
469.161	1614.18
469.534	1609.44
469.906	1661.64
470.278	1684.01
470.65	1670.9
471.022	1720.17
471.394	1752.48
471.766	1747.28
472.138	1765.82
472.51	1809.2
472.882	1825.93
473.253	1824.57
473.625	1886.72
473.997	1921.29
474.369	1938.47
474.74	1956.32
475.112	1968.75
475.484	2012.36
475.855	2063.66
476.227	2048.75
476.598	2102.53
476.97	2117.22
477.341	2165.35
477.713	2201.74
478.084	2226.37
478.455	2262.53
478.827	2306.14
479.198	2373.26
479.569	2380.49
479.94	2455.74
480.311	2441.28
480.682	2474.95
481.053	2538.45
481.424	2584.55
481.795	2612.8
482.166	2645.57
482.537	2684.89
482.908	2747.26
483.279	2788.84
483.65	2811.21
484.021	2881.72
484.391	2923.98
484.762	2950.87
485.133	3023.64
485.503	3024.77
485.874	3070.19
486.244	3145.21
486.615	3194.7
486.985	3235.38
487.356	3256.17
487.726	3289.62
488.097	3428.37
488.467	3391.08
488.837	3451.42
489.207	3469.95
489.578	3545.43
489.948	3591.98
490.318	3634.92
490.688	3687.8
491.058	3723.73
491.428	3803.5
491.798	3852.09
492.168	3871.07
492.538	3923.72
492.908	3926.89
493.278	4022.25
493.648	4057.51
494.017	4100.89
494.387	4108.13
494.757	4165.53
495.126	4210.04
495.496	4277.84
495.866	4288.91
496.235	4351.74
496.605	4367.33
496.974	4410.04
497.344	4482.35
497.713	4511.51
498.082	4585.4
498.452	4612.97
498.821	4659.07
499.19	4703.59
499.559	4726.87
499.928	4748.79
500.298	4805.51
500.667	4824.04
501.036	4863.13
501.405	4952.17
501.774	4952.85
502.143	4980.87
502.512	5076.69
502.88	5113.75
503.249	5143.35
503.618	5191.26
503.987	5174.77
504.356	5242.33
504.724	5298.15
505.093	5351.48
505.462	5399.84
505.83	5438.71
506.199	5479.84
506.567	5518.71
506.936	5564.13
507.304	5635.54
507.672	5680.51
508.041	5744.92
508.409	5759.38
508.777	5879.38
509.145	5943.11
509.514	5915.76
509.882	6046.61
510.25	6037.79
510.618	6112.82
510.986	6064.23
511.354	6177
511.722	6256.54
512.09	6282.98
512.458	6316.43
512.826	6420.16
513.193	6456.99
513.561	6510.1
513.929	6597.1
514.297	6635.07
514.664	6731.79
515.032	6775.4
515.4	6834.61
515.767	6824.89
516.135	6913.48
516.502	6907.15
516.869	7060.82
517.237	7121.15
517.604	7105.11
517.972	7219.01
518.339	7280.7
518.706	7244.32
519.073	7375.84
519.44	7472.56
519.808	7539.9
520.175	7586
520.542	7691.99
520.909	7745.54
521.276	7788.93
521.643	7839.78
522.009	7976.73
522.376	8090.39
522.743	8032.77
523.11	8175.14
523.477	8253.33
523.843	8362.03
524.21	8439.99
524.577	8456.26
524.943	8583.04
525.31	8666.88
525.676	8749.36
526.043	8879.07
526.409	8880.88
526.776	8966.76
527.142	9085.17
527.508	9129.69
527.874	9223.02
528.241	9298.05
528.607	9347.99
528.973	9407.87
529.339	9475.22
529.705	9633.4
530.071	9662.56
530.437	9719.73
530.803	9834.08
531.169	9928.09
531.535	10036.33
531.901	10001.53
532.267	10044.69
532.632	10138.25
532.998	10233.16
533.364	10324.46
533.73	10325.59
534.095	10488.07
534.461	10474.29
534.826	10603.77
535.192	10701.85
535.557	10823.66
535.923	10804.9
536.288	10893.48
536.653	10895.74
537.019	10941.85
537.384	11067.49
537.749	11132.35
538.114	11193.36
538.479	11225.68
538.845	11289.41
539.21	11328.05
539.575	11402.17
539.94	11492.11
540.305	11536.18
540.67	11667.48
541.034	11686.46
541.399	11804.65
541.764	11839.67
542.129	11895.49
542.494	11933.68
542.858	11951.31
543.223	12054.13
543.587	12095.71
543.952	12159.44
544.316	12263.39
544.681	12337.29
545.045	12396.72
545.41	12409.38
545.774	12573.67
546.138	12572.31
546.503	12643.04
546.867	12701.12
547.231	12765.98
547.595	12823.6
547.959	12937.5
548.324	12974.11
548.688	13009.59
549.052	13099.08
549.416	13141.56
549.779	13135.23
550.143	13271.5
550.507	13409.8
550.871	13452.97
551.235	13525.28
551.599	13620.87
551.962	13619.97
552.326	13649.12
552.689	13747.42
553.053	13800.53
553.417	13913.07
553.78	14004.82
554.143	14090.91
554.507	14184.7
554.87	14221.76
555.234	14477.8
555.597	14424.92
555.96	14465.82
556.323	14493.62
556.686	14591.69
557.05	14639.6
557.413	14764.8
557.776	14836.88
558.139	14945.13
558.502	14941.97
558.865	15061.96
559.228	15233.94
559.59	15315.52
559.953	15314.84
560.316	15522.97
560.679	15583.08
561.041	15668.27
561.404	15765.67
561.767	15872.11
562.129	15835.05
562.492	16090.18
562.854	16059.9
563.217	16124.99
563.579	16210.18
563.941	16315.26
564.304	16490.17
564.666	16563.84
565.028	16604.75
565.39	16710.28
565.753	16840.22
566.115	16934.46
566.477	17098.52
566.839	17056.94
567.201	17231.85
567.563	17237.5
567.925	17444.05
568.287	17434.56
568.648	17558.17
569.01	17700.54
569.372	17792.74
569.734	17715.68
570.095	17871.38
570.457	17891.27
570.819	17975.56
571.18	18130.58
571.542	18276.12
571.903	18220.3
572.265	18311.14
572.626	18444.25
572.987	18469.1
573.349	18656.44
573.71	18686.95
574.071	18711.36
574.432	18790.68
574.794	19009.2
575.155	18977.79
575.516	18978.92
575.877	19073.38
576.238	19155.19
576.599	19223.89
576.96	19231.57
577.32	19332.81
577.681	19456.2
578.042	19520.6
578.403	19604.67
578.763	19620.49
579.124	19739.13
579.485	19841.27
579.845	19828.17
580.206	19847.15
580.566	19998.78
580.927	19926.69
581.287	20091.89
581.648	20039.01
582.008	20162.85
582.368	20214.37
582.728	20252.79
583.089	20279.68
583.449	20275.16
583.809	20386.12
584.169	20419.79
584.529	20415.95
584.889	20588.6
585.249	20455.27
585.609	20455.27
585.969	20701.36
586.329	20563.51
586.688	20600.12
587.048	20589.28
587.408	20620.01
587.768	20670.18
588.127	20720.12
588.487	20741.14
588.846	20938.42
589.206	20831.08
589.565	20903.17
589.925	21050.73
590.284	20939.32
590.643	20967.34
591.003	21118.53
591.362	21146.55
591.721	20976.84
592.08	21105.19
592.44	21206.21
592.799	21275.58
593.158	21226.09
593.517	21184.74
593.876	21364.85
594.235	21391.97
594.593	21347.67
594.952	21433.77
595.311	21351.51
595.67	21480.78
596.029	21645.52
596.387	21578.4
596.746	21698.85
597.104	21651.39
597.463	21702.01
597.822	21674.9
598.18	21793.31
598.538	21774.55
598.897	21917.83
599.255	21729.58
599.613	22003.7
599.972	21916.7
600.33	21993.76
600.688	21796.7
601.046	22172.51
601.404	22183.81
601.762	22061.33
602.12	22223.36
602.478	22237.14
602.836	22168.89
603.194	22188.33
603.552	22326.18
603.91	22116.01
604.268	22297.03
604.625	22330.25
604.983	22385.61
605.341	22275.11
605.698	22498.6
606.056	22505.83
606.413	22534.08
606.771	22703.57
607.128	22668.99
607.485	22536.12
607.843	22639.39
608.2	22793.96
608.557	22851.14
608.914	22771.59
609.272	22947.18
609.629	22919.61
609.986	23062.43
610.343	22966.84
610.7	23090.23
611.057	23136.1
611.414	23035.99
611.771	23168.42
612.127	23330.9
612.484	23216.32
612.841	23366.6
613.198	23243.22
613.554	23411.35
613.911	23478.46
614.267	23431.01
614.624	23413.16
614.98	23502.87
615.337	23706.03
615.693	23626.26
616.05	23625.13
616.406	23820.15
616.762	23725.92
617.118	23725.24
617.475	23808.17
617.831	23811.79
618.187	23921.62
618.543	23904.89
618.899	24065.57
619.255	23988.28
619.611	24108.96
619.967	24132.01
620.323	24287.48
620.678	24087.04
621.034	24102.18
621.39	24211.33
621.746	24157.54
622.101	24449.51
622.457	24210.2
622.812	24291.55
623.168	24332
623.523	24467.59
623.879	24491.55
624.234	24348.27
624.589	24483.86
624.945	24385.79
625.3	24521.83
625.655	24472.34
626.01	24524.99
626.365	24514.37
626.72	24459
627.075	24509.62
627.43	24593.69
627.785	24454.71
628.14	24607.93
628.495	24542.62
628.85	24489.96
629.205	24551.2
629.559	24618.77
629.914	24497.42
630.269	24571.09
630.623	24477.08
630.978	24572.67
631.332	24726.12
631.687	24658.77
632.041	24445.22
632.396	24600.24
632.75	24629.17
633.104	24683.86
633.459	24576.06
633.813	24594.37
634.167	24524.99
634.521	24521.38
634.875	24456.52
635.229	24404.32
635.583	24527.25
635.937	24476.63
636.291	24400.47
636.645	24490.42
636.999	24367.71
637.352	24435.05
637.706	24303.53
638.06	24444.77
638.413	24516.4
638.767	24328.84
639.121	24389.18
639.474	24267.14
639.828	24353.47
640.181	24381.27
640.534	24388.05
640.888	24334.04
641.241	24322.96
641.594	24297.88
641.947	24330.19
642.301	24241.38
642.654	24276.64
643.007	24422.62
643.36	24335.84
643.713	24148.5
644.066	24388.95
644.419	24210.87
644.771	24168.16
645.124	23880.94
645.477	23767.04
645.83	23642.75
646.182	23627.61
646.535	23594.17
646.888	23544.45
647.24	23593.49
647.593	23566.37
647.945	23599.82
648.298	23481.85
648.65	23439.6
649.002	23395.3
649.355	23499.48
649.707	23518.01
650.059	23650.44
650.411	24014.5
650.763	23880.49
651.115	24116.19
651.467	23988.06
651.819	24107.83
652.171	24077.09
652.523	23987.15
652.875	23916.87
653.227	23984.67
653.578	24083.42
653.93	24108.28
654.282	23936.08
654.633	23904.89
654.985	23908.96
655.337	23986.25
655.688	24026.02
656.039	24066.47
656.391	23872.35
656.742	24071.67
657.094	23971.56
657.445	24094.72
657.796	24045
658.147	24006.59
658.498	24038.45
658.849	23991.67
659.2	24011.56
659.551	23870.77
659.902	24001.61
660.253	23992.35
660.604	24022.41
660.955	23918.45
661.306	24039.35
661.656	24024.21
662.007	24012.46
662.358	23992.8
662.708	24016.76
663.059	24086.81
663.409	23887.49
663.76	24109.63
664.11	24118
664.461	24139.69
664.811	24188.5
665.161	24153.7
665.511	24057.43
665.862	24150.31
666.212	24205.45
666.562	24252.23
666.912	24138.33
667.262	24241.83
667.612	24177.2
667.962	24045
668.312	24111.44
668.662	24211.55
669.011	24139.69
669.361	24084.1
669.711	24094.95
670.06	24058.79
670.41	24105.11
670.76	23993.03
671.109	24106.24
671.459	24084.78
671.808	24070.54
672.157	24006.81
672.507	24005.23
672.856	23989.19
673.205	24113.02
673.554	24191.44
673.904	24079.35
674.253	24243.64
674.602	24146.24
674.951	23799.59
675.3	23769.53
675.649	24114.15
675.998	24021.5
676.346	24044.33
676.695	24197.32
677.044	23897.21
677.393	24066.02
677.741	24060.6
678.09	24068.96
678.438	23973.59
678.787	24082.74
679.135	23995.97
679.484	23790.55
679.832	23925.01
680.181	23904.22
680.529	23854.05
680.877	23899.7
681.225	23863.54
681.573	23983.99
681.922	23877.1
682.27	23687.27
682.618	23851.79
682.966	23725.24
683.314	23862.18
683.661	23664.67
684.009	23552.59
684.357	23544.9
684.705	23520.95
685.053	23588.74
685.4	23632.81
685.748	23397.56
686.095	23423.1
686.443	23411.12
686.79	23329.54
687.138	23250.22
687.485	23389.43
687.832	23266.49
688.18	23356.66
688.527	23294.06
688.874	23177
689.221	23238.7
689.568	23153.05
689.915	23125.03
690.262	23089.55
690.609	23093.84
690.956	23066.27
691.303	23011.58
691.65	22843.9
691.997	22940.17
692.344	22753.06
692.69	22701.54
693.037	22727.07
693.383	22435.33
693.73	22554.87
694.077	22497.93
694.423	22538.6
694.769	22450.02
695.116	22476.91
695.462	22379.96
695.808	22315.33
696.155	22323.24
696.501	22179.06
696.847	22259.51
697.193	22064.72
697.539	22173.64
697.885	21960.76
698.231	21865.85
698.577	21993.31
698.923	21873.31
699.269	21758.74
699.614	21759.64
699.96	21713.54
700.306	21707.21
700.651	21603.03
700.997	21615.46
701.342	21603.03
701.688	21611.4
702.033	21541.57
702.379	21418.86
702.724	21405.52
703.069	21384.06
703.415	21099.77
703.76	21196.94
704.105	21190.84
704.45	21194
704.795	21029.72
705.14	21009.83
705.485	21034.24
705.83	20876.5
706.175	20867.01
706.52	20855.48
706.865	20802.83
707.209	20849.38
707.554	20651.65
707.899	20784.75
708.243	20675.6
708.588	20565.09
708.932	20509.28
709.277	20509.28
709.621	20632.21
709.966	20484.87
710.31	20512.89
710.654	20254.37
710.998	20250.53
711.342	20312.22
711.687	20296.4
712.031	20290.98
712.375	20202.17
712.719	20164.43
713.063	20174.37
713.407	20270.41
713.75	20093.24
714.094	20079.01
714.438	20047.59
714.782	20163.3
715.125	19903.87
715.469	20045.33
715.812	19885.11
716.156	19988.16
716.499	19923.08
716.843	19874.04
717.186	19819.58
717.53	19880.37
717.873	19820.71
718.216	19670.66
718.559	19644.67
718.902	19549.98
719.246	19613.26
719.589	19547.49
719.932	19493.71
720.275	19569.87
720.617	19520.6
720.96	19435.63
721.303	19466.14
721.646	19545.91
721.989	19360.15
722.331	19476.31
722.674	19395.18
723.016	19487.16
723.359	19301.63
723.701	19363.09
724.044	19302.53
724.386	19261.4
724.729	19276.09
725.071	19231.57
725.413	19262.08
725.755	19249.2
726.097	19209.88
726.439	19051.46
726.782	19107.96
727.124	19148.18
727.465	19005.14
727.807	19002.65
728.149	19044.46
728.491	18968.53
728.833	19075.19
729.175	19004.46
729.516	18960.62
729.858	18958.58
730.199	19011.01
730.541	18890.11
730.882	18881.75
731.224	18970.11
731.565	18851.47
731.906	18891.01
732.248	18925.14
732.589	18820.51
732.93	18753.84
733.271	18796.33
733.612	18850.79
733.953	18790.68
734.294	18730.79
734.635	18734.41
734.976	18706.39
735.317	18686.27
735.658	18724.47
735.999	18651.92
736.339	18665.71
736.68	18701.87
737.021	18618.25
737.361	18641.98
737.702	18590.23
738.042	18580.06
738.383	18549.78
738.723	18557.69
739.063	18553.62
739.404	18653.05
739.744	18585.71
740.084	18545.49
740.424	18600.17
740.764	18530.8
741.104	18568.76
741.444	18482.66
741.784	18482.89
742.124	18425.72
742.464	18453.29
742.804	18437.47
743.143	18429.11
743.483	18380.52
743.823	18334.42
744.162	18379.39
744.502	18357.92
744.841	18281.54
745.181	18435.89
745.52	18311.37
745.86	18382.1
746.199	18297.58
746.538	18325.83
746.877	18365.6
747.216	18273.63
747.556	18245.61
747.895	18273.18
748.234	18243.57
748.573	18156.8
748.911	18259.17
749.25	18267.75
749.589	18265.27
749.928	18185.5
750.267	18169
750.605	18160.41
750.944	18129.9
751.283	18063.92
751.621	18062.11
751.96	18151.15
752.298	18156.57
752.636	18105.5
752.975	17921.1
753.313	17952.06
753.651	18110.02
753.989	17891.72
754.327	17917.25
754.666	17929.23
755.004	17891.04
755.342	17917.71
755.679	17881.1
756.017	17867.54
756.355	17878.16
756.693	17828.67
757.031	17893.98
757.368	17769.69
757.706	17746.41
758.044	17688.33
758.381	17733.98
758.719	17726.98
759.056	17632.06
759.394	17689.24
759.731	17568.11
760.068	17500.77
760.405	17466.87
760.743	17440.43
761.08	17461.45
761.417	17377.38
761.754	17298.29
762.091	17432.97
762.428	17237.05
762.765	17189.82
763.102	17282.24
763.438	17136.94
763.775	17154.79
764.112	17111.17
764.449	17112.3
764.785	16997.28
765.122	16901.91
765.458	16908.69
765.795	16871.63
766.131	16874.8
766.467	16829.37
766.804	16724.29
767.14	16703.73
767.476	16775.14
767.812	16605.42
768.148	16672.99
768.485	16576.05
768.821	16476.16
769.157	16481.36
769.492	16440.91
769.828	16439.78
770.164	16279.11
770.5	16250.86
770.836	16239.11
771.171	16215.6
771.507	16111.65
771.842	16079.56
772.178	15997.76
772.513	15946.01
772.849	16001.37
773.184	15843.86
773.519	15885.9
773.855	15766.35
774.19	15756.63
774.525	15720.7
774.86	15693.36
775.195	15677.99
775.53	15601.61
775.865	15510.54
776.2	15325.01
776.535	15295.18
776.87	15348.51
777.205	15342.86
777.539	15246.14
777.874	15288.62
778.209	15085.46
778.543	15114.16
778.878	14970.67
779.212	14993.26
779.547	14884.34
779.881	15013.83
780.215	14849.99
780.55	14811.8
780.884	14726.6
781.218	14774.06
781.552	14677.34
781.886	14664.46
782.22	14570.9
782.554	14534.52
782.888	14388.31
783.222	14358.93
783.556	14308.08
783.889	14307.18
784.223	14172.72
784.557	14221.53
784.89	14243.23
785.224	14152.83
785.557	14103.12
785.891	14130.46
786.224	14025.83
786.558	13974.99
786.891	13940.41
787.224	13815.67
787.557	13800.07
787.891	13849.57
788.224	13784.93
788.557	13735.44
788.89	13706.74
789.223	13673.3
789.556	13578.39
789.888	13503.59
790.221	13541.1
790.554	13317.38
790.887	13462.46
791.219	13380.88
791.552	13336.81
791.884	13285.96
792.217	13198.28
792.549	13161.9
792.882	13072.41
793.214	12968.23
793.546	13078.29
793.879	13011.62
794.211	12947.89
794.543	12981.57
794.875	12922.81
795.207	12899.76
795.539	12881.68
795.871	12838.29
796.203	12800.78
796.535	12747
796.867	12665.42
797.198	12692.08
797.53	12649.6
797.862	12611.18
798.193	12587
798.525	12508.13
798.856	12587.45
799.188	12446.21
799.519	12422.03
799.85	12213.68
800.182	12339.55
800.513	12312.2
800.844	12189.72
801.175	12282.6
801.506	12262.49
801.837	12168.03
802.168	12135.71
802.499	12126.22
802.83	12026.11
803.161	11987.69
803.491	11983.63
803.822	11992.66
804.153	11917.41
804.483	11840.13
804.814	11867.7
805.145	11824.53
805.475	11805.78
805.805	11820.47
806.136	11805.33
806.466	11757.42
806.796	11795.38
807.126	11664.09
807.457	11605.78
807.787	11568.27
808.117	11575.5
808.447	11556.07
808.777	11549.29
809.107	11539.34
809.436	11514.03
809.766	11504.77
810.096	11492.34
810.426	11411.66
810.755	11422.06
811.085	11437.2
811.414	11366.47
811.744	11306.36
812.073	11233.59
812.403	11272.46
812.732	11231.55
813.061	11190.65
813.39	11195.17
813.719	11138
814.049	11189.75
814.378	11149.52
814.707	11049.19
815.036	11109.75
815.365	11004.22
815.693	10906.14
816.022	11000.15
816.351	10904.78
816.68	10888.06
817.008	10925.35
817.337	10836.54
817.665	10810.1
817.994	10836.54
818.322	10776.43
818.651	10740.27
818.979	10718.12
819.307	10707.95
819.636	10761.06
819.964	10719.25
820.292	10677.9
820.62	10710.44
820.948	10616.88
821.276	10704.56
821.604	10643.55
821.932	10617.56
822.259	10589.31
822.587	10625.7
822.915	10600.39
823.243	10618.01
823.57	10513.38
823.898	10646.71
824.225	10539.37
824.553	10584.79
824.88	10593.15
825.207	10636.09
825.535	10606.94
825.862	10698.91
826.189	10546.38
826.516	10691.23
826.843	10657.11
827.17	10582.76
827.497	10640.61
827.824	10630.89
828.151	10691.68
828.478	10561.74
828.805	10690.55
829.131	10660.04
829.458	10601.97
829.785	10545.7
830.111	10496.21
830.438	10616.2
830.764	10652.36
831.09	10656.43
831.417	10510.67
831.743	10640.38
832.069	10627.96
832.395	10580.72
832.722	10606.94
833.048	10586.6
833.374	10609.88
833.7	10519.48
834.026	10539.37
834.351	10536.66
834.677	10521.07
835.003	10582.08
835.329	10498.92
835.654	10519.94
835.98	10456.89
836.306	10425.7
836.631	10447.85
836.956	10504.57
837.282	10521.29
837.607	10404.68
837.932	10452.82
838.258	10390.22
838.583	10395.19
838.908	10331.47
839.233	10343.89
839.558	10364.69
839.883	10324.46
840.208	10304.8
840.533	10255.54
840.858	10321.97
841.182	10283.11
841.507	10264.35
841.832	10255.99
842.156	10221.19
842.481	10190
842.805	10256.44
843.13	10231.36
843.454	10134.63
843.778	10096.44
844.103	10053.96
844.427	10048.08
844.751	10026.84
845.075	9962.21
845.399	9994.98
845.723	9930.8
846.047	9979.38
846.371	9904.36
846.695	9814.87
847.019	9826.17
847.343	9731.26
847.666	9705.04
847.99	9703.23
848.313	9651.03
848.637	9623.69
848.96	9663.23
849.284	9577.81
849.607	9511.15
849.931	9482.9
850.254	9463.24
850.577	9356.12
850.9	9342.79
851.223	9349.8
851.546	9295.11
851.869	9226.18
852.192	9300.31
852.515	9171.27
852.838	9102.12
853.161	9132.63
853.483	9088.11
853.806	9097.6
854.129	8984.83
854.451	9032.29
854.774	8992.97
855.096	9016.92
855.419	8941.22
855.741	8879.07
856.063	8902.8
856.385	8836.14
856.708	8829.36
857.03	8817.61
857.352	8810.15
857.674	8686.99
857.996	8721.34
858.318	8657.16
858.64	8676.59
858.961	8622.36
859.283	8664.16
859.605	8633.21
859.926	8652.41
860.248	8627.33
860.57	8554.56
860.891	8561.79
861.212	8515.69
861.534	8475.7
861.855	8484.73
862.176	8533.77
862.498	8473.44
862.819	8518.41
863.14	8421.46
863.461	8487.45
863.782	8390.05
864.103	8406.09
864.424	8350.5
864.745	8394.12
865.065	8355.25
865.386	8291.29
865.707	8339.88
866.027	8329.03
866.348	8289.94
866.668	8320.9
866.989	8227.57
867.309	8244.29
867.63	8236.83
867.95	8257.85
868.27	8193.44
868.59	8164.74
868.91	8203.16
869.23	8176.27
869.55	8160
869.87	8157.51
870.19	8128.13
870.51	8118.87
870.83	8067.34
871.15	8078.19
871.469	8040.23
871.789	8111.64
872.109	8113.67
872.428	8033.9
872.748	8070.96
873.067	8069.15
873.386	8045.2
873.706	8036.16
874.025	7974.47
874.344	8005.43
874.663	7996.39
874.982	7964.75
875.301	7920.23
875.62	7889.95
875.939	7869.38
876.258	7951.19
876.577	7893.11
876.896	7862.6
877.214	7843.4
877.533	7893.34
877.852	7876.84
878.17	7876.84
878.489	7825.54
878.807	7835.49
879.125	7856.05
879.444	7871.64
879.762	7843.17
880.08	7768.82
880.398	7718.43
880.716	7760.46
881.034	7729.5
881.352	7740.12
881.67	7665.1
881.988	7663.97
882.306	7671.2
882.624	7676.17
882.941	7661.03
883.259	7613.35
883.577	7611.76
883.894	7579.22
884.212	7568.6
884.529	7581.71
884.846	7532.44
885.164	7485.21
885.481	7462.16
885.798	7517.53
886.115	7491.99
886.432	7439.56
886.75	7417.42
887.067	7449.96
887.383	7393.92
887.7	7359.11
888.017	7326.12
888.334	7331.09
888.651	7308.04
888.967	7295.39
889.284	7278.89
889.6	7247.25
889.917	7268.95
890.233	7214.03
890.55	7223.3
890.866	7213.58
891.182	7179.23
891.498	7155.5
891.815	7146.92
892.131	7173.58
892.447	7111.66
892.763	7057.2
893.079	7044.55
893.395	7049.97
893.71	7068.27
894.026	7030.99
894.342	7035.51
894.657	6935.62
894.973	6992.57
895.289	6910.76
895.604	6915.28
895.92	6846.59
896.235	6787.15
896.55	6827.38
896.865	6769.53
897.181	6809.3
897.496	6789.64
897.811	6765.91
898.126	6716.87
898.441	6725.46
898.756	6667.83
899.071	6647.95
899.386	6690.21
899.7	6640.72
900.015	6611.34
900.33	6570.21
900.644	6488.4
900.959	6563.66
901.273	6496.76
901.588	6462.19
901.902	6457.9
902.216	6419.03
902.531	6410.44
902.845	6417.67
903.159	6394.39
903.473	6392.59
903.787	6372.25
904.101	6239.14
904.415	6280.5
904.729	6235.08
905.042	6221.29
905.356	6205.7
905.67	6163.67
905.984	6222.2
906.297	6188.98
906.611	6101.29
906.924	6124.34
907.237	6087.06
907.551	6095.42
907.864	6080.28
908.177	5984.91
908.491	6004.12
908.804	5981.52
909.117	5991.92
909.43	5941.07
909.743	5925.03
910.056	5932.03
910.368	5847.52
910.681	5872.83
910.994	5834.86
911.307	5824.24
911.619	5766.16
911.932	5792.38
912.244	5741.76
912.557	5765.03
912.869	5699.05
913.181	5667.41
913.494	5669.22
913.806	5590.35
914.118	5597.58
914.43	5567.98
914.742	5572.72
915.054	5552.61
915.366	5501.54
915.678	5469.22
915.99	5482.33
916.302	5452.05
916.613	5462.22
916.925	5377.02
917.236	5405.27
917.548	5367.98
917.859	5365.95
918.171	5282.11
918.482	5323.46
918.794	5328.43
919.105	5259.51
919.416	5266.74
919.727	5202.56
920.038	5207.98
920.349	5190.58
920.66	5162.34
920.971	5166.4
921.282	5150.81
921.593	5084.82
921.903	5015.45
922.214	5039.18
922.525	5050.93
922.835	5060.19
923.146	4983.36
923.456	4958.5
923.767	4947.43
924.077	4929.57
924.387	4897.03
924.697	4864.49
925.008	4862.68
925.318	4847.77
925.628	4844.38
925.938	4853.87
926.248	4810.71
926.558	4756.92
926.867	4738.17
927.177	4739.3
927.487	4695.68
927.796	4709.24
928.106	4689.81
928.416	4665.63
928.725	4634.67
929.034	4663.59
929.344	4636.02
929.653	4579.07
929.962	4556.7
930.271	4568.45
930.581	4457.72
930.89	4525.29
931.199	4479.64
931.508	4475.35
931.817	4472.41
932.125	4408.68
932.434	4455.46
932.743	4400.32
933.051	4417.72
933.36	4369.14
933.669	4333.21
933.977	4357.61
934.286	4309.48
934.594	4296.14
934.902	4295.47
935.21	4280.55
935.519	4263.6
935.827	4281.23
936.135	4229.93
936.443	4159.2
936.751	4180.67
937.059	4139.09
937.367	4124.17
937.674	4137.28
937.982	4090.27
938.29	4122.14
938.597	4080.1
938.905	4054.79
939.213	4032.65
939.52	4014.34
939.827	4038.98
940.135	3993.33
940.442	3930.28
940.749	3978.41
941.056	3990.62
941.363	3886.21
941.67	3930.73
941.977	3889.38
942.284	3899.32
942.591	3841.69
942.898	3856.38
943.205	3824.29
943.511	3831.3
943.818	3814.8
944.125	3748.14
944.431	3774.12
944.738	3746.1
945.044	3738.64
945.35	3732.32
945.657	3690.74
945.963	3687.35
946.269	3677.63
946.575	3695.93
946.881	3616.39
947.187	3654.81
947.493	3642.15
947.799	3620.91
948.105	3645.09
948.41	3575.49
948.716	3553.11
949.022	3546.79
949.327	3558.54
949.633	3552.21
949.938	3459.1
950.244	3500.23
950.549	3475.83
950.854	3453
951.16	3452.55
951.465	3413.91
951.77	3440.12
952.075	3394.25
952.38	3394.7
952.685	3369.84
952.99	3353.34
953.294	3338.2
953.599	3314.93
953.904	3314.25
954.209	3309.96
954.513	3306.34
954.818	3280.8
955.122	3265.44
955.426	3258.88
955.731	3219.34
956.035	3211.65
956.339	3231.31
956.643	3240.8
956.948	3189.28
957.252	3159.9
957.556	3158.32
957.86	3123.97
958.163	3133.24
958.467	3113.12
958.771	3120.58
959.075	3079.68
959.378	3102.28
959.682	3075.16
959.985	3063.63
960.289	3016.86
960.592	3008.72
960.896	2995.16
961.199	3006.23
961.502	3005.78
961.805	2979.34
962.108	2975.95
962.411	2949.29
962.714	2947.03
963.017	2926.69
963.32	2903.86
963.623	2883.07
963.926	2929.85
964.228	2894.83
964.531	2837.43
964.833	2872
965.136	2837.65
965.438	2856.41
965.741	2828.39
966.043	2809.18
966.345	2783.64
966.648	2771.89
966.95	2801.95
967.252	2742.74
967.554	2770.99
967.856	2701.38
968.158	2728.5
968.46	2717.88
968.761	2683.53
969.063	2701.61
969.365	2682.85
969.666	2699.8
969.968	2673.36
970.269	2643.98
970.571	2649.63
970.872	2660.93
971.174	2630.2
971.475	2648.73
971.776	2601.95
972.077	2552.46
972.378	2565.34
972.679	2573.25
972.98	2563.31
973.281	2513.14
973.582	2543.42
973.883	2531.9
974.183	2491.45
974.484	2475.85
974.785	2466.81
975.085	2491.22
975.386	2464.55
975.686	2445.12
975.986	2439.24
976.287	2429.07
976.587	2437.44
976.887	2428.62
977.187	2402.86
977.487	2398.11
977.787	2413.48
978.087	2365.8
978.387	2395.86
978.687	2364.44
978.987	2343.88
979.286	2334.39
979.586	2335.52
979.885	2321.28
980.185	2298
980.484	2307.72
980.784	2318.79
981.083	2251.68
981.382	2281.28
981.682	2281.96
981.981	2244.67
982.28	2244.67
982.579	2218.01
982.878	2243.09
983.177	2238.8
983.475	2221.85
983.774	2194.05
984.073	2178.69
984.372	2187.05
984.67	2173.26
984.969	2165.13
985.267	2174.39
985.566	2139.14
985.864	2128.97
986.162	2103.66
986.461	2100.5
986.759	2144.11
987.057	2083.55
987.355	2074.96
987.653	2058.69
987.951	2038.35
988.249	2064.56
988.547	2094.39
988.844	2075.64
989.142	2063.21
989.44	1999.03
989.737	1997.9
990.035	1993.15
990.332	1986.37
990.63	2004.23
990.927	1975.3
991.224	1996.54
991.521	1964.91
991.819	1967.17
992.116	1951.57
992.413	1916.09
992.71	1938.47
993.006	1908.18
993.303	1900.05
993.6	1933.95
993.897	1909.99
994.193	1870.9
994.49	1888.98
994.787	1842.88
995.083	1860.95
995.379	1828.64
995.676	1851.46
995.972	1886.72
996.268	1833.84
996.565	1813.05
996.861	1797.68
997.157	1802.65
997.453	1806.94
997.749	1789.32
998.044	1762.88
998.34	1759.71
998.636	1778.02
998.932	1747.51
999.227	1741.86
999.523	1733.05
999.818	1730.56
1000.114	1713.61
1000.409	1717.23
1000.704	1686.72
1001	1707.06
1001.295	1687.17
1001.59	1672.48
1001.885	1689.88
1002.18	1644.01
1002.475	1643.56
1002.77	1645.59
1003.065	1643.11
1003.359	1629.1
1003.654	1624.12
1003.949	1608.98
1004.243	1576.89
1004.538	1596.55
1004.832	1586.38
1005.127	1569.89
1005.421	1566.72
1005.715	1562.88
1006.009	1553.84
1006.304	1524.47
1006.598	1552.94
1006.892	1524.24
1007.186	1512.49
1007.48	1522.66
1007.773	1477.46
1008.067	1464.81
1008.361	1490.34
1008.655	1496.9
1008.948	1473.62
1009.242	1481.75
1009.535	1460.06
1009.829	1455.99
1010.122	1447.18
1010.415	1433.17
1010.708	1407.86
1011.001	1443.79
1011.295	1404.47
1011.588	1409.21
1011.881	1390.91
1012.173	1367.41
1012.466	1382.55
1012.759	1354.07
1013.052	1352.94
1013.344	1366.73
1013.637	1340.52
1013.93	1345.71
1014.222	1361.76
1014.514	1324.7
1014.807	1319.27
1015.099	1316.34
1015.391	1317.92
1015.683	1281.08
1015.976	1297.58
1016.268	1290.57
1016.56	1273.62
1016.851	1276.34
1017.143	1266.85
1017.435	1279.05
1017.727	1245.15
1018.018	1222.78
1018.31	1243.12
1018.602	1208.32
1018.893	1225.04
1019.185	1233.4
1019.476	1201.54
1019.767	1191.14
1020.058	1198.37
1020.35	1161.76
1020.641	1162.22
1020.932	1173.51
1021.223	1166.96
1021.514	1171.48
1021.804	1138.26
1022.095	1154.76
1022.386	1114.53
1022.677	1102.33
1022.967	1125.83
1023.258	1122.89
1023.548	1123.12
1023.839	1083.57
1024.129	1100.3
1024.419	1086.06
1024.709	1079.28
1025	1070.69
1025.29	1050.13
1025.58	1052.16
1025.87	1047.87
1026.16	1047.87
1026.449	1062.1
1026.739	1050.13
1027.029	1035.66
1027.319	1020.75
1027.608	1020.98
1027.898	1028.66
1028.187	1009.9
1028.477	992.28
1028.766	995.44
1029.055	956.34
1029.344	981.88
1029.634	971.26
1029.923	970.13
1030.212	982.56
1030.501	944.37
1030.79	952.05
1031.078	935.1
1031.367	946.4
1031.656	934.65
1031.945	930.36
1032.233	946.85
1032.522	923.13
1032.81	921.32
1033.099	909.11
1033.387	917.25
1033.675	909.34
1033.963	893.97
1034.251	877.25
1034.54	864.82
1034.828	881.77
1035.116	863.24
1035.403	877.25
1035.691	858.95
1035.979	870.92
1036.267	866.86
1036.554	874.99
1036.842	839.74
1037.129	844.03
1037.417	833.64
1037.704	833.41
1037.992	810.81
1038.279	839.29
1038.566	811.94
1038.853	811.94
1039.14	811.94
