Data from cardboard_FLMS001491_043.txt Node
Date: Tue Feb 07 11:39:30 GMT 2017
User: dcchb
Spectrometer: FLMS00149
Trigger mode: 0
Integration Time (sec): 2.000000E-2
Scans to average: 10
Electric dark correction enabled: true
Nonlinearity correction enabled: false
Boxcar width: 0
XAxis mode: Wavelengths
Number of Pixels in Spectrum: 2048
>>>>>Begin Spectral Data<<<<<
341.393	-17.1
341.776	-17.1
342.16	-17.1
342.543	-73.37
342.927	-77.67
343.31	-66.14
343.693	-74.73
344.077	-67.5
344.46	-54.17
344.843	-80.38
345.226	-45.13
345.61	-28.4
345.993	-17.56
346.376	-2.64
346.759	13.18
347.142	30.8
347.525	56.11
347.908	40.3
348.291	97.24
348.674	90.69
349.057	108.32
349.44	126.85
349.823	162.1
350.206	165.26
350.588	181.31
350.971	196.22
351.354	219.73
351.737	228.77
352.119	238.48
352.502	264.47
352.884	256.34
353.267	285.26
353.65	305.15
354.032	293.17
354.414	297.69
354.797	313.96
355.179	301.76
355.562	315.77
355.944	320.74
356.326	311.25
356.709	333.4
357.091	314.19
357.473	312.83
357.855	340.4
358.238	332.49
358.62	332.49
359.002	325.49
359.384	333.62
359.766	317.35
360.148	335.2
360.53	345.82
360.912	322.55
361.294	332.94
361.676	334.98
362.057	327.52
362.439	323.68
362.821	324.13
363.203	330.91
363.584	299.5
363.966	297.24
364.348	316.22
364.729	316.67
365.111	308.99
365.493	295.2
365.874	291.14
366.256	312.38
366.637	301.08
367.019	308.76
367.4	312.15
367.781	306.05
368.163	298.82
368.544	305.15
368.925	310.34
369.306	293.85
369.688	288.65
370.069	305.83
370.45	292.27
370.831	289.78
371.212	300.4
371.593	290.23
371.974	308.31
372.355	296.11
372.736	301.98
373.117	313.51
373.498	322.1
373.879	289.78
374.26	307.86
374.641	295.2
375.021	285.49
375.402	271.93
375.783	302.89
376.163	310.34
376.544	313.51
376.925	328.2
377.305	316.9
377.686	316.22
378.066	315.54
378.447	306.73
378.827	305.6
379.208	309.67
379.588	298.59
379.968	312.83
380.349	331.14
380.729	315.99
381.109	311.7
381.489	326.39
381.87	337.24
382.25	299.5
382.63	320.51
383.01	311.02
383.39	330.46
383.77	326.84
384.15	301.76
384.53	322.55
384.91	305.37
385.29	354.64
385.67	324.58
386.049	329.33
386.429	337.46
386.809	325.94
387.189	310.57
387.568	333.4
387.948	317.58
388.328	343.79
388.707	359.84
389.087	355.32
389.466	355.77
389.846	345.82
390.225	347.41
390.605	351.93
390.984	332.04
391.363	365.94
391.743	353.51
392.122	336.56
392.501	344.02
392.881	325.94
393.26	352.6
393.639	355.09
394.018	331.36
394.397	348.76
394.776	342.89
395.155	357.8
395.534	334.53
395.913	352.83
396.292	358.48
396.671	361.19
397.05	355.77
397.429	370.68
397.808	358.93
398.186	369.1
398.565	348.54
398.944	356.22
399.323	358.93
399.701	364.58
400.08	349.44
400.458	361.87
400.837	382.43
401.215	370
401.594	376.11
401.972	370.23
402.351	377.24
402.729	384.24
403.107	364.58
403.486	383.79
403.864	376.11
404.242	412.49
404.62	396.44
404.999	373.62
405.377	382.89
405.755	397.12
406.133	398.93
406.511	397.35
406.889	385.82
407.267	403.45
407.645	392.83
408.023	387.41
408.401	396.22
408.779	377.91
409.156	411.36
409.534	427.18
409.912	432.6
410.29	413.39
410.667	408.87
411.045	438.25
411.422	427.63
411.8	422.66
412.178	450.45
412.555	422.88
412.933	407.52
413.31	448.87
413.687	419.04
414.065	437.57
414.442	438.25
414.819	431.47
415.197	438.25
415.574	432.83
415.951	432.83
416.328	450.23
416.705	437.35
417.082	422.88
417.46	453.62
417.837	474.63
418.214	447.74
418.591	432.6
418.967	467.4
419.344	457.46
419.721	462.43
420.098	474.63
420.475	464.01
420.852	462.88
421.228	465.6
421.605	476.89
421.982	460.17
422.358	467.4
422.735	502.2
423.111	484.13
423.488	474.63
423.864	496.55
424.241	487.97
424.617	502.2
424.994	490.68
425.37	505.14
425.746	491.36
426.123	504.01
426.499	507.4
426.875	506.27
427.251	509.66
427.627	519.83
428.003	524.12
428.379	522.32
428.756	527.97
429.132	530
429.507	531.81
429.883	523.9
430.259	543.56
430.635	544.92
431.011	536.33
431.387	562.54
431.763	554.41
432.138	567.29
432.514	561.41
432.89	558.93
433.265	588.3
433.641	563.45
434.016	597.34
434.392	593.05
434.767	584.24
435.143	594.18
435.518	598.02
435.894	607.96
436.269	612.03
436.644	632.6
437.02	628.98
437.395	613.61
437.77	637.12
438.145	619.49
438.52	661.97
438.895	640.73
439.271	659.04
439.646	648.87
440.021	642.09
440.395	638.7
440.77	655.87
441.145	651.58
441.52	665.82
441.895	642.77
442.27	666.49
442.645	674.4
443.019	671.47
443.394	673.27
443.769	690.9
444.143	694.74
444.518	676.21
444.892	690.67
445.267	685.25
445.641	687.96
446.016	683.67
446.39	699.04
446.764	726.61
447.139	717.57
447.513	728.19
447.887	711.69
448.262	712.59
448.636	746.49
449.01	750.79
449.384	740.16
449.758	734.74
450.132	762.76
450.506	754.63
450.88	736.1
451.254	752.14
451.628	757.34
452.002	757.11
452.376	790.11
452.75	795.98
453.123	790.11
453.497	797.11
453.871	797.56
454.244	827.62
454.618	826.72
454.992	828.07
455.365	829.65
455.739	835.75
456.112	857.68
456.486	859.03
456.859	869.65
457.232	834.4
457.606	841.4
457.979	874.4
458.352	894.51
458.725	907.39
459.099	905.13
459.472	914.85
459.845	916.43
460.218	929.31
460.591	945.81
460.964	935.19
461.337	935.87
461.71	971.8
462.083	979.03
462.456	970.21
462.829	968.18
463.201	975.41
463.574	991.68
463.947	1004.11
464.32	1033.26
464.692	1034.39
465.065	1042.98
465.438	1041.4
465.81	1038.91
466.183	1061.74
466.555	1087.27
466.928	1092.7
467.3	1090.44
467.672	1073.71
468.045	1125.24
468.417	1124.11
468.789	1152.58
469.161	1132.24
469.534	1170.66
469.906	1175.18
470.278	1200.27
470.65	1179.47
471.022	1203.43
471.394	1207.5
471.766	1251.56
472.138	1262.86
472.51	1274.84
472.882	1275.07
473.253	1316.42
473.625	1287.95
473.997	1341.73
474.369	1364.55
474.74	1357.78
475.112	1391.9
475.484	1416.53
475.855	1411.33
476.227	1445.68
476.598	1469.41
476.97	1482.07
477.341	1529.52
477.713	1553.25
478.084	1537.43
478.455	1575.17
478.827	1593.7
479.198	1601.84
479.569	1610.2
479.94	1666.02
480.311	1674.6
480.682	1681.61
481.053	1762.06
481.424	1761.83
481.795	1775.62
482.166	1810.19
482.537	1809.29
482.908	1851.32
483.279	1882.28
483.65	1937.87
484.021	1962.5
484.391	1962.28
484.762	2015.61
485.133	1994.14
485.503	2038.89
485.874	2073.69
486.244	2101.71
486.615	2118.21
486.985	2110.3
487.356	2193.46
487.726	2174.93
488.097	2267.36
488.467	2256.06
488.837	2301.71
489.207	2323.17
489.578	2378.54
489.948	2387.13
490.318	2416.28
490.688	2369.95
491.058	2467.35
491.428	2495.37
491.798	2516.61
492.168	2570.62
492.538	2581.92
492.908	2643.39
493.278	2643.39
493.648	2681.58
494.017	2696.95
494.387	2745.54
494.757	2734.46
495.126	2751.41
495.496	2783.95
495.866	2833.89
496.235	2829.37
496.605	2848.36
496.974	2892.65
497.344	2935.59
497.713	2910.05
498.082	2958.41
498.452	3011.74
498.821	3050.61
499.19	3046.32
499.559	3087.22
499.928	3107.79
500.298	3105.07
500.667	3179.2
501.036	3204.05
501.405	3211.96
501.774	3218.52
502.143	3285.41
502.512	3257.61
502.88	3256.26
503.249	3286.76
503.618	3332.64
503.987	3387.78
504.356	3403.37
504.724	3399.76
505.093	3430.71
505.462	3415.8
505.83	3495.57
506.199	3533.09
506.567	3609.47
506.936	3574.44
507.304	3639.75
507.672	3653.53
508.041	3675.91
508.409	3719.52
508.777	3753.19
509.145	3795.9
509.514	3814.21
509.882	3819.86
510.25	3871.38
510.618	3853.75
510.986	3886.97
511.354	3981.66
511.722	4006.52
512.09	4073.41
512.458	4067.99
512.826	4082.22
513.193	4097.82
513.561	4173.97
513.929	4182.33
514.297	4188.44
514.664	4254.87
515.032	4280.64
515.4	4316.12
515.767	4383.68
516.135	4409.45
516.502	4376.45
516.869	4456
517.237	4540.52
517.604	4518.82
517.972	4608.31
518.339	4598.59
518.706	4631.81
519.073	4642.21
519.44	4698.93
519.808	4740.51
520.175	4790.91
520.542	4809.21
520.909	4834.75
521.276	4912.26
521.643	4952.71
522.009	4996.55
522.376	5054.85
522.743	5064.57
523.11	5117.22
523.477	5134.85
523.843	5223.66
524.21	5250.78
524.577	5337.78
524.943	5376.43
525.31	5387.73
525.676	5470.44
526.043	5502.98
526.409	5507.72
526.776	5602.41
527.142	5626.82
527.508	5667.04
527.874	5743.65
528.241	5810.31
528.607	5774.16
528.973	5866.13
529.339	5888.28
529.705	5934.83
530.071	6018.22
530.437	6044.66
530.803	6078.55
531.169	6165.11
531.535	6129.4
531.901	6195.39
532.267	6291.88
532.632	6260.92
532.998	6340.47
533.364	6377.98
533.73	6415.72
534.095	6463.4
534.461	6474.93
534.826	6505.44
535.192	6575.94
535.557	6620.91
535.923	6681.93
536.288	6716.96
536.653	6724.19
537.019	6732.32
537.384	6744.3
537.749	6837.86
538.114	6888.93
538.479	6880.12
538.845	6883.73
539.21	6933
539.575	6986.1
539.94	7070.17
540.305	7090.51
540.67	7102.93
541.034	7139.54
541.399	7200.33
541.764	7163.27
542.129	7233.55
542.494	7280.78
542.858	7344.51
543.223	7358.75
543.587	7415.24
543.952	7463.83
544.316	7477.61
544.681	7505.86
545.045	7479.65
545.41	7563.71
545.774	7648.23
546.138	7593.09
546.503	7674.9
546.867	7703.37
547.231	7792.86
547.595	7794.22
547.959	7831.28
548.324	7855.23
548.688	7905.4
549.052	7970.48
549.416	7928.22
549.779	7975.91
550.143	8010.93
550.507	8151.95
550.871	8119.86
551.235	8124.38
551.599	8194.21
551.962	8275.79
552.326	8294.77
552.689	8395.33
553.053	8377.03
553.417	8403.92
553.78	8492.28
554.143	8494.08
554.507	8518.49
554.87	8615.21
555.234	8776.11
555.597	8726.39
555.96	8718.26
556.323	8772.5
556.686	8799.61
557.05	8898.59
557.413	8973.39
557.776	8965.03
558.139	9103.11
558.502	9081.64
558.865	9062.43
559.228	9163.45
559.59	9218.81
559.953	9229.88
560.316	9353.27
560.679	9411.12
561.041	9465.36
561.404	9440.27
561.767	9512.14
562.129	9602.3
562.492	9687.95
562.854	9711.68
563.217	9746.03
563.579	9754.16
563.941	9803.43
564.304	9881.17
564.666	9999.13
565.028	9989.64
565.39	9996.64
565.753	10125.68
566.115	10147.6
566.477	10211.78
566.839	10294.04
567.201	10290.42
567.563	10339.23
567.925	10476.63
568.287	10471.89
568.648	10506.46
569.01	10494.48
569.372	10693.57
569.734	10662.84
570.095	10721.37
570.457	10750.75
570.819	10814.25
571.18	10854.7
571.542	10908.71
571.903	10939.67
572.265	11008.37
572.626	10995.71
572.987	11101.02
573.349	11095.37
573.71	11121.36
574.071	11169.04
574.432	11259.66
574.794	11365.65
575.155	11347.34
575.516	11382.6
575.877	11447.23
576.238	11523.38
576.599	11498.3
576.96	11560.44
577.32	11524.29
577.681	11642.02
578.042	11706.2
578.403	11729.48
578.763	11700.78
579.124	11712.08
579.485	11801.34
579.845	11839.76
580.206	11864.39
580.566	11854.22
580.927	11870.27
581.287	11973.99
581.648	11893.32
582.008	12053.54
582.368	11988
582.728	11979.87
583.089	12077.04
583.449	12104.84
583.809	12076.14
584.169	12143.03
584.529	12106.19
584.889	12160.2
585.249	12189.35
585.609	12171.73
585.969	12260.54
586.329	12296.47
586.688	12346.64
587.048	12229.58
587.408	12282.46
587.768	12319.29
588.127	12310.48
588.487	12329.46
588.846	12428.67
589.206	12410.14
589.565	12402.91
589.925	12559.74
590.284	12499.4
590.643	12550.7
591.003	12531.04
591.362	12570.59
591.721	12603.36
592.08	12585.28
592.44	12549.57
592.799	12618.27
593.158	12636.57
593.517	12625.5
593.876	12703.69
594.235	12674.77
594.593	12698.72
594.952	12801.54
595.311	12763.35
595.67	12749.57
596.029	12849.68
596.387	12780.07
596.746	12842.9
597.104	12794.76
597.463	12863.91
597.822	12931.93
598.18	12941.65
598.538	12854.2
598.897	13022.1
599.255	12825.95
599.613	13065.94
599.972	12890.35
600.33	13045.6
600.688	12885.38
601.046	12963.8
601.404	13086.51
601.762	13070.24
602.12	13196.56
602.478	13128.54
602.836	13121.53
603.194	13184.13
603.552	13178.03
603.91	13087.18
604.268	13192.72
604.625	13206.95
604.983	13253.06
605.341	13220.51
605.698	13348.19
606.056	13317.01
606.413	13371.02
606.771	13305.48
607.128	13446.72
607.485	13384.13
607.843	13371.02
608.2	13470.68
608.557	13544.57
608.914	13462.77
609.272	13599.71
609.629	13607.62
609.986	13630.67
610.343	13564.23
610.7	13722.65
611.057	13632.25
611.414	13724.46
611.771	13720.61
612.127	13754.06
612.484	13755.87
612.841	13826.83
613.198	13769.65
613.554	13811.68
613.911	13833.38
614.267	13881.06
614.624	13829.31
614.98	13954.73
615.337	13900.5
615.693	14018.46
616.05	14039.7
616.406	13967.39
616.762	14045.13
617.118	14024.11
617.475	14064.79
617.831	14099.13
618.187	14123.09
618.543	14231.11
618.899	14232.92
619.255	14271.79
619.611	14293.48
619.967	14180.04
620.323	14309.3
620.678	14363.31
621.034	14280.83
621.39	14336.42
621.746	14271.33
622.101	14452.12
622.457	14344.78
622.812	14341.39
623.168	14444.66
623.523	14509.07
623.879	14460.03
624.234	14405.79
624.589	14555.39
624.945	14573.25
625.3	14533.02
625.655	14558.33
626.01	14497.99
626.365	14604.66
626.72	14585.68
627.075	14626.35
627.43	14489.41
627.785	14533.25
628.14	14549.97
628.495	14515.4
628.85	14637.65
629.205	14529.18
629.559	14618.9
629.914	14547.71
630.269	14580.03
630.623	14546.81
630.978	14565.56
631.332	14631.1
631.687	14718.78
632.041	14546.81
632.396	14593.13
632.75	14539.8
633.104	14615.28
633.459	14536.19
633.813	14511.78
634.167	14529.41
634.521	14515.85
634.875	14577.09
635.229	14528.28
635.583	14415.74
635.937	14487.15
636.291	14536.19
636.645	14484.89
636.999	14419.35
637.352	14509.75
637.706	14468.16
638.06	14529.86
638.413	14462.52
638.767	14426.81
639.121	14428.84
639.474	14493.25
639.828	14462.06
640.181	14321.73
640.534	14484.89
640.888	14466.58
641.241	14372.35
641.594	14455.96
641.947	14387.26
642.301	14319.02
642.654	14475.62
643.007	14389.75
643.36	14455.28
643.713	14399.01
644.066	14426.36
644.419	14359.24
644.771	14197.89
645.124	14105.91
645.477	14145.01
645.83	14039.93
646.182	13948.63
646.535	13896.65
646.888	14019.14
647.24	13905.02
647.593	14101.17
647.945	13977.78
648.298	13887.16
648.65	13786.6
649.002	13770.78
649.355	13961.06
649.707	13919.7
650.059	14004.45
650.411	14175.97
650.763	14224.33
651.115	14331.9
651.467	14241.5
651.819	14325.34
652.171	14308.85
652.523	14229.08
652.875	14225.01
653.227	14201.51
653.578	14312.46
653.93	14297.77
654.282	14208.06
654.633	14201.96
654.985	14260.94
655.337	14241.05
655.688	14184.56
656.039	14268.17
656.391	14166.7
656.742	14239.02
657.094	14239.7
657.445	14220.26
657.796	14183.88
658.147	14270.88
658.498	14296.42
658.849	14265.46
659.2	14218.23
659.551	14185.46
659.902	14307.72
660.253	14241.5
660.604	14218.68
660.955	14200.38
661.306	14289.41
661.656	14173.03
662.007	14366.25
662.358	14264.55
662.708	14239.24
663.059	14286.93
663.409	14154.73
663.76	14342.52
664.11	14246.48
664.461	14366.25
664.811	14308.62
665.161	14237.89
665.511	14151.79
665.862	14382.29
666.212	14319.24
666.562	14355.4
666.912	14273.59
667.262	14219.81
667.612	14311.11
667.962	14339.13
668.312	14277.66
668.662	14353.59
669.011	14319.47
669.361	14318.56
669.711	14315.4
670.06	14239.02
670.41	14341.84
670.76	14347.26
671.109	14351.11
671.459	14363.53
671.808	14326.93
672.157	14268.85
672.507	14218.68
672.856	14224.1
673.205	14222.07
673.554	14255.74
673.904	14190.21
674.253	14283.08
674.602	14245.12
674.951	14088.97
675.3	14001.74
675.649	14267.94
675.998	14248.51
676.346	14271.11
676.695	14217.55
677.044	14266.81
677.393	14271.79
677.741	14218.23
678.09	14286.7
678.438	14136.65
678.787	14215.52
679.135	14293.71
679.484	14148.63
679.832	14223.65
680.181	14111.34
680.529	14215.74
680.877	14196.76
681.225	14135.07
681.573	14198.34
681.922	14163.09
682.27	14062.98
682.618	14130.09
682.966	14114.05
683.314	14133.48
683.661	14063.2
684.009	13942.53
684.357	13980.27
684.705	14035.41
685.053	13975.75
685.4	13994.73
685.748	13980.04
686.095	13897.33
686.443	13894.17
686.79	13845.13
687.138	13963.09
687.485	13955.18
687.832	13845.13
688.18	13875.86
688.527	13800.84
688.874	13801.74
689.221	13789.09
689.568	13799.48
689.915	13659.82
690.262	13663.67
690.609	13597
690.956	13561.07
691.303	13628.41
691.65	13602.88
691.997	13551.13
692.344	13540.51
692.69	13502.54
693.037	13524.01
693.383	13452.37
693.73	13517.46
694.077	13388.19
694.423	13365.14
694.769	13415.76
695.116	13406.5
695.462	13363.11
695.808	13325.14
696.155	13232.27
696.501	13239.27
696.847	13185.49
697.193	13192.72
697.539	13175.09
697.885	13093.06
698.231	13086.96
698.577	13168.99
698.923	13077.01
699.269	12994.76
699.614	12983.01
699.96	13009.45
700.306	13020.52
700.651	12896.68
700.997	12954.98
701.342	12872.27
701.688	12885.61
702.033	12798.15
702.379	12853.29
702.724	12754.09
703.069	12784.37
703.415	12647.42
703.76	12778.04
704.105	12744.82
704.45	12644.03
704.795	12536.69
705.14	12557.71
705.485	12582.34
705.83	12467.31
706.175	12534.43
706.52	12504.6
706.865	12474.09
707.209	12477.93
707.554	12430.93
707.899	12314.55
708.243	12310.93
708.588	12413.76
708.932	12346.64
709.277	12245.17
709.621	12260.77
709.966	12231.84
710.31	12240.88
710.654	12082.01
710.998	12190.03
711.342	12174.44
711.687	12129.02
712.031	12124.05
712.375	12001.34
712.719	12086.76
713.063	12059.87
713.407	12061.67
713.75	11977.16
714.094	12078.62
714.438	12029.81
714.782	11998.63
715.125	11931.28
715.469	11946.65
715.812	11905.75
716.156	11868.01
716.499	11900.55
716.843	11876.37
717.186	11792.75
717.53	11862.58
717.873	11867.33
718.216	11840.21
718.559	11843.38
718.902	11805.64
719.246	11762.7
719.589	11740.1
719.932	11700.33
720.275	11675.24
720.617	11689.93
720.96	11664.85
721.303	11708.69
721.646	11680.22
721.989	11704.62
722.331	11742.13
722.674	11622.14
723.016	11647.9
723.359	11608.35
723.701	11651.52
724.044	11571.52
724.386	11489.26
724.729	11647.22
725.071	11543.04
725.413	11548.02
725.755	11620.78
726.097	11559.99
726.439	11472.31
726.782	11455.59
727.124	11526.1
727.465	11423.27
727.807	11505.3
728.149	11507.34
728.491	11401.8
728.833	11435.48
729.175	11452.42
729.516	11383.5
729.858	11319.77
730.199	11447.91
730.541	11380.11
730.882	11354.12
731.224	11336.04
731.565	11367.68
731.906	11346.66
732.248	11400.9
732.589	11304.41
732.93	11241.13
733.271	11351.64
733.612	11259.44
733.953	11289.72
734.294	11282.49
734.635	11233.45
734.976	11259.44
735.317	11255.14
735.658	11178.99
735.999	11229.61
736.339	11158.65
736.68	11205.2
737.021	11192.09
737.361	11141.7
737.702	11223.5
738.042	11139.66
738.383	11145.77
738.723	11206.1
739.063	11155.48
739.404	11202.49
739.744	11102.15
740.084	11120.46
740.424	11139.66
740.764	11069.38
741.104	11128.37
741.444	11182.15
741.784	11147.12
742.124	11056.96
742.464	11145.77
742.804	11101.7
743.143	11097.63
743.483	11025.54
743.823	11044.3
744.162	10984.41
744.502	11043.62
744.841	10965.21
745.181	11127.01
745.52	10912.55
745.86	11030.52
746.199	10983.28
746.538	11032.32
746.877	11044.75
747.216	11115.48
747.556	10990.97
747.895	11040.91
748.234	10963.85
748.573	10965.66
748.911	10884.53
749.25	11002.04
749.589	10921.59
749.928	10910.97
750.267	10973.79
750.605	10904.87
750.944	10868.71
751.283	10863.29
751.621	10923.17
751.96	10829.84
752.298	10830.29
752.636	10916.39
752.975	10723.63
753.313	10806.11
753.651	10855.6
753.989	10772.89
754.327	10719.34
754.666	10755.95
755.004	10723.4
755.342	10739.22
755.679	10704.87
756.017	10729.96
756.355	10702.84
756.693	10689.06
757.031	10689.51
757.368	10661.03
757.706	10647.93
758.044	10604.31
758.381	10598.66
758.719	10625.78
759.056	10553.92
759.394	10594.37
759.731	10494.94
760.068	10502.62
760.405	10464.65
760.743	10419.23
761.08	10481.6
761.417	10423.53
761.754	10478.21
762.091	10363.19
762.428	10342.85
762.765	10222.85
763.102	10358.44
763.438	10282.29
763.775	10178.33
764.112	10197.99
764.449	10233.93
764.785	10196.86
765.122	10112.57
765.458	10094.72
765.795	10059.69
766.131	10132.46
766.467	10025.12
766.804	9968.62
767.14	9930.66
767.476	9993.03
767.812	9949.87
768.148	9997.55
768.485	9895.86
768.821	9848.17
769.157	9858.79
769.492	9840.04
769.828	9776.08
770.164	9720.27
770.5	9702.41
770.836	9700.38
771.171	9631
771.507	9694.05
771.842	9608.18
772.178	9571.57
772.513	9570.21
772.849	9521.4
773.184	9518.46
773.519	9520.5
773.855	9499.71
774.19	9454.74
774.525	9395.08
774.86	9460.39
775.195	9375.64
775.53	9347.4
775.865	9322.54
776.2	9214.07
776.535	9235.76
776.87	9240.96
777.205	9190.34
777.539	9165.03
777.874	9136.55
778.209	9145.14
778.543	9000.06
778.878	9045.71
779.212	8997.57
779.547	8976.11
779.881	9016.1
780.215	8922.1
780.55	8972.94
780.884	8847.97
781.218	8840.74
781.552	8859.72
781.886	8868.99
782.22	8756.22
782.554	8773.85
782.888	8723.91
783.222	8625.61
783.556	8601.88
783.889	8608.88
784.223	8496.12
784.557	8577.92
784.89	8586.51
785.224	8508.1
785.557	8518.49
785.891	8456.57
786.224	8416.8
786.558	8456.35
786.891	8303.81
787.224	8331.6
787.557	8338.16
787.891	8331.38
788.224	8290.7
788.557	8275.79
788.89	8233.07
789.223	8277.37
789.556	8121.21
789.888	8150.14
790.221	8088.67
790.554	8084.15
790.887	8038.73
791.219	8017.49
791.552	8035.11
791.884	8065.17
792.217	7955.57
792.549	7993.08
792.882	7903.14
793.214	7896.81
793.546	7876.25
793.879	7814.1
794.211	7771.39
794.543	7861.56
794.875	7765.29
795.207	7776.36
795.539	7801
795.871	7794.89
796.203	7694.33
796.535	7549.25
796.867	7620.89
797.198	7618.4
797.53	7640.1
797.862	7560.32
798.193	7519.42
798.525	7488.69
798.856	7581.34
799.188	7497.73
799.519	7480.33
799.85	7457.73
800.182	7471.06
800.513	7456.82
800.844	7349.93
801.175	7383.15
801.506	7356.26
801.837	7328.69
802.168	7350.16
802.499	7344.74
802.83	7226.32
803.161	7241.46
803.491	7288.92
803.822	7287.79
804.153	7196.04
804.483	7142.71
804.814	7111.07
805.145	7123.73
805.475	7163.5
805.805	7103.84
806.136	7062.94
806.466	7107.45
806.796	7138.41
807.126	6997.4
807.457	7004.41
807.787	7003.5
808.117	7013.67
808.447	6982.03
808.777	7021.35
809.107	6973.22
809.436	6911.3
809.766	6930.51
810.096	6862.26
810.426	6875.82
810.755	6930.06
811.085	6899.1
811.414	6879.44
811.744	6800.34
812.073	6780.23
812.403	6828.14
812.732	6768.03
813.061	6802.83
813.39	6736.62
813.719	6751.31
814.049	6729.84
814.378	6777.52
814.707	6686.67
815.036	6696.84
815.365	6652.78
815.693	6613.68
816.022	6625.89
816.351	6586.56
816.68	6604.64
817.008	6593.12
817.337	6562.16
817.665	6517.41
817.994	6554.25
818.322	6559.45
818.651	6521.71
818.979	6483.74
819.307	6504.53
819.636	6530.07
819.964	6455.95
820.292	6473.8
820.62	6502.05
820.948	6425.44
821.276	6455.04
821.604	6459.56
821.932	6484.19
822.259	6474.7
822.587	6459.34
822.915	6418.88
823.243	6443.97
823.57	6385.89
823.898	6457.98
824.225	6424.31
824.553	6384.76
824.88	6420.92
825.207	6422.73
825.535	6413.69
825.862	6474.02
826.189	6437.19
826.516	6453.23
826.843	6446
827.17	6407.59
827.497	6450.75
827.824	6424.08
828.151	6436.96
828.478	6414.82
828.805	6445.78
829.131	6413.24
829.458	6432.9
829.785	6416.17
830.111	6409.85
830.438	6439
830.764	6423.86
831.09	6455.49
831.417	6416.17
831.743	6452.78
832.069	6380.69
832.395	6399.9
832.722	6390.64
833.048	6364.2
833.374	6443.97
833.7	6381.37
834.026	6368.94
834.351	6417.08
834.677	6394.03
835.003	6405.78
835.329	6384.76
835.654	6389.06
835.98	6355.38
836.306	6333.92
836.631	6346.34
836.956	6384.54
837.282	6341.6
837.607	6333.92
837.932	6269.51
838.258	6267.7
838.583	6298.66
838.908	6279
839.233	6268.83
839.558	6268.15
839.883	6282.84
840.208	6204.2
840.533	6213.24
840.858	6259.79
841.182	6221.83
841.507	6247.14
841.832	6196.74
842.156	6209.17
842.481	6217.31
842.805	6114.49
843.13	6122.85
843.454	6126.01
843.778	6130.53
844.103	6079.01
844.427	6098.22
844.751	6151.32
845.075	6074.49
845.399	6091.21
845.723	5999.23
846.047	5971.67
846.371	5957.43
846.695	6011.66
847.019	5926.69
847.343	5959.46
847.666	5914.49
847.99	5897.99
848.313	5852.35
848.637	5872.68
848.96	5824.1
849.284	5822.97
849.607	5734.84
849.931	5749.3
850.254	5700.94
850.577	5688.28
850.9	5671.33
851.223	5626.82
851.546	5670.43
851.869	5669.75
852.192	5616.42
852.515	5566.93
852.838	5577.33
853.161	5594.05
853.483	5500.26
853.806	5528.06
854.129	5520.38
854.451	5544.78
854.774	5498.01
855.096	5438.12
855.419	5472.7
855.741	5440.83
856.063	5390.66
856.385	5428.85
856.708	5356.99
857.03	5376.2
857.352	5343.88
857.674	5334.39
857.996	5309.76
858.318	5250.33
858.64	5263.66
858.961	5293.94
859.283	5248.07
859.605	5266.15
859.926	5288.07
860.248	5217.11
860.57	5202.65
860.891	5218.24
861.212	5204.23
861.534	5181.86
861.855	5201.29
862.176	5173.95
862.498	5186.37
862.819	5120.39
863.14	5135.08
863.461	5140.95
863.782	5103.21
864.103	5168.97
864.424	5091.69
864.745	5112.03
865.065	5095.76
865.386	5121.07
865.707	5071.58
866.027	5047.85
866.348	5039.71
866.668	5076.55
866.989	5043.78
867.309	5030.45
867.63	5034.06
867.95	5000.62
868.27	4998.36
868.59	5020.28
868.91	5015.98
869.23	5010.79
869.55	4953.84
869.87	5031.12
870.19	5003.55
870.51	4946.38
870.83	4957
871.15	4976.44
871.469	4966.95
871.789	4947.74
872.109	4975.98
872.428	4935.76
872.748	4916.1
873.067	4912.26
873.386	4931.24
873.706	4888.3
874.025	4881.07
874.344	4875.42
874.663	4878.36
874.982	4847.4
875.301	4910.45
875.62	4832.94
875.939	4812.37
876.258	4859.15
876.577	4815.99
876.896	4844.24
877.214	4836.33
877.533	4855.08
877.852	4817.35
878.17	4814.63
878.489	4820.73
878.807	4827.06
879.125	4800.62
879.444	4748.19
879.762	4762.66
880.08	4728.31
880.398	4742.32
880.716	4766.95
881.034	4808.31
881.352	4687.4
881.67	4745.03
881.988	4697.8
882.306	4684.24
882.624	4707.74
882.941	4669.33
883.259	4700.96
883.577	4630.46
883.894	4614.19
884.212	4611.93
884.529	4644.02
884.846	4649.44
885.164	4616.22
885.481	4580.97
885.798	4588.42
886.115	4582.32
886.432	4535.09
886.75	4554.98
887.067	4550.69
887.383	4552.49
887.7	4526.51
888.017	4541.65
888.334	4551.36
888.651	4518.82
888.967	4516.56
889.284	4480.63
889.6	4471.82
889.917	4458.94
890.233	4477.47
890.55	4422.78
890.866	4418.26
891.182	4415.55
891.498	4371.26
891.815	4416.9
892.131	4420.75
892.447	4398.6
892.763	4371.71
893.079	4345.04
893.395	4349.33
893.71	4324.25
894.026	4356.34
894.342	4282.44
894.657	4296.68
894.973	4273.18
895.289	4248.55
895.604	4246.96
895.92	4213.75
896.235	4223.69
896.55	4199.06
896.865	4214.65
897.181	4232.05
897.496	4202.45
897.811	4136.23
898.126	4138.94
898.441	4143.46
898.756	4157.93
899.071	4101.66
899.386	4117.48
899.7	4063.01
900.015	4060.98
900.33	4036.35
900.644	4041.32
900.959	4016.91
901.273	4015.56
901.588	4030.93
901.902	4025.5
902.216	4010.13
902.531	3949.57
902.845	3932.17
903.159	3959.51
903.473	3925.17
903.787	3922.91
904.101	3910.93
904.415	3874.32
904.729	3861.21
905.042	3837.48
905.356	3825.51
905.67	3868.67
905.984	3841.33
906.297	3833.64
906.611	3808.11
906.924	3809.01
907.237	3786.19
907.551	3779.63
907.864	3774.89
908.177	3728.56
908.491	3722.23
908.804	3692.85
909.117	3731.72
909.43	3700.99
909.743	3643.36
910.056	3687.88
910.368	3674.78
910.681	3606.3
910.994	3616.7
911.307	3572.41
911.619	3569.69
911.932	3595.46
912.244	3568.56
912.557	3560.2
912.869	3538.06
913.181	3512.07
913.494	3495.8
913.806	3501.45
914.118	3488.11
914.43	3477.27
914.742	3468
915.054	3494.22
915.366	3395.46
915.678	3391.17
915.99	3403.6
916.302	3376.03
916.613	3394.33
916.925	3387.78
917.236	3366.08
917.548	3335.8
917.859	3373.99
918.171	3330.6
918.482	3321.79
918.794	3282.92
919.105	3292.19
919.416	3320.89
919.727	3291.96
920.038	3280.66
920.349	3269.59
920.66	3233.21
920.971	3199.76
921.282	3205.18
921.593	3183.04
921.903	3138.52
922.214	3162.7
922.525	3113.44
922.835	3155.24
923.146	3150.04
923.456	3094.9
923.767	3086.32
924.077	3106.66
924.387	3091.06
924.697	3022.82
925.008	3101.91
925.318	3094.45
925.628	3043.61
925.938	3069.14
926.248	3023.49
926.558	2973.78
926.867	3011.52
927.177	3020.1
927.487	2943.04
927.796	2943.5
928.106	2958.64
928.416	2935.36
928.725	2930.62
929.034	2903.72
929.344	2878.86
929.653	2938.07
929.962	2847.23
930.271	2870.73
930.581	2871.41
930.89	2839.09
931.199	2806.32
931.508	2804.06
931.817	2801.8
932.125	2794.57
932.434	2790.28
932.743	2789.6
933.051	2773.11
933.36	2729.94
933.669	2762.48
933.977	2729.94
934.286	2717.06
934.594	2710.96
934.902	2707.57
935.21	2666.44
935.519	2701.02
935.827	2646.33
936.135	2673.67
936.443	2646.33
936.751	2632.09
937.059	2599.55
937.367	2620.11
937.674	2608.14
937.982	2628.25
938.29	2561.13
938.597	2605.65
938.905	2577.86
939.213	2537.86
939.52	2534.92
939.827	2578.08
940.135	2503.51
940.442	2521.81
940.749	2485.88
941.056	2508.03
941.363	2476.16
941.67	2496.73
941.977	2520.46
942.284	2444.53
942.591	2475.49
942.898	2434.58
943.205	2435.94
943.511	2420.8
943.818	2443.17
944.125	2391.65
944.431	2395.71
944.738	2388.71
945.044	2367.92
945.35	2359.33
945.657	2353
945.963	2337.64
946.269	2367.01
946.575	2352.1
946.881	2301.71
947.187	2339.67
947.493	2313.91
947.799	2308.03
948.105	2316.62
948.41	2275.94
948.716	2274.81
949.022	2280.91
949.327	2273.23
949.633	2238.88
949.938	2225.32
950.244	2239.79
950.549	2219.45
950.854	2185.1
951.16	2200.24
951.465	2177.19
951.77	2178.54
952.075	2177.64
952.38	2189.62
952.685	2168.38
952.99	2144.87
953.294	2106.46
953.599	2130.18
953.904	2122.05
954.209	2132.9
954.513	2113.69
954.818	2103.74
955.122	2092.44
955.426	2079.56
955.731	2082.5
956.035	2071.2
956.339	2068.26
956.643	2082.5
956.948	2025.55
957.252	2065.33
957.556	2044.08
957.86	2051.54
958.163	2020.81
958.467	1978.32
958.771	2020.13
959.075	1996.85
959.378	1985.56
959.682	1966.12
959.985	1979.91
960.289	1993.69
960.592	1992.79
960.896	1940.81
961.199	1955.27
961.502	1940.36
961.805	1930.42
962.108	1911.43
962.411	1903.07
962.714	1913.92
963.017	1894.94
963.32	1885.44
963.623	1867.37
963.926	1877.99
964.228	1862.85
964.531	1866.69
964.833	1847.71
965.136	1853.58
965.438	1856.74
965.741	1842.96
966.043	1828.05
966.345	1799.8
966.648	1835.95
966.95	1815.84
967.252	1781.94
967.554	1792.11
967.856	1759.35
968.158	1764.32
968.46	1771.55
968.761	1751.21
969.063	1768.16
969.365	1731.55
969.666	1750.53
969.968	1739.91
970.269	1711.89
970.571	1734.71
970.872	1716.41
971.174	1697.2
971.475	1718.22
971.776	1691.78
972.077	1696.07
972.378	1692.68
972.679	1684.09
972.98	1671.21
973.281	1670.54
973.582	1677.09
973.883	1674.15
974.183	1658.11
974.484	1634.15
974.785	1644.1
975.085	1626.69
975.386	1601.61
975.686	1625.34
975.986	1609.07
976.287	1609.52
976.587	1609.52
976.887	1572.46
977.187	1589.41
977.487	1598.9
977.787	1564.78
978.087	1551.22
978.387	1530.88
978.687	1533.59
978.987	1534.95
979.286	1545.11
979.586	1549.18
979.885	1510.77
980.185	1500.6
980.484	1510.99
980.784	1518.22
981.083	1513.03
981.382	1518.67
981.682	1534.49
981.981	1494.49
982.28	1494.27
982.579	1461.5
982.878	1459.47
983.177	1479.13
983.475	1477.32
983.774	1457.21
984.073	1431.9
984.372	1460.6
984.67	1455.85
984.969	1438.22
985.267	1425.34
985.566	1428.06
985.864	1403.42
986.162	1427.83
986.461	1415.63
986.759	1388.51
987.057	1386.7
987.355	1392.58
987.653	1393.48
987.951	1381.96
988.249	1401.39
988.547	1384.22
988.844	1354.84
989.142	1359.13
989.44	1351.45
989.737	1342.41
990.035	1334.05
990.332	1347.15
990.63	1350.09
990.927	1319.13
991.224	1315.52
991.521	1320.04
991.819	1289.3
992.116	1293.14
992.413	1286.59
992.71	1309.87
993.006	1321.62
993.303	1287.49
993.6	1304.22
993.897	1272.13
994.193	1274.84
994.49	1283.2
994.787	1276.87
995.083	1260.15
995.379	1254.95
995.676	1256.08
995.972	1248.4
996.268	1258.34
996.565	1206.82
996.861	1246.14
997.157	1216.54
997.453	1200.27
997.749	1206.14
998.044	1178.34
998.34	1217.44
998.636	1230.77
998.932	1199.36
999.227	1162.53
999.523	1168.18
999.818	1135.18
1000.114	1166.59
1000.409	1163.43
1000.704	1148.74
1001	1140.83
1001.295	1128.18
1001.59	1140.38
1001.885	1138.57
1002.18	1147.39
1002.475	1143.77
1002.77	1106.03
1003.065	1113.94
1003.359	1117.56
1003.654	1110.1
1003.949	1092.92
1004.243	1098.8
1004.538	1069.42
1004.832	1094.96
1005.127	1101.51
1005.421	1060.83
1005.715	1077.56
1006.009	1084.79
1006.304	1054.28
1006.598	1054.28
1006.892	1052.7
1007.186	1036.65
1007.48	1025.35
1007.773	1048.4
1008.067	1032.36
1008.361	1035.3
1008.655	1039.14
1008.948	1020.16
1009.242	996.88
1009.535	1006.82
1009.829	1032.59
1010.122	1023.09
1010.415	1002.98
1010.708	994.39
1011.001	980.16
1011.295	976.77
1011.588	982.87
1011.881	976.09
1012.173	971.8
1012.466	955.3
1012.759	967.73
1013.052	992.59
1013.344	955.3
1013.637	962.08
1013.93	948.52
1014.222	942.42
1014.514	943.77
1014.807	934.96
1015.099	923.44
1015.391	919.59
1015.683	946.26
1015.976	902.19
1016.268	896.32
1016.56	930.44
1016.851	902.19
1017.143	900.84
1017.435	880.27
1017.727	880.73
1018.018	899.03
1018.31	853.16
1018.602	878.01
1018.893	881.63
1019.185	854.29
1019.476	891.57
1019.767	853.16
1020.058	849.77
1020.35	868.3
1020.641	852.93
1020.932	829.88
1021.223	842.76
1021.514	825.13
1021.804	806.83
1022.095	838.24
1022.386	839.6
1022.677	823.55
1022.967	836.88
1023.258	810.22
1023.548	806.15
1023.839	783.55
1024.129	791.91
1024.419	781.74
1024.709	776.32
1025	782.2
1025.29	795.08
1025.58	760.73
1025.87	788.07
1026.16	791.24
1026.449	766.83
1026.739	756.66
1027.029	770.22
1027.319	752.37
1027.608	753.5
1027.898	748.07
1028.187	719.37
1028.477	722.09
1028.766	746.94
1029.055	723.89
1029.344	743.78
1029.634	724.35
1029.923	737.68
1030.212	725.7
1030.501	712.82
1030.79	710.79
1031.078	687.74
1031.367	733.16
1031.656	695.65
1031.945	692.03
1032.233	690.45
1032.522	706.94
1032.81	668.08
1033.099	689.32
1033.387	677.11
1033.675	666.49
1033.963	661.52
1034.251	691.8
1034.54	638.02
1034.828	658.58
1035.116	668.53
1035.403	666.04
1035.691	665.59
1035.979	658.81
1036.267	673.5
1036.554	625.82
1036.842	637.79
1037.129	635.08
1037.417	640.28
1037.704	633.5
1037.992	625.59
1038.279	631.47
1038.566	606.16
1038.853	606.16
1039.14	606.16
