Data from cardboard_FLMS001491_031.txt Node
Date: Tue Feb 07 11:39:20 GMT 2017
User: dcchb
Spectrometer: FLMS00149
Trigger mode: 0
Integration Time (sec): 2.000000E-2
Scans to average: 10
Electric dark correction enabled: true
Nonlinearity correction enabled: false
Boxcar width: 0
XAxis mode: Wavelengths
Number of Pixels in Spectrum: 2048
>>>>>Begin Spectral Data<<<<<
341.393	-10.44
341.776	-10.44
342.16	-10.44
342.543	-81.62
342.927	-76.65
343.31	-85.24
343.693	-59.93
344.077	-67.61
344.46	-67.61
344.843	-40.04
345.226	-70.77
345.61	-26.71
345.993	-21.74
346.376	-12.25
346.759	3.57
347.142	42.44
347.525	50.13
347.908	72.05
348.291	73.85
348.674	94.64
349.057	115.21
349.44	130.58
349.823	130.8
350.206	175.77
350.588	183.68
350.971	208.54
351.354	204.7
351.737	241.99
352.119	229.1
352.502	265.71
352.884	282.89
353.267	271.59
353.65	293.74
354.032	285.83
354.414	301.19
354.797	303
355.179	308.2
355.562	320.4
355.944	319.5
356.326	345.03
356.709	325.15
357.091	327.86
357.473	345.49
357.855	346.84
358.238	352.94
358.62	317.24
359.002	331.47
359.384	349.33
359.766	328.08
360.148	347.97
360.53	336.9
360.912	329.44
361.294	332.38
361.676	340.29
362.057	314.98
362.439	329.67
362.821	335.99
363.203	339.61
363.584	323.79
363.966	302.1
364.348	321.98
364.729	331.47
365.111	321.08
365.493	331.02
365.874	306.84
366.256	291.02
366.637	304.81
367.019	297.12
367.4	321.31
367.781	327.63
368.163	305.49
368.544	303.45
368.925	293.06
369.306	293.74
369.688	318.82
370.069	299.84
370.45	312.27
370.831	310.46
371.212	315.66
371.593	307.52
371.974	325.82
372.355	301.87
372.736	310.91
373.117	301.42
373.498	316.79
373.879	313.17
374.26	316.56
374.641	281.76
375.021	315.88
375.402	316.11
375.783	305.94
376.163	319.72
376.544	298.48
376.925	316.56
377.305	310.68
377.686	322.21
378.066	327.18
378.447	316.33
378.827	303.23
379.208	334.64
379.588	327.63
379.968	313.4
380.349	351.13
380.729	330.57
381.109	340.97
381.489	330.34
381.87	328.54
382.25	351.59
382.63	327.41
383.01	329.67
383.39	326.73
383.77	342.55
384.15	335.09
384.53	359.04
384.91	336.22
385.29	343.68
385.67	336.22
386.049	342.77
386.429	348.65
386.809	334.64
387.189	345.26
387.568	344.58
387.948	344.36
388.328	348.65
388.707	359.5
389.087	358.59
389.466	348.88
389.846	358.82
390.225	354.07
390.605	371.7
390.984	359.04
391.363	354.52
391.743	377.35
392.122	359.04
392.501	350.68
392.881	377.57
393.26	377.8
393.639	386.84
394.018	374.86
394.397	372.6
394.776	382.77
395.155	382.55
395.534	364.47
395.913	356.56
396.292	382.09
396.671	397.46
397.05	377.35
397.429	387.97
397.808	367.63
398.186	376.67
398.565	376.44
398.944	377.12
399.323	409.66
399.701	372.38
400.08	407.86
400.458	388.2
400.837	394.75
401.215	392.94
401.594	413.73
401.972	401.3
402.351	415.31
402.729	393.85
403.107	410.79
403.486	395.43
403.864	413.51
404.242	411.7
404.62	423
404.999	420.29
405.377	433.39
405.755	417.12
406.133	432.04
406.511	411.92
406.889	453.05
407.267	431.13
407.645	436.1
408.023	430.23
408.401	437.91
408.779	432.71
409.156	451.7
409.534	415.77
409.912	432.71
410.29	461.64
410.667	476.1
411.045	457.8
411.422	451.02
411.8	459.61
412.178	465.71
412.555	454.63
412.933	478.14
413.31	482.2
413.687	484.46
414.065	483.11
414.442	483.11
414.819	487.85
415.197	497.35
415.574	510.68
415.951	483.79
416.328	501.41
416.705	516.1
417.082	491.92
417.46	500.06
417.837	507.51
418.214	506.61
418.591	513.84
418.967	525.82
419.344	541.64
419.721	513.62
420.098	527.18
420.475	548.87
420.852	530.11
421.228	526.95
421.605	534.86
421.982	516.1
422.358	538.25
422.735	553.16
423.111	528.08
423.488	559.72
423.864	568.08
424.241	567.63
424.617	587.96
424.994	575.76
425.37	559.49
425.746	564.01
426.123	568.98
426.499	586.38
426.875	587.29
427.251	579.15
427.627	608.53
428.003	620.73
428.379	620.96
428.756	610.56
429.132	617.12
429.507	628.42
429.883	616.89
430.259	634.52
430.635	639.94
431.011	637
431.387	666.38
431.763	674.06
432.138	660.73
432.514	651.47
432.89	675.87
433.265	702.31
433.641	707.74
434.016	693.72
434.392	714.06
434.767	701.18
435.143	696.21
435.518	703.44
435.894	695.08
436.269	728.07
436.644	723.78
437.02	747.73
437.395	759.26
437.77	749.09
438.145	745.25
438.52	766.27
438.895	765.81
439.271	768.07
439.646	758.58
440.021	783.89
440.395	808.3
440.77	787.73
441.145	796.77
441.52	816.21
441.895	801.52
442.27	798.81
442.645	802.65
443.019	820.95
443.394	811.01
443.769	799.26
444.143	797.45
444.518	852.14
444.892	833.83
445.267	858.92
445.641	855.98
446.016	846.94
446.39	860.27
446.764	867.51
447.139	845.13
447.513	874.28
447.887	840.61
448.262	875.87
448.636	862.31
449.01	885.13
449.384	902.76
449.758	896.43
450.132	911.8
450.506	898.69
450.88	921.06
451.254	921.52
451.628	929.2
452.002	919.48
452.376	939.59
452.75	954.51
453.123	948.41
453.497	959.03
453.871	973.27
454.244	1019.14
454.618	997.45
454.992	1013.49
455.365	1025.47
455.739	1044.45
456.112	1043.32
456.486	1031.34
456.859	1055.52
457.232	1048.29
457.606	1063.66
457.979	1075.41
458.352	1074.73
458.725	1081.51
459.099	1104.34
459.472	1098.91
459.845	1116.99
460.218	1131.45
460.591	1171
460.964	1158.35
461.337	1165.12
461.71	1186.82
462.083	1218.23
462.456	1213.71
462.829	1205.35
463.201	1199.93
463.574	1246.03
463.947	1254.16
464.32	1272.24
464.692	1307.95
465.065	1248.51
465.438	1312.01
465.81	1312.24
466.183	1353.14
466.555	1374.16
466.928	1361.5
467.3	1368.51
467.672	1403.99
468.045	1399.47
468.417	1419.58
468.789	1436.98
469.161	1436.53
469.534	1484.44
469.906	1492.35
470.278	1503.42
470.65	1537.77
471.022	1532.12
471.394	1563.53
471.766	1587.49
472.138	1624.77
472.51	1666.35
472.882	1662.74
473.253	1707.71
473.625	1708.84
473.997	1748.39
474.369	1738.44
474.74	1760.59
475.112	1774.37
475.484	1812.34
475.855	1847.59
476.227	1828.16
476.598	1886.01
476.97	1915.39
477.341	1959.23
477.713	1993.8
478.084	1997.42
478.455	2036.97
478.827	2092.11
479.198	2147.7
479.569	2164.42
479.94	2172.56
480.311	2212.78
480.682	2222.95
481.053	2305.66
481.424	2289.84
481.795	2345.66
482.166	2423.62
482.537	2428.37
482.908	2460.68
483.279	2495.94
483.65	2523.06
484.021	2588.59
484.391	2624.07
484.762	2634.92
485.133	2663.84
485.503	2714.91
485.874	2745.87
486.244	2813.22
486.615	2840.11
486.985	2863.39
487.356	2920.78
487.726	2929.15
488.097	3000.1
488.467	3019.99
488.837	3107.45
489.207	3138.63
489.578	3219.08
489.948	3218.18
490.318	3245.52
490.688	3260.21
491.058	3321.23
491.428	3379.76
491.798	3376.37
492.168	3491.39
492.538	3504.27
492.908	3556.25
493.278	3586.98
493.648	3584.5
494.017	3664.72
494.387	3673.76
494.757	3758.05
495.126	3806.41
495.496	3832.63
495.866	3828.56
496.235	3853.19
496.605	3896.58
496.974	3972.96
497.344	3976.58
497.713	4018.16
498.082	4049.57
498.452	4108.1
498.821	4116.91
499.19	4140.41
499.559	4215.44
499.928	4182.45
500.298	4267.19
500.667	4311.93
501.036	4322.56
501.405	4387.41
501.774	4396.9
502.143	4484.81
502.512	4480.74
502.88	4532.72
503.249	4591.25
503.618	4629.67
503.987	4644.36
504.356	4645.03
504.724	4726.84
505.093	4739.49
505.462	4775.88
505.83	4791.24
506.199	4847.97
506.567	4907.4
506.936	4991.69
507.304	4987.4
507.672	5041.41
508.041	5081.41
508.409	5092.93
508.777	5175.64
509.145	5198.47
509.514	5272.59
509.882	5303.32
510.25	5371.57
510.618	5386.26
510.986	5368.18
511.354	5478.46
511.722	5471.23
512.09	5555.97
512.458	5645.46
512.826	5643.2
513.193	5729.3
513.561	5763.65
513.929	5847.71
514.297	5859.69
514.664	5954.15
515.032	5965.22
515.4	6016.3
515.767	6066.46
516.135	6119.34
516.502	6084.54
516.869	6242.96
517.237	6278.21
517.604	6254.03
517.972	6362.95
518.339	6473.01
518.706	6473.23
519.073	6554.59
519.44	6557.3
519.808	6656.51
520.175	6673
520.542	6825.77
520.909	6868.25
521.276	6884.07
521.643	6939.66
522.009	7015.59
522.376	7095.14
522.743	7190.5
523.11	7264.85
523.477	7331.06
523.843	7370.84
524.21	7489.48
524.577	7564.5
524.943	7590.49
525.31	7695.8
525.676	7812.18
526.043	7852.63
526.409	7901.67
526.776	7969.47
527.142	8026.41
527.508	8120.65
527.874	8217.37
528.241	8249.23
528.607	8269.12
528.973	8330.81
529.339	8458.49
529.705	8525.84
530.071	8629.34
530.437	8675.89
530.803	8707.98
531.169	8813.06
531.535	8796.56
531.901	8916.33
532.267	8991.81
532.632	9027.29
532.998	9037.91
533.364	9164.69
533.73	9205.14
534.095	9317.68
534.461	9396.55
534.826	9418.47
535.192	9526.26
535.557	9550.67
535.923	9628.86
536.288	9715.41
536.653	9701.17
537.019	9754.73
537.384	9818
537.749	9914.73
538.114	9914.95
538.479	10028.62
538.845	10061.16
539.21	10096.19
539.575	10170.09
539.94	10185
540.305	10326.24
540.67	10314.94
541.034	10347.26
541.399	10433.81
541.764	10450.98
542.129	10601.26
542.494	10621.6
542.858	10673.12
543.223	10752.44
543.587	10797.87
543.952	10793.12
544.316	10868.15
544.681	10923.06
545.045	11071.98
545.41	11143.62
545.774	11066.56
546.138	11180.91
546.503	11278.31
546.867	11327.57
547.231	11374.12
547.595	11417.06
547.959	11495.7
548.324	11536.83
548.688	11633.32
549.052	11694.11
549.416	11759.65
549.779	11801.68
550.143	11820.66
550.507	11862.47
550.871	12074.89
551.235	12028.34
551.599	12221.11
551.962	12257.04
552.326	12284.83
552.689	12346.3
553.053	12349.01
553.417	12413.87
553.78	12589.68
554.143	12556.01
554.507	12678.04
554.87	12710.81
555.234	12931.82
555.597	12862.44
555.96	13016.56
556.323	12942.89
556.686	13015.89
557.05	13129.56
557.413	13337.46
557.776	13288.42
558.139	13395.31
558.502	13529.32
558.865	13634.18
559.228	13621.97
559.59	13739.94
559.953	13734.74
560.316	13970.44
560.679	14047.5
561.041	14079.81
561.404	14106.48
561.767	14342.86
562.129	14170.88
562.492	14503.31
562.854	14474.15
563.217	14490.65
563.579	14584.88
563.941	14705.33
564.304	14834.14
564.666	14954.82
565.028	14949.17
565.39	15082.95
565.753	15220.8
566.115	15315.71
566.477	15356.62
566.839	15430.51
567.201	15541.92
567.563	15671.41
567.925	15650.85
568.287	15673.67
568.648	15874.12
569.01	16038.18
569.372	16103.49
569.734	16025.98
570.095	16166.99
570.457	16240.89
570.819	16274.11
571.18	16401.11
571.542	16482.01
571.903	16611.72
572.265	16545.06
572.626	16733.75
572.987	16786.63
573.349	16813.75
573.71	17009
574.071	17056.68
574.432	17120.19
574.794	17242.44
575.155	17239.05
575.516	17213.74
575.877	17335.77
576.238	17399.05
576.599	17441.53
576.96	17547.52
577.32	17601.75
577.681	17697.12
578.042	17752.71
578.403	17771.24
578.763	17800.62
579.124	17864.35
579.485	17958.13
579.845	18117
580.206	18078.35
580.566	18091.23
580.927	18145.47
581.287	18180.95
581.648	18246.26
582.008	18335.07
582.368	18423.43
582.728	18426.37
583.089	18473.37
583.449	18447.83
583.809	18476.99
584.169	18567.15
584.529	18545.46
584.889	18669.98
585.249	18697.55
585.609	18659.58
585.969	18754.27
586.329	18810.76
586.688	18839.69
587.048	18812.12
587.408	18946.13
587.768	18992.45
588.127	18895.05
588.487	19029.74
588.846	19077.42
589.206	19031.77
589.565	19024.09
589.925	19181.6
590.284	19107.03
590.643	19179.34
591.003	19389.73
591.362	19329.62
591.721	19273.58
592.08	19351.54
592.44	19390.63
592.799	19415.04
593.158	19436.51
593.517	19502.04
593.876	19447.36
594.235	19479.9
594.593	19547.69
594.952	19646.9
595.311	19620.91
595.67	19645.54
596.029	19794.47
596.387	19848.02
596.746	19858.87
597.104	19826.55
597.463	19847.8
597.822	19835.14
598.18	19822.49
598.538	19947.68
598.897	20148.81
599.255	19935.48
599.613	20106.32
599.972	20061.13
600.33	20184.74
600.688	20058.64
601.046	20257.05
601.404	20274.45
601.762	20229.71
602.12	20370.5
602.478	20405.3
602.836	20472.87
603.194	20318.52
603.552	20439.87
603.91	20381.57
604.268	20504.5
604.625	20469.48
604.983	20606.42
605.341	20530.27
605.698	20654.1
606.056	20711.28
606.413	20709.47
606.771	20786.3
607.128	20868.11
607.485	20792.18
607.843	20836.02
608.2	20830.82
608.557	21069.46
608.914	20984.04
609.272	21137.25
609.629	21145.84
609.986	21298.83
610.343	21102
610.7	21317.36
611.057	21322.79
611.414	21443.24
611.771	21370.7
612.127	21496.12
612.484	21436
612.841	21546.74
613.198	21493.18
613.554	21530.92
613.911	21658.15
614.267	21774.53
614.624	21666.05
614.98	21785.6
615.337	21819.04
615.693	21829.44
616.05	21783.57
616.406	21986.05
616.762	21949.89
617.118	21786.5
617.475	21929.32
617.831	22023.11
618.187	22033.73
618.543	22060.62
618.899	22201.86
619.255	22116.44
619.611	22186.94
619.967	22233.27
620.323	22425.58
620.678	22311.91
621.034	22237.79
621.39	22289.54
621.746	22211.13
622.101	22613.37
622.457	22428.29
622.812	22511.46
623.168	22478.69
623.523	22508.97
623.879	22680.27
624.234	22369.76
624.589	22655.41
624.945	22635.07
625.3	22608.85
625.655	22703.09
626.01	22668.29
626.365	22699.25
626.72	22640.04
627.075	22662.86
627.43	22741.73
627.785	22610.21
628.14	22672.36
628.495	22849.3
628.85	22691.34
629.205	22577.9
629.559	22842.29
629.914	22734.28
630.269	22693.15
630.623	22644.11
630.978	22669.19
631.332	22828.51
631.687	22836.65
632.041	22773.6
632.396	22685.46
632.75	22824.22
633.104	22808.4
633.459	22710.55
633.813	22735.41
634.167	22675.97
634.521	22800.04
634.875	22732.92
635.229	22691.34
635.583	22666.03
635.937	22771.79
636.291	22577.44
636.645	22772.92
636.999	22594.62
637.352	22708.29
637.706	22587.39
638.06	22647.5
638.413	22560.04
638.767	22624.9
639.121	22603.88
639.474	22517.78
639.828	22511.91
640.181	22541.51
640.534	22580.38
640.888	22475.3
641.241	22482.76
641.594	22551.91
641.947	22580.61
642.301	22455.86
642.654	22516.65
643.007	22642.07
643.36	22532.02
643.713	22433.72
644.066	22542.19
644.419	22483.66
644.771	22231.69
645.124	22156.89
645.477	22187.62
645.83	22002.09
646.182	21960.06
646.535	21992.15
646.888	21939.95
647.24	21812.94
647.593	21921.19
647.945	21948.76
648.298	21754.64
648.65	21772.49
649.002	21771.59
649.355	21905.37
649.707	21862.43
650.059	21972.49
650.411	22292.25
650.763	22221.29
651.115	22558.69
651.467	22402.76
651.819	22318.92
652.171	22424.23
652.523	22345.13
652.875	22436.2
653.227	22289.09
653.578	22388.07
653.93	22384.23
654.282	22160.05
654.633	22252.25
654.985	22210.67
655.337	22268.75
655.688	22303.78
656.039	22369.54
656.391	22206.83
656.742	22308.98
657.094	22294.29
657.445	22459.03
657.796	22284.8
658.147	22203.22
658.498	22290.9
658.849	22278.24
659.2	22329.99
659.551	22189.2
659.902	22352.59
660.253	22264.91
660.604	22421.29
660.955	22191.92
661.306	22399.37
661.656	22280.05
662.007	22377.9
662.358	22364.34
662.708	22384
663.059	22282.54
663.409	22146.27
663.76	22372.02
664.11	22459.93
664.461	22386.04
664.811	22396.43
665.161	22434.62
665.511	22394.17
665.862	22410.89
666.212	22421.97
666.562	22471.91
666.912	22502.19
667.262	22502.87
667.612	22385.58
667.962	22423.77
668.312	22429.42
668.662	22496.77
669.011	22415.41
669.361	22373.83
669.711	22358.92
670.06	22231.92
670.41	22365.47
670.76	22303.1
671.109	22477.78
671.459	22355.3
671.808	22330.9
672.157	22381.52
672.507	22219.03
672.856	22378.58
673.205	22291.8
673.554	22433.27
673.904	22330.22
674.253	22440.05
674.602	22394.85
674.951	22092.94
675.3	21982.66
675.649	22278.92
675.998	22307.39
676.346	22271.91
676.695	22354.4
677.044	22233.05
677.393	22290.9
677.741	22318.01
678.09	22369.76
678.438	22145.59
678.787	22244.8
679.135	22306.49
679.484	22143.78
679.832	22138.58
680.181	22077.8
680.529	22193.05
680.877	22112.14
681.225	22025.59
681.573	22247.06
681.922	22017.46
682.27	22070.34
682.618	22027.4
682.966	22007.06
683.314	22041.64
683.661	22044.35
684.009	21849.78
684.357	21855.2
684.705	21851.36
685.053	21898.14
685.4	21848.65
685.748	21847.29
686.095	21709.9
686.443	21731.82
686.79	21645.04
687.138	21763.91
687.485	21598.94
687.832	21670.35
688.18	21619.28
688.527	21595.55
688.874	21579.73
689.221	21567.98
689.568	21388.55
689.915	21500.86
690.262	21375.67
690.609	21494.08
690.956	21246.63
691.303	21281.43
691.65	21302
691.997	21188.33
692.344	21137.48
692.69	21124.37
693.037	21070.82
693.383	20919.63
693.73	20985.39
694.077	20953.3
694.423	21034.21
694.769	20821.33
695.116	20756.93
695.462	20808
695.808	20672.41
696.155	20739.53
696.501	20572.3
696.847	20638.74
697.193	20477.61
697.539	20573.65
697.885	20364.39
698.231	20355.81
698.577	20477.39
698.923	20293.44
699.269	20242.14
699.614	20142.7
699.96	20179.09
700.306	20150.39
700.651	20098.86
700.997	20019.32
701.342	19962.14
701.688	20004.4
702.033	19910.62
702.379	19939.77
702.724	19885.76
703.069	19949.94
703.415	19613.68
703.76	19690.51
704.105	19694.13
704.45	19615.04
704.795	19629.95
705.14	19476.51
705.485	19443.97
705.83	19427.47
706.175	19431.76
706.52	19381.14
706.865	19326.68
707.209	19289.62
707.554	19242.39
707.899	19319.68
708.243	19179.57
708.588	19134.14
708.932	19109.74
709.277	19010.08
709.621	19123.75
709.966	18951.1
710.31	18991.32
710.654	18847.37
710.998	18821.84
711.342	18924.66
711.687	18929.63
712.031	18867.26
712.375	18738
712.719	18792.46
713.063	18692.57
713.407	18855.96
713.75	18702.74
714.094	18738.9
714.438	18591.11
714.782	18604.89
715.125	18550.88
715.469	18575.06
715.812	18471.11
716.156	18522.18
716.499	18490.54
716.843	18491.67
717.186	18282.41
717.53	18457.33
717.873	18446.7
718.216	18342.3
718.559	18337.55
718.902	18190.89
719.246	18311.79
719.589	18230.21
719.932	18113.83
720.275	18130.33
720.617	18165.13
720.96	18084.91
721.303	18039.03
721.646	18041.74
721.989	18002.65
722.331	17985.7
722.674	18008.52
723.016	18151.12
723.359	17989.54
723.701	18068.86
724.044	17870.67
724.386	17896.21
724.729	17940.5
725.071	17907.06
725.413	17862.31
725.755	17783.22
726.097	17804.24
726.439	17800.17
726.782	17704.12
727.124	17855.08
727.465	17780.51
727.807	17743.45
728.149	17771.69
728.491	17676.33
728.833	17734.18
729.175	17718.81
729.516	17664.58
729.858	17680.85
730.199	17694.18
730.541	17592.49
730.882	17587.07
731.224	17724.92
731.565	17540.06
731.906	17543.23
732.248	17671.36
732.589	17526.5
732.93	17473.4
733.271	17432.72
733.612	17533.73
733.953	17570.8
734.294	17386.62
734.635	17492.15
734.976	17509.78
735.317	17409.22
735.658	17368.31
735.999	17464.13
736.339	17371.48
736.68	17505.49
737.021	17273.18
737.361	17293.97
737.702	17434.3
738.042	17322.67
738.383	17372.38
738.723	17378.03
739.063	17252.84
739.404	17318.37
739.744	17320.86
740.084	17286.73
740.424	17228.66
740.764	17264.59
741.104	17315.66
741.444	17179.39
741.784	17140.75
742.124	17212.61
742.464	17184.14
742.804	17151.6
743.143	17138.49
743.483	17221.2
743.823	17051.49
744.162	17133.74
744.502	17145.04
744.841	17072.73
745.181	17116.57
745.52	17064.14
745.86	17001.32
746.199	17046.06
746.538	17023.01
746.877	17044.26
747.216	17080.86
747.556	17067.53
747.895	16991.38
748.234	16975.56
748.573	16958.61
748.911	16940.08
749.25	16913.41
749.589	16957.7
749.928	16915.9
750.267	16964.94
750.605	16823.47
750.944	16849.23
751.283	16816.92
751.621	16822.79
751.96	16725.62
752.298	16806.75
752.636	16774.66
752.975	16717.71
753.313	16686.52
753.651	16768.78
753.989	16688.78
754.327	16639.52
754.666	16612.4
755.004	16557.49
755.342	16623.25
755.679	16604.27
756.017	16474.1
756.355	16505.51
756.693	16522.24
757.031	16509.81
757.368	16474.33
757.706	16403.14
758.044	16357.49
758.381	16544.38
758.719	16363.6
759.056	16461.22
759.394	16209.93
759.731	16119.08
760.068	16238.85
760.405	16115.47
760.743	16018.07
761.08	16181.68
761.417	16089.48
761.754	16122.02
762.091	16083.6
762.428	16031.85
762.765	15902.36
763.102	15927.22
763.438	15882.7
763.775	15819.88
764.112	15875.47
764.449	15826.89
764.785	15710.28
765.122	15658.53
765.458	15686.78
765.795	15704.86
766.131	15589.38
766.467	15643.16
766.804	15542.6
767.14	15425.99
767.476	15485.65
767.812	15411.08
768.148	15413.56
768.485	15330.85
768.821	15279.78
769.157	15259.67
769.492	15143.06
769.828	15158.66
770.164	15110.07
770.5	15108.26
770.836	15095.15
771.171	14975.16
771.507	14968.38
771.842	14825.1
772.178	14841.38
772.513	14823.52
772.849	14722.73
773.184	14723.64
773.519	14802.28
773.855	14590.08
774.19	14596.18
774.525	14534.04
774.86	14536.75
775.195	14563.64
775.53	14487.49
775.865	14303.54
776.2	14267.83
776.535	14225.35
776.87	14240.71
777.205	14203.88
777.539	14065.58
777.874	14118
778.209	13998.91
778.543	13966.37
778.878	13853.83
779.212	13899.48
779.547	13838.69
779.881	13776.54
780.215	13757.11
780.55	13746.26
780.884	13669.2
781.218	13573.61
781.552	13645.7
781.886	13532.03
782.22	13478.47
782.554	13450
782.888	13387.63
783.222	13300.4
783.556	13260.85
783.889	13270.12
784.223	13221.3
784.557	13173.62
784.89	13151.02
785.224	13125.26
785.557	13020.41
785.891	12987.86
786.224	12940.41
786.558	12934.31
786.891	12873.97
787.224	12815.89
787.557	12771.15
787.891	12826.96
788.224	12700.87
788.557	12731.37
788.89	12653.86
789.223	12684.6
789.556	12560.76
789.888	12571.38
790.221	12421.55
790.554	12382.91
790.887	12400.31
791.219	12396.02
791.552	12360.31
791.884	12279.41
792.217	12221.33
792.549	12257.49
792.882	12149.24
793.214	12164.16
793.546	12154.21
793.879	11988.57
794.211	12012.3
794.543	12041
794.875	11982.92
795.207	12031.28
795.539	11934.33
795.871	11903.37
796.203	11784.05
796.535	11777.73
796.867	11715.13
797.198	11733.66
797.53	11716.71
797.862	11649.59
798.193	11679.42
798.525	11657.28
798.856	11558.98
799.188	11478.3
799.519	11436.72
799.85	11475.14
800.182	11418.41
800.513	11365.76
800.844	11320.56
801.175	11331.86
801.506	11341.58
801.837	11266.78
802.168	11260.45
802.499	11225.88
802.83	11196.05
803.161	11110.63
803.491	11104.75
803.822	11115.82
804.153	11034.02
804.483	11031.31
804.814	11000.8
805.145	10985.43
805.475	10914.92
805.805	10883.51
806.136	10948.6
806.466	10866.11
806.796	10887.35
807.126	10772.33
807.457	10770.07
807.787	10738.21
808.117	10740.92
808.447	10747.02
808.777	10795.38
809.107	10672.22
809.436	10649.17
809.766	10600.81
810.096	10595.61
810.426	10582.5
810.755	10547.48
811.085	10541.38
811.414	10500.7
811.744	10399.46
812.073	10422.96
812.403	10444.65
812.732	10380.93
813.061	10371.89
813.39	10282.85
813.719	10297.54
814.049	10322.17
814.378	10280.37
814.707	10269.29
815.036	10241.95
815.365	10164.44
815.693	10088.73
816.022	10051.44
816.351	10057.09
816.68	10036.08
817.008	10048.73
817.337	10025.68
817.665	9971.9
817.994	10036.3
818.322	9958.57
818.651	10010.09
818.979	9893.71
819.307	9941.84
819.636	9842.86
819.964	9894.84
820.292	9909.3
820.62	9885.8
820.948	9826.82
821.276	9850.09
821.604	9769.42
821.932	9859.81
822.259	9831.34
822.587	9858.91
822.915	9787.5
823.243	9893.26
823.57	9779.36
823.898	9825.01
824.225	9810.77
824.553	9818.23
824.88	9803.99
825.207	9875.18
825.535	9793.82
825.862	9821.85
826.189	9797.44
826.516	9836.54
826.843	9832.92
827.17	9895.52
827.497	9848.29
827.824	9822.07
828.151	9836.76
828.478	9817.1
828.805	9842.18
829.131	9818
829.458	9827.27
829.785	9737.55
830.111	9815.74
830.438	9787.72
830.764	9843.77
831.09	9758.8
831.417	9765.8
831.743	9819.81
832.069	9803.77
832.395	9790.21
832.722	9750.21
833.048	9746.82
833.374	9736.65
833.7	9724.22
834.026	9773.94
834.351	9799.93
834.677	9783.66
835.003	9758.35
835.329	9762.86
835.654	9709.98
835.98	9641.96
836.306	9589.08
836.631	9616.65
836.956	9618.01
837.282	9665.24
837.607	9660.95
837.932	9626.37
838.258	9601.51
838.583	9589.08
838.908	9611.46
839.233	9588.18
839.558	9517.45
839.883	9547.28
840.208	9471.35
840.533	9454.85
840.858	9498.24
841.182	9547.73
841.507	9542.76
841.832	9458.01
842.156	9444
842.481	9536.88
842.805	9427.96
843.13	9418.24
843.454	9345.93
843.778	9368.52
844.103	9318.13
844.427	9266.38
844.751	9365.14
845.075	9257.79
845.399	9265.25
845.723	9218.25
846.047	9244.46
846.371	9109.55
846.695	9155.65
847.019	9055.09
847.343	8942.77
847.666	9012.83
847.99	8896.22
848.313	8925.82
848.637	8910.68
848.96	8928.99
849.284	8879.95
849.607	8792.04
849.931	8814.87
850.254	8687.19
850.577	8644.48
850.9	8634.53
851.223	8582.1
851.546	8626.17
851.869	8503.01
852.192	8542.78
852.515	8451.94
852.838	8439.51
853.161	8476.34
853.483	8375.1
853.806	8378.27
854.129	8374.88
854.451	8346.4
854.774	8334.65
855.096	8238.16
855.419	8263.92
855.741	8275.9
856.063	8226.41
856.385	8232.74
856.708	8164.04
857.03	8153.19
857.352	8155.9
857.674	8116.58
857.996	8058.05
858.318	8068.67
858.64	8051.5
858.961	7944.16
859.283	8008.33
859.605	7992.29
859.926	7939.86
860.248	7982.12
860.57	7908.9
860.891	7925.85
861.212	7867.55
861.534	7842.69
861.855	7825.51
862.176	7845.85
862.498	7911.39
862.819	7835.68
863.14	7802.69
863.461	7749.81
863.782	7732.41
864.103	7847.89
864.424	7714.56
864.745	7779.19
865.065	7741
865.386	7689.25
865.707	7650.38
866.027	7699.19
866.348	7607.22
866.668	7705.07
866.989	7580.1
867.309	7574.45
867.63	7704.39
867.95	7588.01
868.27	7557.5
868.59	7499.2
868.91	7543.26
869.23	7563.6
869.55	7517.5
869.87	7458.97
870.19	7530.83
870.51	7463.94
870.83	7539.87
871.15	7459.65
871.469	7423.94
871.789	7445.41
872.109	7381.68
872.428	7423.04
872.748	7452.87
873.067	7415.13
873.386	7442.25
873.706	7424.85
874.025	7386.2
874.344	7332.42
874.663	7351.4
874.982	7365.87
875.301	7376.26
875.62	7347.56
875.939	7319.09
876.258	7313.44
876.577	7284.51
876.896	7326.54
877.214	7289.48
877.533	7295.81
877.852	7249.48
878.17	7243.38
878.489	7229.37
878.807	7239.09
879.125	7203.61
879.444	7211.52
879.762	7148.47
880.08	7194.34
880.398	7151.18
880.716	7178.07
881.034	7164.97
881.352	7146.89
881.67	7114.57
881.988	7062.82
882.306	7084.52
882.624	7100.11
882.941	7059.88
883.259	7014.91
883.577	7037.29
883.894	7009.72
884.212	7032.54
884.529	7017.17
884.846	6971.3
885.164	6933.56
885.481	6958.87
885.798	6930.4
886.115	6864.86
886.432	6898.99
886.75	6949.15
887.067	6891.3
887.383	6842.94
887.7	6867.35
888.017	6838.2
888.334	6838.87
888.651	6786.9
888.967	6772.66
889.284	6729.72
889.6	6731.08
889.917	6701.48
890.233	6709.39
890.55	6689.05
890.866	6661.93
891.182	6606.34
891.498	6634.59
891.815	6604.53
892.131	6596.85
892.447	6582.38
892.763	6530.63
893.079	6567.02
893.395	6469.62
893.71	6428.49
894.026	6524.31
894.342	6469.84
894.657	6413.35
894.973	6421.26
895.289	6413.35
895.604	6397.53
895.92	6330.64
896.235	6291.09
896.55	6300.13
896.865	6315.95
897.181	6268.27
897.496	6318.89
897.811	6264.43
898.126	6216.74
898.441	6189.85
898.756	6180.59
899.071	6140.36
899.386	6161.38
899.7	6087.26
900.015	6080.7
900.33	6081.83
900.644	6047.71
900.959	6063.3
901.273	6004.55
901.588	6002.74
901.902	5908.5
902.216	5948.73
902.531	5911.21
902.845	5925.45
903.159	5928.62
903.473	5853.14
903.787	5841.84
904.101	5800.71
904.415	5825.57
904.729	5820.37
905.042	5710.09
905.356	5759.13
905.67	5727.49
905.984	5750.31
906.297	5758.45
906.611	5655.63
906.924	5655.4
907.237	5636.42
907.551	5603.2
907.864	5614.5
908.177	5578.12
908.491	5576.99
908.804	5536.76
909.117	5526.82
909.43	5552.13
909.743	5472.58
910.056	5433.71
910.368	5476.65
910.681	5389.65
910.994	5368.86
911.307	5366.6
911.619	5303.1
911.932	5352.81
912.244	5296.54
912.557	5271.91
912.869	5263.55
913.181	5253.38
913.494	5228.29
913.806	5168.64
914.118	5212.02
914.43	5132.93
914.742	5153.95
915.054	5141.07
915.366	5094.51
915.678	5075.98
915.99	5065.36
916.302	5053.38
916.613	5041.63
916.925	4966.61
917.236	5028.98
917.548	4983.56
917.859	4957.34
918.171	4951.92
918.482	4944.23
918.794	4896.33
919.105	4866.72
919.416	4820.17
919.727	4861.07
920.038	4835.76
920.349	4773.84
920.66	4726.16
920.971	4785.14
921.282	4744.69
921.593	4741.3
921.903	4664.69
922.214	4694.52
922.525	4666.28
922.835	4692.04
923.146	4634.86
923.456	4576.56
923.767	4626.5
924.077	4595.99
924.387	4554.19
924.697	4537.01
925.008	4544.7
925.318	4563.45
925.628	4473.96
925.938	4455.21
926.248	4457.02
926.558	4439.61
926.867	4414.08
927.177	4387.86
927.487	4375.66
927.796	4294.53
928.106	4325.95
928.416	4283.01
928.725	4325.04
929.034	4291.82
929.344	4270.13
929.653	4253.18
929.962	4214.54
930.271	4191.26
930.581	4119.62
930.89	4176.57
931.199	4098.61
931.508	4134.54
931.817	4141.09
932.125	4123.01
932.434	4111.26
932.743	4076.69
933.051	4056.12
933.36	4032.85
933.669	4034.2
933.977	3985.84
934.286	3980.64
934.594	3984.26
934.902	3932.06
935.21	3920.31
935.519	3943.58
935.827	3948.1
936.135	3919.18
936.443	3880.99
936.751	3832.63
937.059	3831.04
937.367	3851.38
937.674	3827.65
937.982	3804.6
938.29	3768.9
938.597	3781.78
938.905	3743.14
939.213	3748.33
939.52	3718.5
939.827	3737.71
940.135	3747.88
940.442	3731.38
940.749	3700.88
941.056	3680.54
941.363	3624.5
941.67	3637.83
941.977	3625.4
942.284	3626.53
942.591	3561.22
942.898	3574.33
943.205	3555.8
943.511	3544.95
943.818	3533.42
944.125	3513.76
944.431	3472.86
944.738	3524.16
945.044	3476.25
945.35	3470.37
945.657	3429.92
945.963	3420.21
946.269	3407.33
946.575	3409.13
946.881	3380.21
947.187	3408
947.493	3349.25
947.799	3363.49
948.105	3316.71
948.41	3342.02
948.716	3297.05
949.022	3269.25
949.327	3286.88
949.633	3253.66
949.938	3271.06
950.244	3261.34
950.549	3189.25
950.854	3250.04
951.16	3192.87
951.465	3155.35
951.77	3186.31
952.075	3177.95
952.38	3128.24
952.685	3154.68
952.99	3087.11
953.294	3125.3
953.599	3080.33
953.904	3045.53
954.209	3017.51
954.513	3091.4
954.818	3046.21
955.122	3012.76
955.426	3013.21
955.731	3005.08
956.035	2968.02
956.339	2984.29
956.643	2949.94
956.948	2933.89
957.252	2967.79
957.556	2885.98
957.86	2955.13
958.163	2924.17
958.467	2898.41
958.771	2901.58
959.075	2864.52
959.378	2851.41
959.682	2829.26
959.985	2841.24
960.289	2813.67
960.592	2806.21
960.896	2805.53
961.199	2798.75
961.502	2794.23
961.805	2783.84
962.108	2752.43
962.411	2762.82
962.714	2741.13
963.017	2722.15
963.32	2736.61
963.623	2702.49
963.926	2633.33
964.228	2677.63
964.531	2643.96
964.833	2663.16
965.136	2654.58
965.438	2605.76
965.741	2637.63
966.043	2607.35
966.345	2609.61
966.648	2587.69
966.95	2614.8
967.252	2595.14
967.554	2549.5
967.856	2602.38
968.158	2562.83
968.46	2535.03
968.761	2517.18
969.063	2496.39
969.365	2487.35
969.666	2492.1
969.968	2452.77
970.269	2457.52
970.571	2476.05
970.872	2460.23
971.174	2414.13
971.475	2439.22
971.776	2427.46
972.077	2424.07
972.378	2403.28
972.679	2369.84
972.98	2392.89
973.281	2377.97
973.582	2352.21
973.883	2347.47
974.183	2353.57
974.484	2314.7
974.785	2310.18
975.085	2317.64
975.386	2310.63
975.686	2284.64
975.986	2262.72
976.287	2277.19
976.587	2261.82
976.887	2235.38
977.187	2268.15
977.487	2239.67
977.787	2239.45
978.087	2221.14
978.387	2242.38
978.687	2184.31
978.987	2208.49
979.286	2185.44
979.586	2158.54
979.885	2152.67
980.185	2159.45
980.484	2152.44
980.784	2143.18
981.083	2132.33
981.382	2138.88
981.682	2119.45
981.981	2097.53
982.28	2107.25
982.579	2069.28
982.878	2075.38
983.177	2052.11
983.475	2041.71
983.774	2052.79
984.073	2042.39
984.372	2023.41
984.67	2042.84
984.969	2012.56
985.267	2054.59
985.566	1988.61
985.864	2003.52
986.162	1977.76
986.461	1961.26
986.759	1979.34
987.057	1941.83
987.355	1929.4
987.653	1928.49
987.951	1938.89
988.249	1918.33
988.547	1912.68
988.844	1892.79
989.142	1880.59
989.44	1875.16
989.737	1909.06
990.035	1840.81
990.332	1858.89
990.63	1851.43
990.927	1862.73
991.224	1842.17
991.521	1841.72
991.819	1807.37
992.116	1815.5
992.413	1828.61
992.71	1800.14
993.006	1813.92
993.303	1794.49
993.6	1771.89
993.897	1760.14
994.193	1771.44
994.49	1776.86
994.787	1772.34
995.083	1751.32
995.379	1767.59
995.676	1716.3
995.972	1712.45
996.268	1726.01
996.565	1672.68
996.861	1664.55
997.157	1697.31
997.453	1669.29
997.749	1665.9
998.044	1641.72
998.34	1662.96
998.636	1647.82
998.932	1675.85
999.227	1624.32
999.523	1613.7
999.818	1612.34
1000.114	1615.06
1000.409	1622.06
1000.704	1591.33
1001	1561.05
1001.295	1569.18
1001.59	1597.43
1001.885	1583.87
1002.18	1547.49
1002.475	1594.94
1002.77	1539.35
1003.065	1537.32
1003.359	1519.01
1003.654	1501.16
1003.949	1513.36
1004.243	1501.39
1004.538	1518.11
1004.832	1480.6
1005.127	1504.1
1005.421	1469.07
1005.715	1470.43
1006.009	1450.54
1006.304	1443.76
1006.598	1421.16
1006.892	1453.25
1007.186	1394.95
1007.48	1430.2
1007.773	1420.03
1008.067	1381.84
1008.361	1408.96
1008.655	1389.75
1008.948	1417.1
1009.242	1384.55
1009.535	1361.96
1009.829	1370.32
1010.122	1343.88
1010.415	1348.62
1010.708	1331
1011.001	1351.56
1011.295	1305.46
1011.588	1311.56
1011.881	1293.71
1012.173	1341.17
1012.466	1309.53
1012.759	1289.42
1013.052	1291.68
1013.344	1286.7
1013.637	1293.48
1013.93	1257.33
1014.222	1260.72
1014.514	1261.85
1014.807	1225.24
1015.099	1230.21
1015.391	1253.71
1015.683	1236.08
1015.976	1238.12
1016.268	1203.32
1016.56	1178.23
1016.851	1210.1
1017.143	1208.06
1017.435	1196.76
1017.727	1199.25
1018.018	1170.55
1018.31	1201.73
1018.602	1152.92
1018.893	1147.27
1019.185	1153.15
1019.476	1149.08
1019.767	1135.52
1020.058	1110.44
1020.35	1106.37
1020.641	1107.05
1020.932	1114.05
1021.223	1105.47
1021.514	1094.39
1021.804	1091
1022.095	1081.51
1022.386	1088.52
1022.677	1073.6
1022.967	1050.78
1023.258	1043.09
1023.548	1041.06
1023.839	1054.85
1024.129	1023.21
1024.419	1033.15
1024.709	1024.56
1025	1008.52
1025.29	989.08
1025.58	997.67
1025.87	1003.55
1026.16	987.5
1026.449	974.62
1026.739	971.91
1027.029	982.53
1027.319	973.49
1027.608	958.12
1027.898	955.86
1028.187	976.2
1028.477	935.98
1028.766	916.09
1029.055	924
1029.344	934.17
1029.634	917.22
1029.923	931.01
1030.212	907.05
1030.501	897.11
1030.79	901.4
1031.078	888.97
1031.367	895.08
1031.656	870.67
1031.945	896.88
1032.233	886.71
1032.522	857.11
1032.81	856.88
1033.099	856.43
1033.387	868.18
1033.675	856.21
1033.963	847.17
1034.251	851.46
1034.54	813.5
1034.828	812.59
1035.116	826.15
1035.403	822.31
1035.691	819.82
1035.979	820.95
1036.267	821.4
1036.554	795.87
1036.842	786.6
1037.129	791.58
1037.417	784.57
1037.704	784.34
1037.992	772.82
1038.279	774.4
1038.566	787.06
1038.853	787.06
1039.14	787.06
