Data from cardboard_FLMS001491_086.txt Node
Date: Tue Feb 07 11:40:16 GMT 2017
User: dcchb
Spectrometer: FLMS00149
Trigger mode: 0
Integration Time (sec): 2.000000E-2
Scans to average: 10
Electric dark correction enabled: true
Nonlinearity correction enabled: false
Boxcar width: 0
XAxis mode: Wavelengths
Number of Pixels in Spectrum: 2048
>>>>>Begin Spectral Data<<<<<
341.393	-11.12
341.776	-11.12
342.16	-11.12
342.543	-55.18
342.927	-61.96
343.31	-67.84
343.693	-64
344.077	-47.5
344.46	-48.18
344.843	-69.65
345.226	-40.72
345.61	-27.39
345.993	5.83
346.376	-14.05
346.759	-9.08
347.142	19.39
347.525	46.06
347.908	42.44
348.291	66.62
348.674	92.84
349.057	115.21
349.44	108.43
349.823	140.97
350.206	176
350.588	197.92
350.971	215.55
351.354	237.69
351.737	237.47
352.119	239.95
352.502	244.24
352.884	280.63
353.267	282.44
353.65	304.81
354.032	294.87
354.414	298.93
354.797	322.44
355.179	312.72
355.562	325.6
355.944	322.44
356.326	350
356.709	334.86
357.091	335.32
357.473	342.77
357.855	334.41
358.238	339.84
358.62	354.75
359.002	346.84
359.384	355.43
359.766	346.16
360.148	315.88
360.53	357.69
360.912	337.12
361.294	333.51
361.676	343.68
362.057	338.71
362.439	333.96
362.821	349.33
363.203	326.95
363.584	324.47
363.966	331.02
364.348	320.63
364.729	321.31
365.111	308.65
365.493	325.82
365.874	334.19
366.256	326.05
366.637	332.38
367.019	307.29
367.4	330.8
367.781	345.71
368.163	322.89
368.544	312.72
368.925	330.12
369.306	331.47
369.688	314.3
370.069	310.68
370.45	321.76
370.831	325.15
371.212	334.41
371.593	317.92
371.974	319.72
372.355	317.24
372.736	332.83
373.117	311.59
373.498	321.76
373.879	315.43
374.26	314.98
374.641	316.79
375.021	320.85
375.402	323.56
375.783	339.84
376.163	338.48
376.544	333.96
376.925	338.25
377.305	335.77
377.686	338.25
378.066	343.45
378.447	321.08
378.827	343
379.208	324.24
379.588	342.1
379.968	323.11
380.349	321.08
380.729	334.64
381.109	359.04
381.489	335.99
381.87	351.36
382.25	346.62
382.63	355.2
383.01	337.35
383.39	340.06
383.77	345.49
384.15	358.14
384.53	354.52
384.91	353.17
385.29	391.36
385.67	375.77
386.049	388.65
386.429	373.73
386.809	381.42
387.189	376.44
387.568	366.5
387.948	352.94
388.328	353.62
388.707	368.99
389.087	370.57
389.466	377.8
389.846	357.69
390.225	379.83
390.605	372.83
390.984	405.37
391.363	379.83
391.743	369.67
392.122	404.47
392.501	418.7
392.881	399.27
393.26	397.46
393.639	398.14
394.018	396.11
394.397	391.36
394.776	392.04
395.155	405.37
395.534	413.73
395.913	410.57
396.292	425.94
396.671	418.93
397.05	441.08
397.429	435.88
397.808	399.5
398.186	407.86
398.565	432.04
398.944	437.69
399.323	428.42
399.701	431.36
400.08	448.53
400.458	445.37
400.837	417.8
401.215	446.5
401.594	450.12
401.972	455.09
402.351	448.99
402.729	453.73
403.107	460.51
403.486	466.39
403.864	462.32
404.242	463.9
404.62	476.78
404.999	450.12
405.377	472.71
405.755	477.46
406.133	471.13
406.511	484.46
406.889	502.09
407.267	507.06
407.645	495.76
408.023	483.56
408.401	508.64
408.779	507.97
409.156	481.53
409.534	526.05
409.912	526.95
410.29	545.03
410.667	532.82
411.045	549.77
411.422	543.45
411.8	537.8
412.178	568.76
412.555	549.55
412.933	547.97
413.31	551.58
413.687	591.13
414.065	585.25
414.442	583.45
414.819	591.35
415.197	578.02
415.574	612.37
415.951	574.63
416.328	601.3
416.705	595.65
417.082	599.94
417.46	589.77
417.837	604.24
418.214	619.83
418.591	629.55
418.967	633.84
419.344	635.42
419.721	648.98
420.098	659.6
420.475	643.33
420.852	631.81
421.228	673.84
421.605	648.3
421.982	653.27
422.358	645.82
422.735	658.47
423.111	657.57
423.488	670
423.864	681.75
424.241	679.49
424.617	693.27
424.994	667.74
425.37	691.24
425.746	709.09
426.123	723.33
426.499	712.03
426.875	732.82
427.251	764.23
427.627	752.93
428.003	745.93
428.379	751.8
428.756	759.26
429.132	760.39
429.507	779.6
429.883	791.58
430.259	795.42
430.635	798.35
431.011	790.45
431.387	807.17
431.763	828.86
432.138	861.86
432.514	849.2
432.89	843.33
433.265	846.72
433.641	873.83
434.016	867.96
434.392	890.1
434.767	883.32
435.143	892.14
435.518	899.82
435.894	921.06
436.269	910.44
436.644	895.75
437.02	933.94
437.395	917.22
437.77	948.63
438.145	955.41
438.52	965.36
438.895	980.27
439.271	1002.87
439.646	982.76
440.021	1008.74
440.395	995.41
440.77	1012.59
441.145	1000.38
441.52	1009.2
441.895	1030.89
442.27	1056.65
442.645	1061.85
443.019	1066.82
443.394	1058.46
443.769	1077.9
444.143	1045.35
444.518	1070.66
444.892	1047.39
445.267	1103.21
445.641	1121.96
446.016	1097.56
446.39	1093.71
446.764	1115.41
447.139	1125.13
447.513	1140.04
447.887	1119.02
448.262	1154.05
448.636	1144.33
449.01	1162.64
449.384	1166.48
449.758	1151.11
450.132	1182.75
450.506	1192.24
450.88	1200.83
451.254	1189.08
451.628	1211
452.002	1245.12
452.376	1218.91
452.75	1272.47
453.123	1253.71
453.497	1281.51
453.871	1263.65
454.244	1276.53
454.618	1349.75
454.992	1331.9
455.365	1310.88
455.739	1329.19
456.112	1371.9
456.486	1359.7
456.859	1381.62
457.232	1427.26
457.606	1425
457.979	1428.39
458.352	1468.85
458.725	1467.72
459.099	1486.25
459.472	1505.23
459.845	1524.44
460.218	1509.75
460.591	1528.28
460.964	1579.35
461.337	1588.84
461.71	1605.34
462.083	1610.31
462.456	1621.61
462.829	1633.59
463.201	1667.03
463.574	1674.72
463.947	1711.55
464.32	1740.02
464.692	1721.72
465.065	1778.67
465.438	1785.67
465.81	1773.02
466.183	1825.45
466.555	1853.24
466.928	1861.6
467.3	1844.65
467.672	1886.91
468.045	1904.54
468.417	1925.56
468.789	1952.22
469.161	1992.67
469.534	2011.43
469.906	2048.72
470.278	2044.65
470.65	2088.49
471.022	2124.65
471.394	2162.61
471.766	2157.19
472.138	2204.65
472.51	2250.75
472.882	2267.24
473.253	2307.69
473.625	2331.87
473.997	2370.06
474.369	2422.04
474.74	2439.22
475.112	2468.82
475.484	2516.95
475.855	2563.96
476.227	2532.55
476.598	2644.63
476.97	2657.51
477.341	2717.4
477.713	2739.09
478.084	2756.95
478.455	2829.04
478.827	2905.64
479.198	3005.3
479.569	2947.45
479.94	3039.2
480.311	3108.35
480.682	3161.23
481.053	3197.61
481.424	3267.89
481.795	3305.63
482.166	3329.59
482.537	3421.56
482.908	3475.12
483.279	3474.22
483.65	3567.55
484.021	3631.27
484.391	3659.75
484.762	3682.12
485.133	3716.24
485.503	3820.65
485.874	3891.15
486.244	3920.53
486.615	4027.2
486.985	4061.77
487.356	4100.19
487.726	4163.24
488.097	4242.56
488.467	4283.91
488.837	4367.07
489.207	4403.46
489.578	4451.14
489.948	4505.15
490.318	4626.95
490.688	4639.16
491.058	4734.07
491.428	4796.44
491.798	4843.45
492.168	4906.04
492.538	4930
492.908	5005.02
493.278	5124.57
493.648	5076.66
494.017	5174.51
494.387	5225.36
494.757	5249.31
495.126	5356.65
495.496	5369.76
495.866	5471.68
496.235	5469.87
496.605	5545.57
496.974	5535.86
497.344	5610.88
497.713	5688.62
498.082	5783.76
498.452	5829.86
498.821	5869.86
499.19	5858.33
499.559	5994.15
499.928	6013.58
500.298	6091.55
500.667	6172.9
501.036	6130.42
501.405	6217.2
501.774	6275.95
502.143	6331.77
502.512	6409.05
502.88	6388.72
503.249	6523.4
503.618	6555.72
503.987	6583.97
504.356	6608.15
504.724	6701.93
505.093	6738.54
505.462	6860.12
505.83	6862.6
506.199	6900.12
506.567	7048.81
506.936	7027.34
507.304	7159.77
507.672	7216.49
508.041	7241.12
508.409	7345.53
508.777	7381.46
509.145	7470.04
509.514	7476.15
509.882	7552.08
510.25	7573.09
510.618	7651.73
510.986	7754.78
511.354	7810.15
511.722	7889.02
512.09	7945.74
512.458	8065.73
512.826	8082.01
513.193	8180.31
513.561	8197.26
513.929	8278.16
514.297	8363.58
514.664	8509.56
515.032	8526.74
515.4	8650.58
515.767	8693.74
516.135	8749.78
516.502	8696.45
516.869	8956.78
517.237	8950.68
517.604	8987.97
517.972	9102.54
518.339	9182.32
518.706	9243.1
519.073	9323.55
519.44	9362.42
519.808	9490.1
520.175	9572.14
520.542	9644
520.909	9814.16
521.276	9820.94
521.643	9920.83
522.009	9988.17
522.376	10087.38
522.743	10114.27
523.11	10361.04
523.477	10386.35
523.843	10410.98
524.21	10660.02
524.577	10729.62
524.943	10757.41
525.31	10861.59
525.676	10974.81
526.043	11109.72
526.409	11155.82
526.776	11261.58
527.142	11351.75
527.508	11513.78
527.874	11579.77
528.241	11663.15
528.607	11728.69
528.973	11883.26
529.339	11923.71
529.705	12101.79
530.071	12153.54
530.437	12309.24
530.803	12379.07
531.169	12401.21
531.535	12426.75
531.901	12570.47
532.267	12643.24
532.632	12790.58
532.998	12885.49
533.364	13002.78
533.73	13057.69
534.095	13203.68
534.461	13195.77
534.826	13307.63
535.192	13381.3
535.557	13526.16
535.923	13539.26
536.288	13538.81
536.653	13674.63
537.019	13708.52
537.384	13805.7
537.749	13918.24
538.114	14017.44
538.479	14005.69
538.845	14147.83
539.21	14194.61
539.575	14315.29
539.94	14391.44
540.305	14534.72
540.67	14473.02
541.034	14692.23
541.399	14732.23
541.764	14781.72
542.129	14840.92
542.494	14937.64
542.858	14977.42
543.223	15017.64
543.587	15323.17
543.952	15227.13
544.316	15211.76
544.681	15356.84
545.045	15451.75
545.41	15488.36
545.774	15568.59
546.138	15618.53
546.503	15790.73
546.867	15800.45
547.231	15951.4
547.595	16064.85
547.959	16146.65
548.324	16178.52
548.688	16234.78
549.052	16285.18
549.416	16359.98
549.779	16417.83
550.143	16552.97
550.507	16697.82
550.871	16702.12
551.235	16663.25
551.599	16976.46
551.962	17001.09
552.326	17094.65
552.689	17177.81
553.053	17249.45
553.417	17249
553.78	17510.46
554.143	17495.32
554.507	17581.64
554.87	17583.9
555.234	17974.63
555.597	17836.32
555.96	17924.23
556.323	18067.28
556.686	18128.07
557.05	18261.62
557.413	18349.76
557.776	18394.73
558.139	18564.44
558.502	18692.8
558.865	18664.55
559.228	18900.48
559.59	18945.9
559.953	19018.67
560.316	19236.97
560.679	19269.51
561.041	19384.76
561.404	19524.87
561.767	19679.21
562.129	19664.3
562.492	19924.18
562.854	19958.3
563.217	19998.08
563.579	20132.31
563.941	20237.39
564.304	20329.14
564.666	20459.98
565.028	20603.71
565.39	20722.35
565.753	20843.03
566.115	20984.04
566.477	21012.51
566.839	21248.89
567.201	21276.23
567.563	21390.81
567.925	21497.7
568.287	21576.34
568.648	21680.52
569.01	21903.79
569.372	21967.06
569.734	21907.18
570.095	22160.73
570.457	22186.49
570.819	22332.03
571.18	22312.59
571.542	22619.02
571.903	22597.78
572.265	22742.41
572.626	22774.27
572.987	22911.45
573.349	22879.13
573.71	23148.73
574.071	23181.27
574.432	23262.4
574.794	23431.43
575.155	23533.8
575.516	23489.74
575.877	23612.9
576.238	23683.18
576.599	23722.05
576.96	23765.66
577.32	23848.82
577.681	24002.94
578.042	24101.47
578.403	24192.32
578.763	24197.51
579.124	24277.06
579.485	24387.79
579.845	24525.19
580.206	24475.47
580.566	24590.05
580.927	24578.97
581.287	24641.57
581.648	24613.55
582.008	24828.01
582.368	24809.02
582.728	24864.84
583.089	24948.68
583.449	24903.03
583.809	25007.21
584.169	25033.88
584.529	25014.67
584.889	25254.21
585.249	25146.87
585.609	25166.75
585.969	25273.64
586.329	25332.4
586.688	25332.17
587.048	25356.58
587.408	25352.51
587.768	25377.14
588.127	25486.07
588.487	25433.41
588.846	25692.16
589.206	25516.57
589.565	25608.55
589.925	25805.15
590.284	25651.26
590.643	25758.6
591.003	25950.24
591.362	25927.19
591.721	25834.98
592.08	25973.06
592.44	26057.8
592.799	26096.45
593.158	26031.59
593.517	25983
593.876	26113.4
594.235	26205.82
594.593	26138.71
594.952	26323.33
595.311	26171.47
595.67	26366.27
596.029	26593.61
596.387	26477.23
596.746	26571.24
597.104	26426.83
597.463	26561.52
597.822	26690.56
598.18	26582.99
598.538	26549.54
598.897	26709.09
599.255	26530.79
599.613	27006.03
599.972	26787.95
600.33	26832.47
600.688	26921.28
601.046	26938.91
601.404	27004.45
601.762	27008.06
602.12	27277.88
602.478	27088.06
602.836	27132.35
603.194	27149.3
603.552	27260.26
603.91	27100.04
604.268	27355.62
604.625	27163.09
604.983	27341.84
605.341	27287.38
605.698	27457.54
606.056	27458.67
606.413	27457.31
606.771	27593.58
607.128	27708.61
607.485	27525.79
607.843	27620.93
608.2	27881.26
608.557	27955.38
608.914	27820.92
609.272	27968.94
609.629	28094.81
609.986	28207.35
610.343	28050.07
610.7	28267.01
611.057	28193.11
611.414	28209.61
611.771	28189.5
612.127	28389.27
612.484	28409.83
612.841	28387.23
613.198	28453.22
613.554	28438.08
613.911	28717.39
614.267	28485.76
614.624	28570.28
614.98	28675.59
615.337	28768.92
615.693	28787
616.05	28725.3
616.406	28862.93
616.762	28847.11
617.118	28946.77
617.475	28876.03
617.831	29087.78
618.187	29078.97
618.543	29154.22
618.899	29266.08
619.255	29217.04
619.611	29292.29
619.967	29343.59
620.323	29432.18
620.678	29286.42
621.034	29375
621.39	29396.7
621.746	29341.11
622.101	29758.95
622.457	29430.14
622.812	29500.65
623.168	29606.41
623.523	29668.78
623.879	29709.68
624.234	29399.64
624.589	29587.65
624.945	29824.48
625.3	29687.99
625.655	29694.54
626.01	29694.09
626.365	29705.39
626.72	29692.74
627.075	29742
627.43	29683.7
627.785	29671.95
628.14	29817.25
628.495	29742.68
628.85	29776.35
629.205	29695.45
629.559	29865.61
629.914	29697.71
630.269	29798.27
630.623	29786.97
630.978	29647.99
631.332	29745.84
631.687	29931.37
632.041	29723.02
632.396	29810.25
632.75	29669.46
633.104	29729.57
633.459	29604.6
633.813	29637.6
634.167	29640.76
634.521	29751.27
634.875	29848.44
635.229	29681.21
635.583	29629.24
635.937	29647.99
636.291	29588.33
636.645	29549.69
636.999	29527.77
637.352	29646.86
637.706	29347.21
638.06	29493.42
638.413	29605.28
638.767	29459.3
639.121	29435.34
639.474	29449.58
639.828	29363.03
640.181	29418.39
640.534	29514.66
640.888	29385.4
641.241	29358.06
641.594	29358.73
641.947	29464.49
642.301	29378.17
642.654	29384.04
643.007	29343.82
643.36	29407.77
643.713	29347.43
644.066	29493.42
644.419	29130.72
644.771	29066.99
645.124	28731.86
645.477	28737.51
645.83	28563.5
646.182	28421.13
646.535	28460
646.888	28469.27
647.24	28378.87
647.593	28563.05
647.945	28447.57
648.298	28392.66
648.65	28241.47
649.002	28169.61
649.355	28300
649.707	28380.45
650.059	28476.5
650.411	28799.88
650.763	28759.65
651.115	29165.74
651.467	28954.45
651.819	29051.17
652.171	28947.22
652.523	28907.22
652.875	29004.17
653.227	28909.71
653.578	29125.75
653.93	29027.89
654.282	28942.25
654.633	28911.29
654.985	28938.86
655.337	28985.18
655.688	28928.24
656.039	28979.53
656.391	28850.27
656.742	28920.1
657.094	28889.82
657.445	28943.83
657.796	28920.55
658.147	28786.32
658.498	28928.69
658.849	28970.72
659.2	28893.44
659.551	28842.36
659.902	29003.94
660.253	28961.46
660.604	28924.17
660.955	28779.09
661.306	28935.24
661.656	28896.82
662.007	29061.11
662.358	28938.86
662.708	28945.86
663.059	28867.67
663.409	28775.7
663.76	28900.67
664.11	28938.86
664.461	29040.78
664.811	29044.62
665.161	29121.68
665.511	28949.03
665.862	28919.2
666.212	29051.4
666.562	29156.93
666.912	29141.56
667.262	29073.32
667.612	28931.17
667.962	28984.51
668.312	29051.62
668.662	29075.35
669.011	29008.69
669.361	28960.1
669.711	28900.67
670.06	28940.89
670.41	28880.1
670.76	28930.04
671.109	29147.44
671.459	28878.52
671.808	28876.49
672.157	29003.94
672.507	28843.04
672.856	28863.38
673.205	28886.66
673.554	28958.74
673.904	28833.55
674.253	28941.34
674.602	28817.96
674.951	28486.44
675.3	28265.43
675.649	28961.46
675.998	28805.75
676.346	28848.24
676.695	29052.75
677.044	28661.8
677.393	28778.41
677.741	28681.92
678.09	28747.45
678.438	28650.73
678.787	28761.01
679.135	28811.4
679.484	28600.79
679.832	28838.07
680.181	28574.12
680.529	28604.63
680.877	28547
681.225	28519.21
681.573	28759.65
681.922	28555.36
682.27	28310.63
682.618	28429.27
682.966	28280.34
683.314	28510.39
683.661	28333.68
684.009	28306.11
684.357	28187.01
684.705	28182.72
685.053	28389.72
685.4	28159.22
685.748	27970.3
686.095	28066.56
686.443	27924.87
686.79	27932.33
687.138	27995.61
687.485	28033.12
687.832	27945.21
688.18	27875.83
688.527	27864.76
688.874	27745.67
689.221	27723.75
689.568	27581.61
689.915	27639
690.262	27648.72
690.609	27587.48
690.956	27453.93
691.303	27515.62
691.65	27401.5
691.997	27378.67
692.344	27199.47
692.69	27186.36
693.037	27182.07
693.383	26950.89
693.73	27084.67
694.077	26837.22
694.423	27018.23
694.769	26882.64
695.116	26814.17
695.462	26809.2
695.808	26727.62
696.155	26718.35
696.501	26438.13
696.847	26471.13
697.193	26265.03
697.539	26440.17
697.885	26257.57
698.231	26221.87
698.577	26229.32
698.923	26153.85
699.269	26064.36
699.614	25972.16
699.96	26027.75
700.306	25949.78
700.651	25804.7
700.997	25796.57
701.342	25718.38
701.688	25752.27
702.033	25603.13
702.379	25578.72
702.724	25460.31
703.069	25531.49
703.415	25299.86
703.76	25236.13
704.105	25221.67
704.45	25263.47
704.795	25152.06
705.14	25043.82
705.485	25058.28
705.83	24952.52
706.175	24975.57
706.52	24842.69
706.865	24802.92
707.209	24861.9
707.554	24689.7
707.899	24751.4
708.243	24604.51
708.588	24586.43
708.932	24446.55
709.277	24459.65
709.621	24536.94
709.966	24250.39
710.31	24334.01
710.654	24202.26
710.998	24272.99
711.342	24337.62
711.687	24151.19
712.031	24048.14
712.375	24047.91
712.719	24040
713.063	24042.49
713.407	24090.62
713.75	23925.43
714.094	23942.6
714.438	23808.82
714.782	23851.08
715.125	23734.93
715.469	23807.47
715.812	23660.35
716.156	23613.8
716.499	23621.03
716.843	23740.8
717.186	23568.15
717.53	23751.88
717.873	23549.39
718.216	23499.9
718.559	23426.46
718.902	23267.82
719.246	23279.57
719.589	23271.66
719.932	23188.73
720.275	23176.98
720.617	23212.45
720.96	23155.96
721.303	23200.7
721.646	23178.78
721.989	23024.44
722.331	23182.17
722.674	23102.63
723.016	23086.58
723.359	23071.67
723.701	23166.58
724.044	22891.11
724.386	22815.4
724.729	23004.78
725.071	22810.21
725.413	22932.69
725.755	22755.74
726.097	22740.38
726.439	22668.97
726.782	22788.06
727.124	22836.42
727.465	22687.04
727.807	22757.1
728.149	22622.41
728.491	22549.87
728.833	22548.52
729.175	22571.12
729.516	22545.13
729.858	22544.22
730.199	22433.27
730.541	22526.37
730.882	22509.65
731.224	22579.7
731.565	22423.32
731.906	22451.57
732.248	22475.52
732.589	22401.85
732.93	22288.64
733.271	22358.47
733.612	22416.09
733.953	22430.55
734.294	22358.24
734.635	22205.02
734.976	22324.12
735.317	22146.72
735.658	22253.38
735.999	22209.09
736.339	22180.17
736.68	22224.01
737.021	22097.91
737.361	22140.39
737.702	22183.56
738.042	22101.52
738.383	22138.13
738.723	22085.03
739.063	22175.42
739.404	22153.95
739.744	22163.89
740.084	22005.71
740.424	22022.43
740.764	21927.29
741.104	22047.74
741.444	21980.62
741.784	21891.36
742.124	21921.87
742.464	21997.12
742.804	21873.05
743.143	21907.4
743.483	21922.55
743.823	21800.74
744.162	21720.29
744.502	21878.48
744.841	21743.79
745.181	21761.65
745.52	21820.17
745.86	21764.58
746.199	21843.23
746.538	21723.23
746.877	21697.24
747.216	21836.22
747.556	21832.6
747.895	21803.45
748.234	21757.58
748.573	21578.83
748.911	21670.35
749.25	21732.27
749.589	21572.72
749.928	21690.23
750.267	21721.42
750.605	21624.02
750.944	21611.37
751.283	21647.98
751.621	21532.27
751.96	21504.48
752.298	21533.18
752.636	21602.1
752.975	21459.96
753.313	21437.81
753.651	21502.67
753.989	21373.41
754.327	21337.48
754.666	21328.66
755.004	21397.59
755.342	21394.88
755.679	21362.33
756.017	21197.59
756.355	21353.52
756.693	21159.85
757.031	21287.08
757.368	21156.24
757.706	21130.93
758.044	21117.14
758.381	21167.31
758.719	20977.49
759.056	21038.27
759.394	20963.93
759.731	20900.43
760.068	20846.42
760.405	20817.94
760.743	20716.02
761.08	20942.01
761.417	20724.84
761.754	20664.05
762.091	20719.19
762.428	20645.74
762.765	20473.32
763.102	20592.41
763.438	20583.82
763.775	20407.56
764.112	20469.7
764.449	20503.15
764.785	20343.38
765.122	20207.56
765.458	20186.32
765.795	20208.24
766.131	20160.78
766.467	20135.02
766.804	20125.76
767.14	20008.02
767.476	20029.71
767.812	19901.13
768.148	19923.28
768.485	19910.85
768.821	19739.33
769.157	19644.41
769.492	19671.98
769.828	19664.3
770.164	19535.04
770.5	19490.07
770.836	19475.83
771.171	19417.3
771.507	19340.47
771.842	19195.39
772.178	19237.19
772.513	19182.96
772.849	19103.41
773.184	19112.45
773.519	19032.68
773.855	18993.81
774.19	18860.93
774.525	18859.8
774.86	18726.47
775.195	18747.26
775.53	18658
775.865	18583.65
776.2	18536.65
776.535	18412.35
776.87	18464.56
777.205	18372.58
777.539	18275.41
777.874	18309.53
778.209	18080.61
778.543	18148.63
778.878	18099.14
779.212	18004.46
779.547	17900.5
779.881	18033.83
780.215	17801.98
780.55	17808.08
780.884	17804.24
781.218	17782.09
781.552	17682.2
781.886	17605.37
782.22	17473.4
782.554	17420.97
782.888	17360.86
783.222	17347.52
783.556	17186.17
783.889	17161.09
784.223	17029.11
784.557	17067.31
784.89	17127.42
785.224	16971.94
785.557	16953.86
785.891	16955.9
786.224	16819.4
786.558	16898.04
786.891	16616.7
787.224	16641.78
787.557	16597.26
787.891	16548.22
788.224	16468.45
788.557	16491.95
788.89	16446.98
789.223	16433.65
789.556	16219.42
789.888	16257.38
790.221	16216.25
790.554	16172.64
790.887	16113.88
791.219	16088.35
791.552	16077.28
791.884	15843.83
792.217	15903.72
792.549	15881.12
792.882	15701.47
793.214	15666.44
793.546	15724.74
793.879	15609.04
794.211	15524.97
794.543	15553.22
794.875	15531.3
795.207	15552.09
795.539	15425.99
795.871	15474.13
796.203	15330.4
796.535	15242.27
796.867	15255.83
797.198	15172.89
797.53	15171.76
797.862	15082.05
798.193	15131.76
798.525	15003.63
798.856	15059.67
799.188	14894.48
799.519	14791.43
799.85	14738.33
800.182	14775.39
800.513	14791.21
800.844	14607.71
801.175	14641.83
801.506	14642.06
801.837	14645.9
802.168	14503.31
802.499	14574.26
802.83	14400.48
803.161	14329.52
803.491	14384.21
803.822	14391.9
804.153	14233.93
804.483	14224.22
804.814	14200.94
805.145	14200.26
805.475	14161.17
805.805	14116.87
806.136	14012.7
806.466	14087.5
806.796	14009.98
807.126	13892.7
807.457	13877.11
807.787	13859.03
808.117	13915.3
808.447	13772.25
808.777	13764.79
809.107	13752.82
809.436	13714.4
809.766	13722.31
810.096	13631.46
810.426	13606.83
810.755	13713.04
811.085	13632.37
811.414	13628.98
811.744	13556.44
812.073	13415.65
812.403	13382.2
812.732	13412.03
813.061	13335.43
813.39	13301.98
813.719	13317.8
814.049	13385.37
814.378	13233.96
814.707	13160.29
815.036	13219.72
815.365	13174.53
815.693	13084.13
816.022	13106.96
816.351	13025.6
816.68	12996
817.008	13053.4
817.337	12915.78
817.665	12864.03
817.994	12943.35
818.322	12832.84
818.651	12858.6
818.979	12772.5
819.307	12910.8
819.636	12805.27
819.964	12716.91
820.292	12751.71
820.62	12733.63
820.948	12673.97
821.276	12702.45
821.604	12749.9
821.932	12722.79
822.259	12664.94
822.587	12705.16
822.915	12657.7
823.243	12676.23
823.57	12724.14
823.898	12714.43
824.225	12705.61
824.553	12659.74
824.88	12674.65
825.207	12724.59
825.535	12587.65
825.862	12656.57
826.189	12711.71
826.516	12739.06
826.843	12760.98
827.17	12727.98
827.497	12676.46
827.824	12671.71
828.151	12722.11
828.478	12657.93
828.805	12735.22
829.131	12675.1
829.458	12577.48
829.785	12664.26
830.111	12686.4
830.438	12649.79
830.764	12682.79
831.09	12635.11
831.417	12651.6
831.743	12543.81
832.069	12674.65
832.395	12659.29
832.722	12656.35
833.048	12614.09
833.374	12626.52
833.7	12599.17
834.026	12657.03
834.351	12625.84
834.677	12537.03
835.003	12638.72
835.329	12599.63
835.654	12531.83
835.98	12440.76
836.306	12552.17
836.631	12445.05
836.956	12545.39
837.282	12447.77
837.607	12387.65
837.932	12375.9
838.258	12424.49
838.583	12374.55
838.908	12311.95
839.233	12369.35
839.558	12327.54
839.883	12228.11
840.208	12282.35
840.533	12217.04
840.858	12288
841.182	12270.6
841.507	12223.82
841.832	12149.24
842.156	12146.08
842.481	12146.76
842.805	12105.4
843.13	12123.25
843.454	12062.69
843.778	12017.95
844.103	11951.28
844.427	11906.76
844.751	11997.61
845.075	11928.46
845.399	11860.44
845.723	11838.06
846.047	11855.01
846.371	11766.2
846.695	11764.39
847.019	11616.83
847.343	11584.29
847.666	11549.94
847.99	11418.87
848.313	11443.5
848.637	11475.59
848.96	11381.58
849.284	11425.19
849.607	11351.98
849.931	11258.19
850.254	11195.6
850.577	11140.23
850.9	11025.66
851.223	11071.3
851.546	11082.83
851.869	11028.59
852.192	11046.45
852.515	10888.26
852.838	10890.29
853.161	10933.46
853.483	10745.44
853.806	10840.58
854.129	10788.6
854.451	10714.25
854.774	10619.34
855.096	10700.47
855.419	10653.69
855.741	10595.84
856.063	10525.78
856.385	10441.27
856.708	10481.49
857.03	10502.96
857.352	10489.85
857.674	10391.55
857.996	10334.6
858.318	10285.11
858.64	10255.73
858.961	10289.86
859.283	10291.89
859.605	10166.47
859.926	10233.59
860.248	10169.41
860.57	10175.74
860.891	10196.07
861.212	10121.73
861.534	10107.49
861.855	10021.84
862.176	10082.18
862.498	10026.13
862.819	10070.88
863.14	9968.51
863.461	9995.4
863.782	9967.38
864.103	9950.88
864.424	9959.92
864.745	9943.88
865.065	9851.9
865.386	9825.01
865.707	9806.25
866.027	9852.13
866.348	9812.35
866.668	9862.75
866.989	9771
867.309	9641.96
867.63	9689.65
867.95	9717.89
868.27	9660.72
868.59	9707.5
868.91	9711.79
869.23	9688.29
869.55	9630.66
869.87	9742.07
870.19	9633.6
870.51	9643.77
870.83	9690.78
871.15	9538.46
871.469	9593.38
871.789	9561.06
872.109	9562.42
872.428	9492.14
872.748	9560.38
873.067	9575.3
873.386	9561.97
873.706	9479.71
874.025	9459.6
874.344	9439.48
874.663	9474.74
874.982	9433.83
875.301	9443.33
875.62	9427.05
875.939	9381.41
876.258	9405.59
876.577	9348.19
876.896	9398.81
877.214	9224.8
877.533	9324.23
877.852	9299.15
878.17	9314.51
878.489	9225.48
878.807	9265.93
879.125	9148.87
879.444	9235.2
879.762	9123.79
880.08	9212.82
880.398	9121.07
880.716	9096.22
881.034	9118.59
881.352	9089.21
881.67	9085.59
881.988	9151.58
882.306	9062.77
882.624	9074.07
882.941	9077.91
883.259	9018.93
883.577	9024.35
883.894	9027.52
884.212	8977.57
884.529	8917.46
884.846	8900.51
885.164	8895.09
885.481	8853.51
885.798	8890.12
886.115	8860.29
886.432	8864.81
886.75	8755.89
887.067	8816.9
887.383	8752.27
887.7	8761.99
888.017	8676.79
888.334	8727.86
888.651	8718.37
888.967	8690.12
889.284	8634.31
889.6	8569.68
889.917	8568.55
890.233	8627.75
890.55	8548.21
890.866	8517.7
891.182	8538.49
891.498	8484.71
891.815	8468.66
892.131	8369.46
892.447	8402.9
892.763	8304.15
893.079	8367.87
893.395	8350.7
893.71	8355.22
894.026	8282.45
894.342	8252.17
894.657	8269.12
894.973	8211.95
895.289	8179.86
895.604	8195.45
895.92	8116.81
896.235	8100.76
896.55	8068.67
896.865	8094.43
897.181	8025.96
897.496	8091.95
897.811	8016.47
898.126	7984.38
898.441	7930.14
898.756	7871.84
899.071	7832.75
899.386	7887.43
899.7	7798.4
900.015	7761.56
900.33	7686.54
900.644	7708
900.959	7727.89
901.273	7717.04
901.588	7665.29
901.902	7590.49
902.216	7547.56
902.531	7509.59
902.845	7529.7
903.159	7516.82
903.473	7444.28
903.787	7452.87
904.101	7400.89
904.415	7421.68
904.729	7358.41
905.042	7317.05
905.356	7362.7
905.67	7289.94
905.984	7300.1
906.297	7266.66
906.611	7231.41
906.924	7218.3
907.237	7152.76
907.551	7092.43
907.864	7120.22
908.177	7096.72
908.491	7104.4
908.804	7030.51
909.117	6994.8
909.43	7006.78
909.743	6948.02
910.056	6951.41
910.368	6930.4
910.681	6814.92
910.994	6876.61
911.307	6838.87
911.619	6776.95
911.932	6778.54
912.244	6735.6
912.557	6744.19
912.869	6696.28
913.181	6651.53
913.494	6664.64
913.806	6641.82
914.118	6658.09
914.43	6565.21
914.742	6573.12
915.054	6556.85
915.366	6473.46
915.678	6470.3
915.99	6434.14
916.302	6371.99
916.613	6406.57
916.925	6356.63
917.236	6358.43
917.548	6290.87
917.859	6321.15
918.171	6235.27
918.482	6236.86
918.794	6219.23
919.105	6225.33
919.416	6120.47
919.727	6122.96
920.038	6122.06
920.349	6070.08
920.66	6060.36
920.971	6097.88
921.282	6069.63
921.593	5946.69
921.903	5894.27
922.214	5975.62
922.525	5916.64
922.835	5890.88
923.146	5876.41
923.456	5799.35
923.767	5863.31
924.077	5795.29
924.387	5788.96
924.697	5715.06
925.008	5716.42
925.318	5701.5
925.628	5690.2
925.938	5676.42
926.248	5651.33
926.558	5612.24
926.867	5557.33
927.177	5562.3
927.487	5508.06
927.796	5483.2
928.106	5505.58
928.416	5477.78
928.725	5461.51
929.034	5427.39
929.344	5396.88
929.653	5388.29
929.962	5327.73
930.271	5296.99
930.581	5317.11
930.89	5254.06
931.199	5219.93
931.508	5221.74
931.817	5232.36
932.125	5184.45
932.434	5217.67
932.743	5169.09
933.051	5119.15
933.36	5110.33
933.669	5078.24
933.977	5060.39
934.286	5025.81
934.594	4978.58
934.902	4999.6
935.21	5004.8
935.519	4960.96
935.827	4934.74
936.135	4889.09
936.443	4866.04
936.751	4845.48
937.059	4840.73
937.367	4851.81
937.674	4805.93
937.982	4806.16
938.29	4742.21
938.597	4757.57
938.905	4668.76
939.213	4692.94
939.52	4668.08
939.827	4676.44
940.135	4678.25
940.442	4631.93
940.749	4655.88
941.056	4592.15
941.363	4560.74
941.67	4602.77
941.977	4548.54
942.284	4477.35
942.591	4496.11
942.898	4442.1
943.205	4514.42
943.511	4452.27
943.818	4453.4
944.125	4385.83
944.431	4416.11
944.738	4384.02
945.044	4369.11
945.35	4318.26
945.657	4307.41
945.963	4301.99
946.269	4283.46
946.575	4281.2
946.881	4244.82
947.187	4250.02
947.493	4221.32
947.799	4214.08
948.105	4196.91
948.41	4139.96
948.716	4145.84
949.022	4118.27
949.327	4074.65
949.633	4067.2
949.938	4069.23
950.244	4062.9
950.549	4057.03
950.854	3987.2
951.16	4010.93
951.465	3996.24
951.77	3919.63
952.075	3922.11
952.38	3934.32
952.685	3945.16
952.99	3893.41
953.294	3905.62
953.599	3846.64
953.904	3802.57
954.209	3796.02
954.513	3829.69
954.818	3800.99
955.122	3740.65
955.426	3761.44
955.731	3760.99
956.035	3727.32
956.339	3723.93
956.643	3706.07
956.948	3670.6
957.252	3673.53
957.556	3664.95
957.86	3653.42
958.163	3618.39
958.467	3642.35
958.771	3586.3
959.075	3559.41
959.378	3565.97
959.682	3553.31
959.985	3581.33
960.289	3542.24
960.592	3517.38
960.896	3481
961.199	3523.03
961.502	3515.8
961.805	3445.29
962.108	3439.64
962.411	3443.93
962.714	3421.79
963.017	3412.98
963.32	3373.88
963.623	3330.94
963.926	3370.72
964.228	3339.76
964.531	3357.38
964.833	3326.2
965.136	3330.27
965.438	3284.39
965.741	3232.42
966.043	3261.11
966.345	3228.12
966.648	3231.51
966.95	3213.43
967.252	3202.13
967.554	3198.74
967.856	3157.39
968.158	3146.54
968.46	3157.16
968.761	3141.12
969.063	3137.73
969.365	3073.55
969.666	3110.16
969.968	3088.46
970.269	3062.25
970.571	3026.77
970.872	3052.53
971.174	3021.35
971.475	3029.93
971.776	3000.33
972.077	2978.41
972.378	2953.1
972.679	2981.8
972.98	2950.39
973.281	2945.64
973.582	2933.21
973.883	2919.65
974.183	2931.41
974.484	2901.8
974.785	2858.87
975.085	2828.58
975.386	2869.26
975.686	2837.85
975.986	2810.05
976.287	2811.18
976.587	2791.07
976.887	2808.7
977.187	2798.98
977.487	2787.23
977.787	2768.7
978.087	2736.83
978.387	2734.35
978.687	2706.55
978.987	2734.57
979.286	2693.9
979.586	2679.44
979.885	2699.1
980.185	2639.89
980.484	2634.24
980.784	2649.38
981.083	2638.53
981.382	2611.87
981.682	2621.81
981.981	2620.68
982.28	2565.77
982.579	2581.81
982.878	2571.64
983.177	2558.53
983.475	2573.22
983.774	2525.77
984.073	2507.01
984.372	2513.79
984.67	2465.43
984.969	2471.08
985.267	2487.12
985.566	2464.3
985.864	2461.36
986.162	2458.42
986.461	2421.59
986.759	2406.67
987.057	2389.73
987.355	2386.56
987.653	2428.14
987.951	2405.32
988.249	2365.77
988.547	2323.96
988.844	2354.92
989.142	2326.68
989.44	2336.17
989.737	2319.22
990.035	2297.52
990.332	2270.63
990.63	2269.05
990.927	2280.58
991.224	2277.86
991.521	2242.61
991.819	2246
992.116	2208.71
992.413	2215.94
992.71	2204.65
993.006	2204.19
993.303	2214.36
993.6	2213.01
993.897	2169.84
994.193	2178.88
994.49	2166.23
994.787	2132.1
995.083	2144.99
995.379	2153.57
995.676	2114.7
995.972	2108.15
996.268	2102.73
996.565	2068.6
996.861	2062.5
997.157	2052.56
997.453	2009.85
997.749	2036.74
998.044	2048.27
998.34	2037.87
998.636	2006.01
998.932	1991.54
999.227	1987.7
999.523	1967.59
999.818	1982.28
1000.114	1969.62
1000.409	1968.49
1000.704	1950.19
1001	1933.01
1001.295	1915.84
1001.59	1903.86
1001.885	1902.96
1002.18	1876.52
1002.475	1888.27
1002.77	1864.32
1003.065	1871.32
1003.359	1845.11
1003.654	1826.12
1003.949	1794.49
1004.243	1812.57
1004.538	1831.77
1004.832	1815.28
1005.127	1799.01
1005.421	1806.01
1005.715	1757.88
1006.009	1763.3
1006.304	1752.68
1006.598	1733.47
1006.892	1723.08
1007.186	1705.9
1007.48	1713.58
1007.773	1676.75
1008.067	1719.69
1008.361	1685.34
1008.655	1674.26
1008.948	1680.37
1009.242	1674.04
1009.535	1648.73
1009.829	1671.33
1010.122	1646.92
1010.415	1609.18
1010.708	1628.62
1011.001	1608.95
1011.295	1601.05
1011.588	1599.24
1011.881	1562.63
1012.173	1566.7
1012.466	1570.76
1012.759	1548.62
1013.052	1546.81
1013.344	1546.36
1013.637	1552.46
1013.93	1559.92
1014.222	1522.18
1014.514	1531.22
1014.807	1509.97
1015.099	1487.83
1015.391	1479.92
1015.683	1459.13
1015.976	1465.68
1016.268	1449.64
1016.56	1429.3
1016.851	1422.29
1017.143	1406.47
1017.435	1398.11
1017.727	1427.94
1018.018	1409.86
1018.31	1397.44
1018.602	1377.77
1018.893	1370.54
1019.185	1385.46
1019.476	1366.02
1019.767	1343.43
1020.058	1331
1020.35	1282.86
1020.641	1317.44
1020.932	1324.89
1021.223	1305.69
1021.514	1322.18
1021.804	1292.58
1022.095	1306.59
1022.386	1297.78
1022.677	1271.11
1022.967	1243.09
1023.258	1242.18
1023.548	1220.72
1023.839	1220.94
1024.129	1235.63
1024.419	1250.09
1024.709	1208.06
1025	1200.6
1025.29	1196.54
1025.58	1185.01
1025.87	1206.48
1026.16	1184.33
1026.449	1161.51
1026.739	1155.41
1027.029	1169.19
1027.319	1183.2
1027.608	1144.33
1027.898	1111.79
1028.187	1119.48
1028.477	1113.83
1028.766	1096.2
1029.055	1125.35
1029.344	1111.34
1029.634	1068.63
1029.923	1081.06
1030.212	1070.44
1030.501	1051.23
1030.79	1069.99
1031.078	1064.79
1031.367	1037.22
1031.656	1051.68
1031.945	1027.95
1032.233	1049.65
1032.522	1009.87
1032.81	1038.8
1033.099	1011.23
1033.387	993.83
1033.675	985.47
1033.963	996.54
1034.251	966.94
1034.54	964.23
1034.828	954.06
1035.116	988.41
1035.403	959.71
1035.691	952.25
1035.979	958.35
1036.267	929.88
1036.554	963.1
1036.842	949.54
1037.129	912.48
1037.417	922.87
1037.704	934.85
1037.992	901.63
1038.279	893.04
1038.566	897.11
1038.853	897.11
1039.14	897.11
