Data from cardboard_FLMS001491_011.txt Node
Date: Tue Feb 07 11:39:00 GMT 2017
User: dcchb
Spectrometer: FLMS00149
Trigger mode: 0
Integration Time (sec): 2.000000E-2
Scans to average: 10
Electric dark correction enabled: true
Nonlinearity correction enabled: false
Boxcar width: 0
XAxis mode: Wavelengths
Number of Pixels in Spectrum: 2048
>>>>>Begin Spectral Data<<<<<
341.393	-13.87
341.776	-13.87
342.16	-13.87
342.543	-63.81
342.927	-82.12
343.31	-84.6
343.693	-88.44
344.077	-80.76
344.46	-61.78
344.843	-66.98
345.226	-44.15
345.61	-32.17
345.993	-5.06
346.376	0.82
346.759	24.77
347.142	13.93
347.525	49.86
347.908	67.48
348.291	82.4
348.674	107.26
349.057	117.43
349.44	127.14
349.823	150.65
350.206	179.57
350.588	201.94
350.971	196.29
351.354	228.38
351.737	242.85
352.119	250.08
352.502	269.29
352.884	264.99
353.267	275.84
353.65	280.13
354.032	288.04
354.414	315.84
354.797	320.13
355.179	313.58
355.562	325.78
355.944	299.79
356.326	326.46
356.709	330.98
357.091	346.57
357.473	331.88
357.855	327.59
358.238	328.95
358.62	327.36
359.002	336.86
359.384	323.97
359.766	317.2
360.148	330.98
360.53	329.4
360.912	318.32
361.294	342.51
361.676	316.29
362.057	311.32
362.439	329.4
362.821	331.88
363.203	304.31
363.584	324.65
363.966	312.22
364.348	311.32
364.729	312.45
365.111	308.38
365.493	299.34
365.874	324.43
366.256	293.92
366.637	308.16
367.019	301.83
367.4	302.96
367.781	316.74
368.163	309.74
368.544	311.77
368.925	310.87
369.306	316.97
369.688	318.32
370.069	296.86
370.45	309.74
370.831	290.53
371.212	307.48
371.593	301.6
371.974	326.01
372.355	304.31
372.736	299.34
373.117	329.4
373.498	304.31
373.879	309.74
374.26	310.64
374.641	327.59
375.021	323.3
375.402	306.8
375.783	319.45
376.163	325.33
376.544	338.66
376.925	335.05
377.305	341.15
377.686	318.1
378.066	323.3
378.447	309.51
378.827	321.71
379.208	320.58
379.588	325.1
379.968	323.07
380.349	335.95
380.729	315.39
381.109	306.8
381.489	343.18
381.87	328.49
382.25	333.47
382.63	332.34
383.01	344.54
383.39	320.36
383.77	343.64
384.15	335.27
384.53	331.88
384.91	344.54
385.29	340.47
385.67	362.39
386.049	360.36
386.429	350.64
386.809	345.67
387.189	342.05
387.568	331.66
387.948	341.38
388.328	348.83
388.707	370.53
389.087	352.67
389.466	352
389.846	342.96
390.225	366.01
390.605	392.22
390.984	349.28
391.363	364.43
391.743	365.1
392.122	375.95
392.501	387.02
392.881	363.52
393.26	374.14
393.639	356.74
394.018	375.27
394.397	382.73
394.776	390.64
395.155	412.56
395.534	406.46
395.913	387.25
396.292	372.56
396.671	385.89
397.05	398.55
397.429	356.97
397.808	370.98
398.186	392.67
398.565	385.67
398.944	393.13
399.323	399.45
399.701	389.74
400.08	400.36
400.458	392.67
400.837	409.4
401.215	409.62
401.594	407.14
401.972	406.68
402.351	404.88
402.729	398.1
403.107	436.06
403.486	406.91
403.864	427.25
404.242	428.6
404.62	423.63
404.999	417.31
405.377	422.95
405.755	432.22
406.133	428.83
406.511	441.49
406.889	433.12
407.267	428.38
407.645	430.19
408.023	453.24
408.401	463.63
408.779	465.44
409.156	455.72
409.534	459.79
409.912	460.47
410.29	468.15
410.667	478.32
411.045	450.98
411.422	460.92
411.8	476.06
412.178	477.87
412.555	481.48
412.933	475.83
413.31	510.18
413.687	515.83
414.065	518.32
414.442	498.66
414.819	515.16
415.197	506.57
415.574	507.92
415.951	531.88
416.328	517.64
416.705	508.38
417.082	521.48
417.46	539.79
417.837	530.75
418.214	546.34
418.591	539.34
418.967	541.82
419.344	561.26
419.721	561.26
420.098	562.16
420.475	567.81
420.852	564.19
421.228	557.87
421.605	576.85
421.982	582.95
422.358	578.43
422.735	579.11
423.111	577.3
423.488	574.82
423.864	577.75
424.241	591.99
424.617	595.38
424.994	595.15
425.37	597.41
425.746	588.83
426.123	625.66
426.499	616.85
426.875	623.18
427.251	645.55
427.627	639.45
428.003	627.47
428.379	653.46
428.756	670.86
429.132	671.76
429.507	641.48
429.883	640.35
430.259	696.62
430.635	698.88
431.011	704.53
431.387	689.39
431.763	737.07
432.138	734.36
432.514	729.61
432.89	744.53
433.265	744.08
433.641	744.3
434.016	732.78
434.392	767.13
434.767	739.78
435.143	755.6
435.518	775.94
435.894	778.2
436.269	755.83
436.644	773.91
437.02	773.91
437.395	781.82
437.77	795.15
438.145	801.02
438.52	801.25
438.895	844.64
439.271	805.77
439.646	818.88
440.021	841.7
440.395	885.32
440.77	836.5
441.145	842.6
441.52	863.85
441.895	867.92
442.27	859.1
442.645	849.61
443.019	881.7
443.394	887.35
443.769	876.5
444.143	869.95
444.518	896.84
444.892	894.58
445.267	918.99
445.641	896.84
446.016	909.27
446.39	896.16
446.764	925.54
447.139	910.85
447.513	932.09
447.887	968.03
448.262	933.45
448.636	963.05
449.01	969.38
449.384	974.35
449.758	962.83
450.132	980.91
450.506	998.08
450.88	1002.6
451.254	994.92
451.628	1013
452.002	1022.94
452.376	1031.3
452.75	1025.88
453.123	1044.86
453.497	1049.61
453.871	1067.01
454.244	1047.35
454.618	1088.93
454.992	1104.29
455.365	1097.51
455.739	1116.04
456.112	1137.06
456.486	1105.42
456.859	1154.46
457.232	1152.88
457.606	1158.53
457.979	1172.99
458.352	1210.5
458.725	1187.45
459.099	1228.81
459.472	1221.58
459.845	1250.05
460.218	1237.85
460.591	1274.23
460.964	1265.64
461.337	1292.31
461.71	1291.41
462.083	1321.46
462.456	1304.51
462.829	1332.31
463.201	1401.23
463.574	1349.03
463.947	1374.79
464.32	1384.96
464.692	1449.59
465.065	1409.14
465.438	1448.01
465.81	1454.57
466.183	1486.88
466.555	1525.98
466.928	1497.28
467.3	1519.65
467.672	1520.55
468.045	1584.28
468.417	1575.02
468.789	1579.31
469.161	1609.14
469.534	1633.54
469.906	1670.38
470.278	1635.8
470.65	1701.11
471.022	1747.44
471.394	1768.68
471.766	1751.96
472.138	1783.37
472.51	1816.82
472.882	1823.82
473.253	1864.72
473.625	1870.37
473.997	1953.31
474.369	1925.74
474.74	1974.78
475.112	1939.53
475.484	2028.56
475.855	2042.35
476.227	2048.45
476.598	2138.84
476.97	2127.77
477.341	2172.51
477.713	2217.48
478.084	2245.05
478.455	2288.22
478.827	2295.67
479.198	2370.25
479.569	2385.84
479.94	2419.96
480.311	2480.08
480.682	2501.77
481.053	2567.08
481.424	2605.04
481.795	2637.81
482.166	2656.79
482.537	2655.21
482.908	2733.85
483.279	2771.14
483.65	2825.83
484.021	2877.35
484.391	2880.29
484.762	2964.81
485.133	2982.44
485.503	3027.41
485.874	3099.95
486.244	3126.84
486.615	3204.8
486.985	3216.1
487.356	3259.49
487.726	3306.95
488.097	3363.89
488.467	3382.88
488.837	3431.46
489.207	3491.57
489.578	3555.3
489.948	3580.84
490.318	3633.94
490.688	3668.52
491.058	3713.94
491.428	3760.27
491.798	3821.51
492.168	3896.08
492.538	3919.13
492.908	3962.52
493.278	4024.44
493.648	4034.84
494.017	4087.04
494.387	4132.91
494.757	4179.92
495.126	4221.73
495.496	4208.84
495.866	4282.29
496.235	4337.88
496.605	4375.39
496.974	4393.7
497.344	4455.17
497.713	4517.99
498.082	4547.82
498.452	4591.88
498.821	4631.88
499.19	4661.26
499.559	4706.01
499.928	4788.26
500.298	4803.86
500.667	4860.58
501.036	4859.9
501.405	4976.51
501.774	4908.26
502.143	5003.4
502.512	5001.37
502.88	5136.05
503.249	5151.87
503.618	5165.43
503.987	5210.4
504.356	5285.2
504.724	5262.38
505.093	5337.4
505.462	5332.43
505.83	5444.97
506.199	5496.72
506.567	5544.85
506.936	5563.61
507.304	5643.16
507.672	5628.02
508.041	5707.34
508.409	5726.09
508.777	5851.06
509.145	5907.78
509.514	5947.78
509.882	5992.3
510.25	5968.35
510.618	6106.87
510.986	6096.93
511.354	6194.33
511.722	6251.05
512.09	6350.71
512.458	6340.99
512.826	6451.95
513.193	6459.41
513.561	6543.25
513.929	6517.71
514.297	6602.91
514.664	6705.28
515.032	6738.04
515.4	6875.67
515.767	6896.01
516.135	6922.22
516.502	6884.03
516.869	7070.69
517.237	7086.06
517.604	7071.14
517.972	7212.15
518.339	7288.31
518.706	7263
519.073	7376.22
519.44	7405.82
519.808	7517.01
520.175	7493.73
520.542	7736.43
520.909	7701.18
521.276	7741.41
521.643	7898.24
522.009	7947.05
522.376	8049.2
522.743	8144.11
523.11	8233.6
523.477	8259.36
523.843	8361.73
524.21	8440.6
524.577	8526.02
524.943	8599.69
525.31	8632.68
525.676	8711.55
526.043	8797.88
526.409	8893.01
526.776	8991.54
527.142	9073.12
527.508	9126.45
527.874	9246.68
528.241	9304.53
528.607	9264.98
528.973	9490.51
529.339	9467.69
529.705	9576.61
530.071	9665.2
530.437	9775.93
530.803	9855.93
531.169	9902.48
531.535	9941.8
531.901	10027.45
532.267	10084.17
532.632	10136.15
532.998	10255.69
533.364	10316.93
533.73	10403.48
534.095	10497.49
534.461	10540.66
534.826	10623.59
535.192	10662.69
535.557	10720.31
535.923	10708.56
536.288	10848.9
536.653	10887.54
537.019	10915.11
537.384	11065.84
537.749	11144.25
538.114	11225.61
538.479	11242.56
538.845	11323.01
539.21	11305.38
539.575	11383.57
539.94	11495.88
540.305	11559.84
540.67	11516
541.034	11667.86
541.399	11748.76
541.764	11801.41
542.129	11829.66
542.494	12005.02
542.858	12053.38
543.223	12119.6
543.587	12164.79
543.952	12117.56
544.316	12224.23
544.681	12289.31
545.045	12349.42
545.41	12435.75
545.774	12518
546.138	12575.4
546.503	12734.04
546.867	12707.15
547.231	12834.61
547.595	12820.37
547.959	12883.87
548.324	12963.64
548.688	12988.05
549.052	13108.5
549.416	13099.23
549.779	13199.79
550.143	13255.61
550.507	13381.26
550.871	13517.53
551.235	13487.7
551.599	13565.43
551.962	13709.39
552.326	13754.81
552.689	13858.31
553.053	13790.29
553.417	13858.53
553.78	14036.16
554.143	14059.21
554.507	14115.7
554.87	14208.58
555.234	14290.39
555.597	14333.55
555.96	14465.98
556.323	14554.79
556.686	14609.7
557.05	14748
557.413	14768.79
557.776	14778.06
558.139	14988.67
558.502	15020.99
558.865	15098.73
559.228	15217.82
559.59	15333.98
559.953	15313.18
560.316	15533.07
560.679	15619.39
561.041	15666.4
561.404	15805.38
561.767	15804.92
562.129	15915.88
562.492	16115.2
562.854	16140.73
563.217	16049.44
563.579	16302.76
563.941	16393.83
564.304	16448.75
564.666	16450.56
565.028	16704.11
565.39	16796.54
565.753	16872.01
566.115	16911.33
566.477	16992.91
566.839	17072.69
567.201	17237.43
567.563	17314.94
567.925	17323.98
568.287	17435.61
568.648	17554.48
569.01	17603.75
569.372	17866.34
569.734	17804.42
570.095	17849.84
570.457	17951.31
570.819	17963.28
571.18	18067.46
571.542	18142.26
571.903	18256.16
572.265	18392.88
572.626	18441.01
572.987	18473.78
573.349	18674.45
573.71	18683.49
574.071	18776.6
574.432	18877.38
574.794	19063.82
575.155	19046.87
575.516	18918.97
575.877	19148.34
576.238	19172.07
576.599	19185.4
576.96	19338.62
577.32	19330.48
577.681	19399.18
578.042	19522.79
578.403	19570.93
578.763	19611.83
579.124	19663.8
579.485	19799.39
579.845	19852.95
580.206	19827.64
580.566	19949.22
580.927	19931.82
581.287	20031.93
581.648	20028.54
582.008	20240.29
582.368	20247.07
582.728	20169.55
583.089	20236.67
583.449	20221.3
583.809	20318.93
584.169	20441.41
584.529	20453.84
584.889	20562.99
585.249	20452.03
585.609	20459.94
585.969	20667.62
586.329	20609.54
586.688	20598.47
587.048	20774.06
587.408	20644.12
587.768	20607.51
588.127	20700.16
588.487	20586.72
588.846	20883.66
589.206	20910.1
589.565	20825.81
589.925	21001.62
590.284	20994.62
590.643	21000.49
591.003	20914.62
591.362	21037.55
591.721	21121.85
592.08	21113.03
592.44	21223.99
592.799	21256.31
593.158	21199.58
593.517	21284.1
593.876	21309.86
594.235	21313.93
594.593	21344.66
594.952	21346.47
595.311	21356.87
595.67	21452.46
596.029	21640.7
596.387	21646.8
596.746	21710.98
597.104	21595.51
597.463	21621.04
597.822	21781.04
598.18	21697.88
598.538	21725.67
598.897	21833.69
599.255	21775.16
599.613	22014.48
599.972	21895.84
600.33	21955.72
600.688	21931.32
601.046	21976.96
601.404	22127.24
601.762	22108.49
602.12	22221.7
602.478	22310.74
602.836	22227.13
603.194	22136.73
603.552	22263.06
603.91	22190.07
604.268	22375.15
604.625	22354.58
604.983	22352.32
605.341	22381.25
605.698	22522.26
606.056	22452.88
606.413	22547.34
606.771	22566.78
607.128	22715.25
607.485	22672.77
607.843	22707.79
608.2	22834.34
608.557	22973.32
608.914	22688.36
609.272	22939.2
609.629	22864.4
609.986	23149.82
610.343	23010.84
610.7	23116.82
611.057	23078.63
611.414	23128.12
611.771	23276.14
612.127	23322.47
612.484	23220.32
612.841	23303.71
613.198	23286.76
613.554	23352.97
613.911	23500.99
614.267	23479.75
614.624	23515.46
614.98	23481.11
615.337	23647.88
615.693	23605.62
616.05	23654.21
616.406	23794.09
616.762	23764.71
617.118	23658.5
617.475	23856.46
617.831	23891.26
618.187	23908.67
618.543	23922.22
618.899	24128.32
619.255	24062.79
619.611	24017.14
619.967	24153.63
620.323	24086.51
620.678	24086.51
621.034	24086.97
621.39	24281.54
621.746	24176.68
622.101	24486.05
622.457	24268.88
622.812	24339.61
623.168	24427.75
623.523	24312.72
623.879	24533.96
624.234	24311.82
624.589	24478.82
624.945	24476.79
625.3	24551.59
625.655	24495.99
626.01	24482.66
626.365	24490.8
626.72	24483.11
627.075	24504.13
627.43	24557.01
627.785	24533.96
628.14	24562.21
628.495	24702.77
628.85	24626.39
629.205	24536.45
629.559	24645.37
629.914	24573.73
630.269	24562.89
630.623	24513.39
630.978	24463.45
631.332	24676.33
631.687	24661.87
632.041	24598.82
632.396	24712.26
632.75	24583
633.104	24677.91
633.459	24462.1
633.813	24399.27
634.167	24514.3
634.521	24486.73
634.875	24484.02
635.229	24531.93
635.583	24477.69
635.937	24444.7
636.291	24474.53
636.645	24543.22
636.999	24408.31
637.352	24568.76
637.706	24442.44
638.06	24512.94
638.413	24450.8
638.767	24354.53
639.121	24401.53
639.474	24263.91
639.828	24270.24
640.181	24303.68
640.534	24402.21
640.888	24307.98
641.241	24206.96
641.594	24288.32
641.947	24417.35
642.301	24313.63
642.654	24394.98
643.007	24387.52
643.36	24292.61
643.713	24302.55
644.066	24347.75
644.419	24191.37
644.771	23976.91
645.124	23971.94
645.477	23771.04
645.83	23688.11
646.182	23679.74
646.535	23631.61
646.888	23618.96
647.24	23594.55
647.593	23664.15
647.945	23689.01
648.298	23440.65
648.65	23393.88
649.002	23473.2
649.355	23545.96
649.707	23453.31
650.059	23635.45
650.411	23931.04
650.763	23967.19
651.115	24192.05
651.467	24203.8
651.819	24042.67
652.171	24073.86
652.523	24144.14
652.875	24141.88
653.227	23993.41
653.578	24114.08
653.93	24115.21
654.282	24031.6
654.633	24018.72
654.985	24018.04
655.337	24114.54
655.688	24058.04
656.039	24104.37
656.391	23871.38
656.742	24029.34
657.094	23919.29
657.445	24026.18
657.796	24087.42
658.147	24114.54
658.498	24053.52
658.849	24155.89
659.2	23974.2
659.551	23888.1
659.902	24077.7
660.253	24051.26
660.604	24037.93
660.955	23969.45
661.306	24090.36
661.656	24057.59
662.007	24016.23
662.358	24042.67
662.708	24059.85
663.059	24057.81
663.409	23955.9
663.76	24135.33
664.11	24081.54
664.461	24091.26
664.811	24113.86
665.161	24068.66
665.511	24033.86
665.862	24053.97
666.212	24243.12
666.562	24139.62
666.912	24094.42
667.262	24126.74
667.612	24137.59
667.962	24147.75
668.312	24040.64
668.662	24154.08
669.011	24148.66
669.361	24176.23
669.711	24222.33
670.06	24077.7
670.41	23987.99
670.76	24104.14
671.109	24166.96
671.459	24108.21
671.808	23989.11
672.157	24077.7
672.507	23935.33
672.856	24026.63
673.205	24020.98
673.554	24169.9
673.904	24144.82
674.253	24181.43
674.602	24117.93
674.951	23751.38
675.3	23608.11
675.649	24104.14
675.998	24148.66
676.346	24132.84
676.695	24148.43
677.044	23901.66
677.393	23912.05
677.741	23994.31
678.09	23875.67
678.438	24026.63
678.787	24063.69
679.135	23963.58
679.484	23984.14
679.832	24055.1
680.181	23841.32
680.529	23918.83
680.877	23772.17
681.225	23811.72
681.573	23969.23
681.922	23819.4
682.27	23683.36
682.618	23755.45
682.966	23763.13
683.314	23839.06
683.661	23678.84
684.009	23578.96
684.357	23533.76
684.705	23552.06
685.053	23615.34
685.4	23519.75
685.748	23394.78
686.095	23435.01
686.443	23419.64
686.79	23268.68
687.138	23410.83
687.485	23282.47
687.832	23399.75
688.18	23333.76
688.527	23171.74
688.874	23149.36
689.221	23279.08
689.568	23219.42
689.915	23115.69
690.262	23136.48
690.609	23089.25
690.956	23035.47
691.303	22977.16
691.65	22774.23
691.997	22775.14
692.344	22779.66
692.69	22663.05
693.037	22787.11
693.383	22595.48
693.73	22586.44
694.077	22530.62
694.423	22575.59
694.769	22463.28
695.116	22513
695.462	22377.63
695.808	22310.97
696.155	22314.36
696.501	22191.87
696.847	22056.28
697.193	22074.14
697.539	22242.27
697.885	22059.67
698.231	21975.38
698.577	21999.11
698.923	21917.31
699.269	21873.69
699.614	21714.6
699.96	21714.15
700.306	21713.69
700.651	21607.26
700.997	21617.2
701.342	21468.5
701.688	21512.8
702.033	21424.89
702.379	21442.74
702.724	21336.3
703.069	21339.47
703.415	21077.78
703.76	21259.24
704.105	21226.02
704.45	21112.35
704.795	20991.23
705.14	21025.58
705.485	20932.02
705.83	20961.85
706.175	21014.5
706.52	20774.51
706.865	20810.67
707.209	20792.81
707.554	20712.36
707.899	20726.15
708.243	20597.11
708.588	20612.48
708.932	20524.35
709.277	20520.96
709.621	20570.45
709.966	20280.96
710.31	20528.87
710.654	20282.32
710.998	20344.92
711.342	20391.47
711.687	20302.21
712.031	20149.67
712.375	20176.56
712.719	20202.55
713.063	20200.06
713.407	20192.38
713.75	20111.7
714.094	20087.75
714.438	20103.12
714.782	20028.54
715.125	19962.1
715.469	20023.34
715.812	19962.78
716.156	19801.43
716.499	19890.69
716.843	19932.72
717.186	19788.77
717.53	19847.75
717.873	19787.64
718.216	19740.19
718.559	19671.04
718.902	19501.32
719.246	19654.54
719.589	19657.7
719.932	19558.5
720.275	19410.25
720.617	19672.39
720.96	19429.91
721.303	19436.24
721.646	19547.2
721.989	19345.17
722.331	19559.63
722.674	19287.09
723.016	19288.22
723.359	19401.66
723.701	19395.79
724.044	19271.95
724.386	19226.75
724.729	19250.48
725.071	19223.82
725.413	19233.76
725.755	19294.1
726.097	19180.43
726.439	19068.11
726.782	19139.07
727.124	19203.25
727.465	19096.14
727.807	19042.8
728.149	19062.24
728.491	19031.51
728.833	19072.18
729.175	18978.85
729.516	19036.48
729.858	18887.1
730.199	18921.68
730.541	18911.06
730.882	18989.47
731.224	18994.44
731.565	18811.17
731.906	18904.73
732.248	18887.33
732.589	18815.01
732.93	18756.71
733.271	18759.87
733.612	18855.92
733.953	18858.85
734.294	18780.89
734.635	18826.31
734.976	18744.28
735.317	18625.87
735.658	18660.67
735.999	18721.23
736.339	18723.04
736.68	18678.07
737.021	18700.44
737.361	18529.37
737.702	18683.94
738.042	18607.56
738.383	18616.15
738.723	18597.84
739.063	18576.15
739.404	18611.18
739.744	18527.34
740.084	18457.51
740.424	18562.37
740.764	18428.36
741.104	18571.86
741.444	18436.94
741.784	18411.86
742.124	18515.81
742.464	18457.51
742.804	18357.85
743.143	18309.26
743.483	18374.57
743.823	18414.35
744.162	18438.98
744.502	18403.95
744.841	18294.8
745.181	18447.34
745.52	18336.83
745.86	18280.11
746.199	18302.94
746.538	18273.11
746.877	18283.28
747.216	18371.86
747.556	18321.47
747.895	18346.1
748.234	18315.37
748.573	18239.89
748.911	18289.83
749.25	18181.81
749.589	18265.2
749.928	18250.06
750.267	18254.58
750.605	18118.31
750.944	18187.23
751.283	18084.41
751.621	18184.75
751.96	18021.14
752.298	18029.05
752.636	18036.73
752.975	18001.93
753.313	18017.29
753.651	18063.85
753.989	17985.88
754.327	17994.47
754.666	17788.15
755.004	17932.1
755.342	17979.1
755.679	17960.57
756.017	17804.42
756.355	17797.64
756.693	17793.57
757.031	17809.16
757.368	17688.04
757.706	17731.43
758.044	17674.03
758.381	17757.19
758.719	17682.84
759.056	17724.19
759.394	17624.54
759.731	17582.96
760.068	17579.34
760.405	17463.64
760.743	17416.86
761.08	17434.49
761.417	17380.02
761.754	17422.06
762.091	17409.18
762.428	17300.7
762.765	17153.36
763.102	17133.25
763.438	17240.37
763.775	17011.67
764.112	17216.41
764.449	17101.61
764.785	17085.34
765.122	16952.01
765.458	16916.53
765.795	16922.86
766.131	16918.11
766.467	16815.29
766.804	16816.87
767.14	16691
767.476	16675.86
767.812	16574.39
768.148	16657.33
768.485	16491.46
768.821	16408.07
769.157	16417.79
769.492	16452.82
769.828	16400.16
770.164	16298.02
770.5	16152.94
770.836	16210.79
771.171	16117.23
771.507	16115.65
771.842	15924.92
772.178	16029.78
772.513	16002.66
772.849	15899.84
773.184	15876.33
773.519	15926.28
773.855	15785.26
774.19	15734.87
774.525	15747.52
774.86	15622.78
775.195	15673.85
775.53	15579.39
775.865	15477.47
776.2	15410.13
776.535	15285.39
776.87	15370.58
777.205	15231.83
777.539	15112.74
777.874	15227.76
778.209	15058.05
778.543	15108.67
778.878	14989.13
779.212	15035.23
779.547	14964.27
779.881	15004.27
780.215	14888.79
780.55	14938.51
780.884	14755.23
781.218	14777.61
781.552	14733.99
781.886	14698.51
782.22	14615.35
782.554	14505.75
782.888	14389.14
783.222	14388.92
783.556	14287.68
783.889	14303.95
784.223	14184.18
784.557	14255.59
784.89	14257.62
785.224	14179.88
785.557	14043.61
785.891	14085.87
786.224	13971.98
786.558	14034.12
786.891	13920.23
787.224	13790.97
787.557	13805.65
787.891	13791.19
788.224	13819.66
788.557	13710.29
788.89	13674.36
789.223	13649.5
789.556	13597.3
789.888	13511.42
790.221	13543.74
790.554	13433.23
790.887	13362.5
791.219	13410.86
791.552	13353.24
791.884	13261.49
792.217	13196.18
792.549	13174.48
792.882	13049.52
793.214	13124.54
793.546	13082.51
793.879	13018.33
794.211	12996.86
794.543	13024.88
794.875	12946.69
795.207	12957.09
795.539	12870.76
795.871	12934.72
796.203	12674.61
796.535	12733.37
796.867	12749.86
797.198	12615.85
797.53	12729.52
797.862	12637.78
798.193	12580.15
798.525	12575.86
798.856	12549.19
799.188	12478.91
799.519	12358.01
799.85	12242.08
800.182	12285.24
800.513	12325.69
800.844	12242.08
801.175	12256.32
801.506	12304
801.837	12199.14
802.168	12108.75
802.499	12042.99
802.83	12087.28
803.161	11941.07
803.491	11998.7
803.822	11940.84
804.153	11955.31
804.483	11941.3
804.814	11851.58
805.145	11787.18
805.475	11865.82
805.805	11751.02
806.136	11812.49
806.466	11718.03
806.796	11729.32
807.126	11629.21
807.457	11696.56
807.787	11621.08
808.117	11572.94
808.447	11536.34
808.777	11558.03
809.107	11577.92
809.436	11500.86
809.766	11454.3
810.096	11374.76
810.426	11337.47
810.755	11395.32
811.085	11352.84
811.414	11342.22
811.744	11261.99
812.073	11188.55
812.403	11263.35
812.732	11134.09
813.061	11160.53
813.39	11128.21
813.719	11107.87
814.049	11159.85
814.378	11138.83
814.707	11069.68
815.036	11133.41
815.365	10911.94
815.693	10850.93
816.022	10892.96
816.351	10902.23
816.68	10832.4
817.008	10870.82
817.337	10766.41
817.665	10786.3
817.994	10756.47
818.322	10841.89
818.651	10754.21
818.979	10669.47
819.307	10679.18
819.636	10717.15
819.964	10686.19
820.292	10680.76
820.62	10698.39
820.948	10606.64
821.276	10632.18
821.604	10621.78
821.932	10644.83
822.259	10584.27
822.587	10655
822.915	10515.34
823.243	10599.86
823.57	10619.07
823.898	10579.98
824.225	10662.69
824.553	10523.25
824.88	10599.41
825.207	10647.32
825.535	10600.77
825.862	10589.47
826.189	10582.01
826.516	10607.09
826.843	10668.11
827.17	10662.69
827.497	10671.05
827.824	10652.06
828.151	10653.19
828.478	10623.59
828.805	10595.57
829.131	10590.6
829.458	10641.44
829.785	10549.47
830.111	10549.02
830.438	10676.92
830.764	10587.43
831.09	10625.17
831.417	10571.39
831.743	10618.39
832.069	10639.64
832.395	10602.57
832.722	10622.23
833.048	10548.34
833.374	10663.82
833.7	10512.63
834.026	10524.38
834.351	10525.51
834.677	10581.56
835.003	10573.87
835.329	10490.03
835.654	10544.72
835.98	10448.91
836.306	10489.36
836.631	10411.62
836.956	10500.88
837.282	10536.59
837.607	10415.23
837.932	10460.66
838.258	10456.82
838.583	10408.91
838.908	10319.87
839.233	10414.1
839.558	10312.86
839.883	10290.49
840.208	10331.4
840.533	10289.14
840.858	10209.14
841.182	10360.77
841.507	10205.3
841.832	10205.97
842.156	10257.05
842.481	10195.13
842.805	10142.25
843.13	10146.77
843.454	10035.13
843.778	10037.84
844.103	10123.04
844.427	9992.65
844.751	10034.45
845.075	10015.92
845.399	10003.04
845.723	9923.27
846.047	9953.33
846.371	9889.6
846.695	9826.78
847.019	9743.84
847.343	9633.56
847.666	9624.75
847.99	9656.16
848.313	9625.88
848.637	9544.75
848.96	9660.68
849.284	9611.64
849.607	9470.63
849.931	9483.96
850.254	9410.74
850.577	9387.69
850.9	9307.69
851.223	9285.77
851.546	9312.21
851.869	9166.45
852.192	9282.38
852.515	9140.47
852.838	9147.25
853.161	9161.48
853.483	9072.67
853.806	9062.05
854.129	9042.16
854.451	8997.87
854.774	8962.84
855.096	8872.9
855.419	8973.24
855.741	8904.09
856.063	8777.54
856.385	8846.01
856.708	8839
857.03	8789.74
857.352	8789.06
857.674	8770.98
857.996	8688.95
858.318	8697.77
858.64	8654.15
858.961	8618.67
859.283	8634.04
859.605	8594.04
859.926	8623.19
860.248	8537.77
860.57	8573.25
860.891	8557.2
861.212	8530.76
861.534	8498.45
861.855	8435.17
862.176	8499.8
862.498	8481.73
862.819	8448.51
863.14	8438.11
863.461	8445.57
863.782	8419.13
864.103	8413.71
864.424	8400.6
864.745	8357.44
865.065	8300.71
865.386	8357.21
865.707	8306.82
866.027	8367.38
866.348	8322.86
866.668	8293.48
866.989	8269.98
867.309	8166.48
867.63	8199.02
867.95	8212.13
868.27	8224.56
868.59	8130.1
868.91	8186.82
869.23	8165.35
869.55	8108.18
869.87	8169.87
870.19	8152.7
870.51	8198.12
870.83	8217.1
871.15	8043.55
871.469	8082.64
871.789	8115.63
872.109	8126.26
872.428	8016.88
872.748	8047.16
873.067	8110.66
873.386	8088.29
873.706	8065.92
874.025	7931.23
874.344	7934.17
874.663	8022.3
874.982	7982.98
875.301	7984.56
875.62	7912.7
875.939	7929.65
876.258	7904.79
876.577	7894.62
876.896	7887.39
877.214	7859.14
877.533	7864.12
877.852	7887.39
878.17	7857.56
878.489	7783.44
878.807	7841.29
879.125	7802.65
879.444	7795.19
879.762	7746.38
880.08	7747.28
880.398	7749.77
880.716	7769.88
881.034	7714.51
881.352	7678.36
881.67	7686.27
881.988	7675.42
882.306	7622.54
882.624	7605.82
882.941	7610.11
883.259	7602.2
883.577	7616.89
883.894	7627.96
884.212	7563.56
884.529	7546.16
884.846	7553.16
885.164	7483.33
885.481	7496.89
885.798	7504.35
886.115	7444.01
886.432	7390.46
886.75	7461.41
887.067	7430.45
887.383	7378.03
887.7	7363.34
888.017	7365.37
888.334	7371.02
888.651	7300.06
888.967	7285.83
889.284	7308.88
889.6	7297.35
889.917	7208.54
890.233	7260.29
890.55	7186.84
890.866	7186.84
891.182	7194.08
891.498	7160.18
891.815	7146.62
892.131	7122.21
892.447	7116.56
892.763	7090.35
893.079	7073.63
893.395	7063.46
893.71	6994.08
894.026	6970.13
894.342	6981.65
894.657	6947.98
894.973	6900.52
895.289	6909.34
895.604	6877.47
895.92	6906.4
896.235	6815.33
896.55	6875.67
896.865	6837.7
897.181	6793.18
897.496	6846.97
897.811	6774.88
898.126	6722.22
898.441	6697.59
898.756	6693.52
899.071	6655.56
899.386	6680.19
899.7	6593.87
900.015	6609.23
900.33	6547.31
900.644	6577.82
900.959	6525.85
901.273	6477.94
901.588	6433.64
901.902	6458.95
902.216	6416.47
902.531	6430.93
902.845	6367.21
903.159	6399.3
903.473	6325.17
903.787	6353.19
904.101	6289.02
904.415	6268.45
904.729	6293.99
905.042	6236.14
905.356	6215.12
905.67	6260.09
905.984	6176.7
906.297	6185.74
906.611	6131.05
906.924	6100.32
907.237	6120.88
907.551	6120.66
907.864	6063.26
908.177	6041.56
908.491	5998.85
908.804	5992.07
909.117	5941
909.43	5924.73
909.743	5868.69
910.056	5849.25
910.368	5842.93
910.681	5814.9
910.994	5766.54
911.307	5833.66
911.619	5752.98
911.932	5771.06
912.244	5767
912.557	5711.86
912.869	5707.11
913.181	5710.95
913.494	5698.52
913.806	5626.89
914.118	5583.27
914.43	5574.91
914.742	5505.76
915.054	5520.45
915.366	5488.81
915.678	5523.61
915.99	5425.99
916.302	5406.78
916.613	5447.91
916.925	5401.36
917.236	5390.96
917.548	5369.72
917.859	5385.54
918.171	5337.4
918.482	5258.08
918.794	5316.84
919.105	5270.51
919.416	5208.37
919.727	5206.78
920.038	5246.33
920.349	5151.19
920.66	5143.96
920.971	5140.35
921.282	5134.02
921.593	5091.31
921.903	5033
922.214	5004.76
922.525	5059.9
922.835	5013.12
923.146	4987.13
923.456	4948.71
923.767	4946.45
924.077	4971.54
924.387	4910.97
924.697	4864.87
925.008	4890.41
925.318	4889.28
925.628	4821.03
925.938	4840.92
926.248	4799.79
926.558	4775.61
926.867	4716.4
927.177	4742.62
927.487	4680.92
927.796	4679.79
928.106	4672.79
928.416	4683.86
928.725	4656.29
929.034	4577.42
929.344	4590.3
929.653	4577.42
929.962	4552.11
930.271	4509.18
930.581	4542.39
930.89	4502.17
931.199	4480.93
931.508	4470.98
931.817	4450.65
932.125	4445.45
932.434	4456.3
932.743	4384.66
933.051	4378.56
933.36	4386.01
933.669	4296.98
933.977	4303.3
934.286	4297.43
934.594	4283.19
934.902	4240.48
935.21	4203.87
935.519	4273.25
935.827	4228.5
936.135	4218.56
936.443	4211.1
936.751	4139.02
937.059	4174.04
937.367	4119.35
937.674	4151.9
937.982	4138.34
938.29	4102.86
938.597	4090.2
938.905	4060.6
939.213	4005.01
939.52	4075.29
939.827	3990.32
940.135	4014.05
940.442	3988.51
940.749	3976.53
941.056	3923.43
941.363	3907.84
941.67	3869.19
941.977	3879.59
942.284	3856.99
942.591	3839.14
942.898	3845.46
943.205	3849.98
943.511	3807.72
943.818	3779.48
944.125	3764.34
944.431	3741.96
944.738	3740.38
945.044	3702.19
945.35	3715.75
945.657	3648.18
945.963	3688.63
946.269	3707.39
946.575	3697.22
946.881	3652.25
947.187	3632.36
947.493	3602.31
947.799	3594.62
948.105	3577.9
948.41	3549.88
948.716	3596.66
949.022	3552.14
949.327	3568.41
949.633	3509.65
949.938	3521.86
950.244	3482.99
950.549	3484.12
950.854	3471.69
951.16	3459.03
951.465	3420.16
951.77	3412.48
952.075	3410
952.38	3410
952.685	3360.28
952.99	3355.99
953.294	3366.83
953.599	3335.19
953.904	3313.73
954.209	3308.3
954.513	3280.05
954.818	3320.73
955.122	3287.06
955.426	3234.41
955.731	3253.62
956.035	3221.07
956.339	3204.12
956.643	3191.24
956.948	3169.1
957.252	3163.45
957.556	3136.56
957.86	3140.17
958.163	3154.86
958.467	3093.62
958.771	3098.36
959.075	3039.61
959.378	3073.05
959.682	3093.85
959.985	3035.54
960.289	3027.41
960.592	3014.75
960.896	3043.23
961.199	3000.06
961.502	2964.13
961.805	3020.4
962.108	2963.45
962.411	2975.43
962.714	2951.7
963.017	2915.54
963.32	2902.89
963.623	2904.25
963.926	2891.14
964.228	2882.55
964.531	2841.87
964.833	2873.51
965.136	2853.63
965.438	2847.98
965.741	2806.62
966.043	2803.23
966.345	2803.91
966.648	2791.71
966.95	2766.85
967.252	2759.16
967.554	2719.84
967.856	2737.24
968.158	2731.59
968.46	2696.12
968.761	2714.42
969.063	2718.04
969.365	2679.17
969.666	2670.58
969.968	2630.58
970.269	2661.99
970.571	2647.53
970.872	2586.51
971.174	2584.71
971.475	2591.03
971.776	2590.13
972.077	2583.12
972.378	2582.9
972.679	2544.71
972.98	2547.87
973.281	2549.45
973.582	2543.35
973.883	2473.52
974.183	2483.01
974.484	2530.7
974.785	2478.04
975.085	2456.57
975.386	2469.68
975.686	2505.61
975.986	2485.95
976.287	2433.3
976.587	2395.11
976.887	2397.59
977.187	2415.67
977.487	2438.95
977.787	2390.81
978.087	2391.72
978.387	2387.2
978.687	2341.32
978.987	2351.04
979.286	2340.42
979.586	2334.77
979.885	2319.85
980.185	2326.18
980.484	2319.63
980.784	2288.22
981.083	2291.83
981.382	2262.91
981.682	2268.56
981.981	2262.45
982.28	2223.59
982.579	2232.17
982.878	2242.79
983.177	2214.32
983.475	2198.95
983.774	2195.56
984.073	2177.94
984.372	2153.53
984.67	2166.19
984.969	2158.28
985.267	2156.02
985.566	2153.98
985.864	2143.81
986.162	2127.09
986.461	2111.5
986.759	2126.19
987.057	2087.32
987.355	2089.8
987.653	2054.1
987.951	2072.86
988.249	2067.43
988.547	2034.21
988.844	2022.46
989.142	2024.95
989.44	2002.35
989.737	2038.51
990.035	1982.01
990.332	2031.73
990.63	1999.18
990.927	1974.78
991.224	1981.33
991.521	1991.05
991.819	1949.47
992.116	1947.89
992.413	1923.93
992.71	1944.27
993.006	1944.27
993.303	1901.33
993.6	1920.32
993.897	1906.31
994.193	1898.85
994.49	1873.31
994.787	1887.1
995.083	1847.1
995.379	1881.67
995.676	1855.23
995.972	1838.74
996.268	1841.45
996.565	1801
996.861	1813.65
997.157	1821.79
997.453	1785.18
997.749	1804.84
998.044	1792.41
998.34	1793.31
998.636	1758.51
998.932	1742.02
999.227	1801.68
999.523	1752.19
999.818	1746.31
1000.114	1724.16
1000.409	1731.85
1000.704	1683.71
1001	1658.63
1001.295	1672.41
1001.59	1691.4
1001.885	1667.89
1002.18	1672.87
1002.475	1656.59
1002.77	1662.24
1003.065	1624.73
1003.359	1624.96
1003.654	1600.55
1003.949	1594.45
1004.243	1618.63
1004.538	1592.64
1004.832	1567.33
1005.127	1590.61
1005.421	1556.26
1005.715	1554.45
1006.009	1553.77
1006.304	1526.88
1006.598	1530.95
1006.892	1550.16
1007.186	1516.03
1007.48	1500.44
1007.773	1518.75
1008.067	1477.39
1008.361	1484.85
1008.655	1473.32
1008.948	1472.87
1009.242	1461.35
1009.535	1472.64
1009.829	1448.01
1010.122	1424.74
1010.415	1438.52
1010.708	1447.56
1011.001	1404.4
1011.295	1389.71
1011.588	1405.53
1011.881	1388.13
1012.173	1378.18
1012.466	1380.9
1012.759	1380.22
1013.052	1353.55
1013.344	1352.2
1013.637	1382.48
1013.93	1338.86
1014.222	1370.05
1014.514	1350.61
1014.807	1325.76
1015.099	1291.41
1015.391	1335.93
1015.683	1298.86
1015.976	1313.1
1016.268	1261.8
1016.56	1291.63
1016.851	1252.09
1017.143	1283.05
1017.435	1228.81
1017.727	1243.72
1018.018	1245.98
1018.31	1252.31
1018.602	1237.17
1018.893	1216.38
1019.185	1188.81
1019.476	1193.78
1019.767	1189.71
1020.058	1196.72
1020.35	1187.91
1020.641	1156.72
1020.932	1158.98
1021.223	1194.01
1021.514	1141.13
1021.804	1120.56
1022.095	1136.83
1022.386	1141.58
1022.677	1127.57
1022.967	1125.31
1023.258	1125.76
1023.548	1101.36
1023.839	1122.6
1024.129	1111.52
1024.419	1117.17
1024.709	1089.6
1025	1064.97
1025.29	1057.29
1025.58	1072.66
1025.87	1029.04
1026.16	1060.23
1026.449	1048.7
1026.739	1023.17
1027.029	1070.62
1027.319	1043.28
1027.608	1006.22
1027.898	986.78
1028.187	984.3
1028.477	978.19
1028.766	982.04
1029.055	981.36
1029.344	979.55
1029.634	977.97
1029.923	979.32
1030.212	955.37
1030.501	997.18
1030.79	946.78
1031.078	939.1
1031.367	933.68
1031.656	938.42
1031.945	933.45
1032.233	946.11
1032.522	922.6
1032.81	905.65
1033.099	911.08
1033.387	924.18
1033.675	905.2
1033.963	908.14
1034.251	889.61
1034.54	873.34
1034.828	865.88
1035.116	857.07
1035.403	865.66
1035.691	873.56
1035.979	851.87
1036.267	867.92
1036.554	830.4
1036.842	839.89
1037.129	835.6
1037.417	823.4
1037.704	829.95
1037.992	840.35
1038.279	828.59
1038.566	804.19
1038.853	804.19
1039.14	804.19
