Data from cardboard_FLMS001491_005.txt Node
Date: Tue Feb 07 11:38:50 GMT 2017
User: dcchb
Spectrometer: FLMS00149
Trigger mode: 0
Integration Time (sec): 2.000000E-2
Scans to average: 10
Electric dark correction enabled: true
Nonlinearity correction enabled: false
Boxcar width: 0
XAxis mode: Wavelengths
Number of Pixels in Spectrum: 2048
>>>>>Begin Spectral Data<<<<<
341.393	-25.51
341.776	-25.51
342.16	-25.51
342.543	-81.55
342.927	-74.32
343.31	-63.02
343.693	-56.02
344.077	-81.33
344.46	-63.7
344.843	-56.47
345.226	-55.34
345.61	-23.02
345.993	-35.45
346.376	2.51
346.759	0.93
347.142	41.61
347.525	37.99
347.908	60.82
348.291	88.61
348.674	94.49
349.057	107.37
349.44	132.91
349.823	125.67
350.206	160.02
350.588	179.91
350.971	207.93
351.354	222.4
351.737	221.94
352.119	236.18
352.502	259.68
352.884	274.6
353.267	264.88
353.65	304.88
354.032	287.93
354.414	285.44
354.797	293.35
355.179	305.1
355.562	309.85
355.944	314.37
356.326	330.64
356.709	303.75
357.091	330.87
357.473	308.72
357.855	309.62
358.238	348.95
358.62	315.73
359.002	338.55
359.384	323.18
359.766	316.86
360.148	329.06
360.53	341.49
360.912	302.17
361.294	322.05
361.676	313.47
362.057	322.28
362.439	315.27
362.821	312.11
363.203	316.18
363.584	300.13
363.966	301.94
364.348	313.01
364.729	316.18
365.111	282.73
365.493	293.13
365.874	304.43
366.256	308.27
366.637	298.78
367.019	304.43
367.4	320.02
367.781	297.42
368.163	292.68
368.544	310.98
368.925	299
369.306	298.1
369.688	293.58
370.069	310.53
370.45	293.13
370.831	290.64
371.212	286.57
371.593	304.88
371.974	295.84
372.355	312.11
372.736	290.64
373.117	301.26
373.498	309.4
373.879	298.33
374.26	283.86
374.641	318.44
375.021	302.62
375.402	275.73
375.783	297.42
376.163	309.62
376.544	305.56
376.925	307.36
377.305	319.79
377.686	284.77
378.066	301.72
378.447	299.46
378.827	311.88
379.208	311.21
379.588	324.09
379.968	324.09
380.349	324.77
380.729	311.21
381.109	322.05
381.489	315.05
381.87	314.6
382.25	329.96
382.63	303.98
383.01	312.79
383.39	328.83
383.77	327.7
384.15	303.07
384.53	329.29
384.91	336.29
385.29	344.88
385.67	340.13
386.049	332.22
386.429	321.15
386.809	337.65
387.189	318.21
387.568	340.81
387.948	327.48
388.328	326.35
388.707	316.4
389.087	334.71
389.466	335.16
389.846	342.84
390.225	319.79
390.605	330.64
390.984	320.25
391.363	326.35
391.743	348.27
392.122	329.29
392.501	337.87
392.881	333.58
393.26	322.73
393.639	350.98
394.018	347.59
394.397	349.85
394.776	349.62
395.155	338.32
395.534	336.29
395.913	333.8
396.292	374.93
396.671	360.24
397.05	337.19
397.429	350.75
397.808	371.77
398.186	387.59
398.565	353.92
398.944	347.59
399.323	345.78
399.701	364.09
400.08	369.74
400.458	370.64
400.837	369.51
401.215	389.85
401.594	356.86
401.972	364.76
402.351	374.26
402.729	372.9
403.107	360.7
403.486	390.3
403.864	386.91
404.242	378.32
404.62	381.49
404.999	389.17
405.377	372.22
405.755	385.33
406.133	371.77
406.511	395.72
406.889	387.36
407.267	394.82
407.645	388.04
408.023	413.8
408.401	402.28
408.779	390.98
409.156	395.5
409.534	407.93
409.912	393.46
410.29	409.28
410.667	403.86
411.045	393.01
411.422	422.62
411.8	416.06
412.178	414.93
412.555	435.27
412.933	426.91
413.31	421.26
413.687	438.21
414.065	429.62
414.442	413.8
414.819	431.66
415.197	436.4
415.574	442.95
415.951	443.41
416.328	464.42
416.705	441.37
417.082	440.02
417.46	458.1
417.837	457.19
418.214	459.9
418.591	465.78
418.967	444.76
419.344	448.38
419.721	460.81
420.098	456.51
420.475	470.3
420.852	475.5
421.228	457.42
421.605	490.41
421.982	480.24
422.358	475.5
422.735	477.98
423.111	497.42
423.488	485.89
423.864	492.44
424.241	505.78
424.617	487.25
424.994	491.99
425.37	482.5
425.746	486.34
426.123	506.68
426.499	509.85
426.875	499
427.251	509.62
427.627	538.09
428.003	514.82
428.379	542.39
428.756	505.1
429.132	536.74
429.507	522.5
429.883	541.71
430.259	533.57
430.635	550.07
431.011	564.31
431.387	569.96
431.763	563.18
432.138	560.47
432.514	571.54
432.89	585.78
433.265	597.53
433.641	591.43
434.016	611.99
434.392	584.19
434.767	604.98
435.143	626
435.518	605.44
435.894	618.09
436.269	615.15
436.644	612.67
437.02	611.54
437.395	609.5
437.77	624.64
438.145	612.44
438.52	627.81
438.895	632.33
439.271	647.24
439.646	666.9
440.021	652.21
440.395	649.73
440.77	656.96
441.145	666.23
441.52	663.97
441.895	673
442.27	680.69
442.645	673.23
443.019	669.39
443.394	700.12
443.769	706.9
444.143	684.3
444.518	671.65
444.892	676.62
445.267	707.58
445.641	701.7
446.016	700.35
446.39	709.61
446.764	689.05
447.139	707.81
447.513	703.29
447.887	705.32
448.262	714.59
448.636	717.98
449.01	753.91
449.384	741.7
449.758	761.82
450.132	742.38
450.506	748.03
450.88	741.48
451.254	753.45
451.628	758.88
452.002	765.43
452.376	777.86
452.75	789.61
453.123	771.08
453.497	813.34
453.871	820.12
454.244	823.28
454.618	807.92
454.992	821.7
455.365	833.68
455.739	810.85
456.112	830.29
456.486	853.79
456.859	873.45
457.232	843.62
457.606	845.66
457.979	847.46
458.352	877.07
458.725	902.6
459.099	894.92
459.472	897.86
459.845	932.43
460.218	948.25
460.591	931.98
460.964	908.48
461.337	936.73
461.71	974.69
462.083	952.09
462.456	963.84
462.829	984.41
463.201	1003.17
463.574	993.45
463.947	1026.67
464.32	996.16
464.692	1029.38
465.065	1027.57
465.438	1033.45
465.81	1058.08
466.183	1092.65
466.555	1094.24
466.928	1088.81
467.3	1071.64
467.672	1109.15
468.045	1136.72
468.417	1142.6
468.789	1121.58
469.161	1153.9
469.534	1193.44
469.906	1171.75
470.278	1167.23
470.65	1195.03
471.022	1233.67
471.394	1223.05
471.766	1248.58
472.138	1247.68
472.51	1284.74
472.882	1295.14
473.253	1294.46
473.625	1324.97
473.997	1376.04
474.369	1355.47
474.74	1372.42
475.112	1388.92
475.484	1409.93
475.855	1445.41
476.227	1443.15
476.598	1449.03
476.97	1512.98
477.341	1534.45
477.713	1548.24
478.084	1538.97
478.455	1544.17
478.827	1601.12
479.198	1635.69
479.569	1602.92
479.94	1667.56
480.311	1685.86
480.682	1707.33
481.053	1761.79
481.424	1767.89
481.795	1783.94
482.166	1807.44
482.537	1865.74
482.908	1854.89
483.279	1904.38
483.65	1928.34
484.021	1969.47
484.391	1995
484.762	1994.78
485.133	2030.48
485.503	2057.38
485.874	2079.75
486.244	2108.22
486.615	2127.2
486.985	2162.23
487.356	2205.17
487.726	2223.25
488.097	2281.55
488.467	2287.88
488.837	2308.22
489.207	2364.94
489.578	2402.45
489.948	2399.74
490.318	2460.08
490.688	2473.41
491.058	2501.21
491.428	2535.33
491.798	2543.01
492.168	2641.99
492.538	2599.06
492.908	2619.17
493.278	2663.01
493.648	2729.45
494.017	2737.58
494.387	2776.9
494.757	2803.8
495.126	2792.5
495.496	2867.07
495.866	2849.44
496.235	2901.19
496.605	2912.49
496.974	2945.04
497.344	2976
497.713	3054.19
498.082	3038.37
498.452	3082.21
498.821	3108.2
499.19	3084.01
499.559	3138.7
499.928	3190
500.298	3178.48
500.667	3193.16
501.036	3230.9
501.405	3246.72
501.774	3296.44
502.143	3330.56
502.512	3322.43
502.88	3394.06
503.249	3349.77
503.618	3402.65
503.987	3474.29
504.356	3471.35
504.724	3512.93
505.093	3522.42
505.462	3548.64
505.83	3559.48
506.199	3624.11
506.567	3632.48
506.936	3698.24
507.304	3699.82
507.672	3725.13
508.041	3774.39
508.409	3782.98
508.777	3846.93
509.145	3839.7
509.514	3872.47
509.882	3909.76
510.25	3927.83
510.618	3981.62
510.986	3984.1
511.354	4073.82
511.722	4089.64
512.09	4143.42
512.458	4122.41
512.826	4181.16
513.193	4214.38
513.561	4283.31
513.929	4243.53
514.297	4289.63
514.664	4351.78
515.032	4386.35
515.4	4467.48
515.767	4467.71
516.135	4508.16
516.502	4527.82
516.869	4615.73
517.237	4646.91
517.604	4659.34
517.972	4713.12
518.339	4749.73
518.706	4769.39
519.073	4802.39
519.44	4864.99
519.808	4920.12
520.175	4892.78
520.542	4987.24
520.909	5067.69
521.276	5023.62
521.643	5133
522.009	5194.92
522.376	5237.18
522.743	5307.23
523.11	5318.31
523.477	5395.82
523.843	5393.11
524.21	5490.73
524.577	5584.29
524.943	5497.06
525.31	5603.04
525.676	5677.17
526.043	5709.93
526.409	5770.5
526.776	5841.91
527.142	5878.97
527.508	5915.8
527.874	5958.97
528.241	5984.96
528.607	5994.22
528.973	6043.49
529.339	6052.98
529.705	6178.62
530.071	6242.35
530.437	6300.2
530.803	6359.86
531.169	6405.28
531.535	6412.52
531.901	6441.89
532.267	6432.63
532.632	6505.62
532.998	6591.49
533.364	6615.22
533.73	6717.82
534.095	6732.51
534.461	6777.03
534.826	6847.53
535.192	6856.35
535.557	6950.58
535.923	6919.62
536.288	6971.82
536.653	7050.46
537.019	7026.74
537.384	7051.82
537.749	7118.03
538.114	7153.74
538.479	7199.84
538.845	7240.06
539.21	7308.99
539.575	7339.72
539.94	7363.22
540.305	7458.14
540.67	7397.35
541.034	7530.23
541.399	7561.41
541.764	7602.31
542.129	7593.05
542.494	7661.3
542.858	7680.28
543.223	7696.1
543.587	7827.62
543.952	7799.82
544.316	7878.01
544.681	7838.01
545.045	7915.75
545.41	8042.3
545.774	8039.36
546.138	8087.95
546.503	8103.09
546.867	8169.76
547.231	8183.99
547.595	8204.33
547.959	8259.02
548.324	8347.83
548.688	8367.49
549.052	8339.02
549.416	8407.26
549.779	8532.46
550.143	8468.05
550.507	8603.64
550.871	8604.32
551.235	8597.32
551.599	8693.13
551.962	8746.24
552.326	8824.88
552.689	8792.11
553.053	8871.43
553.417	8855.16
553.78	9020.13
554.143	8993.69
554.507	9101.48
554.87	9029.62
555.234	9160.69
555.597	9188.49
555.96	9242.95
556.323	9283.17
556.686	9324.08
557.05	9417.63
557.413	9437.29
557.776	9536.95
558.139	9548.93
558.502	9637.51
558.865	9693.78
559.228	9742.14
559.59	9801.35
559.953	9818.53
560.316	9894.68
560.679	9924.74
561.041	10001.57
561.404	10130.38
561.767	10199.31
562.129	10155.47
562.492	10187.78
562.854	10330.6
563.217	10354.78
563.579	10410.38
563.941	10426.87
564.304	10496.93
564.666	10546.19
565.028	10639.07
565.39	10711.16
565.753	10743.25
566.115	10808.11
566.477	10889.69
566.839	10870.25
567.201	11070.25
567.563	11061.66
567.925	11141.43
568.287	11127.19
568.648	11211.48
569.01	11267.98
569.372	11343.23
569.734	11313.86
570.095	11429.11
570.457	11476.79
570.819	11547.97
571.18	11537.35
571.542	11618.93
571.903	11718.14
572.265	11752.26
572.626	11765.37
572.987	11868.87
573.349	11953.16
573.71	11958.13
574.071	11996.1
574.432	11956.32
574.794	12170.56
575.155	12156.09
575.516	12105.25
575.877	12255.53
576.238	12244.23
576.599	12319.03
576.96	12339.59
577.32	12364
577.681	12446.93
578.042	12526.93
578.403	12475.86
578.763	12574.16
579.124	12669.75
579.485	12600.15
579.845	12723.54
580.206	12789.52
580.566	12672.69
580.927	12856.41
581.287	12860.03
581.648	12823.87
582.008	12909.29
582.368	12920.82
582.728	12834.49
583.089	12928.95
583.449	12944.09
583.809	12930.76
584.169	13026.13
584.529	13078.1
584.889	13171.66
585.249	13086.69
585.609	13148.16
585.969	13189.51
586.329	13116.29
586.688	13266.35
587.048	13221.83
587.408	13205.1
587.768	13227.03
588.127	13305.89
588.487	13238.78
588.846	13403.52
589.206	13304.09
589.565	13296.63
589.925	13478.54
590.284	13402.84
590.643	13396.51
591.003	13472.89
591.362	13530.75
591.721	13536.4
592.08	13478.09
592.44	13610.29
592.799	13614.13
593.158	13672.89
593.517	13587.47
593.876	13612.55
594.235	13591.76
594.593	13675.37
594.952	13653.23
595.311	13695.26
595.67	13806.67
596.029	13807.57
596.387	13828.59
596.746	13839.44
597.104	13886.22
597.463	13938.19
597.822	13938.64
598.18	13923.96
598.538	13854.13
598.897	14079.43
599.255	13844.64
599.613	14095.25
599.972	14131.41
600.33	14093.22
600.688	14057.06
601.046	14207.56
601.404	14229.03
601.762	14146.32
602.12	14220.9
602.478	14221.8
602.836	14270.39
603.194	14281.69
603.552	14229.03
603.91	14222.71
604.268	14400.1
604.625	14354.23
604.983	14320.1
605.341	14301.8
605.698	14426.09
606.056	14530.49
606.413	14443.49
606.771	14497.05
607.128	14541.34
607.485	14449.14
607.843	14512.64
608.2	14682.13
608.557	14677.83
608.914	14658.4
609.272	14690.94
609.629	14765.06
609.986	14825.63
610.343	14729.13
610.7	14832.41
611.057	14821.11
611.414	14843.03
611.771	14892.97
612.127	14955.12
612.484	15036.92
612.841	15003.25
613.198	14956.25
613.554	14975
613.911	15100.42
614.267	15076.02
614.624	15030.14
614.98	15127.77
615.337	15243.7
615.693	15223.81
616.05	15167.31
616.406	15324.37
616.762	15307.42
617.118	15284.82
617.475	15309.91
617.831	15326.63
618.187	15356.23
618.543	15453.18
618.899	15523.69
619.255	15509.68
619.611	15431.03
619.967	15578.6
620.323	15553.97
620.678	15562.1
621.034	15434.88
621.39	15563.01
621.746	15422.45
622.101	15744.25
622.457	15590.58
622.812	15642.78
623.168	15707.64
623.523	15705.15
623.879	15801.42
624.234	15623.8
624.589	15780.4
624.945	15781.31
625.3	15784.92
625.655	15704.7
626.01	15770.01
626.365	15760.97
626.72	15795.77
627.075	15731.82
627.43	15872.61
627.785	15726.39
628.14	15854.53
628.495	15882.1
628.85	15817.01
629.205	15804.36
629.559	15854.53
629.914	15774.75
630.269	15883.45
630.623	15802.32
630.978	15810.23
631.332	15881.87
631.687	15896.56
632.041	15742.21
632.396	15904.92
632.75	15825.83
633.104	15871.48
633.459	15827.63
633.813	15807.52
634.167	15805.71
634.521	15784.25
634.875	15866.05
635.229	15819.73
635.583	15693.85
635.937	15831.7
636.291	15836.9
636.645	15786.51
636.999	15746.05
637.352	15836.45
637.706	15630.58
638.06	15821.99
638.413	15725.94
638.767	15729.11
639.121	15817.24
639.474	15669.9
639.828	15674.42
640.181	15716.68
640.534	15666.73
640.888	15656.57
641.241	15633.52
641.594	15678.03
641.947	15783.79
642.301	15650.69
642.654	15668.99
643.007	15751.93
643.36	15674.19
643.713	15662.44
644.066	15737.02
644.419	15597.81
644.771	15496.8
645.124	15425.16
645.477	15359.62
645.83	15339.74
646.182	15321.89
646.535	15298.16
646.888	15312.39
647.24	15262.9
647.593	15211.38
647.945	15275.33
648.298	15192.4
648.65	15183.58
649.002	15105.17
649.355	15214.09
649.707	15124.38
650.059	15330.25
650.411	15419.28
650.763	15431.71
651.115	15666.06
651.467	15540.64
651.819	15524.14
652.171	15610.92
652.523	15554.65
652.875	15564.36
653.227	15552.16
653.578	15670.35
653.93	15581.31
654.282	15472.16
654.633	15517.13
654.985	15612.95
655.337	15504.25
655.688	15538.6
656.039	15660.18
656.391	15481.43
656.742	15510.81
657.094	15554.87
657.445	15586.06
657.796	15566.62
658.147	15458.15
658.498	15561.65
658.849	15553.52
659.2	15581.31
659.551	15507.19
659.902	15538.6
660.253	15555.33
660.604	15585.61
660.955	15451.37
661.306	15583.35
661.656	15704.7
662.007	15638.04
662.358	15586.51
662.708	15637.13
663.059	15538.15
663.409	15474.65
663.76	15606.62
664.11	15583.12
664.461	15673.97
664.811	15670.58
665.161	15593.97
665.511	15635.55
665.862	15717.58
666.212	15647.98
666.562	15613.18
666.912	15618.83
667.262	15588.54
667.612	15660.18
667.962	15634.65
668.312	15626.96
668.662	15621.76
669.011	15642.55
669.361	15582.67
669.711	15608.66
670.06	15716.68
670.41	15580.86
670.76	15626.74
671.109	15650.46
671.459	15638.26
671.808	15614.31
672.157	15682.33
672.507	15525.72
672.856	15610.47
673.205	15631.71
673.554	15590.13
673.904	15570.47
674.253	15675.32
674.602	15677.58
674.951	15452.96
675.3	15313.07
675.649	15647.98
675.998	15532.73
676.346	15588.77
676.695	15654.08
677.044	15576.12
677.393	15559.39
677.741	15624.48
678.09	15543.12
678.438	15453.63
678.787	15590.35
679.135	15579.28
679.484	15449.79
679.832	15521.65
680.181	15447.31
680.529	15485.5
680.877	15406.18
681.225	15513.97
681.573	15610.24
681.922	15431.71
682.27	15385.61
682.618	15456.8
682.966	15417.25
683.314	15451.15
683.661	15406.85
684.009	15345.61
684.357	15283.47
684.705	15172.96
685.053	15276.01
685.4	15265.39
685.748	15178.84
686.095	15243.92
686.443	15195.79
686.79	15151.27
687.138	15206.63
687.485	15245.73
687.832	15151.72
688.18	15123.25
688.527	15076.47
688.874	15021.33
689.221	15029.69
689.568	14963.02
689.915	14987.66
690.262	14974.78
690.609	14980.43
690.956	14886.42
691.303	14891.16
691.65	14931.84
691.997	14846.19
692.344	14732.07
692.69	14700.21
693.037	14664.95
693.383	14613.43
693.73	14641
694.077	14611.17
694.423	14600.32
694.769	14550.83
695.116	14504.28
695.462	14515.35
695.808	14518.74
696.155	14626.76
696.501	14378.18
696.847	14419.54
697.193	14339.99
697.539	14463.6
697.885	14271.97
698.231	14220.45
698.577	14324.17
698.923	14255.02
699.269	14205.98
699.614	14165.08
699.96	14102.26
700.306	14098.87
700.651	14162.37
700.997	14051.86
701.342	13992.43
701.688	14070.62
702.033	13954.46
702.379	13932.09
702.724	13908.14
703.069	13941.81
703.415	13806.67
703.76	13765.99
704.105	13805.09
704.45	13794.69
704.795	13701.59
705.14	13701.36
705.485	13668.14
705.83	13662.72
706.175	13653.68
706.52	13676.28
706.865	13596.51
707.209	13639.44
707.554	13598.77
707.899	13598.31
708.243	13539.56
708.588	13498.2
708.932	13407.81
709.277	13448.26
709.621	13437.64
709.966	13327.81
710.31	13425.89
710.654	13176.63
710.998	13326.91
711.342	13268.15
711.687	13214.37
712.031	13202.62
712.375	13159.23
712.719	13161.49
713.063	13192.9
713.407	13206.91
713.75	13119.46
714.094	13094.83
714.438	13085.56
714.782	13127.14
715.125	13029.52
715.469	13018.89
715.812	12980.03
716.156	12937.77
716.499	13001.49
716.843	12977.77
717.186	12938.45
717.53	13017.09
717.873	12948.16
718.216	12946.81
718.559	12839.92
718.902	12774.83
719.246	12860.93
719.589	12793.82
719.932	12787.49
720.275	12745.46
720.617	12736.19
720.96	12674.27
721.303	12802.4
721.646	12845.79
721.989	12713.59
722.331	12676.76
722.674	12689.64
723.016	12725.8
723.359	12720.82
723.701	12741.84
724.044	12596.53
724.386	12569.64
724.729	12620.94
725.071	12604.22
725.413	12577.1
725.755	12551.79
726.097	12584.56
726.439	12507.5
726.782	12470.66
727.124	12509.98
727.465	12492.36
727.807	12567.16
728.149	12427.05
728.491	12432.02
728.833	12493.71
729.175	12460.04
729.516	12476.99
729.858	12430.89
730.199	12397.67
730.541	12423.2
730.882	12450.1
731.224	12352.92
731.565	12380.27
731.906	12443.77
732.248	12392.7
732.589	12352.7
732.93	12224.57
733.271	12301.17
733.612	12360.16
733.953	12335.98
734.294	12289.2
734.635	12120.84
734.976	12308.18
735.317	12241.29
735.658	12218.24
735.999	12216.43
736.339	12201.06
736.68	12263.21
737.021	12289.2
737.361	12178.24
737.702	12198.58
738.042	12197.67
738.383	12121.07
738.723	12229.31
739.063	12117.22
739.404	12196.77
739.744	12122.65
740.084	12127.17
740.424	12150.22
740.764	12154.51
741.104	12188.86
741.444	12102.99
741.784	12123.78
742.124	12088.07
742.464	12075.87
742.804	12030.9
743.143	12051.46
743.483	12130.33
743.823	12007.85
744.162	11949.32
744.502	12082.87
744.841	11972.37
745.181	12053.5
745.52	12102.08
745.86	12070.45
746.199	12096.43
746.538	11961.3
746.877	11983.67
747.216	12013.27
747.556	12061.63
747.895	12034.06
748.234	11982.31
748.573	11975.53
748.911	12011.24
749.25	12060.73
749.589	11922.43
749.928	11984.8
750.267	11910.45
750.605	11893.5
750.944	11872.48
751.283	11849.66
751.621	11855.54
751.96	11850.56
752.298	11753.17
752.636	11886.5
752.975	11759.04
753.313	11826.61
753.651	11818.47
753.989	11702.09
754.327	11771.02
754.666	11818.47
755.004	11755.2
755.342	11765.37
755.679	11772.15
756.017	11613.06
756.355	11665.48
756.693	11672.26
757.031	11701.19
757.368	11636.11
757.706	11622.1
758.044	11598.82
758.381	11552.49
758.719	11510.01
759.056	11635.88
759.394	11487.41
759.731	11465.72
760.068	11486.96
760.405	11450.35
760.743	11368.54
761.08	11413.29
761.417	11327.64
761.754	11339.84
762.091	11355.21
762.428	11307.08
762.765	11253.29
763.102	11342.33
763.438	11209
763.775	11197.02
764.112	11220.07
764.449	11183.01
764.785	11188.43
765.122	11074.09
765.458	11061.21
765.795	11103.01
766.131	10997.71
766.467	11095.33
766.804	10985.05
767.14	10917.26
767.476	10835.22
767.812	10940.76
768.148	10936.69
768.485	10832.74
768.821	10803.13
769.157	10790.93
769.492	10787.32
769.828	10776.92
770.164	10705.06
770.5	10664.83
770.836	10657.83
771.171	10592.07
771.507	10561.78
771.842	10491.28
772.178	10506.87
772.513	10480.66
772.849	10441.56
773.184	10421
773.519	10430.04
773.855	10378.29
774.19	10282.24
774.525	10277.72
774.86	10286.09
775.195	10280.89
775.53	10266.42
775.865	10136.03
776.2	10097.62
776.535	10053.32
776.87	10034.79
777.205	10026.88
777.539	9954.57
777.874	10048.58
778.209	9918.19
778.543	9966.77
778.878	9832.99
779.212	9832.76
779.547	9783.5
779.881	9900.56
780.215	9759.32
780.55	9733.11
780.884	9702.37
781.218	9649.49
781.552	9666.21
781.886	9638.64
782.22	9519.78
782.554	9591.19
782.888	9540.57
783.222	9447.92
783.556	9436.84
783.889	9455.82
784.223	9341.25
784.557	9346.45
784.89	9372.66
785.224	9294.02
785.557	9271.42
785.891	9227.81
786.224	9240.92
786.558	9226
786.891	9128.15
787.224	9104.65
787.557	9100.58
787.891	9128.6
788.224	9056.29
788.557	9055.61
788.89	9059.68
789.223	9002.73
789.556	8981.04
789.888	8878.44
790.221	8917.31
790.554	8816.52
790.887	8772.45
791.219	8783.3
791.552	8787.59
791.884	8777.2
792.217	8755.96
792.549	8663.53
792.882	8620.82
793.214	8645.9
793.546	8638.22
793.879	8594.38
794.211	8527.49
794.543	8555.06
794.875	8523.87
795.207	8544.89
795.539	8525
795.871	8517.09
796.203	8421.28
796.535	8379.24
796.867	8409.3
797.198	8326.59
797.53	8327.94
797.862	8336.53
798.193	8367.94
798.525	8302.86
798.856	8313.93
799.188	8220.6
799.519	8199.81
799.85	8161.85
800.182	8153.49
800.513	8156.88
800.844	8049.99
801.175	8089.99
801.506	8110.1
801.837	8103.32
802.168	8019.7
802.499	7960.72
802.83	8002.3
803.161	7969.54
803.491	7948.52
803.822	7971.57
804.153	7947.62
804.483	7777.68
804.814	7794.4
805.145	7857.45
805.475	7826.04
805.805	7733.84
806.136	7796.89
806.466	7762.99
806.796	7726.38
807.126	7650.22
807.457	7709.43
807.787	7685.25
808.117	7661.07
808.447	7608.19
808.777	7672.37
809.107	7589.43
809.436	7650.67
809.766	7541.75
810.096	7600.51
810.426	7494.52
810.755	7513.95
811.085	7559.15
811.414	7469.89
811.744	7480.06
812.073	7458.36
812.403	7442.32
812.732	7371.13
813.061	7362.09
813.39	7364.81
813.719	7298.59
814.049	7363.22
814.378	7367.74
814.707	7347.41
815.036	7297.01
815.365	7267.63
815.693	7262.21
816.022	7217.24
816.351	7213.17
816.68	7203
817.008	7174.08
817.337	7096.11
817.665	7129.11
817.994	7165.26
818.322	7118.26
818.651	7088.88
818.979	7024.93
819.307	7099.95
819.636	7090.46
819.964	7051.59
820.292	7070.58
820.62	7065.38
820.948	7040.52
821.276	7022.44
821.604	7066.28
821.932	7035.78
822.259	7030.58
822.587	7033.29
822.915	7053.63
823.243	7028.32
823.57	7043.68
823.898	7001.88
824.225	6987.64
824.553	6937.7
824.88	6999.84
825.207	7108.32
825.535	7055.21
825.862	7052.95
826.189	7067.19
826.516	7032.84
826.843	7075.32
827.17	7010.47
827.497	7017.7
827.824	7010.24
828.151	7016.11
828.478	7025.61
828.805	7076
829.131	7022.44
829.458	6973.4
829.785	7052.5
830.111	6987.64
830.438	7061.09
830.764	6967.98
831.09	7012.95
831.417	6987.42
831.743	7072.16
832.069	6998.49
832.395	6991.48
832.722	7011.37
833.048	7025.15
833.374	6990.58
833.7	7021.09
834.026	7041.88
834.351	6978.15
834.677	6958.26
835.003	7011.82
835.329	6980.41
835.654	6933.86
835.98	6881.88
836.306	6947.19
836.631	6918.94
836.956	6930.47
837.282	6934.08
837.607	6901.99
837.932	6883.92
838.258	6928.66
838.583	6889.34
838.908	6831.26
839.233	6860.41
839.558	6844.14
839.883	6754.88
840.208	6801.21
840.533	6787.19
840.858	6825.39
841.182	6817.93
841.507	6811.83
841.832	6729.79
842.156	6764.82
842.481	6759.17
842.805	6775.9
843.13	6739.06
843.454	6673.98
843.778	6686.41
844.103	6636.92
844.427	6642.57
844.751	6658.16
845.075	6658.84
845.399	6648.44
845.723	6533.64
846.047	6617.48
846.371	6524.15
846.695	6557.14
847.019	6507.88
847.343	6538.16
847.666	6491.61
847.99	6408
848.313	6422.46
848.637	6363.48
848.96	6413.19
849.284	6374.32
849.607	6319.64
849.931	6293.65
850.254	6227.66
850.577	6305.63
850.9	6209.58
851.223	6196.48
851.546	6183.14
851.869	6114.9
852.192	6179.98
852.515	6113.31
852.838	6161.9
853.161	6076.03
853.483	6044.16
853.806	5978.63
854.129	6047.55
854.451	6031.51
854.774	5970.94
855.096	5976.37
855.419	5934.34
855.741	5941.34
856.063	5951.28
856.385	5887.56
856.708	5849.82
857.03	5845.98
857.352	5847.78
857.674	5852.53
857.996	5806.43
858.318	5745.41
858.64	5780.67
858.961	5766.88
859.283	5758.75
859.605	5732.08
859.926	5762.14
860.248	5701.57
860.57	5657.28
860.891	5698.18
861.212	5655.92
861.534	5677.17
861.855	5691.18
862.176	5634.91
862.498	5631.97
862.819	5689.6
863.14	5599.66
863.461	5596.49
863.782	5594.68
864.103	5634.68
864.424	5558.75
864.745	5597.17
865.065	5539.54
865.386	5519.21
865.707	5550.62
866.027	5586.55
866.348	5546.78
866.668	5510.62
866.989	5520.11
867.309	5485.76
867.63	5474.01
867.95	5493.9
868.27	5477.4
868.59	5503.16
868.91	5451.86
869.23	5483.5
869.55	5401.47
869.87	5440.56
870.19	5393.33
870.51	5399.43
870.83	5434.91
871.15	5372.77
871.469	5382.26
871.789	5388.14
872.109	5392.65
872.428	5366.89
872.748	5407.8
873.067	5348.59
873.386	5371.64
873.706	5407.57
874.025	5319.21
874.344	5332.32
874.663	5318.31
874.982	5332.77
875.301	5326.22
875.62	5275.6
875.939	5319.66
876.258	5263.39
876.577	5283.05
876.896	5235.14
877.214	5264.3
877.533	5259.78
877.852	5282.38
878.17	5246.67
878.489	5304.75
878.807	5280.12
879.125	5300.23
879.444	5268.14
879.762	5243.05
880.08	5205.09
880.398	5166.67
880.716	5213.22
881.034	5159.21
881.352	5141.14
881.67	5133.23
881.988	5097.75
882.306	5130.97
882.624	5111.53
882.941	5078.76
883.259	5087.8
883.577	5089.39
883.894	5081.02
884.212	5078.76
884.529	5068.6
884.846	5045.09
885.164	5021.37
885.481	5022.5
885.798	4976.62
886.115	5037.41
886.432	4994.25
886.75	5001.03
887.067	4999.44
887.383	4972.33
887.7	4944.08
888.017	4889.17
888.334	4966.9
888.651	4973
888.967	4917.41
889.284	4872.89
889.6	4855.95
889.917	4853.23
890.233	4881.03
890.55	4783.18
890.866	4884.42
891.182	4834.7
891.498	4811.65
891.815	4805.55
892.131	4782.28
892.447	4767.81
892.763	4758.1
893.079	4726.91
893.395	4714.71
893.71	4722.16
894.026	4709.06
894.342	4671.77
894.657	4680.13
894.973	4672.9
895.289	4648.04
895.604	4676.52
895.92	4622.96
896.235	4591.55
896.55	4655.73
896.865	4600.13
897.181	4558.55
897.496	4603.3
897.811	4520.59
898.126	4490.08
898.441	4543.19
898.756	4552.9
899.071	4444.21
899.386	4501.15
899.7	4466.8
900.015	4437.2
900.33	4416.41
900.644	4411.44
900.959	4425.45
901.273	4382.74
901.588	4320.82
901.902	4290.99
902.216	4298.9
902.531	4326.69
902.845	4358.56
903.159	4300.93
903.473	4266.13
903.787	4266.36
904.101	4237.2
904.415	4246.24
904.729	4259.35
905.042	4211.22
905.356	4186.13
905.67	4215.28
905.984	4147.94
906.297	4159.47
906.611	4109.98
906.924	4183.2
907.237	4112.24
907.551	4126.7
907.864	4070.88
908.177	4045.35
908.491	4100.03
908.804	4057.55
909.117	4026.36
909.43	4012.13
909.743	3985.23
910.056	3973.94
910.368	3982.75
910.681	3960.15
910.994	3946.59
911.307	3901.39
911.619	3856.88
911.932	3875.41
912.244	3879.7
912.557	3837.89
912.869	3843.09
913.181	3830.89
913.494	3839.93
913.806	3792.92
914.118	3798.12
914.43	3799.25
914.742	3793.15
915.054	3740.49
915.366	3775.3
915.678	3712.7
915.99	3715.18
916.302	3693.72
916.613	3668.63
916.925	3663.66
917.236	3685.81
917.548	3622.76
917.859	3648.52
918.171	3605.81
918.482	3602.87
918.794	3546.83
919.105	3610.78
919.416	3575.08
919.727	3572.14
920.038	3522.2
920.349	3503.89
920.66	3513.16
920.971	3519.71
921.282	3492.37
921.593	3425.25
921.903	3459.15
922.214	3455.3
922.525	3431.35
922.835	3410.11
923.146	3386.38
923.456	3383.22
923.767	3373.95
924.077	3356.1
924.387	3389.09
924.697	3322.65
925.008	3313.84
925.318	3283.56
925.628	3324.23
925.938	3287.17
926.248	3243.11
926.558	3280.85
926.867	3248.76
927.177	3259.38
927.487	3204.69
927.796	3185.26
928.106	3191.13
928.416	3171.24
928.725	3151.13
929.034	3144.8
929.344	3159.04
929.653	3126.05
929.962	3115.2
930.271	3100.29
930.581	3079.72
930.89	3103.22
931.199	3023.68
931.508	3061.42
931.817	3061.42
932.125	3045.6
932.434	3031.13
932.743	2988.88
933.051	3013.96
933.36	3003.79
933.669	2998.37
933.977	2975.77
934.286	2951.59
934.594	2948.88
934.902	2925.15
935.21	2917.01
935.519	2867.98
935.827	2880.18
936.135	2881.76
936.443	2844.93
936.751	2847.64
937.059	2834.76
937.367	2826.85
937.674	2819.62
937.982	2816.45
938.29	2837.24
938.597	2789.33
938.905	2777.13
939.213	2728.54
939.52	2771.71
939.827	2747.53
940.135	2724.25
940.442	2743.46
940.749	2721.99
941.056	2703.01
941.363	2670.47
941.67	2689.22
941.977	2676.79
942.284	2655.78
942.591	2656
942.898	2613.74
943.205	2630.47
943.511	2660.3
943.818	2609.68
944.125	2581.2
944.431	2589.34
944.738	2587.3
945.044	2572.62
945.35	2565.38
945.657	2545.5
945.963	2566.06
946.269	2534.2
946.575	2535.78
946.881	2499.62
947.187	2525.39
947.493	2474.77
947.799	2507.53
948.105	2450.36
948.41	2469.79
948.716	2464.6
949.022	2428.66
949.327	2449.46
949.633	2406.97
949.938	2404.48
950.244	2440.42
950.549	2413.98
950.854	2404.94
951.16	2364.71
951.465	2377.59
951.77	2307.76
952.075	2349.8
952.38	2349.57
952.685	2324.71
952.99	2308.22
953.294	2300.31
953.599	2289.23
953.904	2278.61
954.209	2281.1
954.513	2308.44
954.818	2292.4
955.122	2266.18
955.426	2293.75
955.731	2228.67
956.035	2226.41
956.339	2195
956.643	2216.24
956.948	2216.92
957.252	2194.09
957.556	2189.8
957.86	2190.48
958.163	2150.25
958.467	2158.62
958.771	2158.62
959.075	2129.24
959.378	2151.61
959.682	2129.24
959.985	2110.71
960.289	2097.83
960.592	2083.82
960.896	2112.74
961.199	2119.52
961.502	2076.13
961.805	2066.87
962.108	2076.13
962.411	2056.02
962.714	2057.38
963.017	2012.4
963.32	2052.18
963.623	2011.27
963.926	2037.04
964.228	1997.94
964.531	2018.73
964.833	1980.54
965.136	1957.04
965.438	1967.21
965.741	1985.74
966.043	1982.57
966.345	1977.38
966.648	1958.39
966.95	1957.04
967.252	1940.54
967.554	1967.21
967.856	1915.46
968.158	1918.17
968.46	1895.8
968.761	1866.19
969.063	1892.18
969.365	1858.06
969.666	1865.29
969.968	1883.59
970.269	1856.7
970.571	1861.45
970.872	1830.49
971.174	1855.57
971.475	1870.71
971.776	1826.65
972.077	1813.31
972.378	1786.87
972.679	1802.69
972.98	1784.16
973.281	1780.55
973.582	1769.7
973.883	1796.82
974.183	1760.66
974.484	1748.68
974.785	1766.08
975.085	1753.2
975.386	1737.84
975.686	1715.46
975.986	1717.27
976.287	1738.74
976.587	1748.68
976.887	1705.75
977.187	1715.92
977.487	1675.24
977.787	1665.3
978.087	1690.61
978.387	1688.8
978.687	1655.35
978.987	1648.57
979.286	1659.19
979.586	1637.27
979.885	1641.12
980.185	1647.44
980.484	1633.43
980.784	1623.04
981.083	1611.51
981.382	1589.59
981.682	1605.18
981.981	1582.81
982.28	1598.63
982.579	1553.66
982.878	1584.17
983.177	1558.63
983.475	1561.34
983.774	1574
984.073	1539.2
984.372	1577.61
984.67	1529.93
984.969	1560.21
985.267	1527.22
985.566	1513.66
985.864	1521.12
986.162	1525.41
986.461	1517.05
986.759	1495.13
987.057	1501.68
987.355	1493.77
987.653	1508.01
987.951	1455.81
988.249	1452.87
988.547	1468.69
988.844	1482.02
989.142	1463.94
989.44	1411.97
989.737	1423.49
990.035	1435.47
990.332	1433.89
990.63	1416.49
990.927	1411.97
991.224	1424.4
991.521	1390.5
991.819	1407.67
992.116	1367.68
992.413	1390.05
992.71	1384.4
993.006	1371.07
993.303	1394.57
993.6	1357.96
993.897	1344.85
994.193	1361.12
994.49	1344.85
994.787	1336.72
995.083	1332.87
995.379	1338.3
995.676	1357.51
995.972	1327.22
996.268	1295.14
996.565	1318.41
996.861	1296.94
997.157	1297.85
997.453	1273.67
997.749	1291.75
998.044	1309.6
998.34	1282.03
998.636	1262.14
998.932	1280.9
999.227	1249.94
999.523	1260.79
999.818	1253.33
1000.114	1236.38
1000.409	1259.66
1000.704	1205.42
1001	1210.39
1001.295	1206.32
1001.59	1234.12
1001.885	1210.62
1002.18	1167.46
1002.475	1189.38
1002.77	1191.18
1003.065	1200.67
1003.359	1195.48
1003.654	1211.75
1003.949	1176.49
1004.243	1178.98
1004.538	1174.23
1004.832	1152.77
1005.127	1140.56
1005.421	1155.03
1005.715	1136.27
1006.009	1153.44
1006.304	1116.84
1006.598	1103.28
1006.892	1122.48
1007.186	1107.34
1007.48	1108.47
1007.773	1105.54
1008.067	1098.08
1008.361	1090.4
1008.655	1052.2
1008.948	1076.61
1009.242	1073.45
1009.535	1046.55
1009.829	1045.2
1010.122	1066.44
1010.415	1062.83
1010.708	1029.38
1011.001	1043.62
1011.295	1042.94
1011.588	1029.61
1011.881	1018.08
1012.173	1026.22
1012.466	1009.04
1012.759	1001.36
1013.052	1037.74
1013.344	1026.67
1013.637	1033.22
1013.93	978.31
1014.222	1006.33
1014.514	998.19
1014.807	983.51
1015.099	989.83
1015.391	1002.71
1015.683	985.54
1015.976	962.04
1016.268	976.05
1016.56	938.08
1016.851	946.44
1017.143	936.05
1017.435	956.16
1017.727	943.28
1018.018	916.84
1018.31	922.72
1018.602	927.46
1018.893	910.96
1019.185	908.93
1019.476	905.54
1019.767	913
1020.058	894.69
1020.35	872.55
1020.641	916.61
1020.932	877.52
1021.223	856.73
1021.514	855.37
1021.804	876.84
1022.095	837.75
1022.386	861.25
1022.677	844.75
1022.967	833.45
1023.258	823.28
1023.548	827.8
1023.839	836.62
1024.129	816.73
1024.419	852.66
1024.709	824.41
1025	825.32
1025.29	831.64
1025.58	806.56
1025.87	809.27
1026.16	808.37
1026.449	794.36
1026.739	801.36
1027.029	807.69
1027.319	783.28
1027.608	786
1027.898	773.12
1028.187	774.02
1028.477	769.27
1028.766	757.52
1029.055	774.25
1029.344	755.49
1029.634	768.37
1029.923	767.69
1030.212	745.77
1030.501	748.71
1030.79	725.43
1031.078	752.55
1031.367	717.75
1031.656	722.04
1031.945	723.4
1032.233	704.42
1032.522	722.04
1032.81	706
1033.099	708.94
1033.387	689.5
1033.675	706.22
1033.963	703.29
1034.251	689.05
1034.54	695.83
1034.828	678.43
1035.116	682.27
1035.403	675.49
1035.691	713
1035.979	659.9
1036.267	674.59
1036.554	626.23
1036.842	696.73
1037.129	681.37
1037.417	676.17
1037.704	670.07
1037.992	641.14
1038.279	656.51
1038.566	635.72
1038.853	635.72
1039.14	635.72
