Data from cardboard_FLMS001491_058.txt Node
Date: Tue Feb 07 11:39:44 GMT 2017
User: dcchb
Spectrometer: FLMS00149
Trigger mode: 0
Integration Time (sec): 2.000000E-2
Scans to average: 10
Electric dark correction enabled: true
Nonlinearity correction enabled: false
Boxcar width: 0
XAxis mode: Wavelengths
Number of Pixels in Spectrum: 2048
>>>>>Begin Spectral Data<<<<<
341.393	-8.8
341.776	-8.8
342.16	-8.8
342.543	-53.77
342.927	-65.97
343.31	-71.4
343.693	-72.75
344.077	-65.97
344.46	-68.01
344.843	-43.6
345.226	-42.7
345.61	-39.31
345.993	-6.09
346.376	-32.98
346.759	13.8
347.142	40.92
347.525	48.15
347.908	44.53
348.291	78.66
348.674	105.55
349.057	111.2
349.44	124.76
349.823	150.29
350.206	160.46
350.588	188.71
350.971	203.62
351.354	228.03
351.737	233
352.119	241.82
352.502	257.18
352.884	260.57
353.267	254.24
353.65	275.94
354.032	282.72
354.414	275.26
354.797	297.18
355.179	302.15
355.562	315.94
355.944	306.67
356.326	321.36
356.709	333.34
357.091	348.03
357.473	323.4
357.855	318.2
358.238	340.8
358.62	309.61
359.002	343.28
359.384	352.1
359.766	335.15
360.148	320.01
360.53	331.53
360.912	319.33
361.294	323.17
361.676	326.56
362.057	330.63
362.439	319.55
362.821	324.75
363.203	344.86
363.584	314.13
363.966	316.84
364.348	305.99
364.729	291.31
365.111	285.88
365.493	310.29
365.874	306.22
366.256	314.81
366.637	312.32
367.019	288.59
367.4	308.03
367.781	296.05
368.163	284.98
368.544	309.84
368.925	302.15
369.306	307.35
369.688	305.09
370.069	292.44
370.45	295.6
370.831	303.73
371.212	301.48
371.593	303.51
371.974	304.19
372.355	303.06
372.736	335.37
373.117	306.22
373.498	301.7
373.879	292.21
374.26	313.68
374.641	305.09
375.021	305.77
375.402	316.84
375.783	313.23
376.163	308.25
376.544	286.56
376.925	331.3
377.305	305.32
377.686	308.48
378.066	324.3
378.447	315.71
378.827	316.39
379.208	316.39
379.588	314.58
379.968	329.27
380.349	338.08
380.729	316.16
381.109	321.59
381.489	319.78
381.87	343.06
382.25	339.21
382.63	339.21
383.01	333.34
383.39	326.33
383.77	326.33
384.15	336.73
384.53	345.99
384.91	333.56
385.29	325.88
385.67	330.63
386.049	348.25
386.429	331.98
386.809	343.51
387.189	344.64
387.568	355.49
387.948	332.43
388.328	348.71
388.707	345.32
389.087	349.61
389.466	343.06
389.846	353.68
390.225	329.27
390.605	351.19
390.984	337.18
391.363	362.26
391.743	339.21
392.122	349.16
392.501	360.91
392.881	360
393.26	367.01
393.639	371.08
394.018	346.67
394.397	376.28
394.776	368.14
395.155	381.25
395.534	357.07
395.913	348.03
396.292	388.93
396.671	365.65
397.05	353.23
397.429	374.69
397.808	370.85
398.186	390.29
398.565	371.53
398.944	382.83
399.323	369.5
399.701	381.02
400.08	372.66
400.458	390.29
400.837	386.44
401.215	379.67
401.594	407.46
401.972	393
402.351	406.11
402.729	403.85
403.107	404.3
403.486	398.87
403.864	397.97
404.242	383.51
404.62	391.87
404.999	403.17
405.377	388.93
405.755	440
406.133	417.86
406.511	422.6
406.889	413.56
407.267	404.3
407.645	419.89
408.023	415.82
408.401	424.18
408.779	421.25
409.156	435.26
409.534	435.93
409.912	434.8
410.29	435.93
410.667	422.83
411.045	456.05
411.422	449.27
411.8	435.26
412.178	461.47
412.555	447.46
412.933	464.41
413.31	468.48
413.687	450.62
414.065	468.48
414.442	468.48
414.819	478.42
415.197	472.54
415.574	489.04
415.951	488.59
416.328	492.2
416.705	483.62
417.082	494.92
417.46	479.1
417.837	513.9
418.214	495.82
418.591	498.76
418.967	502.15
419.344	522.03
419.721	513.67
420.098	527.68
420.475	511.19
420.852	524.29
421.228	529.49
421.605	548.47
421.982	517.97
422.358	534.69
422.735	541.47
423.111	539.89
423.488	537.85
423.864	560.23
424.241	557.51
424.617	541.24
424.994	557.74
425.37	556.38
425.746	552.32
426.123	533.79
426.499	557.74
426.875	558.42
427.251	554.58
427.627	575.37
428.003	575.37
428.379	572.43
428.756	604.74
429.132	604.07
429.507	595.7
429.883	598.64
430.259	602.94
430.635	613.56
431.011	598.64
431.387	648.81
431.763	627.34
432.138	647.91
432.514	635.48
432.89	672.76
433.265	664.63
433.641	653.33
434.016	665.53
434.392	692.88
434.767	659.43
435.143	684.97
435.518	702.37
435.894	697.85
436.269	727.9
436.644	686.78
437.02	704.63
437.395	702.59
437.77	716.61
438.145	744.63
438.52	730.62
438.895	724.74
439.271	722.71
439.646	747.79
440.021	759.99
440.395	742.14
440.77	718.87
441.145	740.11
441.52	756.15
441.895	760.45
442.27	786.89
442.645	767.23
443.019	778.98
443.394	788.69
443.769	803.61
444.143	757.51
444.518	798.64
444.892	793.44
445.267	811.74
445.641	818.07
446.016	779.65
446.39	809.71
446.764	820.78
447.139	824.4
447.513	834.57
447.887	823.04
448.262	829.37
448.636	834.79
449.01	835.25
449.384	862.82
449.758	843.38
450.132	877.28
450.506	856.71
450.88	862.14
451.254	848.35
451.628	889.93
452.002	889.71
452.376	902.82
452.75	892.19
453.123	908.24
453.497	927.9
453.871	934.23
454.244	938.52
454.618	924.51
454.992	952.76
455.365	949.59
455.739	964.96
456.112	999.31
456.486	973.55
456.859	989.59
457.232	986.2
457.606	1024.17
457.979	1011.51
458.352	1046.77
458.725	1056.03
459.099	1061
459.472	1063.04
459.845	1061.46
460.218	1073.43
460.591	1100.78
460.964	1104.62
461.337	1115.01
461.71	1138.74
462.083	1139.42
462.456	1148.46
462.829	1159.98
463.201	1186.88
463.574	1151.85
463.947	1184.84
464.32	1210.38
464.692	1213.09
465.065	1237.72
465.438	1252.41
465.81	1260.09
466.183	1268
466.555	1301.22
466.928	1299.64
467.3	1308.68
467.672	1341.45
468.045	1333.31
468.417	1319.98
468.789	1341.67
469.161	1388.68
469.534	1392.97
469.906	1403.37
470.278	1407.43
470.65	1442.24
471.022	1440.88
471.394	1480.2
471.766	1498.51
472.138	1519.97
472.51	1561.55
472.882	1552.74
473.253	1578.73
473.625	1583.7
473.997	1633.42
474.369	1651.95
474.74	1664.6
475.112	1650.82
475.484	1699.4
475.855	1767.65
476.227	1742.57
476.598	1789.8
476.97	1794.09
477.341	1862.79
477.713	1859.63
478.084	1891.72
478.455	1923.35
478.827	1933.07
479.198	2020.75
479.569	2003.13
479.94	2051.26
480.311	2048.77
480.682	2144.14
481.053	2144.14
481.424	2174.87
481.795	2231.82
482.166	2247.86
482.537	2279.28
482.908	2296
483.279	2301.2
483.65	2381.87
484.021	2425.71
484.391	2427.97
484.762	2455.09
485.133	2476.56
485.503	2543.68
485.874	2571.02
486.244	2593.39
486.615	2643.56
486.985	2679.49
487.356	2750.9
487.726	2744.12
488.097	2777.57
488.467	2814.86
488.837	2889.88
489.207	2913.61
489.578	2927.39
489.948	2965.81
490.318	3002.65
490.688	3046.71
491.058	3096.43
491.428	3108.18
491.798	3194.05
492.168	3255.07
492.538	3229.53
492.908	3290.32
493.278	3384.56
493.648	3358.57
494.017	3395.86
494.387	3428.4
494.757	3481.05
495.126	3512.24
495.496	3537.32
495.866	3596.98
496.235	3625.23
496.605	3679.69
496.974	3669.75
497.344	3728.73
497.713	3773.93
498.082	3712.01
498.452	3848.95
498.821	3839.01
499.19	3867.94
499.559	3950.42
499.928	3957.88
500.298	4009.4
500.667	4021.38
501.036	4032.45
501.405	4088.27
501.774	4084.65
502.143	4169.62
502.512	4171.66
502.88	4246.68
503.249	4250.52
503.618	4313.57
503.987	4311.09
504.356	4371.42
504.724	4361.48
505.093	4399.45
505.462	4451.42
505.83	4525.32
506.199	4512.21
506.567	4609.61
506.936	4655.26
507.304	4671.98
507.672	4732.32
508.041	4782.26
508.409	4833.33
508.777	4817.06
509.145	4865.42
509.514	4893.67
509.882	4950.39
510.25	4976.38
510.618	5027.45
510.986	5094.34
511.354	5138.86
511.722	5199.43
512.09	5236.71
512.458	5247.11
512.826	5325.52
513.193	5369.14
513.561	5344.51
513.929	5478.97
514.297	5511.51
514.664	5497.27
515.032	5605.06
515.4	5624.05
515.767	5675.57
516.135	5734.55
516.502	5701.11
516.869	5889.35
517.237	5878.28
517.604	5878.96
517.972	5973.19
518.339	6025.84
518.706	6079.4
519.073	6082.79
519.44	6181.32
519.808	6246.4
520.175	6310.81
520.542	6399.62
520.909	6403.01
521.276	6458.15
521.643	6531.59
522.009	6653.62
522.376	6651.59
522.743	6666.05
523.11	6748.76
523.477	6847.29
523.843	6906.73
524.21	6980.4
524.577	7029.21
524.943	7094.52
525.31	7155.08
525.676	7275.08
526.043	7361.4
526.409	7393.49
526.776	7451.8
527.142	7540.38
527.508	7591.68
527.874	7633.49
528.241	7724.33
528.607	7725.46
528.973	7803.88
529.339	7922.07
529.705	7986.7
530.071	8026.24
530.437	8144.43
530.803	8144.21
531.169	8184.88
531.535	8247.93
531.901	8322.73
532.267	8410.87
532.632	8437.53
532.998	8505.78
533.364	8644.08
533.73	8677.75
534.095	8751.65
534.461	8756.62
534.826	8838.2
535.192	8912.32
535.557	9011.08
535.923	9018.53
536.288	9051.53
536.653	9138.3
537.019	9107.57
537.384	9214.46
537.749	9216.49
538.114	9325.87
538.479	9339.88
538.845	9415.13
539.21	9435.25
539.575	9532.42
539.94	9580.33
540.305	9660.33
540.67	9679.99
541.034	9739.87
541.399	9760.66
541.764	9839.98
542.129	9905.74
542.494	9931.96
542.858	9923.37
543.223	10020.32
543.587	10142.57
543.952	10203.14
544.316	10223.02
544.681	10287.88
545.045	10309.35
545.41	10461.43
545.774	10491.94
546.138	10471.6
546.503	10588.89
546.867	10555.89
547.231	10771.26
547.595	10692.61
547.959	10778.71
548.324	10812.39
548.688	10780.97
549.052	10989.1
549.416	11042.44
549.779	11023.91
550.143	11122.43
550.507	11177.12
550.871	11259.61
551.235	11246.05
551.599	11359.72
551.962	11408.53
552.326	11502.31
552.689	11542.54
553.053	11475.42
553.417	11594.51
553.78	11877.44
554.143	11823.43
554.507	11869.08
554.87	11973.71
555.234	12039.47
555.597	12036.53
555.96	12120.83
556.323	12216.19
556.686	12278.34
557.05	12460.03
557.413	12368.95
557.776	12488.5
558.139	12597.2
558.502	12583.19
558.865	12638.1
559.228	12781.37
559.59	12827.7
559.953	12902.05
560.316	13060.46
560.679	13059.33
561.041	13170.29
561.404	13265.2
561.767	13344.75
562.129	13406.22
562.492	13535.25
562.854	13590.62
563.217	13549.94
563.579	13611.63
563.941	13757.62
564.304	13890.27
564.666	13959.42
565.028	14038.74
565.39	14045.75
565.753	14197.61
566.115	14233.09
566.477	14358.96
566.839	14398.73
567.201	14504.72
567.563	14636.47
567.925	14650.48
568.287	14755.11
568.648	14682.79
569.01	14867.65
569.372	14916.68
569.734	15031.26
570.095	15064.02
570.457	15241.42
570.819	15229.44
571.18	15223.57
571.542	15369.55
571.903	15503.56
572.265	15495.65
572.626	15565.03
572.987	15601.41
573.349	15718.92
573.71	15759.6
574.071	15805.25
574.432	15865.36
574.794	16004.11
575.155	15986.49
575.516	16067.39
575.877	16086.37
576.238	16158.69
576.599	16306.25
576.96	16339.7
577.32	16327.95
577.681	16478.68
578.042	16481.61
578.403	16535.85
578.763	16675.06
579.124	16622.4
579.485	16708.95
579.845	16743.3
580.206	16731.33
580.566	16821.49
580.927	16879.8
581.287	16883.19
581.648	16915.5
582.008	17096.06
582.368	17078.44
582.728	17043.63
583.089	17044.09
583.449	17166.57
583.809	17166.12
584.169	17241.59
584.529	17200.69
584.889	17282.5
585.249	17267.13
585.609	17311.88
585.969	17412.89
586.329	17451.31
586.688	17495.37
587.048	17507.12
587.408	17475.26
587.768	17523.17
588.127	17559.78
588.487	17585.09
588.846	17682.71
589.206	17585.54
589.565	17639.78
589.925	17711.86
590.284	17687.23
590.643	17710.96
591.003	17797.06
591.362	17894.23
591.721	17926.77
592.08	17875.25
592.44	17935.59
592.799	17932.88
593.158	17911.18
593.517	17971.07
593.876	18063.95
594.235	18044.06
594.593	17975.13
594.952	18138.52
595.311	18100.33
595.67	18127.67
596.029	18203.15
596.387	18298.29
596.746	18332.64
597.104	18255.35
597.463	18228.24
597.822	18459.87
598.18	18362.47
598.538	18380.77
598.897	18565.18
599.255	18298.29
599.613	18606.76
599.972	18512.07
600.33	18569.24
600.688	18491.96
601.046	18698.96
601.404	18760.88
601.762	18770.14
602.12	18877.71
602.478	18798.16
602.836	18773.76
603.194	18841.33
603.552	18760.88
603.91	18744.38
604.268	18981.21
604.625	18875.22
604.983	18995.9
605.341	18986.18
605.698	19061.43
606.056	19137.14
606.413	19099.4
606.771	19161.54
607.128	19266.4
607.485	19203.58
607.843	19219.62
608.2	19305.5
608.557	19469.33
608.914	19272.95
609.272	19516.79
609.629	19454.64
609.986	19524.25
610.343	19517.47
610.7	19733.28
611.057	19648.99
611.414	19671.14
611.771	19645.15
612.127	19700.06
612.484	19887.85
612.841	19835.65
613.198	19817.8
613.554	19813.73
613.911	19969.88
614.267	19934.63
614.624	19917
614.98	20029.32
615.337	20150.67
615.693	20088.3
616.05	20100.5
616.406	20223.21
616.762	20263.89
617.118	20272.7
617.475	20194.06
617.831	20332.59
618.187	20359.48
618.543	20390.21
618.899	20540.94
619.255	20404.45
619.611	20459.59
619.967	20545.91
620.323	20640.6
620.678	20506.82
621.034	20556.54
621.39	20521.06
621.746	20616.42
622.101	20787.94
622.457	20648.28
622.812	20743.65
623.168	20751.11
623.523	20816.19
623.879	20853.93
624.234	20714.72
624.589	20866.58
624.945	20798.11
625.3	20935.73
625.655	20858.22
626.01	20883.08
626.365	20975.28
626.72	20890.31
627.075	20875.62
627.43	20989.07
627.785	20987.03
628.14	20913.14
628.495	20980.93
628.85	21001.27
629.205	20928.96
629.559	21105.67
629.914	21008.28
630.269	21001.72
630.623	21031.1
630.978	20967.82
631.332	20982.29
631.687	21111.78
632.041	20928.05
632.396	21004.43
632.75	21106.58
633.104	21072.91
633.459	20910.88
633.813	21081.49
634.167	21001.72
634.521	20935.51
634.875	20981.84
635.229	21045.11
635.583	20844.66
635.937	21019.57
636.291	20930.09
636.645	20910.42
636.999	20923.31
637.352	21020.03
637.706	20752.69
638.06	20970.76
638.413	21011.44
638.767	20855.28
639.121	20940.93
639.474	20770.77
639.828	20752.01
640.181	20822.07
640.534	20952.91
640.888	20853.93
641.241	20723.99
641.594	20822.74
641.947	20801.5
642.301	20754.95
642.654	20727.38
643.007	20738
643.36	20730.77
643.713	20787.94
644.066	20901.39
644.419	20632.47
644.771	20630.43
645.124	20439.7
645.477	20469.53
645.83	20341.17
646.182	20264.79
646.535	20186.15
646.888	20195.64
647.24	20105.02
647.593	20227.96
647.945	20211.01
648.298	20210.56
648.65	20081.97
649.002	20078.58
649.355	20133.72
649.707	20089.88
650.059	20141.63
650.411	20527.38
650.763	20486.48
651.115	20727.38
651.467	20642.64
651.819	20723.31
652.171	20702.52
652.523	20726.93
652.875	20622.97
653.227	20528.06
653.578	20738.9
653.93	20689.19
654.282	20508.4
654.633	20515.18
654.985	20592.24
655.337	20594.95
655.688	20727.15
656.039	20693.03
656.391	20526.03
656.742	20585.24
657.094	20601.05
657.445	20802.86
657.796	20629.3
658.147	20619.13
658.498	20563.77
658.849	20649.87
659.2	20554.95
659.551	20640.38
659.902	20679.24
660.253	20649.19
660.604	20662.52
660.955	20594.27
661.306	20691.22
661.656	20664.1
662.007	20621.62
662.358	20576.65
662.708	20614.39
663.059	20740.03
663.409	20527.84
663.76	20793.59
664.11	20695.74
664.461	20751.56
664.811	20758.56
665.161	20738.23
665.511	20673.59
665.862	20697.77
666.212	20792.24
666.562	20778
666.912	20645.8
667.262	20691.67
667.612	20756.53
667.962	20711.11
668.312	20844.66
668.662	20792.69
669.011	20874.95
669.361	20721.5
669.711	20813.7
670.06	20633.82
670.41	20707.72
670.76	20729.86
671.109	20689.19
671.459	20714.27
671.808	20666.59
672.157	20744.78
672.507	20582.3
672.856	20746.14
673.205	20704.33
673.554	20738.68
673.904	20595.86
674.253	20731.67
674.602	20642.64
674.951	20390.21
675.3	20396.54
675.649	20706.14
675.998	20691.67
676.346	20634.5
676.695	20736.87
677.044	20579.59
677.393	20655.52
677.741	20735.06
678.09	20606.25
678.438	20591.34
678.787	20634.73
679.135	20646.93
679.484	20504.33
679.832	20535.07
680.181	20516.99
680.529	20489.87
680.877	20492.81
681.225	20446.03
681.573	20590.89
681.922	20406.03
682.27	20446.26
682.618	20502.98
682.966	20406.48
683.314	20491.45
683.661	20385.92
684.009	20271.35
684.357	20257.56
684.705	20288.75
685.053	20278.13
685.4	20191.12
685.748	20208.75
686.095	20205.58
686.443	20098.02
686.79	20221.86
687.138	20159.26
687.485	20011.47
687.832	20136.21
688.18	20078.58
688.527	19990.22
688.874	20003.1
689.221	20017.34
689.568	19876.1
689.915	19852.83
690.262	19852.83
690.609	19762.66
690.956	19781.64
691.303	19783
691.65	19691.25
691.997	19715.88
692.344	19589.56
692.69	19607.63
693.037	19549.78
693.383	19459.84
693.73	19515.66
694.077	19310.24
694.423	19387.07
694.769	19352.05
695.116	19290.58
695.462	19282.9
695.808	19268.89
696.155	19265.95
696.501	19119.29
696.847	19176.69
697.193	18967.43
697.539	19051.04
697.885	18922.91
698.231	18893.98
698.577	18774.44
698.923	18882
699.269	18828.9
699.614	18781.67
699.96	18801.78
700.306	18734.44
700.651	18673.65
700.997	18588.45
701.342	18613.99
701.688	18473.2
702.033	18452.86
702.379	18501.22
702.724	18405.18
703.069	18452.18
703.415	18279.31
703.76	18270.49
704.105	18310.04
704.45	18343.94
704.795	18142.59
705.14	18171.29
705.485	18054.91
705.83	18006.55
706.175	18101.69
706.52	18075.7
706.865	17828.7
707.209	17999.99
707.554	17864.63
707.899	17933.1
708.243	17813.78
708.588	17738.76
708.932	17737.63
709.277	17742.15
709.621	17715.71
709.966	17541.93
710.31	17625.09
710.654	17600.68
710.998	17539.89
711.342	17576.5
711.687	17542.83
712.031	17452.66
712.375	17305.77
712.719	17452.66
713.063	17467.35
713.407	17446.34
713.75	17313.01
714.094	17315.27
714.438	17291.54
714.782	17312.1
715.125	17231.65
715.469	17334.7
715.812	17158.43
716.156	17140.13
716.499	17118.43
716.843	17039.34
717.186	17067.14
717.53	17189.17
717.873	17153.91
718.216	17034.37
718.559	16944.43
718.902	16849.97
719.246	16927.93
719.589	16950.98
719.932	16948.72
720.275	16826.01
720.617	16894.26
720.96	16755.28
721.303	16852.45
721.646	16929.51
721.989	16709.41
722.331	16828.05
722.674	16701.95
723.016	16784.43
723.359	16699.24
723.701	16789.86
724.044	16703.53
724.386	16525
724.729	16703.98
725.071	16541.73
725.413	16587.83
725.755	16676.41
726.097	16566.58
726.439	16496.08
726.782	16528.17
727.124	16653.81
727.465	16481.16
727.807	16462.18
728.149	16531.78
728.491	16454.27
728.833	16430.99
729.175	16414.5
729.516	16429.19
729.858	16310.09
730.199	16386.7
730.541	16414.95
730.882	16349.41
731.224	16475.74
731.565	16353.03
731.906	16284.11
732.248	16333.6
732.589	16316.42
732.93	16218.8
733.271	16273.03
733.612	16349.41
733.953	16332.24
734.294	16223.32
734.635	16208.85
734.976	16276.65
735.317	16220.6
735.658	16179.48
735.999	16158.46
736.339	16209.31
736.68	16209.53
737.021	16128.63
737.361	16141.74
737.702	16239.36
738.042	16176.99
738.383	16075.52
738.723	16113.94
739.063	16064.22
739.404	16156.65
739.744	16071.68
740.084	15965.7
740.424	16056.32
740.764	16026.71
741.104	16134.28
741.444	16008.18
741.784	16041.17
742.124	16075.98
742.464	16067.39
742.804	15990.55
743.143	15866.26
743.483	15913.49
743.823	15868.07
744.162	15955.98
744.502	15970.67
744.841	15864.68
745.181	15930.89
745.52	15815.64
745.86	15821.75
746.199	15886.38
746.538	15916.21
746.877	15817.68
747.216	15852.48
747.556	15891.57
747.895	15819.26
748.234	15730.45
748.573	15702.65
748.911	15717.34
749.25	15735.65
749.589	15650.68
749.928	15788.98
750.267	15729.77
750.605	15688.64
750.944	15659.04
751.283	15656.1
751.621	15758.47
751.96	15661.3
752.298	15663.11
752.636	15728.19
752.975	15577.91
753.313	15572.94
753.651	15729.54
753.989	15571.81
754.327	15550.34
754.666	15455.43
755.004	15438.48
755.342	15575.88
755.679	15448.2
756.017	15366.39
756.355	15558.7
756.693	15418.14
757.031	15476.67
757.368	15308.76
757.706	15400.29
758.044	15321.65
758.381	15336.33
758.719	15249.78
759.056	15273.96
759.394	15256.56
759.731	15158.26
760.068	15111.03
760.405	15070.13
760.743	15038.94
761.08	15056.34
761.417	15064.25
761.754	15020.64
762.091	14969.79
762.428	14914.42
762.765	14866.29
763.102	14839.85
763.438	14789.91
763.775	14770.7
764.112	14806.18
764.449	14817.7
764.785	14691.61
765.122	14704.49
765.458	14585.39
765.795	14546.98
766.131	14637.82
766.467	14568.44
766.804	14613.19
767.14	14429.69
767.476	14562.57
767.812	14383.59
768.148	14382.46
768.485	14363.48
768.821	14326.87
769.157	14208.23
769.492	14229.47
769.828	14162.58
770.164	14107.89
770.5	14155.35
770.836	14031.06
771.171	13957.39
771.507	13987.67
771.842	13796.94
772.178	13777.28
772.513	13871.29
772.849	13794.91
773.184	13749.26
773.519	13759.88
773.855	13691.63
774.19	13658.19
774.525	13547
774.86	13524.63
775.195	13528.7
775.53	13498.64
775.865	13458.87
776.2	13372.54
776.535	13359.89
776.87	13269.5
777.205	13298.42
777.539	13189.27
777.874	13262.94
778.209	13037.41
778.543	13126.9
778.878	13079.44
779.212	12979.11
779.547	12904.76
779.881	12992.89
780.215	12792.67
780.55	12882.84
780.884	12844.2
781.218	12767.81
781.552	12773.24
781.886	12671.32
782.22	12626.8
782.554	12570.31
782.888	12414.15
783.222	12370.54
783.556	12440.14
783.889	12431.78
784.223	12314.27
784.557	12336.86
784.89	12335.28
785.224	12252.12
785.557	12151.79
785.891	12227.04
786.224	12166.93
786.558	12127.6
786.891	12045.57
787.224	12043.31
787.557	11934.84
787.891	11938.91
788.224	11959.93
788.557	11891.23
788.89	11915.86
789.223	11829.53
789.556	11735.3
789.888	11784.11
790.221	11768.29
790.554	11581.63
790.887	11592.48
791.219	11616.43
791.552	11511.35
791.884	11496.89
792.217	11409.66
792.549	11421.86
792.882	11353.16
793.214	11287.63
793.546	11376.21
793.879	11318.81
794.211	11284.92
794.543	11246.05
794.875	11232.94
795.207	11261.64
795.539	11168.31
795.871	11137.12
796.203	11070.01
796.535	10968.09
796.867	11003.57
797.198	10992.04
797.53	10991.14
797.862	10804.7
798.193	10912.72
798.525	10863.01
798.856	10873.63
799.188	10776.45
799.519	10743.01
799.85	10728.32
800.182	10618.49
800.513	10682.22
800.844	10625.72
801.175	10679.51
801.506	10653.29
801.837	10524.94
802.168	10582.33
802.499	10512.51
802.83	10476.12
803.161	10434.54
803.491	10453.52
803.822	10499.63
804.153	10361.1
804.483	10319.97
804.814	10256.02
805.145	10312.51
805.475	10290.59
805.805	10173.98
806.136	10264.38
806.466	10209.24
806.796	10199.75
807.126	10127.88
807.457	10078.62
807.787	10032.97
808.117	10010.6
808.447	9993.42
808.777	9982.58
809.107	9987.1
809.436	9983.48
809.766	9956.59
810.096	9948.23
810.426	9902.13
810.755	9948
811.085	9877.27
811.414	9854.9
811.744	9768.12
812.073	9740.32
812.403	9717.5
812.732	9739.42
813.061	9640.66
813.39	9612.64
813.719	9688.35
814.049	9739.42
814.378	9627.78
814.707	9546.43
815.036	9588.91
815.365	9547.11
815.693	9542.59
816.022	9438.64
816.351	9414.91
816.68	9430.73
817.008	9480.22
817.337	9363.38
817.665	9402.7
817.994	9344.4
818.322	9369.71
818.651	9341.01
818.979	9345.76
819.307	9301.92
819.636	9339.43
819.964	9307.11
820.292	9270.96
820.62	9225.53
820.948	9259.43
821.276	9242.93
821.604	9222.6
821.932	9236.38
822.259	9282.93
822.587	9237.06
822.915	9198.19
823.243	9204.07
823.57	9210.39
823.898	9221.69
824.225	9199.77
824.553	9193.9
824.88	9222.82
825.207	9259.66
825.535	9187.57
825.862	9201.81
826.189	9219.21
826.516	9214.69
826.843	9257.4
827.17	9246.55
827.497	9246.1
827.824	9225.53
828.151	9256.95
828.478	9211.98
828.805	9256.49
829.131	9254.01
829.458	9238.87
829.785	9152.32
830.111	9163.84
830.438	9266.44
830.764	9248.58
831.09	9268.47
831.417	9187.34
831.743	9237.96
832.069	9256.95
832.395	9081.13
832.722	9252.2
833.048	9201.35
833.374	9197.29
833.7	9195.7
834.026	9163.61
834.351	9151.19
834.677	9131.3
835.003	9168.81
835.329	9098.08
835.654	9136.27
835.98	9079.32
836.306	9118.19
836.631	9090.17
836.956	9118.19
837.282	9115.93
837.607	9081.36
837.932	8954.35
838.258	9093.79
838.583	9037.52
838.908	8988.03
839.233	9024.18
839.558	8958.42
839.883	8916.16
840.208	8919.1
840.533	8971.08
840.858	8902.38
841.182	8952.32
841.507	8934.47
841.832	8911.64
842.156	8846.11
842.481	8830.74
842.805	8786.68
843.13	8802.49
843.454	8775.6
843.778	8718.88
844.103	8760.91
844.427	8666.9
844.751	8783.74
845.075	8719.11
845.399	8628.04
845.723	8643.85
846.047	8635.49
846.371	8589.62
846.695	8556.17
847.019	8495.16
847.343	8508.94
847.666	8479.79
847.99	8457.42
848.313	8420.81
848.637	8328.38
848.96	8339.46
849.284	8296.29
849.607	8216.52
849.931	8240.02
850.254	8185.79
850.577	8143.98
850.9	8095.62
851.223	8096.52
851.546	8137.88
851.869	8039.35
852.192	8100.82
852.515	8037.32
852.838	7947.15
853.161	7963.19
853.483	7908.96
853.806	7846.14
854.129	7874.38
854.451	7859.92
854.774	7842.52
855.096	7808.4
855.419	7805.46
855.741	7761.62
856.063	7745.8
856.385	7620.83
856.708	7690.43
857.03	7598.01
857.352	7620.83
857.674	7607.72
857.996	7579.7
858.318	7544.45
858.64	7574.28
858.961	7542.64
859.283	7483.89
859.605	7450.44
859.926	7471.91
860.248	7496.99
860.57	7425.81
860.891	7464
861.212	7412.93
861.534	7354.17
861.855	7359.37
862.176	7341.74
862.498	7346.94
862.819	7335.41
863.14	7342.42
863.461	7291.35
863.782	7255.64
864.103	7336.32
864.424	7254.96
864.745	7281.63
865.065	7232.59
865.386	7182.65
865.707	7157.79
866.027	7266.26
866.348	7228.3
866.668	7226.94
866.989	7167.96
867.309	7104.01
867.63	7153.05
867.95	7158.02
868.27	7084.57
868.59	7131.8
868.91	7050.45
869.23	7033.28
869.55	7116.66
869.87	7184.01
870.19	7080.73
870.51	7114.4
870.83	7050.45
871.15	7030.56
871.469	6995.31
871.789	6972.71
872.109	7028.3
872.428	6986.05
872.748	6999.15
873.067	6983.56
873.386	7018.59
873.706	6997.34
874.025	6955.54
874.344	6920.06
874.663	6953.28
874.982	6915.99
875.301	6910.11
875.62	6919.61
875.939	6868.08
876.258	6869.66
876.577	6835.31
876.896	6849.78
877.214	6820.63
877.533	6813.85
877.852	6767.97
878.17	6839.61
878.489	6875.09
878.807	6845.03
879.125	6792.6
879.444	6793.73
879.762	6759.84
880.08	6769.55
880.398	6717.58
880.716	6735.2
881.034	6713.51
881.352	6657.92
881.67	6684.36
881.988	6651.82
882.306	6699.5
882.624	6601.2
882.941	6594.19
883.259	6564.14
883.577	6612.04
883.894	6615.66
884.212	6611.59
884.529	6532.5
884.846	6538.6
885.164	6543.12
885.481	6541.09
885.798	6601.2
886.115	6533.18
886.432	6532.27
886.75	6472.84
887.067	6431.94
887.383	6453.86
887.7	6435.78
888.017	6436
888.334	6399.39
888.651	6408.66
888.967	6393.74
889.284	6327.98
889.6	6336.57
889.917	6344.93
890.233	6340.86
890.55	6306.29
890.866	6310.13
891.182	6243.01
891.498	6217.7
891.815	6227.42
892.131	6248.21
892.447	6221.77
892.763	6142
893.079	6152.17
893.395	6200.3
893.71	6134.99
894.026	6182
894.342	6106.29
894.657	6017.03
894.973	6095.22
895.289	6019.97
895.604	6073.07
895.92	5978.84
896.235	5934.32
896.55	5976.58
896.865	5955.11
897.181	5877.15
897.496	5940.2
897.811	5971.38
898.126	5835.11
898.441	5847.09
898.756	5873.31
899.071	5844.61
899.386	5839.41
899.7	5749.92
900.015	5745.63
900.33	5758.28
900.644	5755.12
900.959	5712.86
901.273	5664.05
901.588	5643.71
901.902	5623.82
902.216	5592.18
902.531	5592.18
902.845	5573.43
903.159	5544.5
903.473	5526.42
903.787	5523.71
904.101	5501.11
904.415	5460.44
904.729	5515.8
905.042	5433.54
905.356	5460.21
905.67	5397.39
905.984	5436.71
906.297	5378.86
906.611	5348.12
906.924	5371.17
907.237	5333.89
907.551	5323.04
907.864	5287.33
908.177	5271.51
908.491	5262.02
908.804	5217.05
909.117	5200.33
909.43	5143.83
909.743	5196.94
910.056	5126.43
910.368	5112.42
910.681	5074.23
910.994	5080.56
911.307	5050.28
911.619	5060.45
911.932	5058.64
912.244	4985.42
912.557	5023.61
912.869	4963.05
913.181	4996.94
913.494	4920.56
913.806	4908.36
914.118	4948.36
914.43	4874.24
914.742	4858.87
915.054	4904.29
915.366	4808.48
915.678	4776.61
915.99	4790.17
916.302	4744.07
916.613	4776.16
916.925	4785.2
917.236	4721.02
917.548	4699.78
917.859	4693.45
918.171	4655.48
918.482	4610.74
918.794	4671.76
919.105	4628.82
919.416	4560.57
919.727	4567.8
920.038	4551.98
920.349	4517.86
920.66	4467.24
920.971	4530.29
921.282	4509.95
921.593	4469.73
921.903	4457.52
922.214	4468.82
922.525	4444.64
922.835	4361.71
923.146	4345.89
923.456	4393.57
923.767	4330.75
924.077	4337.08
924.387	4328.94
924.697	4319
925.008	4293.69
925.318	4303.63
925.628	4234.03
925.938	4242.16
926.248	4163.97
926.558	4183.41
926.867	4155.84
927.177	4114.93
927.487	4161.49
927.796	4068.61
928.106	4120.81
928.416	4083.3
928.725	4079.91
929.034	4061.83
929.344	4050.3
929.653	4035.61
929.962	4033.81
930.271	3962.85
930.581	3986.12
930.89	3968.05
931.199	3934.37
931.508	3928.05
931.817	3953.81
932.125	3926.24
932.434	3914.04
932.743	3886.92
933.051	3848.95
933.36	3848.5
933.669	3848.5
933.977	3760.59
934.286	3804.89
934.594	3770.76
934.902	3704.78
935.21	3735.06
935.519	3732.8
935.827	3758.33
936.135	3692.12
936.443	3689.86
936.751	3657.77
937.059	3689.63
937.367	3667.04
937.674	3643.99
937.982	3659.13
938.29	3599.69
938.597	3592.91
938.905	3561.05
939.213	3552.01
939.52	3508.17
939.827	3525.8
940.135	3525.8
940.442	3495.52
940.749	3499.36
941.056	3482.18
941.363	3457.1
941.67	3465.91
941.977	3438.79
942.284	3411.45
942.591	3374.16
942.898	3361.73
943.205	3345.01
943.511	3371
943.818	3359.7
944.125	3305.46
944.431	3280.61
944.738	3294.62
945.044	3302.53
945.35	3272.24
945.657	3273.6
945.963	3269.76
946.269	3225.47
946.575	3222.53
946.881	3189.08
947.187	3194.96
947.493	3199.7
947.799	3178.46
948.105	3150.67
948.41	3132.14
948.716	3155.19
949.022	3098.24
949.327	3121.29
949.633	3081.74
949.938	3078.35
950.244	3062.98
950.549	3049.2
950.854	3041.97
951.16	3016.88
951.465	3021.86
951.77	2981.86
952.075	3007.17
952.38	2974.17
952.685	2970.11
952.99	2940.73
953.294	2954.06
953.599	2913.16
953.904	2938.92
954.209	2895.98
954.513	2921.75
954.818	2872.71
955.122	2885.59
955.426	2884.68
955.731	2846.94
956.035	2850.56
956.339	2846.72
956.643	2823.89
956.948	2771.01
957.252	2828.41
957.556	2811.92
957.86	2728.08
958.163	2762.65
958.467	2732.6
958.771	2750.45
959.075	2749.55
959.378	2719.94
959.682	2678.36
959.985	2712.03
960.289	2667.97
960.592	2673.84
960.896	2654.18
961.199	2667.97
961.502	2652.37
961.805	2624.58
962.108	2647.63
962.411	2605.6
962.714	2596.33
963.017	2619.61
963.32	2572.15
963.623	2547.74
963.926	2525.37
964.228	2539.38
964.531	2504.81
964.833	2527.18
965.136	2516.33
965.438	2528.08
965.741	2479.5
966.043	2498.48
966.345	2480.17
966.648	2460.06
966.95	2459.16
967.252	2418.48
967.554	2428.88
967.856	2432.04
968.158	2432.27
968.46	2393.85
968.761	2403.57
969.063	2390.23
969.365	2382.1
969.666	2359.27
969.968	2357.92
970.269	2337.35
970.571	2343.68
970.872	2345.94
971.174	2330.8
971.475	2321.76
971.776	2256.68
972.077	2290.35
972.378	2273.63
972.679	2287.19
972.98	2263.91
973.281	2267.07
973.582	2244.47
973.883	2248.32
974.183	2243.57
974.484	2179.84
974.785	2213.97
975.085	2209.9
975.386	2195.21
975.686	2211.03
975.986	2166.28
976.287	2164.48
976.587	2134.42
976.887	2122.44
977.187	2147.08
977.487	2133.52
977.787	2153.86
978.087	2106.85
978.387	2134.42
978.687	2108.66
978.987	2081.99
979.286	2091.03
979.586	2073.86
979.885	2058.49
980.185	2015.55
980.484	2046.74
980.784	2045.61
981.083	2033.41
981.382	2023.01
981.682	1981.66
981.981	1989.57
982.28	2004.71
982.579	2007.87
982.878	1986.85
983.177	1991.15
983.475	1990.02
983.774	1967.65
984.073	1971.04
984.372	1897.59
984.67	1907.76
984.969	1910.02
985.267	1924.03
985.566	1900.53
985.864	1887.42
986.162	1882.45
986.461	1914.54
986.759	1850.81
987.057	1858.5
987.355	1859.17
987.653	1867.76
987.951	1843.36
988.249	1833.86
988.547	1852.62
988.844	1838.84
989.142	1804.71
989.44	1814.2
989.737	1796.58
990.035	1777.37
990.332	1797.71
990.63	1779.63
990.927	1749.8
991.224	1752.06
991.521	1742.34
991.819	1767.43
992.116	1734.21
992.413	1699.4
992.71	1752.74
993.006	1720.65
993.303	1729.23
993.6	1670.03
993.897	1680.65
994.193	1691.5
994.49	1677.48
994.787	1658.28
995.083	1652.63
995.379	1661.44
995.676	1673.42
995.972	1641.55
996.268	1641.33
996.565	1619.18
996.861	1620.99
997.157	1602.01
997.453	1618.05
997.749	1585.96
998.044	1575.34
998.34	1594.1
998.636	1597.94
998.932	1571.5
999.227	1542.35
999.523	1566.53
999.818	1565.62
1000.114	1523.14
1000.409	1531.5
1000.704	1524.72
1001	1531.95
1001.295	1515.68
1001.59	1492.86
1001.885	1498.96
1002.18	1476.36
1002.475	1450.15
1002.77	1461.9
1003.065	1462.57
1003.359	1473.65
1003.654	1440.88
1003.949	1456.02
1004.243	1410.82
1004.538	1444.95
1004.832	1425.51
1005.127	1447.43
1005.421	1442.01
1005.715	1396.36
1006.009	1386.42
1006.304	1381.67
1006.598	1361.56
1006.892	1368.79
1007.186	1334.44
1007.48	1364.72
1007.773	1334.67
1008.067	1352.07
1008.361	1348.68
1008.655	1327.44
1008.948	1330.83
1009.242	1316.59
1009.535	1324.95
1009.829	1324.27
1010.122	1309.13
1010.415	1273.88
1010.708	1281.34
1011.001	1265.52
1011.295	1277.49
1011.588	1289.02
1011.881	1263.94
1012.173	1268.91
1012.466	1264.16
1012.759	1239.53
1013.052	1237.5
1013.344	1250.15
1013.637	1204.28
1013.93	1197.72
1014.222	1211.06
1014.514	1189.59
1014.807	1191.62
1015.099	1171.96
1015.391	1187.78
1015.683	1170.6
1015.976	1166.76
1016.268	1150.49
1016.56	1169.93
1016.851	1137.61
1017.143	1140.32
1017.435	1142.81
1017.727	1136.71
1018.018	1113.21
1018.31	1129.7
1018.602	1096.93
1018.893	1104.17
1019.185	1107.78
1019.476	1088.57
1019.767	1082.02
1020.058	1089.7
1020.35	1042.25
1020.641	1058.74
1020.932	1070.49
1021.223	1049.7
1021.514	1034.79
1021.804	1042.25
1022.095	1054.22
1022.386	1046.54
1022.677	989.14
1022.967	1004.06
1023.258	992.3
1023.548	992.76
1023.839	991.17
1024.129	981.23
1024.419	976.71
1024.709	967.67
1025	990.72
1025.29	976.71
1025.58	965.64
1025.87	938.97
1026.16	977.62
1026.449	959.54
1026.739	955.24
1027.029	952.98
1027.319	939.42
1027.608	926.32
1027.898	923.38
1028.187	910.95
1028.477	917.5
1028.766	912.53
1029.055	876.15
1029.344	911.18
1029.634	890.39
1029.923	876.38
1030.212	890.16
1030.501	882.02
1030.79	860.33
1031.078	877.73
1031.367	881.8
1031.656	869.14
1031.945	857.17
1032.233	836.38
1032.522	864.17
1032.81	835.47
1033.099	840.67
1033.387	824.17
1033.675	820.56
1033.963	815.81
1034.251	814.68
1034.54	805.42
1034.828	776.72
1035.116	798.64
1035.403	802.7
1035.691	782.37
1035.979	785.08
1036.267	780.33
1036.554	794.8
1036.842	778.52
1037.129	750.5
1037.417	755.02
1037.704	783.04
1037.992	753.21
1038.279	746.44
1038.566	736.49
1038.853	736.49
1039.14	736.49
