Data from cardboard_FLMS001491_072.txt Node
Date: Tue Feb 07 11:40:06 GMT 2017
User: dcchb
Spectrometer: FLMS00149
Trigger mode: 0
Integration Time (sec): 2.000000E-2
Scans to average: 10
Electric dark correction enabled: true
Nonlinearity correction enabled: false
Boxcar width: 0
XAxis mode: Wavelengths
Number of Pixels in Spectrum: 2048
>>>>>Begin Spectral Data<<<<<
341.393	10.08
341.776	10.08
342.16	10.08
342.543	-64.26
342.927	-74.43
343.31	-64.94
343.693	-67.43
344.077	-65.17
344.46	-72.17
344.843	-51.38
345.226	-35.79
345.61	-37.15
345.993	-31.04
346.376	-11.84
346.759	22.51
347.142	17.09
347.525	37.88
347.908	53.47
348.291	98.9
348.674	105
349.057	102.06
349.44	122.62
349.823	129.86
350.206	153.58
350.588	180.25
350.971	196.29
351.354	210.31
351.737	221.38
352.119	234.49
352.502	231.55
352.884	261.6
353.267	265.9
353.65	295.5
354.032	288.95
354.414	319
354.797	294.14
355.179	305.9
355.562	327.36
355.944	314.48
356.326	318.78
356.709	327.59
357.091	311.55
357.473	328.27
357.855	344.99
358.238	320.81
358.62	356.06
359.002	322.84
359.384	327.59
359.766	321.04
360.148	337.53
360.53	340.47
360.912	330.75
361.294	300.92
361.676	321.94
362.057	329.62
362.439	333.24
362.821	336.86
363.203	327.59
363.584	317.42
363.966	317.87
364.348	302.73
364.729	324.2
365.111	306.12
365.493	296.18
365.874	313.13
366.256	306.12
366.637	305.22
367.019	292.11
367.4	294.6
367.781	331.21
368.163	312
368.544	312.45
368.925	320.58
369.306	312.45
369.688	290.08
370.069	333.01
370.45	306.57
370.831	302.05
371.212	285.11
371.593	296.18
371.974	310.42
372.355	325.78
372.736	306.35
373.117	295.5
373.498	318.55
373.879	314.71
374.26	309.29
374.641	300.92
375.021	312.22
375.402	318.32
375.783	295.73
376.163	320.58
376.544	315.39
376.925	330.08
377.305	306.12
377.686	306.35
378.066	313.81
378.447	322.84
378.827	338.89
379.208	323.3
379.588	318.1
379.968	330.3
380.349	317.87
380.729	310.87
381.109	314.71
381.489	341.15
381.87	352
382.25	343.64
382.63	305.22
383.01	344.31
383.39	324.65
383.77	313.13
384.15	339.12
384.53	338.21
384.91	331.88
385.29	352
385.67	338.89
386.049	361.49
386.429	322.17
386.809	352.9
387.189	337.53
387.568	343.41
387.948	321.49
388.328	342.96
388.707	347.48
389.087	346.12
389.466	341.38
389.846	352.67
390.225	366.01
390.605	346.57
390.984	347.25
391.363	360.58
391.743	377.76
392.122	370.75
392.501	361.71
392.881	351.54
393.26	367.59
393.639	369.85
394.018	362.62
394.397	380.24
394.776	374.14
395.155	369.17
395.534	384.99
395.913	374.59
396.292	386.12
396.671	366.46
397.05	387.25
397.429	371.66
397.808	386.57
398.186	379.34
398.565	390.41
398.944	383.41
399.323	390.41
399.701	400.81
400.08	371.43
400.458	389.96
400.837	409.62
401.215	403.97
401.594	387.7
401.972	422.05
402.351	392.9
402.729	404.88
403.107	401.49
403.486	400.58
403.864	400.13
404.242	393.13
404.62	407.36
404.999	425.21
405.377	412.56
405.755	427.47
406.133	450.3
406.511	416.4
406.889	387.93
407.267	425.21
407.645	431.32
408.023	435.61
408.401	433.58
408.779	422.95
409.156	422.73
409.534	431.99
409.912	445.1
410.29	486.46
410.667	447.59
411.045	447.81
411.422	461.15
411.8	466.8
412.178	493.24
412.555	467.93
412.933	457.3
413.31	484.2
413.687	481.71
414.065	488.72
414.442	501.37
414.819	501.37
415.197	495.04
415.574	467.47
415.951	519.22
416.328	511.31
416.705	510.86
417.082	514.93
417.46	529.39
417.837	525.33
418.214	537.75
418.591	524.2
418.967	523.07
419.344	539.11
419.721	522.39
420.098	530.75
420.475	540.24
420.852	532.33
421.228	551.31
421.605	548.6
421.982	549.73
422.358	548.38
422.735	547.25
423.111	536.62
423.488	542.73
423.864	572.56
424.241	563.29
424.617	591.99
424.994	586.57
425.37	585.89
425.746	592.44
426.123	597.41
426.499	585.44
426.875	598.09
427.251	603.29
427.627	618.66
428.003	614.59
428.379	600.58
428.756	622.5
429.132	638.54
429.507	645.55
429.883	627.47
430.259	631.99
430.635	650.52
431.011	648.49
431.387	675.15
431.763	662.27
432.138	661.14
432.514	699.11
432.89	701.37
433.265	714.47
433.641	702.72
434.016	698.2
434.392	742.04
434.767	711.31
435.143	707.47
435.518	755.15
435.894	730.52
436.269	728.26
436.644	741.14
437.02	753.12
437.395	740.69
437.77	733.23
438.145	769.61
438.52	773
438.895	785.88
439.271	793.79
439.646	769.39
440.021	814.36
440.395	801.7
440.77	780.46
441.145	792.44
441.52	813.45
441.895	812.1
442.27	789.5
442.645	794.02
443.019	839.67
443.394	844.86
443.769	824.75
444.143	809.16
444.518	838.31
444.892	855.03
445.267	843.28
445.641	878.31
446.016	838.54
446.39	878.31
446.764	862.04
447.139	891.87
447.513	891.42
447.887	869.04
448.262	891.64
448.636	894.13
449.01	914.47
449.384	941.13
449.758	907.01
450.132	943.17
450.506	930.74
450.88	945.43
451.254	924.18
451.628	966.9
452.002	949.04
452.376	967.8
452.75	994.47
453.123	982.94
453.497	981.36
453.871	982.26
454.244	1007.57
454.618	1033.33
454.992	1043.05
455.365	1018.65
455.739	1030.85
456.112	1043.73
456.486	1046.89
456.859	1063.84
457.232	1106.1
457.606	1088.93
457.979	1120.56
458.352	1119.21
458.725	1136.16
459.099	1121.24
459.472	1149.72
459.845	1175.93
460.218	1166.89
460.591	1173.9
460.964	1191.3
461.337	1196.72
461.71	1231.52
462.083	1235.14
462.456	1247.11
462.829	1269.49
463.201	1261.58
463.574	1263.84
463.947	1314.46
464.32	1321.69
464.692	1317.62
465.065	1318.3
465.438	1337.28
465.81	1367.56
466.183	1394.45
466.555	1403.27
466.928	1414.34
467.3	1434.68
467.672	1446.88
468.045	1470.16
468.417	1466.54
468.789	1461.35
469.161	1506.32
469.534	1527.56
469.906	1563.94
470.278	1568.69
470.65	1586.09
471.022	1585.41
471.394	1583.83
471.766	1614.34
472.138	1655.24
472.51	1663.15
472.882	1683.03
473.253	1744.73
473.625	1745.63
473.997	1770.04
474.369	1805.74
474.74	1820.43
475.112	1827.89
475.484	1868.79
475.855	1893.88
476.227	1894.33
476.598	1971.61
476.97	1985.85
477.341	2012.07
477.713	2026.53
478.084	2046.87
478.455	2106.53
478.827	2143.81
479.198	2171.84
479.569	2211.16
479.94	2288.44
480.311	2256.81
480.682	2336.8
481.053	2363.24
481.424	2424.71
481.795	2420.87
482.166	2459.29
482.537	2488.44
482.908	2551.03
483.279	2534.09
483.65	2594.42
484.021	2648.66
484.391	2710.8
484.762	2699.73
485.133	2796
485.503	2772.5
485.874	2849.78
486.244	2867.64
486.615	2896.11
486.985	2988.09
487.356	2992.6
487.726	3005.71
488.097	3079.16
488.467	3136.1
488.837	3176.33
489.207	3256.55
489.578	3270.11
489.948	3306.95
490.318	3341.52
490.688	3391.46
491.058	3424.01
491.428	3459.49
491.798	3508.75
492.168	3569.09
492.538	3597.56
492.908	3642.76
493.278	3712.81
493.648	3727.5
494.017	3780.15
494.387	3792.13
494.757	3893.82
495.126	3892.24
495.496	3842.3
495.866	3935.86
496.235	4009.98
496.605	4010.43
496.974	4085.01
497.344	4108.51
497.713	4114.84
498.082	4175.17
498.452	4202.29
498.821	4256.3
499.19	4261.5
499.559	4340.59
499.928	4394.15
500.298	4400.25
500.667	4439.8
501.036	4479.57
501.405	4555.28
501.774	4612.9
502.143	4637.53
502.512	4635.05
502.88	4703.52
503.249	4689.96
503.618	4733.8
503.987	4779.9
504.356	4829.39
504.724	4827.36
505.093	4924.98
505.462	4944.42
505.83	4968.82
506.199	5087.01
506.567	5105.54
506.936	5110.29
507.304	5161.36
507.672	5185.77
508.041	5295.14
508.409	5318.19
508.777	5325.2
509.145	5404.52
509.514	5418.08
509.882	5476.38
510.25	5505.53
510.618	5553.89
510.986	5593.21
511.354	5673.44
511.722	5732.87
512.09	5818.97
512.458	5847.67
512.826	5879.99
513.193	5936.48
513.561	5986.88
513.929	6043.15
514.297	6136.03
514.664	6129.25
515.032	6177.38
515.4	6208.34
515.767	6311.84
516.135	6370.82
516.502	6356.81
516.869	6499.41
517.237	6510.03
517.604	6514.55
517.972	6636.35
518.339	6703.69
518.706	6743.92
519.073	6799.06
519.44	6831.15
519.808	6936.68
520.175	6927.87
520.542	7031.37
520.909	7121.31
521.276	7121.99
521.643	7243.57
522.009	7324.47
522.376	7439.49
522.743	7436.56
523.11	7521.07
523.477	7650.79
523.843	7692.37
524.21	7776.89
524.577	7804.68
524.943	7789.54
525.31	7902.08
525.676	8025.92
526.043	8150.21
526.409	8188.4
526.776	8243.99
527.142	8279.92
527.508	8386.14
527.874	8516.98
528.241	8529.41
528.607	8629.74
528.973	8715.39
529.339	8721.27
529.705	8826.12
530.071	8884.43
530.437	8956.29
530.803	9027.47
531.169	9090.75
531.535	9159.67
531.901	9193.35
532.267	9337.97
532.632	9426.33
532.998	9429.27
533.364	9579.32
533.73	9489.16
534.095	9616.84
534.461	9643.73
534.826	9820
535.192	9813.89
535.557	9979.09
535.923	9986.09
536.288	9927.79
536.653	10060.22
537.019	10110.38
537.384	10186.09
537.749	10256.59
538.114	10298.85
538.479	10220.21
538.845	10442.35
539.21	10459.53
539.575	10476.48
539.94	10634.66
540.305	10652.29
540.67	10648.67
541.034	10740.42
541.399	10873.3
541.764	10867.88
542.129	10921.66
542.494	10997.37
542.858	11077.59
543.223	11074.88
543.587	11228.55
543.952	11188.1
544.316	11305.38
544.681	11304.25
545.045	11423.8
545.41	11429.9
545.774	11527.97
546.138	11567.07
546.503	11659.5
546.867	11620.85
547.231	11759.83
547.595	11812.49
547.959	11880.05
548.324	11862.88
548.688	11995.98
549.052	12048.86
549.416	12154.17
549.779	12166.38
550.143	12122.53
550.507	12294.96
550.871	12351.23
551.235	12414.5
551.599	12529.08
551.962	12572.92
552.326	12572.24
552.689	12719.35
553.053	12708.96
553.417	12693.59
553.78	12948.28
554.143	12878.67
554.507	13021.49
554.87	13051.55
555.234	13281.15
555.597	13230.98
555.96	13277.53
556.323	13354.14
556.686	13387.59
557.05	13484.98
557.413	13657.64
557.776	13710.74
558.139	13741.93
558.502	13837.52
558.865	13926.78
559.228	14012.2
559.59	14136.49
559.953	14173.78
560.316	14252.65
560.679	14360.67
561.041	14422.13
561.404	14603.15
561.767	14648.34
562.129	14625.29
562.492	14829.13
562.854	14838.62
563.217	14905.96
563.579	14931.73
563.941	15009.69
564.304	15210.14
564.666	15279.29
565.028	15399.74
565.39	15358.38
565.753	15458.49
566.115	15572.61
566.477	15655.55
566.839	15703.46
567.201	15936.22
567.563	15901.64
567.925	15959.04
568.287	16093.05
568.648	16162.2
569.01	16325.59
569.372	16374.85
569.734	16389.31
570.095	16420.5
570.457	16530.1
570.819	16682.41
571.18	16676.54
571.542	16846.48
571.903	16806.03
572.265	16980.26
572.626	17007.38
572.987	17111.33
573.349	17099.13
573.71	17208.73
574.071	17309.97
574.432	17397.65
574.794	17518.55
575.155	17523.75
575.516	17528.27
575.877	17649.39
576.238	17675.38
576.599	17848.71
576.96	17777.53
577.32	17816.62
577.681	17893.46
578.042	17972.78
578.403	18030.4
578.763	18101.36
579.124	18061.14
579.485	18217.74
579.845	18386.1
580.206	18290.96
580.566	18351.07
580.927	18384.29
581.287	18518.3
581.648	18421.8
582.008	18627.9
582.368	18635.13
582.728	18537.51
583.089	18632.19
583.449	18731.17
583.809	18688.92
584.169	18653.21
584.529	18724.39
584.889	18945.18
585.249	18867.44
585.609	18834.67
585.969	18981.56
586.329	18948.12
586.688	19035.8
587.048	19005.74
587.408	18965.52
587.768	19079.19
588.127	19024.27
588.487	19055.23
588.846	19204.83
589.206	19113.09
589.565	19173.87
589.925	19287.54
590.284	19260.65
590.643	19312.4
591.003	19384.94
591.362	19417.03
591.721	19449.35
592.08	19406.64
592.44	19469.23
592.799	19560.98
593.158	19454.77
593.517	19462.91
593.876	19567.99
594.235	19569.8
594.593	19633.3
594.952	19649.79
595.311	19651.15
595.67	19747.19
596.029	19903.57
596.387	19806.17
596.746	19863.35
597.104	19802.11
597.463	19882.1
597.822	19875.55
598.18	19866.29
598.538	19914.65
598.897	20118.03
599.255	19895.89
599.613	20195.54
599.972	20105.6
600.33	20143.79
600.688	20087.52
601.046	20175.43
601.404	20264.69
601.762	20310.12
602.12	20282.55
602.478	20407.97
602.836	20424.69
603.194	20310.79
603.552	20385.37
603.91	20423.56
604.268	20530.9
604.625	20394.86
604.983	20581.29
605.341	20445.48
605.698	20562.54
606.056	20709.43
606.413	20713.04
606.771	20759.82
607.128	20847.95
607.485	20645.93
607.843	20685.7
608.2	20891.8
608.557	20977.89
608.914	20899.03
609.272	20987.16
609.629	21072.58
609.986	21203.43
610.343	21090.89
610.7	21216.31
611.057	21249.3
611.414	21254.95
611.771	21299.02
612.127	21295.17
612.484	21248.62
612.841	21292.91
613.198	21354.38
613.554	21400.48
613.911	21509.63
614.267	21549.18
614.624	21570.65
614.98	21597.31
615.337	21605.45
615.693	21723.64
616.05	21626.92
616.406	21781.72
616.762	21690.19
617.118	21735.84
617.475	21922.73
617.831	21966.12
618.187	21877.53
618.543	21983.97
618.899	22126.57
619.255	22013.35
619.611	22058.54
619.967	22118.88
620.323	22235.71
620.678	22092.67
621.034	22105.1
621.39	22186
621.746	22185.77
622.101	22474.8
622.457	22145.55
622.812	22263.74
623.168	22350.74
623.523	22365.65
623.879	22425.77
624.234	22211.76
624.589	22378.08
624.945	22356.84
625.3	22451.75
625.655	22398.2
626.01	22481.36
626.365	22430.29
626.72	22393.9
627.075	22481.36
627.43	22473.45
627.785	22425.99
628.14	22526.78
628.495	22414.47
628.85	22506.67
629.205	22390.29
629.559	22567.46
629.914	22440.91
630.269	22477.29
630.623	22452.43
630.978	22504.41
631.332	22587.34
631.687	22569.49
632.041	22443.84
632.396	22583.05
632.75	22376.5
633.104	22511.87
633.459	22350.29
633.813	22451.08
634.167	22493.11
634.521	22490.85
634.875	22520
635.229	22510.28
635.583	22345.09
635.937	22332.21
636.291	22401.81
636.645	22442.94
636.999	22296.73
637.352	22432.55
637.706	22299.22
638.06	22353
638.413	22231.42
638.767	22225.55
639.121	22284.75
639.474	22208.6
639.828	22189.16
640.181	22297.86
640.534	22358.2
640.888	22223.74
641.241	22139.9
641.594	22111.42
641.947	22240.91
642.301	22184.64
642.654	22173.57
643.007	22237.97
643.36	22171.31
643.713	22119.33
644.066	22244.3
644.419	22130.18
644.771	22046.12
645.124	21790.08
645.477	21875.5
645.83	21586.01
646.182	21622.85
646.535	21552.34
646.888	21565.45
647.24	21440.93
647.593	21584.21
647.945	21639.12
648.298	21519.8
648.65	21435.51
649.002	21482.97
649.355	21504.43
649.707	21515.28
650.059	21552.34
650.411	21879.34
650.763	21869.4
651.115	22053.35
651.467	22082.95
651.819	21969.51
652.171	22003.4
652.523	21967.7
652.875	21964.08
653.227	21860.81
653.578	21953.24
653.93	21993.91
654.282	21943.29
654.633	21855.39
654.985	21953.91
655.337	21929.96
655.688	21883.18
656.039	22010.86
656.391	21855.16
656.742	21896.97
657.094	21894.03
657.445	21980.13
657.796	21980.13
658.147	21882.96
658.498	21909.62
658.849	21993.24
659.2	21914.14
659.551	21950.75
659.902	22032.56
660.253	21956.85
660.604	21988.49
660.955	21887.93
661.306	21945.1
661.656	21936.97
662.007	22012.67
662.358	21947.59
662.708	21887.93
663.059	21934.03
663.409	21901.49
663.76	22019.68
664.11	22042.95
664.461	21996.4
664.811	22027.58
665.161	21937.19
665.511	21931.99
665.862	21934.48
666.212	22116.4
666.562	22029.17
666.912	22040.01
667.262	21955.04
667.612	21955.95
667.962	22061.48
668.312	22011.31
668.662	22162.04
669.011	22090.63
669.361	21969.06
669.711	22068.94
670.06	21992.78
670.41	22040.69
670.76	22009.28
671.109	22103.29
671.459	21965.67
671.808	21915.72
672.157	22097.87
672.507	21821.94
672.856	21911.2
673.205	21990.52
673.554	22062.16
673.904	21955.72
674.253	22052.67
674.602	21995.04
674.951	21737.65
675.3	21649.97
675.649	21926.34
675.998	21824.65
676.346	21894.93
676.695	21997.75
677.044	21758.21
677.393	21828.04
677.741	21819.68
678.09	21858.1
678.438	21772
678.787	21861.26
679.135	21968.6
679.484	21768.83
679.832	21846.57
680.181	21716.41
680.529	21806.35
680.877	21587.82
681.225	21652.91
681.573	21836.4
681.922	21728.38
682.27	21658.33
682.618	21578.78
682.966	21571.33
683.314	21616.07
683.661	21509.63
684.009	21463.31
684.357	21517.54
684.705	21443.42
685.053	21474.15
685.4	21433.02
685.748	21338.11
686.095	21370.2
686.443	21214.72
686.79	21248.85
687.138	21258.57
687.485	21308.96
687.832	21214.27
688.18	21176.76
688.527	20990.32
688.874	21112.81
689.221	21107.83
689.568	21002.3
689.915	20937.22
690.262	20951.23
690.609	21029.19
690.956	20974.96
691.303	20818.8
691.65	20772.7
691.997	20802.98
692.344	20687.96
692.69	20607.28
693.037	20733.38
693.383	20495.65
693.73	20637.11
694.077	20491.13
694.423	20438.02
694.769	20383.11
695.116	20354.41
695.462	20396.89
695.808	20293.17
696.155	20346.5
696.501	20072.83
696.847	20174.07
697.193	19995.55
697.539	20136.56
697.885	19990.12
698.231	20022.21
698.577	19939.96
698.923	19858.38
699.269	19793.07
699.614	19774.08
699.96	19747.87
700.306	19758.49
700.651	19742.67
700.997	19652.05
701.342	19620.19
701.688	19605.73
702.033	19470.36
702.379	19570.93
702.724	19436.92
703.069	19511.27
703.415	19366.64
703.76	19225.4
704.105	19321.89
704.45	19186.08
704.795	19188.79
705.14	19130.71
705.485	19084.61
705.83	19026.76
706.175	19171.84
706.52	19031.51
706.865	18897.05
707.209	18941.79
707.554	18751.74
707.899	18946.99
708.243	18751.74
708.588	18810.27
708.932	18615.02
709.277	18663.38
709.621	18723.49
709.966	18519.65
710.31	18575.47
710.654	18425.87
710.998	18437.85
711.342	18544.06
711.687	18419.77
712.031	18368.92
712.375	18328.47
712.719	18404.86
713.063	18374.8
713.407	18375.25
713.75	18168.93
714.094	18330.05
714.438	18242.15
714.782	18176.61
715.125	18125.54
715.469	18191.75
715.812	18066.11
716.156	17887.13
716.499	18100.91
716.843	18068.37
717.186	17881.93
717.53	17994.92
717.873	17963.06
718.216	17930.97
718.559	17869.73
718.902	17790.41
719.246	17862.27
719.589	17758.77
719.932	17688.94
720.275	17646.91
720.617	17798.77
720.96	17594.71
721.303	17730.52
721.646	17711.54
721.989	17526.46
722.331	17663.63
722.674	17560.81
723.016	17572.56
723.359	17576.63
723.701	17647.13
724.044	17610.3
724.386	17392.45
724.729	17563.97
725.071	17465.9
725.413	17482.85
725.755	17496.63
726.097	17384.32
726.439	17350.42
726.782	17323.75
727.124	17472.68
727.465	17286.47
727.807	17356.07
728.149	17203.76
728.491	17305
728.833	17299.35
729.175	17276.3
729.516	17286.24
729.858	17089.64
730.199	17270.2
730.541	17191.33
730.882	17179.8
731.224	17302.06
731.565	17087.6
731.906	17107.49
732.248	17142.52
732.589	17041.5
732.93	17007.38
733.271	16999.24
733.612	17045.57
733.953	17151.55
734.294	16975.06
734.635	16996.76
734.976	17020.71
735.317	17006.25
735.658	16985.68
735.999	16879.92
736.339	16950.2
736.68	16988.62
737.021	16860.26
737.361	16973.03
737.702	16879.7
738.042	16818.46
738.383	16911.79
738.723	16861.62
739.063	16928.51
739.404	16864.56
739.744	16862.3
740.084	16782.3
740.424	16827.72
740.764	16838.34
741.104	16842.86
741.444	16746.59
741.784	16687.16
742.124	16822.07
742.464	16668.63
742.804	16793.15
743.143	16745.46
743.483	16698.46
743.823	16638.57
744.162	16709.31
744.502	16729.19
744.841	16567.84
745.181	16657.1
745.52	16672.25
745.86	16670.89
746.199	16673.38
746.538	16611.23
746.877	16628.86
747.216	16594.96
747.556	16562.42
747.895	16617.56
748.234	16600.16
748.573	16512.48
748.911	16547.05
749.25	16508.63
749.589	16436.55
749.928	16484.68
750.267	16482.42
750.605	16467.5
750.944	16357.45
751.283	16366.49
751.621	16374.17
751.96	16246.72
752.298	16407.39
752.636	16330.56
752.975	16305.93
753.313	16200.62
753.651	16333.5
753.989	16155.42
754.327	16200.62
754.666	16177.34
755.004	16289.66
755.342	16286.04
755.679	16233.84
756.017	16058.48
756.355	16209.66
756.693	16129.89
757.031	16069.1
757.368	16082.2
757.706	16090.79
758.044	15965.82
758.381	15999.27
758.719	15968.99
759.056	15960.85
759.394	15952.04
759.731	15851.02
760.068	15759.73
760.405	15800.63
760.743	15746.17
761.08	15723.57
761.417	15613.52
761.754	15699.84
762.091	15604.25
762.428	15625.72
762.765	15495.1
763.102	15600.41
763.438	15471.82
763.775	15400.19
764.112	15519.06
764.449	15464.14
764.785	15373.52
765.122	15329.46
765.458	15216.46
765.795	15109.35
766.131	15176.24
766.467	15177.82
766.804	15109.35
767.14	15049.01
767.476	15056.69
767.812	14913.42
768.148	14963.59
768.485	15010.14
768.821	14827.55
769.157	14892.41
769.492	14780.09
769.828	14809.92
770.164	14704.61
770.5	14707.55
770.836	14605.41
771.171	14600.66
771.507	14539.19
771.842	14470.04
772.178	14498.52
772.513	14429.59
772.849	14435.69
773.184	14273.66
773.519	14400.44
773.855	14335.58
774.19	14174.46
774.525	14221.69
774.86	14138.75
775.195	14161.58
775.53	14091.3
775.865	14006.33
776.2	13970.62
776.535	13902.15
776.87	13937.18
777.205	13818.31
777.539	13779.67
777.874	13800
778.209	13721.36
778.543	13653.34
778.878	13595.72
779.212	13576.28
779.547	13476.17
779.881	13583.06
780.215	13435.49
780.55	13457.87
780.884	13404.53
781.218	13370.64
781.552	13288.38
781.886	13314.59
782.22	13128.38
782.554	13113.02
782.888	13075.96
783.222	12974.04
783.556	12968.84
783.889	12974.26
784.223	12823.98
784.557	12881.84
784.89	12827.6
785.224	12807.49
785.557	12735.17
785.891	12717.55
786.224	12710.99
786.558	12652.24
786.891	12516.65
787.224	12580.38
787.557	12426.48
787.891	12487.5
788.224	12471.45
788.557	12443.66
788.89	12347.61
789.223	12368.4
789.556	12325.92
789.888	12266.26
790.221	12190.78
790.554	12097
790.887	12208.41
791.219	12104.91
791.552	12086.83
791.884	12010.67
792.217	12000.28
792.549	11940.17
792.882	11867.85
793.214	11852.03
793.546	11789.21
793.879	11780.17
794.211	11665.82
794.543	11739.27
794.875	11697.01
795.207	11782.43
795.539	11627.63
795.871	11613.62
796.203	11607.07
796.535	11560.29
796.867	11512.61
797.198	11517.8
797.53	11390.35
797.862	11306.96
798.193	11330.69
798.525	11341.54
798.856	11364.81
799.188	11270.81
799.519	11192.62
799.85	11254.53
800.182	11136.8
800.513	11136.8
800.844	11079.4
801.175	11112.39
801.506	10983.58
801.837	10982.45
802.168	11033.3
802.499	10965.5
802.83	10920.76
803.161	10878.95
803.491	10837.6
803.822	10900.87
804.153	10800.31
804.483	10742.91
804.814	10744.49
805.145	10756.24
805.475	10743.14
805.805	10649.13
806.136	10722.8
806.466	10624.49
806.796	10625.4
807.126	10601.67
807.457	10534.55
807.787	10604.61
808.117	10536.81
808.447	10490.49
808.777	10500.43
809.107	10408.91
809.436	10391.51
809.766	10407.78
810.096	10420.21
810.426	10378.63
810.755	10365.74
811.085	10368.91
811.414	10316.48
811.744	10267.89
812.073	10162.81
812.403	10192.87
812.732	10111.51
813.061	10156.94
813.39	10136.6
813.719	10105.19
814.049	10110.16
814.378	10098.18
814.707	10022.25
815.036	10010.5
815.365	10043.72
815.693	9933.44
816.022	9895.47
816.351	9922.37
816.68	9833.33
817.008	9871.75
817.337	9750.17
817.665	9758.08
817.994	9822.48
818.322	9758.98
818.651	9770.73
818.979	9763.05
819.307	9809.83
819.636	9702.03
819.964	9639.44
820.292	9699.55
820.62	9722.37
820.948	9629.04
821.276	9671.75
821.604	9669.72
821.932	9645.09
822.259	9696.61
822.587	9679.43
822.915	9618.42
823.243	9658.19
823.57	9672.66
823.898	9688.93
824.225	9627.91
824.553	9616.84
824.88	9624.29
825.207	9689.6
825.535	9608.48
825.862	9647.57
826.189	9628.81
826.516	9678.08
826.843	9723.95
827.17	9664.97
827.497	9708.59
827.824	9664.75
828.151	9724.86
828.478	9644.18
828.805	9674.92
829.131	9648.7
829.458	9645.76
829.785	9609.83
830.111	9615.03
830.438	9669.72
830.764	9633.11
831.09	9704.52
831.417	9640.34
831.743	9649.15
832.069	9720.79
832.395	9621.13
832.722	9697.51
833.048	9653.67
833.374	9644.63
833.7	9624.97
834.026	9625.88
834.351	9649.38
834.677	9626.55
835.003	9644.86
835.329	9618.42
835.654	9499.1
835.98	9544.3
836.306	9626.55
836.631	9582.26
836.956	9543.17
837.282	9552.43
837.607	9553.56
837.932	9444.41
838.258	9480.8
838.583	9427.46
838.908	9452.55
839.233	9480.34
839.558	9407.8
839.883	9328.03
840.208	9421.81
840.533	9398.99
840.858	9430.4
841.182	9402.83
841.507	9325.09
841.832	9302.95
842.156	9277.86
842.481	9262.27
842.805	9262.04
843.13	9295.72
843.454	9192.89
843.778	9172.56
844.103	9214.81
844.427	9196.96
844.751	9135.27
845.075	9109.05
845.399	9101.37
845.723	9169.39
846.047	9096.63
846.371	9048.72
846.695	9006.91
847.019	8959.45
847.343	8881.72
847.666	8845.11
847.99	8839.23
848.313	8838.55
848.637	8748.39
848.96	8746.8
849.284	8775.05
849.607	8760.36
849.931	8626.81
850.254	8615.06
850.577	8516.53
850.9	8553.36
851.223	8486.47
851.546	8504.1
851.869	8431.56
852.192	8486.47
852.515	8361.05
852.838	8356.08
853.161	8353.37
853.483	8320.37
853.806	8299.58
854.129	8299.58
854.451	8260.71
854.774	8266.82
855.096	8211.22
855.419	8206.03
855.741	8149.31
856.063	8146.37
856.385	8105.69
856.708	8088.97
857.03	8028.86
857.352	8076.99
857.674	8030.66
857.996	7980.04
858.318	7920.38
858.64	7892.82
858.961	7933.04
859.283	7889.88
859.605	7853.04
859.926	7875.41
860.248	7906.83
860.57	7846.49
860.891	7849.2
861.212	7775.08
861.534	7759.71
861.855	7754.51
862.176	7786.6
862.498	7757.45
862.819	7716.77
863.14	7753.16
863.461	7689.2
863.782	7749.09
864.103	7684.23
864.424	7642.88
864.745	7671.13
865.065	7615.08
865.386	7615.76
865.707	7613.73
866.027	7596.1
866.348	7613.05
866.668	7505.25
866.989	7569.66
867.309	7492.37
867.63	7531.24
867.95	7530.11
868.27	7491.92
868.59	7478.14
868.91	7397.91
869.23	7427.29
869.55	7427.06
869.87	7499.15
870.19	7426.16
870.51	7444.24
870.83	7411.02
871.15	7375.31
871.469	7359.04
871.789	7385.26
872.109	7361.98
872.428	7371.92
872.748	7399.04
873.067	7372.83
873.386	7404.01
873.706	7366.5
874.025	7277.24
874.344	7327.63
874.663	7251.48
874.982	7302.1
875.301	7293.73
875.62	7314.75
875.939	7298.48
876.258	7313.62
876.577	7208.31
876.896	7232.72
877.214	7179.61
877.533	7172.61
877.852	7208.77
878.17	7211.7
878.489	7176.9
878.807	7194.75
879.125	7147.52
879.444	7139.39
879.762	7082.89
880.08	7127.41
880.398	7061.88
880.716	7122.44
881.034	7082.89
881.352	7084.47
881.67	7007.87
881.988	7027.98
882.306	6996.79
882.624	6985.49
882.941	6957.47
883.259	6977.36
883.577	6981.65
883.894	6960.41
884.212	6954.08
884.529	6952.95
884.846	6906.4
885.164	6885.16
885.481	6832.96
885.798	6935.33
886.115	6812.39
886.432	6810.13
886.75	6790.47
887.067	6792.28
887.383	6724.94
887.7	6792.28
888.017	6748.44
888.334	6719.74
888.651	6762.45
888.967	6702.79
889.284	6698.5
889.6	6681.1
889.917	6660.98
890.233	6660.53
890.55	6620.53
890.866	6584.37
891.182	6602.91
891.498	6558.61
891.815	6530.14
892.131	6556.8
892.447	6482.23
892.763	6462.57
893.079	6441.33
893.395	6399.07
893.71	6422.12
894.026	6432.97
894.342	6479.97
894.657	6350.93
894.973	6366.75
895.289	6382.35
895.604	6357.71
895.92	6331.95
896.235	6268.68
896.55	6251.5
896.865	6294.21
897.181	6274.55
897.496	6241.11
897.811	6187.55
898.126	6185.74
898.441	6163.82
898.756	6162.01
899.071	6171.05
899.386	6094.67
899.7	6039.76
900.015	6098.06
900.33	6032.75
900.644	6004.05
900.959	6039.3
901.273	5969.02
901.588	5957.05
901.902	5909.14
902.216	5888.57
902.531	5935.58
902.845	5921.12
903.159	5855.81
903.473	5886.77
903.787	5851.29
904.101	5780.55
904.415	5831.17
904.729	5752.08
905.042	5756.37
905.356	5743.95
905.67	5744.17
905.984	5710.27
906.297	5708.69
906.611	5656.04
906.924	5666.88
907.237	5621.91
907.551	5588.47
907.864	5575.81
908.177	5548.24
908.491	5550.05
908.804	5516.15
909.117	5513.44
909.43	5443.61
909.743	5473.9
910.056	5438.19
910.368	5399.55
910.681	5379.89
910.994	5349.15
911.307	5309.15
911.619	5327.91
911.932	5316.16
912.244	5212.43
912.557	5277.29
912.869	5257.18
913.181	5215.6
913.494	5185.32
913.806	5130.18
914.118	5185.77
914.43	5141.25
914.742	5090.18
915.054	5108.48
915.366	5119.33
915.678	5055.6
915.99	5028.94
916.302	5032.33
916.613	5015.15
916.925	4977.19
917.236	4934.25
917.548	4927.7
917.859	4907.36
918.171	4917.75
918.482	4896.51
918.794	4874.82
919.105	4844.99
919.416	4802.05
919.727	4804.53
920.038	4805.21
920.349	4771.09
920.66	4750.98
920.971	4669.17
921.282	4728.6
921.593	4667.59
921.903	4694.93
922.214	4648.61
922.525	4645.44
922.835	4623.07
923.146	4591.21
923.456	4619.23
923.767	4567.7
924.077	4527.71
924.387	4549.63
924.697	4513.92
925.008	4492.68
925.318	4457.2
925.628	4507.37
925.938	4495.16
926.248	4418.33
926.558	4437.54
926.867	4369.97
927.177	4356.18
927.487	4322.29
927.796	4348.73
928.106	4319.35
928.416	4282.06
928.725	4289.07
929.034	4262.85
929.344	4261.95
929.653	4205.91
929.962	4220.82
930.271	4172.91
930.581	4171.33
930.89	4177.21
931.199	4123.2
931.508	4118.68
931.817	4150.09
932.125	4101.73
932.434	4091.33
932.743	4081.84
933.051	4034.16
933.36	4041.62
933.669	3972.24
933.977	3973.82
934.286	3988.06
934.594	3950.09
934.902	3922.3
935.21	3928.4
935.519	3915.29
935.827	3903.54
936.135	3896.08
936.443	3849.31
936.751	3824.9
937.059	3852.02
937.367	3838.68
937.674	3817.89
937.982	3772.92
938.29	3768.63
938.597	3768.86
938.905	3737.44
939.213	3742.42
939.52	3693.38
939.827	3714.85
940.135	3656.77
940.442	3652.02
940.749	3640.72
941.056	3602.76
941.363	3585.81
941.67	3599.37
941.977	3595.75
942.284	3557.34
942.591	3550.78
942.898	3538.58
943.205	3564.57
943.511	3503.55
943.818	3517.34
944.125	3491.12
944.431	3467.62
944.738	3449.32
945.044	3447.96
945.35	3431.92
945.657	3424.23
945.963	3412.71
946.269	3363.89
946.575	3362.09
946.881	3353.27
947.187	3389.88
947.493	3349.43
947.799	3335.65
948.105	3291.81
948.41	3300.85
948.716	3300.85
949.022	3263.11
949.327	3229.89
949.633	3255.65
949.938	3257.23
950.244	3215.42
950.549	3201.19
950.854	3173.39
951.16	3165.71
951.465	3125.03
951.77	3142.66
952.075	3128.87
952.38	3140.85
952.685	3119.38
952.99	3097.01
953.294	3097.46
953.599	3045.94
953.904	3028.76
954.209	3048.87
954.513	3019.5
954.818	3034.41
955.122	2985.37
955.426	2984.24
955.731	2953.74
956.035	2987.41
956.339	2962.1
956.643	2946.73
956.948	2909.22
957.252	2937.01
957.556	2885.49
957.86	2886.62
958.163	2896.34
958.467	2868.54
958.771	2838.94
959.075	2853.63
959.378	2861.53
959.682	2847.52
959.985	2819.73
960.289	2813.17
960.592	2786.73
960.896	2789.22
961.199	2761.2
961.502	2765.27
961.805	2752.16
962.108	2731.59
962.411	2684.82
962.714	2708.32
963.017	2679.62
963.32	2666.29
963.623	2697.25
963.926	2689.34
964.228	2707.87
964.531	2663.35
964.833	2651.6
965.136	2661.77
965.438	2589
965.741	2617.93
966.043	2585.84
966.345	2576.12
966.648	2604.14
966.95	2544.48
967.252	2551.49
967.554	2541.09
967.856	2548.1
968.158	2521.2
968.46	2500.64
968.761	2508.1
969.063	2520.07
969.365	2499.74
969.666	2463.13
969.968	2476.69
970.269	2416.35
970.571	2428.55
970.872	2434.65
971.174	2406.18
971.475	2405.5
971.776	2377.71
972.077	2414.09
972.378	2373.86
972.679	2378.16
972.98	2366.63
973.281	2368.44
973.582	2312.4
973.883	2309.23
974.183	2275.34
974.484	2321.66
974.785	2309.91
975.085	2282.57
975.386	2328.22
975.686	2261.78
975.986	2270.14
976.287	2269.91
976.587	2232.62
976.887	2246.41
977.187	2221.55
977.487	2215.45
977.787	2222
978.087	2179.29
978.387	2202.8
978.687	2189.91
978.987	2156.69
979.286	2164.83
979.586	2144.04
979.885	2139.97
980.185	2137.49
980.484	2137.26
980.784	2156.24
981.083	2140.2
981.382	2105.85
981.682	2111.5
981.981	2088.22
982.28	2076.92
982.579	2065.17
982.878	2050.48
983.177	2045.29
983.475	2025.4
983.774	2030.14
984.073	2044.16
984.372	2029.24
984.67	2007.32
984.969	2011.16
985.267	2018.39
985.566	1984.5
985.864	1989.02
986.162	1979.75
986.461	1927.55
986.759	1952.18
987.057	1958.73
987.355	1941.11
987.653	1930.71
987.951	1942.24
988.249	1890.04
988.547	1876.93
988.844	1881.45
989.142	1882.58
989.44	1882.13
989.737	1869.24
990.035	1890.04
990.332	1823.14
990.63	1808.91
990.927	1847.78
991.224	1832.86
991.521	1824.95
991.819	1802.81
992.116	1801.22
992.413	1785.18
992.71	1824.73
993.006	1770.26
993.303	1784.95
993.6	1768.68
993.897	1750.83
994.193	1764.16
994.49	1786.31
994.787	1741.79
995.083	1711.51
995.379	1697.27
995.676	1707.67
995.972	1699.98
996.268	1717.38
996.565	1669.7
996.861	1669.7
997.157	1689.14
997.453	1656.59
997.749	1662.02
998.044	1649.82
998.34	1636.71
998.636	1650.04
998.932	1595.35
999.227	1635.8
999.523	1598.74
999.818	1615.92
1000.114	1622.02
1000.409	1621.12
1000.704	1558.29
1001	1617.95
1001.295	1567.78
1001.59	1554
1001.885	1559.65
1002.18	1541.34
1002.475	1525.52
1002.77	1539.99
1003.065	1505.41
1003.359	1535.24
1003.654	1516.94
1003.949	1492.31
1004.243	1472.87
1004.538	1466.09
1004.832	1474.68
1005.127	1473.55
1005.421	1504.73
1005.715	1466.54
1006.009	1439.65
1006.304	1427.45
1006.598	1438.75
1006.892	1424.74
1007.186	1441.01
1007.48	1421.35
1007.773	1395.58
1008.067	1412.99
1008.361	1378.41
1008.655	1377.73
1008.948	1377.51
1009.242	1382.7
1009.535	1351.52
1009.829	1342.93
1010.122	1362.59
1010.415	1368.47
1010.708	1373.44
1011.001	1320.78
1011.295	1337.73
1011.588	1326.21
1011.881	1290.05
1012.173	1292.08
1012.466	1275.36
1012.759	1297.06
1013.052	1288.24
1013.344	1265.87
1013.637	1285.76
1013.93	1263.38
1014.222	1251.63
1014.514	1245.53
1014.807	1247.79
1015.099	1267
1015.391	1226.78
1015.683	1206.44
1015.976	1215.7
1016.268	1221.35
1016.56	1196.04
1016.851	1206.44
1017.143	1207.79
1017.435	1163.95
1017.727	1178.19
1018.018	1158.53
1018.31	1157.85
1018.602	1150.17
1018.893	1156.72
1019.185	1158.53
1019.476	1111.98
1019.767	1125.76
1020.058	1118.98
1020.35	1090.96
1020.641	1104.29
1020.932	1102.26
1021.223	1115.59
1021.514	1061.13
1021.804	1072.66
1022.095	1066.33
1022.386	1043.28
1022.677	1043.5
1022.967	1055.25
1023.258	1049.15
1023.548	1024.52
1023.839	1039.89
1024.129	996.27
1024.419	1020.45
1024.709	1032.43
1025	1001.92
1025.29	1026.33
1025.58	996.27
1025.87	983.17
1026.16	975.93
1026.449	973.67
1026.739	965.99
1027.029	959.66
1027.319	980.68
1027.608	967.35
1027.898	946.56
1028.187	947.91
1028.477	928.25
1028.766	935.71
1029.055	913.56
1029.344	918.54
1029.634	916.05
1029.923	901.13
1030.212	900.23
1030.501	890.29
1030.79	915.15
1031.078	883.28
1031.367	879.21
1031.656	875.82
1031.945	874.47
1032.233	900
1032.522	885.09
1032.81	849.16
1033.099	851.42
1033.387	849.61
1033.675	843.96
1033.963	830.18
1034.251	827.01
1034.54	851.64
1034.828	830.4
1035.116	801.7
1035.403	822.49
1035.691	824.53
1035.979	793.34
1036.267	819.1
1036.554	804.64
1036.842	794.92
1037.129	775.49
1037.417	793.34
1037.704	795.15
1037.992	766.9
1038.279	776.17
1038.566	775.94
1038.853	775.94
1039.14	775.94
