Data from cardboard_FLMS001491_004.txt Node
Date: Tue Feb 07 11:38:50 GMT 2017
User: dcchb
Spectrometer: FLMS00149
Trigger mode: 0
Integration Time (sec): 2.000000E-2
Scans to average: 10
Electric dark correction enabled: true
Nonlinearity correction enabled: false
Boxcar width: 0
XAxis mode: Wavelengths
Number of Pixels in Spectrum: 2048
>>>>>Begin Spectral Data<<<<<
341.393	0.48
341.776	0.48
342.16	0.48
342.543	-55.34
342.927	-73.19
343.31	-68.67
343.693	-63.02
344.077	-58.95
344.46	-66.41
344.843	-53.3
345.226	-46.75
345.61	-47.88
345.993	-30.25
346.376	-9.46
346.759	22.63
347.142	28.28
347.525	63.3
347.908	59.69
348.291	79.57
348.674	79.35
349.057	111.89
349.44	132.91
349.823	153.24
350.206	153.02
350.588	187.59
350.971	203.41
351.354	204.09
351.737	233.02
352.119	238.89
352.502	249.06
352.884	277.76
353.267	280.25
353.65	256.97
354.032	301.26
354.414	287.7
354.797	308.72
355.179	321.6
355.562	313.24
355.944	328.83
356.326	324.31
356.709	320.02
357.091	342.17
357.473	341.26
357.855	338.32
358.238	334.93
358.62	333.35
359.002	319.79
359.384	326.12
359.766	341.49
360.148	321.83
360.53	319.12
360.912	306.46
361.294	335.61
361.676	323.64
362.057	334.03
362.439	321.15
362.821	316.4
363.203	313.24
363.584	317.53
363.966	324.99
364.348	336.74
364.729	299.46
365.111	316.63
365.493	305.56
365.874	302.85
366.256	302.39
366.637	300.36
367.019	329.51
367.4	294.48
367.781	327.25
368.163	281.38
368.544	288.83
368.925	301.94
369.306	315.95
369.688	296.52
370.069	285.44
370.45	308.49
370.831	312.56
371.212	303.52
371.593	284.54
371.974	311.66
372.355	332
372.736	287.7
373.117	307.59
373.498	283.41
373.879	302.62
374.26	303.3
374.641	288.38
375.021	301.49
375.402	318.44
375.783	324.99
376.163	301.49
376.544	301.94
376.925	304.65
377.305	316.18
377.686	304.65
378.066	301.72
378.447	315.05
378.827	322.28
379.208	299.23
379.588	308.04
379.968	322.96
380.349	335.16
380.729	326.57
381.109	313.01
381.489	340.13
381.87	312.34
382.25	338.78
382.63	315.05
383.01	319.34
383.39	339.45
383.77	302.39
384.15	321.15
384.53	334.71
384.91	324.09
385.29	316.63
385.67	340.81
386.049	332.45
386.429	328.61
386.809	334.93
387.189	345.56
387.568	329.96
387.948	361.6
388.328	330.87
388.707	336.74
389.087	346.46
389.466	337.42
389.846	308.49
390.225	343.97
390.605	348.27
390.984	337.65
391.363	339
391.743	340.81
392.122	340.58
392.501	343.75
392.881	340.81
393.26	352.79
393.639	330.19
394.018	364.76
394.397	381.04
394.776	365.22
395.155	357.31
395.534	352.79
395.913	354.14
396.292	361.83
396.671	384.2
397.05	364.09
397.429	366.57
397.808	362.96
398.186	376.52
398.565	368.83
398.944	355.5
399.323	372.45
399.701	377.65
400.08	348.49
400.458	381.04
400.837	378.32
401.215	395.72
401.594	359.11
401.972	386.23
402.351	390.3
402.729	391.88
403.107	367.48
403.486	365.67
403.864	386.01
404.242	399.57
404.62	394.82
404.999	393.24
405.377	390.3
405.755	383.3
406.133	402.96
406.511	389.62
406.889	383.97
407.267	394.59
407.645	421.49
408.023	393.69
408.401	405.44
408.779	404.76
409.156	415.38
409.534	394.59
409.912	418.55
410.29	454.25
410.667	411.09
411.045	402.28
411.422	435.72
411.8	435.27
412.178	435.5
412.555	446.8
412.933	433.92
413.31	456.74
413.687	451.99
414.065	454.25
414.442	432.11
414.819	419.45
415.197	456.97
415.574	441.6
415.951	455.61
416.328	457.42
416.705	460.81
417.082	453.58
417.46	444.08
417.837	452.67
418.214	461.03
418.591	459.9
418.967	461.49
419.344	469.39
419.721	482.05
420.098	472.33
420.475	470.07
420.852	469.62
421.228	483.41
421.605	465.78
421.982	495.83
422.358	494.25
422.735	490.41
423.111	488.38
423.488	494.7
423.864	490.18
424.241	481.15
424.617	479.79
424.994	498.55
425.37	498.09
425.746	509.39
426.123	506.46
426.499	522.95
426.875	524.99
427.251	519.34
427.627	526.57
428.003	538.55
428.379	549.39
428.756	508.94
429.132	530.64
429.507	522.5
429.883	542.39
430.259	565.66
430.635	557.98
431.011	563.63
431.387	544.65
431.763	549.39
432.138	572.67
432.514	587.36
432.89	582.84
433.265	588.49
433.641	591.65
434.016	594.81
434.392	592.56
434.767	619.45
435.143	593.46
435.518	605.21
435.894	601.37
436.269	601.37
436.644	630.52
437.02	610.41
437.395	612.44
437.77	630.07
438.145	613.57
438.52	637.3
438.895	661.71
439.271	643.4
439.646	658.09
440.021	642.05
440.395	660.58
440.77	659.9
441.145	674.13
441.52	676.39
441.895	674.36
442.27	671.65
442.645	687.69
443.019	665.77
443.394	690.86
443.769	677.3
444.143	692.67
444.518	696.96
444.892	705.77
445.267	692.21
445.641	688.37
446.016	722.5
446.39	711.65
446.764	724.3
447.139	721.59
447.513	709.84
447.887	727.47
448.262	748.48
448.636	739.22
449.01	745.09
449.384	747.35
449.758	761.36
450.132	762.72
450.506	757.07
450.88	775.38
451.254	760.46
451.628	761.14
452.002	783.06
452.376	776.51
452.75	786.9
453.123	810.18
453.497	777.18
453.871	810.18
454.244	826.45
454.618	807.46
454.992	823.06
455.365	825.09
455.739	843.62
456.112	871.64
456.486	829.84
456.859	901.47
457.232	833.68
457.606	868.25
457.979	888.82
458.352	901.02
458.725	888.14
459.099	910.06
459.472	929.95
459.845	940.79
460.218	926.78
460.591	936.5
460.964	929.04
461.337	938.99
461.71	982.6
462.083	977.63
462.456	972.43
462.829	994.58
463.201	1015.14
463.574	993.67
463.947	1010.85
464.32	1025.54
464.692	1023.73
465.065	1046.55
465.438	1051.07
465.81	1060.57
466.183	1063.73
466.555	1098.98
466.928	1085.88
467.3	1110.28
467.672	1125.65
468.045	1086.1
468.417	1084.07
468.789	1128.59
469.161	1163.16
469.534	1172.2
469.906	1191.18
470.278	1225.31
470.65	1186.21
471.022	1204.97
471.394	1249.49
471.766	1267.11
472.138	1253.55
472.51	1296.94
472.882	1292.65
473.253	1316.83
473.625	1356.83
473.997	1343.27
474.369	1349.82
474.74	1378.75
475.112	1397.73
475.484	1437.5
475.855	1418.52
476.227	1453.55
476.598	1478.63
476.97	1509.14
477.341	1530.84
477.713	1548.69
478.084	1556.6
478.455	1567.44
478.827	1577.61
479.198	1635.69
479.569	1636.14
479.94	1668.46
480.311	1696.71
480.682	1737.61
481.053	1793.88
481.424	1790.94
481.795	1802.47
482.166	1807.66
482.537	1833.88
482.908	1875.69
483.279	1899.19
483.65	1937.38
484.021	1983.93
484.391	1971.05
484.762	1997.94
485.133	2009.92
485.503	2049.92
485.874	2124.94
486.244	2131.27
486.615	2155.23
486.985	2176.47
487.356	2204.04
487.726	2240.2
488.097	2302.11
488.467	2301.66
488.837	2320.42
489.207	2344.83
489.578	2380.53
489.948	2427.08
490.318	2459.17
490.688	2450.36
491.058	2503.69
491.428	2520.64
491.798	2547.53
492.168	2578.94
492.538	2614.42
492.908	2651.03
493.278	2686.06
493.648	2709.11
494.017	2751.82
494.387	2744.36
494.757	2773.06
495.126	2867.07
495.496	2869.33
495.866	2850.8
496.235	2891.03
496.605	2911.36
496.974	2940.97
497.344	2979.38
497.713	3005.6
498.082	3065.48
498.452	3062.32
498.821	3063.45
499.19	3100.96
499.559	3134.64
499.928	3195.65
500.298	3230.23
500.667	3231.58
501.036	3234.52
501.405	3284.24
501.774	3267.74
502.143	3315.87
502.512	3339.83
502.88	3424.12
503.249	3410.79
503.618	3360.39
503.987	3438.81
504.356	3477.68
504.724	3534.17
505.093	3536.21
505.462	3570.1
505.83	3614.4
506.199	3632.02
506.567	3677.67
506.936	3648.97
507.304	3731.46
507.672	3736.65
508.041	3764.45
508.409	3800.38
508.777	3802.87
509.145	3885.8
509.514	3943.88
509.882	3915.63
510.25	3932.35
510.618	3981.62
510.986	4003.31
511.354	4049.87
511.722	4113.37
512.09	4155.4
512.458	4103.2
512.826	4189.3
513.193	4199.69
513.561	4260.71
513.929	4337.99
514.297	4366.24
514.664	4399.69
515.032	4398.1
515.4	4467.93
515.767	4469.97
516.135	4525.56
516.502	4493.02
516.869	4602.39
517.237	4592.45
517.604	4643.52
517.972	4688.27
518.339	4775.72
518.706	4808.04
519.073	4782.95
519.44	4900.46
519.808	4940.01
520.175	4935.04
520.542	4990.41
520.909	5014.81
521.276	5042.83
521.643	5131.64
522.009	5163.96
522.376	5213
522.743	5247.8
523.11	5294.58
523.477	5329.38
523.843	5391.52
524.21	5456.38
524.577	5516.72
524.943	5553.55
525.31	5615.02
525.676	5649.37
526.043	5698.18
526.409	5720.56
526.776	5826.99
527.142	5863.83
527.508	5856.82
527.874	5983.83
528.241	6039.64
528.607	5985.63
528.973	6120.09
529.339	6100.66
529.705	6147.21
530.071	6293.42
530.437	6272.86
530.803	6360.76
531.169	6425.85
531.535	6391.72
531.901	6437.6
532.267	6475.56
532.632	6591.04
532.998	6600.53
533.364	6664.49
533.73	6686.86
534.095	6756.23
534.461	6737.03
534.826	6831.26
535.192	6865.38
535.557	6921.43
535.923	6939.73
536.288	6973.18
536.653	7029.67
537.019	6986.96
537.384	7093.4
537.749	7093.18
538.114	7202.55
538.479	7235.32
538.845	7299.27
539.21	7269.22
539.575	7383.56
539.94	7391.25
540.305	7416.1
540.67	7464.01
541.034	7489.1
541.399	7536.78
541.764	7646.15
542.129	7645.02
542.494	7674.4
542.858	7674.4
543.223	7734.97
543.587	7814.29
543.952	7837.79
544.316	7839.82
544.681	7918.92
545.045	8000.27
545.41	7984.23
545.774	8044.11
546.138	8069.19
546.503	8140.15
546.867	8138.35
547.231	8189.64
547.595	8284.33
547.959	8266.03
548.324	8321.84
548.688	8405.46
549.052	8440.48
549.416	8396.87
549.779	8406.36
550.143	8511.67
550.507	8607.26
550.871	8635.73
551.235	8657.65
551.599	8731.55
551.962	8720.25
552.326	8739.01
552.689	8809.74
553.053	8816.52
553.417	8888.38
553.78	9033.24
554.143	8986.46
554.507	9103.29
554.87	9084.54
555.234	9214.25
555.597	9223.51
555.96	9251.76
556.323	9321.37
556.686	9335.15
557.05	9441.81
557.413	9421.93
557.776	9481.13
558.139	9606.56
558.502	9620.57
558.865	9643.16
559.228	9750.96
559.59	9813.33
559.953	9839.09
560.316	9916.83
560.679	9914.57
561.041	9958.86
561.404	10099.2
561.767	10150.72
562.129	10183.49
562.492	10233.88
562.854	10290.38
563.217	10277.05
563.579	10357.04
563.941	10456.48
564.304	10531.05
564.666	10652.63
565.028	10615.79
565.39	10651.05
565.753	10731.72
566.115	10826.86
566.477	10823.7
566.839	10957.93
567.201	11043.81
567.563	11041.09
567.925	11123.8
568.287	11145.72
568.648	11197.7
569.01	11257.36
569.372	11405.83
569.734	11356.11
570.095	11518.6
570.457	11538.03
570.819	11445.83
571.18	11575.09
571.542	11736.67
571.903	11743.9
572.265	11738.25
572.626	11699.83
572.987	11860.96
573.349	11812.15
573.71	11923.56
574.071	12027.06
574.432	12090.33
574.794	12199.48
575.155	12107.51
575.516	12118.35
575.877	12247.16
576.238	12232.93
576.599	12331.91
576.96	12356.77
577.32	12394.28
577.681	12396.54
578.042	12537.33
578.403	12488.74
578.763	12560.6
579.124	12536.87
579.485	12658.23
579.845	12715.17
580.206	12722.63
580.566	12669.98
580.927	12779.58
581.287	12754.04
581.648	12756.98
582.008	12926.69
582.368	12886.47
582.728	12980.03
583.089	12893.47
583.449	12928.73
583.809	13008.95
584.169	13060.48
584.529	13025.22
584.889	13137.76
585.249	13087.37
585.609	13119.46
585.969	13186.57
586.329	13161.04
586.688	13196.29
587.048	13211.66
587.408	13128.95
587.768	13183.64
588.127	13164.65
588.487	13280.36
588.846	13367.81
589.206	13347.93
589.565	13375.5
589.925	13408.04
590.284	13408.26
590.643	13453.23
591.003	13513.35
591.362	13557.19
591.721	13537.53
592.08	13577.98
592.44	13582.5
592.799	13590.41
593.158	13609.61
593.517	13624.53
593.876	13599.44
594.235	13642.38
594.593	13651.87
594.952	13727.58
595.311	13669.05
595.67	13679.44
596.029	13823.62
596.387	13818.2
596.746	13951.75
597.104	13880.34
597.463	13834.69
597.822	14009.38
598.18	13932.32
598.538	13949.72
598.897	14007.12
599.255	14008.25
599.613	14105.42
599.972	14015.7
600.33	14082.14
600.688	14070.39
601.046	14063.61
601.404	14169.83
601.762	14152.2
602.12	14252.31
602.478	14206.21
602.836	14268.13
603.194	14258.41
603.552	14276.04
603.91	14250.95
604.268	14253.89
604.625	14311.97
604.983	14389.25
605.341	14281.69
605.698	14363.49
606.056	14449.59
606.413	14504.96
606.771	14439.65
607.128	14493.88
607.485	14508.12
607.843	14423.83
608.2	14564.17
608.557	14601.23
608.914	14635.35
609.272	14660.21
609.629	14768.23
609.986	14793.31
610.343	14700.66
610.7	14827.66
611.057	14861.56
611.414	14850.26
611.771	14807.1
612.127	14923.25
612.484	14985.4
612.841	15032.18
613.198	14941.56
613.554	14998.28
613.911	15045.51
614.267	15102.23
614.624	15105.17
614.98	15170.93
615.337	15216.13
615.693	15234.66
616.05	15250.25
616.406	15281.21
616.762	15280.76
617.118	15246.63
617.475	15299.51
617.831	15419.28
618.187	15392.17
618.543	15418.83
618.899	15496.8
619.255	15495.44
619.611	15473.97
619.967	15536.34
620.323	15531.15
620.678	15493.18
621.034	15557.13
621.39	15516.91
621.746	15520.98
622.101	15718.49
622.457	15603.23
622.812	15591.93
623.168	15703.8
623.523	15592.39
623.879	15751.03
624.234	15686.62
624.589	15709.22
624.945	15764.81
625.3	15766.85
625.655	15732.04
626.01	15712.38
626.365	15755.77
626.72	15813.4
627.075	15876.67
627.43	15743.57
627.785	15718.03
628.14	15844.81
628.495	15793.96
628.85	15744.92
629.205	15862.66
629.559	15934.52
629.914	15777.92
630.269	15880.97
630.623	15744.92
630.978	15849.1
631.332	15892.72
631.687	15923.9
632.041	15859.27
632.396	15887.07
632.75	15824.24
633.104	15822.44
633.459	15830.12
633.813	15807.3
634.167	15781.31
634.521	15851.59
634.875	15838.26
635.229	15799.16
635.583	15758.94
635.937	15821.08
636.291	15761.87
636.645	15683.23
636.999	15706.73
637.352	15824.47
637.706	15752.61
638.06	15780.4
638.413	15726.17
638.767	15784.02
639.121	15721.87
639.474	15687.53
639.828	15693.17
640.181	15695.43
640.534	15733.85
640.888	15632.16
641.241	15645.94
641.594	15672.84
641.947	15711.48
642.301	15725.26
642.654	15716.68
643.007	15704.93
643.36	15715.55
643.713	15673.51
644.066	15669.22
644.419	15665.61
644.771	15522.56
645.124	15371.83
645.477	15423.35
645.83	15381.09
646.182	15329.34
646.535	15253.41
646.888	15337.48
647.24	15213.64
647.593	15202.57
647.945	15243.02
648.298	15192.4
648.65	15139.74
649.002	15125.96
649.355	15165.05
649.707	15180.19
650.059	15246.63
650.411	15482.33
650.763	15510.13
651.115	15688.66
651.467	15569.34
651.819	15590.8
652.171	15518.72
652.523	15504.93
652.875	15542.44
653.227	15507.19
653.578	15732.72
653.93	15608.43
654.282	15494.54
654.633	15564.36
654.985	15461.99
655.337	15528.21
655.688	15553.74
656.039	15570.01
656.391	15405.5
656.742	15500.86
657.094	15549
657.445	15609.11
657.796	15612.95
658.147	15457.02
658.498	15597.13
658.849	15573.18
659.2	15604.14
659.551	15549.45
659.902	15666.73
660.253	15560.75
660.604	15610.24
660.955	15553.07
661.306	15623.8
661.656	15573.18
662.007	15647.75
662.358	15610.01
662.708	15549.68
663.059	15649.33
663.409	15542.67
663.76	15636.91
664.11	15643.01
664.461	15694.76
664.811	15578.38
665.161	15571.6
665.511	15574.99
665.862	15686.85
666.212	15640.75
666.562	15636.91
666.912	15686.4
667.262	15657.47
667.612	15575.44
667.962	15597.13
668.312	15582.9
668.662	15689.56
669.011	15694.98
669.361	15588.54
669.711	15646.62
670.06	15595.55
670.41	15502.22
670.76	15525.04
671.109	15660.41
671.459	15539.73
671.808	15561.88
672.157	15612.73
672.507	15501.09
672.856	15583.12
673.205	15628.77
673.554	15618.83
673.904	15659.96
674.253	15658.15
674.602	15592.61
674.951	15404.14
675.3	15268.1
675.649	15600.52
675.998	15634.19
676.346	15579.28
676.695	15614.53
677.044	15476.68
677.393	15612.05
677.741	15586.29
678.09	15521.2
678.438	15485.95
678.787	15584.25
679.135	15562.78
679.484	15406.63
679.832	15604.59
680.181	15476.68
680.529	15515.78
680.877	15514.2
681.225	15395.78
681.573	15518.94
681.922	15542.9
682.27	15438.94
682.618	15440.75
682.966	15349.46
683.314	15350.13
683.661	15333.18
684.009	15321.66
684.357	15205.73
684.705	15207.76
685.053	15389.45
685.4	15266.97
685.748	15185.17
686.095	15162.79
686.443	15187.88
686.79	15114.43
687.138	15148.56
687.485	15153.75
687.832	15163.92
688.18	15178.39
688.527	15031.72
688.874	15073.3
689.221	15047.54
689.568	14991.72
689.915	14980.88
690.262	14969.8
690.609	14960.31
690.956	14884.16
691.303	14916.92
691.65	14729.13
691.997	14860.65
692.344	14740.88
692.69	14732.52
693.037	14782.01
693.383	14621.34
693.73	14750.37
694.077	14538.63
694.423	14539.31
694.769	14537.05
695.116	14504.96
695.462	14569.14
695.808	14455.92
696.155	14482.13
696.501	14418.18
696.847	14424.96
697.193	14374.34
697.539	14435.81
697.885	14301.8
698.231	14294.34
698.577	14265.19
698.923	14225.87
699.269	14165.53
699.614	14105.19
699.96	14128.92
700.306	14135.25
700.651	14134.12
700.997	14041.69
701.342	14052.54
701.688	14061.13
702.033	14070.62
702.379	13941.13
702.724	13933.67
703.069	13944.75
703.415	13780
703.76	13857.29
704.105	13821.36
704.45	13851.87
704.795	13721.7
705.14	13708.82
705.485	13662.04
705.83	13596.73
706.175	13666.11
706.52	13608.03
706.865	13602.61
707.209	13528.03
707.554	13554.02
707.899	13536.17
708.243	13534.36
708.588	13577.3
708.932	13364.87
709.277	13374.14
709.621	13362.16
709.966	13310.41
710.31	13391.54
710.654	13287.81
710.998	13246.23
711.342	13296.63
711.687	13249.62
712.031	13220.25
712.375	13106.35
712.719	13240.58
713.063	13169.63
713.407	13168.5
713.75	13223.18
714.094	13140.47
714.438	13074.71
714.782	13116.97
715.125	13007.14
715.469	13076.97
715.812	12966.69
716.156	12944.32
716.499	12954.49
716.843	12992.23
717.186	12903.87
717.53	12993.58
717.873	12902.74
718.216	12933.93
718.559	12883.08
718.902	12832.01
719.246	12794.27
719.589	12796.98
719.932	12811.22
720.275	12755.63
720.617	12800.82
720.96	12721.5
721.303	12734.61
721.646	12792.46
721.989	12659.58
722.331	12700.03
722.674	12665.68
723.016	12613.26
723.359	12655.97
723.701	12747.04
724.044	12574.84
724.386	12542.07
724.729	12633.37
725.071	12571
725.413	12586.14
725.755	12587.72
726.097	12447.61
726.439	12440.38
726.782	12448.74
727.124	12570.09
727.465	12455.52
727.807	12573.26
728.149	12490.55
728.491	12434.96
728.833	12467.95
729.175	12389.76
729.516	12447.84
729.858	12411.45
730.199	12403.77
730.541	12338.23
730.882	12366.71
731.224	12399.93
731.565	12322.64
731.906	12436.54
732.248	12402.87
732.589	12321.51
732.93	12174.17
733.271	12335.75
733.612	12357.9
733.953	12324.22
734.294	12248.75
734.635	12309.54
734.976	12292.13
735.317	12252.81
735.658	12292.81
735.999	12303.43
736.339	12191.12
736.68	12286.03
737.021	12224.34
737.361	12242.19
737.702	12256.66
738.042	12216.2
738.383	12183.89
738.723	12220.27
739.063	12122.2
739.404	12142.99
739.744	12199.03
740.084	12182.31
740.424	12105.92
740.764	12092.82
741.104	12165.13
741.444	12145.47
741.784	12069.77
742.124	12185.24
742.464	12103.44
742.804	12140.05
743.143	12111.57
743.483	12112.48
743.823	12004.23
744.162	12106.15
744.502	12013.05
744.841	11978.24
745.181	12060.05
745.52	11985.02
745.86	12072.71
746.199	12001.07
746.538	11941.64
746.877	12055.3
747.216	12025.7
747.556	12029.32
747.895	11977.34
748.234	11955.65
748.573	11933.5
748.911	11892.6
749.25	11914.07
749.589	11952.71
749.928	11929.43
750.267	11942.77
750.605	11928.53
750.944	11838.59
751.283	11830.68
751.621	11829.1
751.96	11847.17
752.298	11776.44
752.636	11853.05
752.975	11784.8
753.313	11735.54
753.651	11856.44
753.989	11785.71
754.327	11874.52
754.666	11667.97
755.004	11768.53
755.342	11818.02
755.679	11751.81
756.017	11612.6
756.355	11678.37
756.693	11649.21
757.031	11678.82
757.368	11671.59
757.706	11641.3
758.044	11560.85
758.381	11618.03
758.719	11561.08
759.056	11527.18
759.394	11491.93
759.731	11497.35
760.068	11405.15
760.405	11409.67
760.743	11437.47
761.08	11411.25
761.417	11348.66
761.754	11352.5
762.091	11340.07
762.428	11352.72
762.765	11222.56
763.102	11371.48
763.438	11245.16
763.775	11212.16
764.112	11213.07
764.449	11242.67
764.785	11174.2
765.122	11137.36
765.458	11100.08
765.795	11081.32
766.131	11069.57
766.467	11014.43
766.804	11004.71
767.14	10907.09
767.476	10905.73
767.812	10859.63
768.148	10949.8
768.485	10778.05
768.821	10733.53
769.157	10785.96
769.492	10770.82
769.828	10803.13
770.164	10599.52
770.5	10618.51
770.836	10667.54
771.171	10536.02
771.507	10617.15
771.842	10527.66
772.178	10565.4
772.513	10489.7
772.849	10573.76
773.184	10446.76
773.519	10461.9
773.855	10384.84
774.19	10341.45
774.525	10296.71
774.86	10253.77
775.195	10224.17
775.53	10154.34
775.865	10115.02
776.2	10186.2
776.535	10102.36
776.87	10051.06
777.205	10027.11
777.539	9996.15
777.874	9989.6
778.209	9913.67
778.543	9916.6
778.878	9870.28
779.212	9889.03
779.547	9829.6
779.881	9783.5
780.215	9731.98
780.55	9804.97
780.884	9708.25
781.218	9721.58
781.552	9794.35
781.886	9654.92
782.22	9576.95
782.554	9578.99
782.888	9472.1
783.222	9507.35
783.556	9496.05
783.889	9469.38
784.223	9370.18
784.557	9415.6
784.89	9384.41
785.224	9297.64
785.557	9261.93
785.891	9237.53
786.224	9190.97
786.558	9231.88
786.891	9147.36
787.224	9119.11
787.557	9106.23
787.891	9136.06
788.224	9027.59
788.557	8997.08
788.89	9028.49
789.223	9087.47
789.556	8933.8
789.888	8927.7
790.221	8893.81
790.554	8814.94
790.887	8827.37
791.219	8875.05
791.552	8797.54
791.884	8781.49
792.217	8777.88
792.549	8754.6
792.882	8647.71
793.214	8644.55
793.546	8624.66
793.879	8573.36
794.211	8486.58
794.543	8555.51
794.875	8552.35
795.207	8584.89
795.539	8509.64
795.871	8581.05
796.203	8431.22
796.535	8394.84
796.867	8397.32
797.198	8429.86
797.53	8299.47
797.862	8288.4
798.193	8259.47
798.525	8280.04
798.856	8285.46
799.188	8180.15
799.519	8162.75
799.85	8133.37
800.182	8200.26
800.513	8172.24
800.844	8027.39
801.175	8095.18
801.506	8131.34
801.837	8053.83
802.168	8008.86
802.499	8028.74
802.83	7950.1
803.161	7888.63
803.491	7966.15
803.822	7932.7
804.153	7911.68
804.483	7830.1
804.814	7849.54
805.145	7848.18
805.475	7867.62
805.805	7794.85
806.136	7795.53
806.466	7732.25
806.796	7771.58
807.126	7695.65
807.457	7733.61
807.787	7683.22
808.117	7632.82
808.447	7612.48
808.777	7640.05
809.107	7622.43
809.436	7608.64
809.766	7529.55
810.096	7585.82
810.426	7489.32
810.755	7541.98
811.085	7504.92
811.414	7487.97
811.744	7499.72
812.073	7407.07
812.403	7461.08
812.732	7434.18
813.061	7403.9
813.39	7355.77
813.719	7382.88
814.049	7430.79
814.378	7324.36
814.707	7277.8
815.036	7347.63
815.365	7314.41
815.693	7201.42
816.022	7194.87
816.351	7189.67
816.68	7170.01
817.008	7150.12
817.337	7172.5
817.665	7150.35
817.994	7213.4
818.322	7145.83
818.651	7125.94
818.979	7081.88
819.307	7094.53
819.636	7112.16
819.964	7076.68
820.292	7043.68
820.62	7054.53
820.948	7053.85
821.276	7082.33
821.604	7034.42
821.932	7055.21
822.259	7010.24
822.587	7044.14
822.915	6991.26
823.243	7082.55
823.57	7054.98
823.898	7003.69
824.225	6989
824.553	7014.31
824.88	7083.23
825.207	7048.66
825.535	7014.31
825.862	7005.27
826.189	7059.5
826.516	7005.95
826.843	7034.87
827.17	7029.9
827.497	7028.09
827.824	7033.06
828.151	7024.93
828.478	7033.06
828.805	7077.81
829.131	7011.14
829.458	7048.43
829.785	6935.44
830.111	6990.58
830.438	7008.88
830.764	6992.61
831.09	7005.95
831.417	7026.51
831.743	7032.84
832.069	7042.78
832.395	7002.1
832.722	6975.89
833.048	6981.09
833.374	6968.21
833.7	6925.04
834.026	7002.33
834.351	6955.33
834.677	6955.1
835.003	7002.56
835.329	6909
835.654	6963.23
835.98	6943.8
836.306	6962.56
836.631	6889.56
836.956	6924.82
837.282	6896.12
837.607	6873.52
837.932	6878.49
838.258	6868.77
838.583	6883.69
838.908	6891.82
839.233	6807.53
839.558	6889.56
839.883	6841.2
840.208	6759.17
840.533	6763.92
840.858	6820.19
841.182	6777.48
841.507	6791.26
841.832	6798.49
842.156	6769.12
842.481	6746.52
842.805	6759.4
843.13	6697.93
843.454	6745.16
843.778	6697.48
844.103	6717.82
844.427	6672.62
844.751	6678.27
845.075	6654.77
845.399	6623.58
845.723	6567.99
846.047	6589.69
846.371	6493.42
846.695	6521.21
847.019	6495.9
847.343	6507.65
847.666	6455.23
847.99	6372.74
848.313	6414.77
848.637	6399.86
848.96	6353.99
849.284	6344.27
849.607	6340.88
849.931	6335.68
850.254	6295.46
850.577	6277.6
850.9	6245.97
851.223	6233.76
851.546	6180.66
851.869	6153.54
852.192	6149.02
852.515	6140.43
852.838	6067.44
853.161	6106.31
853.483	6079.19
853.806	5990.38
854.129	6070.38
854.451	6037.38
854.774	6015.46
855.096	5978.63
855.419	5927.1
855.741	5961
856.063	5917.61
856.385	5908.35
856.708	5871.51
857.03	5838.97
857.352	5839.2
857.674	5832.42
857.996	5862.92
858.318	5805.07
858.64	5780.67
858.961	5782.93
859.283	5770.27
859.605	5739.31
859.926	5812.3
860.248	5748.13
860.57	5675.36
860.891	5700.22
861.212	5729.14
861.534	5680.33
861.855	5657.73
862.176	5677.85
862.498	5688.24
862.819	5682.59
863.14	5652.99
863.461	5539.32
863.782	5540
864.103	5612.31
864.424	5609.15
864.745	5645.53
865.065	5521.92
865.386	5558.3
865.707	5517.17
866.027	5561.24
866.348	5521.92
866.668	5587.68
866.989	5557.17
867.309	5492.99
867.63	5507.68
867.95	5502.48
868.27	5479.88
868.59	5442.37
868.91	5420.22
869.23	5434.91
869.55	5418.19
869.87	5468.13
870.19	5419.32
870.51	5449.38
870.83	5431.3
871.15	5406.21
871.469	5426.78
871.789	5425.87
872.109	5357.4
872.428	5384.75
872.748	5395.37
873.067	5382.71
873.386	5391.98
873.706	5355.14
874.025	5335.71
874.344	5315.82
874.663	5320.34
874.982	5313.56
875.301	5329.38
875.62	5317.4
875.939	5301.36
876.258	5278.08
876.577	5281.7
876.896	5275.6
877.214	5269.49
877.533	5279.66
877.852	5298.87
878.17	5300
878.489	5272.88
878.807	5247.12
879.125	5251.64
879.444	5265.65
879.762	5240.57
880.08	5172.1
880.398	5222.72
880.716	5201.47
881.034	5211.87
881.352	5166.9
881.67	5157.63
881.988	5158.99
882.306	5117.86
882.624	5143.4
882.941	5092.1
883.259	5087.35
883.577	5086.22
883.894	5130.06
884.212	5082.15
884.529	5017.75
884.846	5050.29
885.164	5025.43
885.481	5036.05
885.798	5038.99
886.115	4943.85
886.432	4988.15
886.75	5014.13
887.067	5023.85
887.383	4945.21
887.7	4984.3
888.017	4912.22
888.334	4984.3
888.651	4967.36
888.967	4936.17
889.284	4863.18
889.6	4899.79
889.917	4886.45
890.233	4856.4
890.55	4813.01
890.866	4836.74
891.182	4798.09
891.498	4819.34
891.815	4813.46
892.131	4805.33
892.447	4783.63
892.763	4746.34
893.079	4712.67
893.395	4745.44
893.71	4716.06
894.026	4700.24
894.342	4697.98
894.657	4674.03
894.973	4697.98
895.289	4688.72
895.604	4676.52
895.92	4633.35
896.235	4605.33
896.55	4543.64
896.865	4567.37
897.181	4576.41
897.496	4541.6
897.811	4532.11
898.126	4520.81
898.441	4528.04
898.756	4502.96
899.071	4480.14
899.386	4488.72
899.7	4440.14
900.015	4405.11
900.33	4408.05
900.644	4428.61
900.959	4390.42
901.273	4412.34
901.588	4373.92
901.902	4369.4
902.216	4335.28
902.531	4343.42
902.845	4287.15
903.159	4307.71
903.473	4279.46
903.787	4279.92
904.101	4269.97
904.415	4295.06
904.729	4207.15
905.042	4225.68
905.356	4219.8
905.67	4153.59
905.984	4191.78
906.297	4165.12
906.611	4147.94
906.924	4197.21
907.237	4134.16
907.551	4126.47
907.864	4075.85
908.177	4075.85
908.491	4080.15
908.804	4034.27
909.117	4027.04
909.43	4019.81
909.743	3985.23
910.056	4007.83
910.368	3991.79
910.681	3952.69
910.994	3939.81
911.307	3916.76
911.619	3865.92
911.932	3924.67
912.244	3938.91
912.557	3902.75
912.869	3873.6
913.181	3868.63
913.494	3826.37
913.806	3802.64
914.118	3797.44
914.43	3780.72
914.742	3773.94
915.054	3754.28
915.366	3783.88
915.678	3748.86
915.99	3713.15
916.302	3692.13
916.613	3687.16
916.925	3690.33
917.236	3664.79
917.548	3635.41
917.859	3603.1
918.171	3599.26
918.482	3607.39
918.794	3608.07
919.105	3575.75
919.416	3581.85
919.727	3546.38
920.038	3519.03
920.349	3512.48
920.66	3485.81
920.971	3513.16
921.282	3510.22
921.593	3479.26
921.903	3477.9
922.214	3422.99
922.525	3445.81
922.835	3412.14
923.146	3403.1
923.456	3358.13
923.767	3345.03
924.077	3366.72
924.387	3368.98
924.697	3293.73
925.008	3338.47
925.318	3281.98
925.628	3338.47
925.938	3258.02
926.248	3234.75
926.558	3228.42
926.867	3253.28
927.177	3261.86
927.487	3232.71
927.796	3178.02
928.106	3192.03
928.416	3155.2
928.725	3212.37
929.034	3159.95
929.344	3189.32
929.653	3151.13
929.962	3122.43
930.271	3126.95
930.581	3101.87
930.89	3062.09
931.199	3042.89
931.508	3081.53
931.817	3042.21
932.125	3028.2
932.434	3010.34
932.743	3013.96
933.051	3004.7
933.36	2973.51
933.669	2981.19
933.977	2987.29
934.286	2956.79
934.594	2944.13
934.902	2924.25
935.21	2880.4
935.519	2923.57
935.827	2907.3
936.135	2867.75
936.443	2828.43
936.751	2877.01
937.059	2815.1
937.367	2836.34
937.674	2817.58
937.982	2808.32
938.29	2815.55
938.597	2794.31
938.905	2742.56
939.213	2787.75
939.52	2765.15
939.827	2816.45
940.135	2790.46
940.442	2734.87
940.749	2777.36
941.056	2753.18
941.363	2689
941.67	2704.59
941.977	2672.73
942.284	2624.59
942.591	2677.02
942.898	2664.59
943.205	2644.48
943.511	2628.89
943.818	2622.33
944.125	2610.13
944.431	2621.88
944.738	2587.76
945.044	2571.94
945.35	2581.66
945.657	2526.97
945.963	2565.84
946.269	2539.62
946.575	2531.04
946.881	2541.2
947.187	2508.66
947.493	2510.24
947.799	2498.95
948.105	2487.65
948.41	2465.73
948.716	2453.07
949.022	2445.61
949.327	2437.25
949.633	2425.05
949.938	2404.71
950.244	2435.22
950.549	2405.39
950.854	2374.43
951.16	2403.13
951.465	2382.34
951.77	2370.14
952.075	2359.97
952.38	2342.57
952.685	2355.67
952.99	2304.37
953.294	2320.65
953.599	2306.86
953.904	2288.33
954.209	2275.9
954.513	2271.61
954.818	2249.91
955.122	2255.79
955.426	2245.39
955.731	2209.91
956.035	2212.63
956.339	2248.78
956.643	2236.81
956.948	2176.69
957.252	2204.26
957.556	2223.47
957.86	2213.53
958.163	2163.36
958.467	2191.16
958.771	2186.19
959.075	2118.62
959.378	2132.63
959.682	2121.78
959.985	2124.72
960.289	2102.35
960.592	2116.58
960.896	2100.09
961.199	2067.54
961.502	2082.01
961.805	2056.02
962.108	2070.71
962.411	2081.33
962.714	2086.3
963.017	2015.34
963.32	2077.26
963.623	2045.62
963.926	2025.74
964.228	2029.81
964.531	2018.51
964.833	2026.19
965.136	1972.86
965.438	1993.2
965.741	1988.45
966.043	2019.41
966.345	1959.3
966.648	1952.07
966.95	1946.42
967.252	1946.19
967.554	1918.62
967.856	1931.05
968.158	1901.45
968.46	1882.01
968.761	1875.01
969.063	1885.63
969.365	1876.36
969.666	1883.82
969.968	1867.32
970.269	1864.61
970.571	1877.72
970.872	1821.68
971.174	1828.45
971.475	1843.82
971.776	1799.53
972.077	1825.29
972.378	1789.36
972.679	1814.44
972.98	1848.79
973.281	1804.27
973.582	1758.63
973.883	1790.94
974.183	1768.34
974.484	1743.49
974.785	1743.03
975.085	1750.72
975.386	1724.5
975.686	1743.49
975.986	1717.95
976.287	1751.39
976.587	1709.81
976.887	1719.98
977.187	1720.21
977.487	1702.81
977.787	1680.66
978.087	1695.12
978.387	1679.31
978.687	1687.89
978.987	1655.58
979.286	1681.11
979.586	1648.57
979.885	1616.48
980.185	1652.41
980.484	1617.84
980.784	1646.99
981.083	1621.23
981.382	1619.65
981.682	1623.71
981.981	1576.71
982.28	1594.79
982.579	1571.51
982.878	1598.18
983.177	1600.89
983.475	1576.03
983.774	1565.86
984.073	1548.91
984.372	1560.89
984.67	1590.04
984.969	1557.73
985.267	1561.8
985.566	1529.03
985.864	1494
986.162	1509.82
986.461	1497.39
986.759	1528.12
987.057	1477.28
987.355	1476.15
987.653	1481.35
987.951	1483.61
988.249	1464.4
988.547	1459.42
988.844	1444.74
989.142	1442.7
989.44	1449.48
989.737	1431.86
990.035	1439.31
990.332	1459.88
990.63	1424.85
990.927	1441.8
991.224	1443.15
991.521	1410.61
991.819	1423.49
992.116	1404.51
992.413	1409.93
992.71	1404.51
993.006	1366.55
993.303	1377.62
993.6	1372.42
993.897	1381.46
994.193	1380.33
994.49	1376.49
994.787	1340.33
995.083	1344.63
995.379	1359.31
995.676	1332.65
995.972	1335.36
996.268	1306.66
996.565	1323.38
996.861	1294.68
997.157	1320.67
997.453	1302.59
997.749	1293.33
998.044	1276.83
998.34	1281.8
998.636	1257.4
998.932	1285.87
999.227	1258.98
999.523	1255.36
999.818	1244.29
1000.114	1232.31
1000.409	1249.49
1000.704	1217.4
1001	1235.48
1001.295	1227.34
1001.59	1232.31
1001.885	1227.79
1002.18	1214.69
1002.475	1203.16
1002.77	1191.86
1003.065	1193.67
1003.359	1209.26
1003.654	1202.03
1003.949	1155.93
1004.243	1169.94
1004.538	1166.78
1004.832	1157.74
1005.127	1166.1
1005.421	1149.6
1005.715	1159.77
1006.009	1144.86
1006.304	1164.52
1006.598	1143.73
1006.892	1118.87
1007.186	1119.55
1007.48	1116.16
1007.773	1106.67
1008.067	1089.49
1008.361	1078.64
1008.655	1121.13
1008.948	1108.25
1009.242	1076.16
1009.535	1103.28
1009.829	1061.24
1010.122	1058.08
1010.415	1090.62
1010.708	1068.7
1011.001	1052.88
1011.295	1059.66
1011.588	1025.09
1011.881	1039.32
1012.173	1025.99
1012.466	1033.45
1012.759	1025.76
1013.052	1032.77
1013.344	1019.66
1013.637	1016.05
1013.93	997.74
1014.222	1006.78
1014.514	981.25
1014.807	974.24
1015.099	995.93
1015.391	968.59
1015.683	962.71
1015.976	969.49
1016.268	983.73
1016.56	965.2
1016.851	952.09
1017.143	962.26
1017.435	966.78
1017.727	952.77
1018.018	930.63
1018.31	941.7
1018.602	922.49
1018.893	934.24
1019.185	903.28
1019.476	887.91
1019.767	926.56
1020.058	895.37
1020.35	884.52
1020.641	892.21
1020.932	896.5
1021.223	881.59
1021.514	887.46
1021.804	873.9
1022.095	853.34
1022.386	881.36
1022.677	851.08
1022.967	834.36
1023.258	849.27
1023.548	819.44
1023.839	814.92
1024.129	837.52
1024.419	807.92
1024.709	816.28
1025	821.48
1025.29	810.63
1025.58	798.43
1025.87	833.9
1026.16	826.9
1026.449	803.62
1026.739	784.19
1027.029	791.65
1027.319	779.67
1027.608	783.74
1027.898	785.09
1028.187	763.62
1028.477	759.33
1028.766	765.66
1029.055	761.14
1029.344	787.58
1029.634	746.9
1029.923	746.45
1030.212	731.53
1030.501	750.52
1030.79	757.07
1031.078	740.12
1031.367	739.44
1031.656	734.7
1031.945	716.85
1032.233	716.85
1032.522	728.37
1032.81	725.43
1033.099	715.26
1033.387	699.44
1033.675	687.24
1033.963	706.68
1034.251	701.48
1034.54	696.51
1034.828	694.02
1035.116	700.8
1035.403	705.09
1035.691	682.95
1035.979	663.06
1036.267	678.88
1036.554	687.24
1036.842	678.2
1037.129	692.89
1037.417	666.45
1037.704	655.83
1037.992	642.27
1038.279	630.52
1038.566	658.77
1038.853	658.77
1039.14	658.77
