Data from cardboard_FLMS001491_012.txt Node
Date: Tue Feb 07 11:39:00 GMT 2017
User: dcchb
Spectrometer: FLMS00149
Trigger mode: 0
Integration Time (sec): 2.000000E-2
Scans to average: 10
Electric dark correction enabled: true
Nonlinearity correction enabled: false
Boxcar width: 0
XAxis mode: Wavelengths
Number of Pixels in Spectrum: 2048
>>>>>Begin Spectral Data<<<<<
341.393	1.6
341.776	1.6
342.16	1.6
342.543	-65.07
342.927	-71.17
343.31	-79.31
343.693	-75.46
344.077	-72.53
344.46	-57.61
344.843	-57.84
345.226	-56.93
345.61	-30.04
345.993	-11.51
346.376	-26.88
346.759	16.06
347.142	43.18
347.525	67.13
347.908	41.37
348.291	91.54
348.674	115.94
349.057	92.89
349.44	132.89
349.823	144.42
350.206	161.82
350.588	197.3
350.971	205.21
351.354	220.8
351.737	254.24
352.119	247.92
352.502	275.94
352.884	271.42
353.267	264.64
353.65	282.94
354.032	283.62
354.414	312.32
354.797	320.01
355.179	308.03
355.562	312.1
355.944	343.28
356.326	327.46
356.709	323.85
357.091	339.21
357.473	349.16
357.855	326.79
358.238	342.83
358.62	319.55
359.002	332.66
359.384	343.96
359.766	325.43
360.148	331.53
360.53	325.43
360.912	312.1
361.294	342.83
361.676	322.04
362.057	329.05
362.439	322.94
362.821	334.92
363.203	323.85
363.584	330.63
363.966	319.1
364.348	314.58
364.729	305.32
365.111	307.12
365.493	315.26
365.874	326.11
366.256	349.84
366.637	304.86
367.019	301.48
367.4	308.03
367.781	315.94
368.163	306.67
368.544	301.48
368.925	298.99
369.306	316.39
369.688	309.38
370.069	321.36
370.45	308.71
370.831	305.77
371.212	299.22
371.593	297.86
371.974	331.08
372.355	331.53
372.736	330.85
373.117	316.62
373.498	320.46
373.879	307.35
374.26	334.69
374.641	320.01
375.021	301.25
375.402	309.16
375.783	332.66
376.163	313.68
376.544	317.75
376.925	334.47
377.305	334.02
377.686	318.2
378.066	333.56
378.447	359.78
378.827	321.14
379.208	315.26
379.588	345.54
379.968	316.62
380.349	329.27
380.729	321.36
381.109	320.23
381.489	350.97
381.87	349.38
382.25	331.53
382.63	345.54
383.01	327.01
383.39	351.64
383.77	319.55
384.15	353.68
384.53	363.85
384.91	361.36
385.29	346.45
385.67	358.65
386.049	362.72
386.429	341.93
386.809	348.25
387.189	330.4
387.568	354.81
387.948	353
388.328	351.42
388.707	355.94
389.087	357.52
389.466	381.25
389.846	364.07
390.225	388.48
390.605	352.32
390.984	376.28
391.363	371.08
391.743	365.65
392.122	376.05
392.501	382.6
392.881	367.24
393.26	368.82
393.639	374.47
394.018	369.72
394.397	374.47
394.776	386.67
395.155	395.71
395.534	379.21
395.913	387.8
396.292	395.03
396.671	374.24
397.05	380.12
397.429	400.68
397.808	408.82
398.186	390.74
398.565	393.22
398.944	394.81
399.323	401.59
399.701	406.33
400.08	399.1
400.458	414.47
400.837	392.32
401.215	420.79
401.594	395.71
401.972	390.74
402.351	447.91
402.729	443.84
403.107	426.44
403.486	422.6
403.864	437.97
404.242	433.45
404.62	426.67
404.999	436.39
405.377	416.05
405.755	440.23
406.133	447.01
406.511	434.35
406.889	452.43
407.267	438.65
407.645	460.34
408.023	459.44
408.401	455.14
408.779	456.5
409.156	444.07
409.534	469.38
409.912	469.15
410.29	472.77
410.667	487.01
411.045	487.23
411.422	481.13
411.8	487.46
412.178	491.98
412.555	506.22
412.933	495.59
413.31	498.08
413.687	490.85
414.065	513.67
414.442	507.12
414.819	509.83
415.197	517.74
415.574	507.12
415.951	506.22
416.328	526.55
416.705	525.65
417.082	529.72
417.46	533.56
417.837	546.44
418.214	537.18
418.591	533.79
418.967	538.98
419.344	550.28
419.721	555.93
420.098	561.58
420.475	549.15
420.852	578.53
421.228	568.81
421.605	568.59
421.982	579.66
422.358	584.63
422.735	592.77
423.111	571.98
423.488	608.59
423.864	608.59
424.241	614.46
424.617	617.4
424.994	610.39
425.37	593.22
425.746	600.22
426.123	614.46
426.499	623.73
426.875	633.67
427.251	638.19
427.627	634.8
428.003	637.06
428.379	667.34
428.756	647.68
429.132	657.85
429.507	661.47
429.883	687.23
430.259	670.73
430.635	693.1
431.011	715.48
431.387	715.7
431.763	713.44
432.138	725.64
432.514	708.02
432.89	699.66
433.265	723.84
433.641	741.01
434.016	734.23
434.392	768.13
434.767	759.32
435.143	768.58
435.518	765.19
435.894	759.32
436.269	778.75
436.644	790.95
437.02	792.76
437.395	777.17
437.77	789.37
438.145	810.39
438.52	829.37
438.895	815.13
439.271	831.63
439.646	837.96
440.021	840.9
440.395	861.01
440.77	851.74
441.145	884.51
441.52	858.07
441.895	856.71
442.27	857.39
442.645	887
443.019	888.58
443.394	891.97
443.769	894.45
444.143	904.17
444.518	908.01
444.892	912.31
445.267	926.32
445.641	920.67
446.016	956.37
446.39	927.22
446.764	927
447.139	930.39
447.513	927.22
447.887	945.3
448.262	979.65
448.636	963.38
449.01	988.91
449.384	967.22
449.758	999.31
450.132	985.52
450.506	974.68
450.88	1002.7
451.254	986.2
451.628	1014.68
452.002	1007.9
452.376	1026.43
452.75	1025.98
453.123	1062.59
453.497	1065.97
453.871	1052.87
454.244	1072.53
454.618	1105.3
454.992	1098.52
455.365	1085.64
455.739	1109.82
456.112	1127.67
456.486	1122.02
456.859	1170.83
457.232	1154.33
457.606	1164.73
457.979	1204.05
458.352	1185.52
458.725	1232.07
459.099	1242.92
459.472	1237.5
459.845	1239.3
460.218	1256.93
460.591	1263.48
460.964	1265.29
461.337	1324.05
461.71	1306.19
462.083	1327.89
462.456	1310.94
462.829	1341.67
463.201	1357.49
463.574	1369.24
463.947	1381.9
464.32	1404.72
464.692	1407.43
465.065	1426.64
465.438	1457.38
465.81	1487.88
466.183	1474.33
466.555	1519.3
466.928	1509.8
467.3	1533.76
467.672	1564.94
468.045	1573.98
468.417	1569.01
468.789	1557.94
469.161	1614.43
469.534	1651.04
469.906	1667.77
470.278	1683.13
470.65	1691.95
471.022	1689.01
471.394	1752.74
471.766	1738.05
472.138	1784.6
472.51	1815.11
472.882	1844.94
473.253	1852.39
473.625	1928.1
473.997	1911.15
474.369	1915.9
474.74	1943.24
475.112	1964.26
475.484	2013.52
475.855	2040.86
476.227	2053.97
476.598	2108.21
476.97	2145.95
477.341	2173.52
477.713	2239.05
478.084	2235.66
478.455	2283.12
478.827	2298.71
479.198	2351.36
479.569	2370.8
479.94	2400.63
480.311	2455.54
480.682	2512.26
481.053	2575.77
481.424	2567.4
481.795	2609.89
482.166	2678.36
482.537	2686.5
482.908	2753.84
483.279	2789.55
483.65	2841.75
484.021	2879.71
484.391	2901.18
484.762	2935.98
485.133	2971.69
485.503	3005.13
485.874	3054.4
486.244	3135.3
486.615	3177.33
486.985	3201.06
487.356	3280.15
487.726	3337.55
488.097	3359.47
488.467	3382.98
488.837	3466.36
489.207	3513.59
489.578	3561.5
489.948	3600.6
490.318	3651.67
490.688	3639.69
491.058	3747.26
491.428	3770.08
491.798	3801.5
492.168	3875.62
492.538	3910.65
492.908	4020.7
493.278	4006.69
493.648	4029.51
494.017	4064.77
494.387	4149.28
494.757	4161.03
495.126	4212.78
495.496	4213.24
495.866	4327.13
496.235	4348.37
496.605	4416.17
496.974	4443.97
497.344	4453.46
497.713	4514.47
498.082	4522.61
498.452	4668.82
498.821	4664.07
499.19	4655.26
499.559	4695.71
499.928	4784.75
500.298	4791.53
500.667	4886.89
501.036	4869.72
501.405	4909.94
501.774	4991.3
502.143	5027.23
502.512	5048.92
502.88	5084.85
503.249	5079.65
503.618	5148.35
503.987	5184.96
504.356	5241.23
504.724	5329.82
505.093	5304.28
505.462	5334.56
505.83	5386.54
506.199	5499.3
506.567	5567.33
506.936	5611.39
507.304	5657.72
507.672	5656.36
508.041	5789.01
508.409	5828.11
508.777	5820.2
509.145	5842.8
509.514	5915.56
509.882	6024.49
510.25	6011.16
510.618	6054.54
510.986	6111.72
511.354	6215.67
511.722	6282.11
512.09	6357.81
512.458	6343.35
512.826	6462.22
513.193	6439.84
513.561	6527.3
513.929	6576.11
514.297	6641.65
514.664	6696.56
515.032	6737.92
515.4	6779.5
515.767	6831.25
516.135	6950.11
516.502	6921.19
516.869	7037.12
517.237	7094.29
517.604	7090
517.972	7230.78
518.339	7238.69
518.706	7373.83
519.073	7352.82
519.44	7423.55
519.808	7550.1
520.175	7536.09
520.542	7676.2
520.909	7724.56
521.276	7841.16
521.643	7876.19
522.009	7937.66
522.376	8052.23
522.743	8040.48
523.11	8175.84
523.477	8284.77
523.843	8387.82
524.21	8412.45
524.577	8500.58
524.943	8555.27
525.31	8648.15
525.676	8745.55
526.043	8817.41
526.409	8862.15
526.776	9026.9
527.142	9027.8
527.508	9059.44
527.874	9169.26
528.241	9313.22
528.607	9354.12
528.973	9456.26
529.339	9504.17
529.705	9603.38
530.071	9763.37
530.437	9761.79
530.803	9840.21
531.169	9880.66
531.535	10000.66
531.901	10058.05
532.267	10079.3
532.632	10197.26
532.998	10258.73
533.364	10268.22
533.73	10390.93
534.095	10473.19
534.461	10560.19
534.826	10697.59
535.192	10671.82
535.557	10750.92
535.923	10774.19
536.288	10823.23
536.653	10879.05
537.019	10944.59
537.384	11039.27
537.749	11129.21
538.114	11196.1
538.479	11202.21
538.845	11255.54
539.21	11313.61
539.575	11363.78
539.94	11463.89
540.305	11587.05
540.67	11541.63
541.034	11662.31
541.399	11733.26
541.764	11759.25
542.129	11880.38
542.494	11934.39
542.858	11973.48
543.223	12069.75
543.587	12098.45
543.952	12214.38
544.316	12276.53
544.681	12226.13
545.045	12383.64
545.41	12432.91
545.774	12471.55
546.138	12532.57
546.503	12657.31
546.867	12628.38
547.231	12752
547.595	12896.85
547.959	12876.29
548.324	12910.64
548.688	12985.44
549.052	13098.65
549.416	13191.53
549.779	13202.38
550.143	13342.04
550.507	13368.93
550.871	13424.07
551.235	13455.25
551.599	13570.96
551.962	13670.84
552.326	13743.83
552.689	13859.08
553.053	13752.42
553.417	13937.05
553.78	14124.61
554.143	14002.81
554.507	14132.07
554.87	14269.7
555.234	14425.85
555.597	14381.78
555.96	14446.64
556.323	14566.64
556.686	14544.04
557.05	14708.55
557.413	14788.33
557.776	14818.38
558.139	14974.08
558.502	15045.95
558.865	15015.21
559.228	15209.56
559.59	15320.52
559.953	15380.63
560.316	15532.26
560.679	15521.41
561.041	15685.93
561.404	15715.31
561.767	15865.36
562.129	15868.75
562.492	16041.63
562.854	16135.41
563.217	16183.32
563.579	16186.26
563.941	16280.72
564.304	16491.33
564.666	16615.85
565.028	16637.32
565.39	16734.94
565.753	16797.99
566.115	16866.01
566.477	16995.95
566.839	17046.35
567.201	17194.36
567.563	17300.35
567.925	17329.28
568.287	17387.35
568.648	17523.62
569.01	17647.91
569.372	17740.34
569.734	17722.26
570.095	17892.88
570.457	17894.46
570.819	17975.13
571.18	18118.18
571.542	18202.7
571.903	18248.57
572.265	18362.92
572.626	18364.73
572.987	18460.77
573.349	18587.77
573.71	18711.16
574.071	18785.73
574.432	18814.89
574.794	19025.95
575.155	18954.09
575.516	18989.8
575.877	19157.25
576.238	19143.69
576.599	19203.35
576.96	19401.31
577.32	19319.96
577.681	19424.14
578.042	19484.47
578.403	19554.08
578.763	19644.24
579.124	19720.63
579.485	19720.85
579.845	19868.19
580.206	19913.61
580.566	19866.16
580.927	19930.79
581.287	20039.71
581.648	20083.55
582.008	20150.67
582.368	20082.2
582.728	20220.05
583.089	20259.82
583.449	20301.18
583.809	20306.37
584.169	20383.21
584.529	20352.47
584.889	20503.66
585.249	20543.43
585.609	20395.41
585.969	20533.03
586.329	20594.95
586.688	20629.75
587.048	20654.84
587.408	20630.66
587.768	20657.1
588.127	20727.38
588.487	20676.98
588.846	20815.74
589.206	20789.3
589.565	20820.48
589.925	20983.87
590.284	21037.43
590.643	21028.39
591.003	21082.85
591.362	21133.92
591.721	21085.79
592.08	21131.44
592.44	21275.39
592.799	21202.17
593.158	21218.44
593.517	21287.82
593.876	21334.37
594.235	21370.53
594.593	21306.57
594.952	21382.5
595.311	21516.06
595.67	21516.28
596.029	21628.82
596.387	21588.6
596.746	21606.45
597.104	21531.43
597.463	21692.1
597.822	21720.35
598.18	21599.22
598.538	21740.69
598.897	21994.69
599.255	21772.55
599.613	22011.41
599.972	21867.91
600.33	21958.53
600.688	21852.55
601.046	21974.58
601.404	22124.63
601.762	22083.05
602.12	22194.68
602.478	22182.93
602.836	22244.85
603.194	22168.7
603.552	22192.2
603.91	22237.4
604.268	22348.81
604.625	22270.16
604.983	22451.85
605.341	22321.46
605.698	22473.32
606.056	22584.96
606.413	22474.45
606.771	22661.79
607.128	22674.67
607.485	22621.57
607.843	22650.72
608.2	22847.32
608.557	22887.1
608.914	22728.23
609.272	22916.93
609.629	22948.34
609.986	23019.3
610.343	22920.77
610.7	23125.96
611.057	23058.39
611.414	23141.1
611.771	23226.07
612.127	23175.9
612.484	23248.22
612.841	23322.34
613.198	23361.66
613.554	23315.56
613.911	23518.94
614.267	23452.96
614.624	23504.25
614.98	23584.93
615.337	23662.67
615.693	23608.88
616.05	23586.51
616.406	23785.15
616.762	23689.33
617.118	23764.14
617.475	23863.34
617.831	23831.93
618.187	23821.76
618.543	23894.75
618.899	24068.53
619.255	23998.93
619.611	23928.42
619.967	24131.58
620.323	24245.93
620.678	24073.73
621.034	24169.55
621.39	24153.73
621.746	24175.42
622.101	24372.48
622.457	24155.76
622.812	24315.53
623.168	24438.47
623.523	24391.24
623.879	24443.67
624.234	24277.12
624.589	24430.78
624.945	24493.16
625.3	24489.09
625.655	24417
626.01	24501.97
626.365	24544
626.72	24460.84
627.075	24485.02
627.43	24626.71
627.785	24477.56
628.14	24460.39
628.495	24639.82
628.85	24563.21
629.205	24456.09
629.559	24687.5
629.914	24470.11
630.269	24474.85
630.623	24467.39
630.978	24494.06
631.332	24637.78
631.687	24740.15
632.041	24485.47
632.396	24685.47
632.75	24562.08
633.104	24584.45
633.459	24510.56
633.813	24482.08
634.167	24445.93
634.521	24460.61
634.875	24565.24
635.229	24518.47
635.583	24484.57
635.937	24558.01
636.291	24485.02
636.645	24586.03
636.999	24435.53
637.352	24587.84
637.706	24354.4
638.06	24428.75
638.413	24405.93
638.767	24432.14
639.121	24335.19
639.474	24262.88
639.828	24354.4
640.181	24316.21
640.534	24315.98
640.888	24341.75
641.241	24323.67
641.594	24399.6
641.947	24358.24
642.301	24210.45
642.654	24299.26
643.007	24236.66
643.36	24346.72
643.713	24219.72
644.066	24329.54
644.419	24128.65
644.771	24002.32
645.124	23836.22
645.477	23860.18
645.83	23668.32
646.182	23674.42
646.535	23583.35
646.888	23555.78
647.24	23470.58
647.593	23629.9
647.945	23501.54
648.298	23524.37
648.65	23452.28
649.002	23266.75
649.355	23634.87
649.707	23459.28
650.059	23676.68
650.411	23826.51
650.763	23903.79
651.115	24123.22
651.467	24113.05
651.819	24056.33
652.171	24091.13
652.523	24093.17
652.875	24064.01
653.227	24027.63
653.578	24144.69
653.93	24151.92
654.282	23948.31
654.633	23898.82
654.985	24008.65
655.337	24034.41
655.688	24027.63
656.039	24024.02
656.391	23774.08
656.742	24036.44
657.094	23910.35
657.445	24122.32
657.796	24054.3
658.147	24035.77
658.498	24038.7
658.849	24018.59
659.2	23975.2
659.551	24054.52
659.902	24113.96
660.253	23961.64
660.604	24073.28
660.955	23934.75
661.306	24129.32
661.656	24045.48
662.007	24065.37
662.358	24052.49
662.708	24101.3
663.059	24005.71
663.409	23849.1
663.76	24095.88
664.11	24024.02
664.461	24193.73
664.811	24143.56
665.161	24057.23
665.511	24005.71
665.862	24131.81
666.212	24221.98
666.562	24200.28
666.912	24120.74
667.262	24084.58
667.612	24045.71
667.962	24121.19
668.312	24014.3
668.662	24197.8
669.011	24093.62
669.361	24211.81
669.711	24109.44
670.06	23993.28
670.41	24096.56
670.76	23992.83
671.109	24092.71
671.459	24074.18
671.808	24147.63
672.157	24083.9
672.507	24000.74
672.856	23972.27
673.205	24042.09
673.554	24159.15
673.904	24018.82
674.253	24143.11
674.602	24069.44
674.951	23834.64
675.3	23614.99
675.649	23984.69
675.998	23959.16
676.346	24024.69
676.695	24177.23
677.044	24027.63
677.393	23976.78
677.741	23994.64
678.09	24038.48
678.438	23837.81
678.787	23985.6
679.135	23937.92
679.484	23899.05
679.832	23956.45
680.181	23849.78
680.529	23873.51
680.877	23860.63
681.225	23824.47
681.573	23964.81
681.922	23719.62
682.27	23699.28
682.618	23729.56
682.966	23771.14
683.314	23783.8
683.661	23644.14
684.009	23577.25
684.357	23507.42
684.705	23587.19
685.053	23677.81
685.4	23488.89
685.748	23472.17
686.095	23419.51
686.443	23290.48
686.79	23342.68
687.138	23396.91
687.485	23344.49
687.832	23351.04
688.18	23359.85
688.527	23219.52
688.874	23261.55
689.221	23157.6
689.568	23102.46
689.915	23088.45
690.262	23156.02
690.609	23045.51
690.956	22930.26
691.303	22951.5
691.65	22896.81
691.997	22854.55
692.344	22678.51
692.69	22688.23
693.037	22700.66
693.383	22555.81
693.73	22599.65
694.077	22500.44
694.423	22656.14
694.769	22433.55
695.116	22371.86
695.462	22394
695.808	22343.61
696.155	22336.6
696.501	22248.24
696.847	22177.06
697.193	22108.13
697.539	22127.57
697.885	21928.93
698.231	21972.09
698.577	21915.6
698.923	21937.06
699.269	21766
699.614	21713.79
699.96	21728.03
700.306	21760.35
700.651	21594.47
700.997	21547.47
701.342	21560.35
701.688	21464.99
702.033	21420.24
702.379	21513.12
702.724	21334.59
703.069	21277.87
703.415	21124.66
703.76	21121.49
704.105	21172.34
704.45	21086.01
704.795	21029.97
705.14	20887.37
705.485	20958.79
705.83	20902.29
706.175	20942.06
706.52	20828.62
706.865	20837.21
707.209	20777.32
707.554	20596.53
707.899	20724.44
708.243	20642.41
708.588	20582.52
708.932	20495.29
709.277	20553.6
709.621	20446.03
709.966	20456.88
710.31	20498.01
710.654	20267.28
710.998	20220.5
711.342	20392.25
711.687	20333.04
712.031	20295.07
712.375	20140.05
712.719	20235.41
713.063	20074.97
713.407	20180.73
713.75	20157.45
714.094	20023.67
714.438	20031.35
714.782	20086.72
715.125	19952.03
715.469	19987.29
715.812	19922.65
716.156	19747.97
716.499	19793.17
716.843	19868.87
717.186	19734.86
717.53	19833.84
717.873	19828.87
718.216	19782.09
718.559	19660.29
718.902	19567.64
719.246	19637.01
719.589	19612.38
719.932	19554.53
720.275	19498.94
720.617	19423.01
720.96	19478.15
721.303	19548.43
721.646	19529.9
721.989	19372.16
722.331	19514.98
722.674	19393.85
723.016	19337.36
723.359	19353.86
723.701	19321.54
724.044	19311.6
724.386	19234.99
724.729	19354.31
725.071	19293.74
725.413	19170.13
725.755	19155.22
726.097	19175.33
726.439	19065.5
726.782	19157.25
727.124	19098.95
727.465	19063.69
727.807	19008.33
728.149	19019.4
728.491	19045.62
728.833	19082.45
729.175	19044.03
729.516	18906.64
729.858	19030.25
730.199	18984.15
730.541	18957.93
730.882	18924.26
731.224	18924.94
731.565	18842.23
731.906	18860.31
732.248	18847.88
732.589	18783.7
732.93	18735.34
733.271	18776.47
733.612	18806.53
733.953	18839.29
734.294	18698.73
734.635	18741.89
734.976	18874.77
735.317	18637.26
735.658	18579.19
735.999	18716.58
736.339	18656.47
736.68	18736.24
737.021	18638.62
737.361	18543.71
737.702	18677.04
738.042	18653.53
738.383	18641.78
738.723	18552.07
739.063	18601.33
739.404	18661.67
739.744	18567.21
740.084	18475.46
740.424	18539.19
740.764	18530.37
741.104	18465.52
741.444	18482.01
741.784	18435.91
742.124	18403.82
742.464	18490.83
742.804	18418.29
743.143	18349.14
743.483	18447.21
743.823	18314.11
744.162	18311.85
744.502	18436.59
744.841	18306.88
745.181	18471.17
745.52	18228.01
745.86	18395.69
746.199	18256.71
746.538	18340.32
746.877	18378.97
747.216	18352.98
747.556	18312.75
747.895	18386.2
748.234	18215.13
748.573	18251.96
748.911	18209.7
749.25	18258.29
749.589	18187.11
749.928	18241.34
750.267	18222.13
750.605	18152.08
750.944	18110.72
751.283	18028.47
751.621	18133.32
751.96	18009.94
752.298	18155.69
752.636	18087.22
752.975	18084.06
753.313	17886.1
753.651	18028.01
753.989	17943.5
754.327	17951.86
754.666	17931.52
755.004	17974
755.342	17915.7
755.679	17827.12
756.017	17817.85
756.355	17916.83
756.693	17822.82
757.031	17899.2
757.368	17791.86
757.706	17679.32
758.044	17687.23
758.381	17704.63
758.719	17645.2
759.056	17772.2
759.394	17563.17
759.731	17458.09
760.068	17533.34
760.405	17486.79
760.743	17355.49
761.08	17484.53
761.417	17386.45
761.754	17268.26
762.091	17252.89
762.428	17277.75
762.765	17199.79
763.102	17187.13
763.438	17215.38
763.775	17083.41
764.112	17131.32
764.449	17118.89
764.785	17002.5
765.122	16962.73
765.458	16860.36
765.795	16859.91
766.131	16815.39
766.467	16866.69
766.804	16735.17
767.14	16644.32
767.476	16721.38
767.812	16545.79
768.148	16575.62
768.485	16577.88
768.821	16464.89
769.157	16392.13
769.492	16413.14
769.828	16354.84
770.164	16240.04
770.5	16252.69
770.836	16330.21
771.171	16129.76
771.507	16094.96
771.842	16043.43
772.178	15976.32
772.513	15965.92
772.849	15938.35
773.184	15855.87
773.519	15909.43
773.855	15833.5
774.19	15713.27
774.525	15637.57
774.86	15727.51
775.195	15667.17
775.53	15605.71
775.865	15450
776.2	15429.44
776.535	15293.4
776.87	15372.72
777.205	15299.95
777.539	15140.86
777.874	15239.16
778.209	15129.56
778.543	15064.25
778.878	15017.25
779.212	15038.26
779.547	14991.71
779.881	14887.31
780.215	14839.4
780.55	14859.74
780.884	14742.9
781.218	14755.56
781.552	14780.64
781.886	14692.96
782.22	14621.55
782.554	14535.9
782.888	14402.35
783.222	14336.13
783.556	14327.1
783.889	14233.99
784.223	14260.2
784.557	14158.29
784.89	14244.16
785.224	14076.93
785.557	14057.72
785.891	14060.21
786.224	13961
786.558	13946.09
786.891	13831.51
787.224	13907.45
787.557	13778.41
787.891	13813.66
788.224	13743.83
788.557	13684.63
788.89	13735.02
789.223	13750.16
789.556	13498.42
789.888	13540.9
790.221	13504.52
790.554	13359.66
790.887	13415.93
791.219	13384.07
791.552	13345.88
791.884	13284.18
792.217	13232.21
792.549	13177.07
792.882	13090.29
793.214	13149.72
793.546	13047.81
793.879	13118.09
794.211	12900.24
794.543	12894.59
794.875	12896.17
795.207	12995.38
795.539	12928.71
795.871	12857.98
796.203	12756.97
796.535	12716.74
796.867	12716.29
797.198	12654.6
797.53	12694.37
797.862	12650.3
798.193	12600.36
798.525	12553.81
798.856	12509.52
799.188	12412.8
799.519	12382.29
799.85	12293.02
800.182	12289.63
800.513	12373.93
800.844	12246.25
801.175	12284.44
801.506	12179.81
801.837	12157.66
802.168	12162.18
802.499	12154.72
802.83	11990.21
803.161	12070.66
803.491	12031.34
803.822	12036.99
804.153	11929.64
804.483	11881.74
804.814	11789.53
805.145	11844
805.475	11820.04
805.805	11708.86
806.136	11778.24
806.466	11736.43
806.796	11714.96
807.126	11669.99
807.457	11675.19
807.787	11582.08
808.117	11567.17
808.447	11492.59
808.777	11520.62
809.107	11526.72
809.436	11471.8
809.766	11471.35
810.096	11394.97
810.426	11397.23
810.755	11369.88
811.085	11331.24
811.414	11327.4
811.744	11287.63
812.073	11249.44
812.403	11183
812.732	11195.65
813.061	11186.61
813.39	11137.8
813.719	11154.3
814.049	11187.52
814.378	11125.15
814.707	11081.3
815.036	11056.67
815.365	11011.25
815.693	10909.78
816.022	10925.6
816.351	10839.05
816.68	10810.35
817.008	10936
817.337	10817.36
817.665	10789.56
817.994	10819.62
818.322	10759.28
818.651	10695.33
818.979	10704.14
819.307	10715.89
819.636	10674.08
819.964	10600.87
820.292	10639.51
820.62	10682.45
820.948	10665.5
821.276	10672.95
821.604	10663.01
821.932	10677.7
822.259	10636.12
822.587	10692.84
822.915	10547.08
823.243	10653.07
823.57	10593.41
823.898	10634.08
824.225	10583.92
824.553	10613.29
824.88	10603.8
825.207	10638.38
825.535	10571.49
825.862	10600.87
826.189	10580.07
826.516	10669.34
826.843	10644.93
827.17	10658.72
827.497	10559.96
827.824	10618.94
828.151	10642.22
828.478	10575.33
828.805	10652.62
829.131	10616.01
829.458	10593.63
829.785	10576.69
830.111	10552.28
830.438	10620.3
830.764	10582.56
831.09	10535.78
831.417	10595.67
831.743	10641.77
832.069	10649.9
832.395	10550.25
832.722	10540.3
833.048	10524.94
833.374	10575.78
833.7	10540.75
834.026	10573.3
834.351	10606.97
834.677	10548.21
835.003	10572.84
835.329	10583.24
835.654	10535.56
835.98	10458.95
836.306	10517.03
836.631	10498.72
836.956	10515.22
837.282	10493.07
837.607	10420.76
837.932	10361.1
838.258	10477.48
838.583	10431.38
838.908	10330.36
839.233	10338.27
839.558	10378.05
839.883	10262.8
840.208	10296.24
840.533	10350.02
840.858	10279.29
841.182	10327.65
841.507	10339.4
841.832	10228.45
842.156	10236.81
842.481	10173.31
842.805	10218.73
843.13	10148.67
843.454	10076.13
843.778	10049.47
844.103	10073.42
844.427	10036.59
844.751	10077.94
845.075	10033.42
845.399	9919.75
845.723	9976.25
846.047	10006.3
846.371	9846.31
846.695	9859.87
847.019	9836.59
847.343	9768.57
847.666	9686.77
847.99	9652.19
848.313	9677.05
848.637	9540.55
848.96	9552.31
849.284	9588.24
849.607	9540.55
849.931	9455.13
850.254	9457.62
850.577	9351.86
850.9	9373.33
851.223	9316.38
851.546	9286.55
851.869	9206.78
852.192	9221.92
852.515	9148.25
852.838	9104.18
853.161	9142.15
853.483	9044.3
853.806	9078.65
854.129	9025.31
854.451	9023.73
854.774	8969.95
855.096	8922.49
855.419	8940.8
855.741	8951.64
856.063	8829.39
856.385	8819.22
856.708	8823.51
857.03	8760.24
857.352	8725.89
857.674	8775.38
857.996	8752.55
858.318	8693.12
858.64	8694.93
858.961	8652.89
859.283	8629.62
859.605	8555.95
859.926	8639.11
860.248	8641.14
860.57	8580.35
860.891	8552.56
861.212	8551.2
861.534	8491.99
861.855	8463.52
862.176	8478.44
862.498	8492.45
862.819	8453.13
863.14	8439.79
863.461	8456.51
863.782	8394.37
864.103	8411.32
864.424	8408.83
864.745	8396.18
865.065	8408.15
865.386	8341.94
865.707	8310.08
866.027	8317.54
866.348	8346.01
866.668	8312.56
866.989	8278.67
867.309	8207.71
867.63	8267.59
867.95	8218.1
868.27	8176.75
868.59	8186.47
868.91	8158.22
869.23	8119.35
869.55	8185.34
869.87	8232.34
870.19	8110.08
870.51	8212.23
870.83	8132
871.15	8116.64
871.469	8049.52
871.789	8113.93
872.109	8089.97
872.428	7980.6
872.748	8018.79
873.067	8017.88
873.386	8099.01
873.706	8057.2
874.025	7961.16
874.344	7956.64
874.663	8021.05
874.982	7965.68
875.301	8013.81
875.62	7898.56
875.939	7882.29
876.258	8000.93
876.577	7839.36
876.896	7840.03
877.214	7872.8
877.533	7907.6
877.852	7949.86
878.17	7809.07
878.489	7835.97
878.807	7820.15
879.125	7807.94
879.444	7845.68
879.762	7785.12
880.08	7801.84
880.398	7777.21
880.716	7736.08
881.034	7643.2
881.352	7705.35
881.67	7698.12
881.988	7666.03
882.306	7652.69
882.624	7645.69
882.941	7633.71
883.259	7612.92
883.577	7650.66
883.894	7601.62
884.212	7499.48
884.529	7513.26
884.846	7539.02
885.164	7475.75
885.481	7489.08
885.798	7512.81
886.115	7427.62
886.432	7459.25
886.75	7390.55
887.067	7449.31
887.383	7377
887.7	7406.37
888.017	7351.01
888.334	7360.05
888.651	7312.59
888.967	7339.48
889.284	7317.34
889.6	7313.95
889.917	7238.69
890.233	7209.09
890.55	7177
890.866	7204.57
891.182	7151.24
891.498	7168.41
891.815	7122.54
892.131	7127.96
892.447	7059.26
892.763	7068.53
893.079	7020.39
893.395	7084.8
893.71	7005.93
894.026	7012.49
894.342	6945.59
894.657	6924.8
894.973	6964.8
895.289	6892.49
895.604	6911.02
895.92	6847.29
896.235	6817.91
896.55	6844.81
896.865	6800.51
897.181	6817.46
897.496	6809.55
897.811	6729.33
898.126	6737.24
898.441	6724.58
898.756	6696.79
899.071	6659.27
899.386	6678.26
899.7	6605.94
900.015	6577.69
900.33	6536.79
900.644	6558.03
900.959	6558.49
901.273	6536.57
901.588	6489.79
901.902	6444.14
902.216	6362.33
902.531	6433.74
902.845	6346.29
903.159	6403.24
903.473	6347.42
903.787	6317.59
904.101	6350.36
904.415	6311.94
904.729	6268.32
905.042	6244.37
905.356	6190.81
905.67	6234.2
905.984	6191.04
906.297	6148.55
906.611	6118.5
906.924	6151.26
907.237	6088.22
907.551	6136.12
907.864	5967.77
908.177	6008.44
908.491	6034.88
908.804	6019.97
909.117	5956.47
909.43	5943.59
909.743	5908.56
910.056	5907.2
910.368	5855.45
910.681	5886.41
910.994	5784.49
911.307	5745.85
911.619	5798.05
911.932	5733.65
912.244	5679.64
912.557	5713.76
912.869	5722.12
913.181	5695.68
913.494	5650.71
913.806	5592.41
914.118	5612.97
914.43	5556.7
914.742	5561.68
915.054	5535.24
915.366	5549.47
915.678	5460.66
915.99	5459.98
916.302	5377.27
916.613	5400.55
916.925	5412.53
917.236	5389.48
917.548	5348.35
917.859	5344.51
918.171	5336.37
918.482	5260.89
918.794	5298.41
919.105	5279.88
919.416	5229.26
919.727	5256.37
920.038	5224.28
920.349	5143.38
920.66	5175.7
920.971	5107
921.282	5117.39
921.593	5072.65
921.903	5063.16
922.214	5071.75
922.525	5064.29
922.835	5014.57
923.146	4955.59
923.456	4951.07
923.767	4937.06
924.077	4963.73
924.387	4888.02
924.697	4916.5
925.008	4910.62
925.318	4850.51
925.628	4845.31
925.938	4817.74
926.248	4727.8
926.558	4736.84
926.867	4774.35
927.177	4741.81
927.487	4673.79
927.796	4673.34
928.106	4718.99
928.416	4666.78
928.725	4645.99
929.034	4616.62
929.344	4643.06
929.653	4590.63
929.962	4517.18
930.271	4564.41
930.581	4505.21
930.89	4506.34
931.199	4460.46
931.508	4446
931.817	4420.69
932.125	4442.16
932.434	4413.46
932.743	4395.38
933.051	4340.24
933.36	4345.44
933.669	4317.87
933.977	4271.31
934.286	4316.74
934.594	4286.46
934.902	4270.18
935.21	4225.89
935.519	4247.13
935.827	4203.29
936.135	4186.12
936.443	4158.1
936.751	4198.1
937.059	4150.64
937.367	4179.57
937.674	4162.84
937.982	4126.23
938.29	4053.47
938.597	4068.16
938.905	4034.26
939.213	4026.35
939.52	4009.63
939.827	3982.73
940.135	3994.03
940.442	3992.23
940.749	3912.23
941.056	3956.52
941.363	3951.1
941.67	3950.19
941.977	3897.54
942.284	3872.68
942.591	3866.81
942.898	3824.32
943.205	3803.53
943.511	3828.61
943.818	3819.57
944.125	3760.37
944.431	3734.83
944.738	3741.61
945.044	3713.14
945.35	3714.27
945.657	3725.11
945.963	3713.59
946.269	3668.62
946.575	3697.32
946.881	3650.54
947.187	3646.92
947.493	3587.04
947.799	3572.58
948.105	3615.96
948.41	3535.06
948.716	3581.39
949.022	3515.4
949.327	3539.36
949.633	3516.08
949.938	3482.18
950.244	3551.56
950.549	3505.91
950.854	3448.06
951.16	3421.39
951.465	3425.46
951.77	3396.08
952.075	3375.74
952.38	3381.62
952.685	3353.37
952.99	3322.64
953.294	3374.39
953.599	3343.66
953.904	3318.12
954.209	3319.02
954.513	3297.55
954.818	3247.39
955.122	3296.42
955.426	3275.86
955.731	3284
956.035	3210.33
956.339	3238.35
956.643	3174.62
956.948	3156.77
957.252	3187.73
957.556	3150.67
957.86	3134.17
958.163	3150.44
958.467	3121.06
958.771	3084
959.075	3075.41
959.378	3040.84
959.682	3089.2
959.985	3026.15
960.289	3032.25
960.592	3022.53
960.896	3028.64
961.199	2979.14
961.502	3003.32
961.805	2960.61
962.108	2920.39
962.411	2928.98
962.714	2950.45
963.017	2915.87
963.32	2906.83
963.623	2885.36
963.926	2914.51
964.228	2817.79
964.531	2886.49
964.833	2868.64
965.136	2874.51
965.438	2799.71
965.741	2819.15
966.043	2774.18
966.345	2817.12
966.648	2770.34
966.95	2783.9
967.252	2751.13
967.554	2750.22
967.856	2735.76
968.158	2728.98
968.46	2698.25
968.761	2706.16
969.063	2688.31
969.365	2698.7
969.666	2657.8
969.968	2648.31
970.269	2643.33
970.571	2632.49
970.872	2663.67
971.174	2607.86
971.475	2619.15
971.776	2591.13
972.077	2575.54
972.378	2559.49
972.679	2581.42
972.98	2532.83
973.281	2520.85
973.582	2548.2
973.883	2558.82
974.183	2517.01
974.484	2484.02
974.785	2445.83
975.085	2485.15
975.386	2484.92
975.686	2445.37
975.986	2481.08
976.287	2413.28
976.587	2409.44
976.887	2435.66
977.187	2396.11
977.487	2401.53
977.787	2393.17
978.087	2386.39
978.387	2378.71
978.687	2370.57
978.987	2344.13
979.286	2343.91
979.586	2306.39
979.885	2320.41
980.185	2313.63
980.484	2318.6
980.784	2263.46
981.083	2265.04
981.382	2267.3
981.682	2232.72
981.981	2259.62
982.28	2247.86
982.579	2215.32
982.878	2226.4
983.177	2240.41
983.475	2231.37
983.774	2169.67
984.073	2202.44
984.372	2166.06
984.67	2179.84
984.969	2138.71
985.267	2151.6
985.566	2159.05
985.864	2126.74
986.162	2117.25
986.461	2137.81
986.759	2082.9
987.057	2104.14
987.355	2088.32
987.653	2077.7
987.951	2047.42
988.249	2098.72
988.547	2045.38
988.844	2025.5
989.142	2022.56
989.44	2056.01
989.737	2009
990.035	2027.08
990.332	1989.57
990.63	2005.61
990.927	1996.35
991.224	2024.82
991.521	1965.84
991.819	1964.03
992.116	1971.26
992.413	1950.7
992.71	1930.58
993.006	1932.84
993.303	1919.74
993.6	1920.64
993.897	1924.03
994.193	1860.76
994.49	1873.41
994.787	1903.01
995.083	1867.54
995.379	1844.03
995.676	1819.18
995.972	1831.38
996.268	1827.76
996.565	1827.54
996.861	1823.47
997.157	1822.79
997.453	1808.1
997.749	1803.13
998.044	1793.64
998.34	1778.95
998.636	1752.28
998.932	1776.69
999.227	1715
999.523	1714.55
999.818	1748.22
1000.114	1710.03
1000.409	1721.55
1000.704	1706.18
1001	1704.38
1001.295	1678.61
1001.59	1682
1001.885	1712.29
1002.18	1670.93
1002.475	1665.28
1002.77	1656.24
1003.065	1640.65
1003.359	1627.09
1003.654	1597.94
1003.949	1621.44
1004.243	1592.97
1004.538	1588.67
1004.832	1574.66
1005.127	1562.46
1005.421	1574.66
1005.715	1562.91
1006.009	1540.76
1006.304	1575.79
1006.598	1548.67
1006.892	1547.54
1007.186	1532.86
1007.48	1531.73
1007.773	1514.32
1008.067	1509.58
1008.361	1487.88
1008.655	1460.09
1008.948	1484.04
1009.242	1473.2
1009.535	1454.21
1009.829	1441.33
1010.122	1461.44
1010.415	1456.7
1010.708	1411.05
1011.001	1406.98
1011.295	1419.64
1011.588	1387.1
1011.881	1388.68
1012.173	1385.51
1012.466	1396.81
1012.759	1381.67
1013.052	1369.92
1013.344	1377.83
1013.637	1359.75
1013.93	1327.89
1014.222	1359.53
1014.514	1321.56
1014.807	1322.24
1015.099	1310.94
1015.391	1302.13
1015.683	1293.54
1015.976	1301.9
1016.268	1321.56
1016.56	1293.31
1016.851	1255.57
1017.143	1281.11
1017.435	1268.68
1017.727	1232.3
1018.018	1250.83
1018.31	1248.79
1018.602	1242.02
1018.893	1209.93
1019.185	1217.16
1019.476	1195.91
1019.767	1233.2
1020.058	1191.85
1020.35	1174.9
1020.641	1197.72
1020.932	1172.86
1021.223	1185.52
1021.514	1177.84
1021.804	1161.79
1022.095	1157.95
1022.386	1181.23
1022.677	1155.46
1022.967	1146.65
1023.258	1120.89
1023.548	1120.44
1023.839	1111.4
1024.129	1062.13
1024.419	1112.53
1024.709	1073.66
1025	1091.51
1025.29	1086.09
1025.58	1035.24
1025.87	1065.52
1026.16	1050.83
1026.449	1034.79
1026.739	1039.99
1027.029	1039.53
1027.319	1038.86
1027.608	1004.73
1027.898	1013.09
1028.187	1023.72
1028.477	1005.86
1028.766	1016.94
1029.055	992.76
1029.344	1022.13
1029.634	1000.21
1029.923	977.16
1030.212	964.73
1030.501	959.31
1030.79	945.07
1031.078	954.57
1031.367	949.37
1031.656	938.75
1031.945	934
1032.233	933.77
1032.522	913.21
1032.81	917.73
1033.099	900.78
1033.387	901.91
1033.675	891.52
1033.963	905.53
1034.251	906.2
1034.54	921.57
1034.828	855.13
1035.116	849.71
1035.403	862.36
1035.691	858.52
1035.979	854.91
1036.267	867.34
1036.554	826.43
1036.842	840.22
1037.129	831.86
1037.417	856.04
1037.704	816.94
1037.992	832.31
1038.279	820.78
1038.566	821.69
1038.853	821.69
1039.14	821.69
