Data from cardboard_FLMS001491_075.txt Node
Date: Tue Feb 07 11:40:07 GMT 2017
User: dcchb
Spectrometer: FLMS00149
Trigger mode: 0
Integration Time (sec): 2.000000E-2
Scans to average: 10
Electric dark correction enabled: true
Nonlinearity correction enabled: false
Boxcar width: 0
XAxis mode: Wavelengths
Number of Pixels in Spectrum: 2048
>>>>>Begin Spectral Data<<<<<
341.393	-25.39
341.776	-25.39
342.16	-25.39
342.543	-63.59
342.927	-71.5
343.31	-67.88
343.693	-68.56
344.077	-70.14
344.46	-54.32
344.843	-54.09
345.226	-33.53
345.61	-24.26
345.993	-22.01
346.376	-20.65
346.759	9.86
347.142	21.61
347.525	40.14
347.908	63.87
348.291	78.33
348.674	102.29
349.057	99.35
349.44	128.5
349.823	140.7
350.206	167.82
350.588	201.49
350.971	209.4
351.354	231.77
351.737	233.81
352.119	236.75
352.502	269.74
352.884	272.45
353.267	278.78
353.65	275.61
354.032	292.56
354.414	310.87
354.797	320.58
355.179	311.09
355.562	322.39
355.944	308.83
356.326	331.43
356.709	349.96
357.091	321.04
357.473	319.23
357.855	333.92
358.238	323.07
358.62	336.86
359.002	324.65
359.384	342.51
359.766	349.96
360.148	330.98
360.53	335.05
360.912	316.29
361.294	330.08
361.676	303.18
362.057	316.74
362.439	341.83
362.821	315.84
363.203	328.27
363.584	301.38
363.966	318.32
364.348	319.91
364.729	319.91
365.111	304.09
365.493	308.16
365.874	312.22
366.256	300.25
366.637	314.26
367.019	310.87
367.4	297.99
367.781	309.51
368.163	297.76
368.544	314.94
368.925	307.48
369.306	312.9
369.688	305.44
370.069	287.14
370.45	300.02
370.831	301.83
371.212	311.32
371.593	304.77
371.974	286.69
372.355	306.57
372.736	311.55
373.117	320.81
373.498	307.03
373.879	316.29
374.26	308.61
374.641	306.12
375.021	295.27
375.402	308.61
375.783	298.66
376.163	308.38
376.544	302.73
376.925	306.57
377.305	294.82
377.686	330.08
378.066	319.45
378.447	333.92
378.827	332.79
379.208	321.26
379.588	332.34
379.968	301.6
380.349	338.21
380.729	333.24
381.109	326.69
381.489	339.12
381.87	324.88
382.25	323.75
382.63	331.21
383.01	323.52
383.39	333.69
383.77	320.36
384.15	326.01
384.53	327.59
384.91	334.82
385.29	364.43
385.67	350.19
386.049	347.25
386.429	359.91
386.809	352.67
387.189	344.31
387.568	371.88
387.948	357.19
388.328	359.68
388.707	359.91
389.087	353.8
389.466	356.29
389.846	365.1
390.225	343.18
390.605	357.19
390.984	336.86
391.363	343.41
391.743	353.8
392.122	344.76
392.501	382.5
392.881	370.75
393.26	357.42
393.639	380.02
394.018	373.24
394.397	379.79
394.776	382.73
395.155	378.89
395.534	372.56
395.913	383.41
396.292	394.03
396.671	380.02
397.05	399.68
397.429	397.42
397.808	369.4
398.186	391.54
398.565	387.93
398.944	397.19
399.323	388.38
399.701	395.16
400.08	387.93
400.458	394.26
400.837	391.54
401.215	371.2
401.594	380.92
401.972	404.65
402.351	413.69
402.729	392.45
403.107	415.27
403.486	418.66
403.864	424.31
404.242	406.91
404.62	427.25
404.999	414.14
405.377	423.41
405.755	436.74
406.133	426.34
406.511	429.28
406.889	425.21
407.267	448.94
407.645	450.07
408.023	431.99
408.401	423.18
408.779	427.47
409.156	450.07
409.534	458.66
409.912	437.64
410.29	455.5
410.667	453.24
411.045	443.97
411.422	453.46
411.8	507.02
412.178	475.16
412.555	474.25
412.933	488.04
413.31	467.02
413.687	471.99
414.065	489.39
414.442	480.35
414.819	521.94
415.197	502.27
415.574	511.99
415.951	516.96
416.328	501.15
416.705	510.18
417.082	525.55
417.46	504.76
417.837	529.84
418.214	517.64
418.591	516.06
418.967	526.46
419.344	538.21
419.721	537.98
420.098	536.4
420.475	548.15
420.852	536.85
421.228	568.49
421.605	540.01
421.982	546.79
422.358	535.49
422.735	576.4
423.111	556.96
423.488	576.4
423.864	564.87
424.241	593.8
424.617	583.63
424.994	596.51
425.37	582.95
425.746	598.77
426.123	581.37
426.499	596.74
426.875	594.7
427.251	620.24
427.627	604.87
428.003	629.28
428.379	629.05
428.756	647.58
429.132	638.77
429.507	641.25
429.883	649.39
430.259	649.84
430.635	663.4
431.011	653.68
431.387	653.23
431.763	655.94
432.138	670.41
432.514	666.34
432.89	707.24
433.265	705.89
433.641	696.85
434.016	716.51
434.392	710.63
434.767	741.36
435.143	736.17
435.518	711.76
435.894	751.08
436.269	711.53
436.644	765.77
437.02	767.58
437.395	760.12
437.77	751.08
438.145	770.06
438.52	749.5
438.895	780.01
439.271	761.25
439.646	790.18
440.021	762.16
440.395	825.66
440.77	796.73
441.145	808.71
441.52	798.31
441.895	813.23
442.27	809.16
442.645	851.64
443.019	830.4
443.394	835.83
443.769	829.95
444.143	837.63
444.518	846.22
444.892	853
445.267	843.51
445.641	885.09
446.016	873.34
446.39	878.76
446.764	883.28
447.139	855.49
447.513	885.09
447.887	886.22
448.262	896.84
448.636	909.95
449.01	915.82
449.384	900.23
449.758	923.05
450.132	944.75
450.506	938.2
450.88	950.85
451.254	947.23
451.628	984.75
452.002	950.4
452.376	958.99
452.75	998.31
453.123	983.84
453.497	1023.17
453.871	1015.48
454.244	1019.55
454.618	1024.52
454.992	1028.59
455.365	1027.46
455.739	1023.62
456.112	1080.79
456.486	1080.34
456.859	1072.43
457.232	1092.09
457.606	1091.19
457.979	1119.89
458.352	1112.2
458.725	1150.62
459.099	1149.04
459.472	1145.42
459.845	1157.4
460.218	1179.55
460.591	1183.16
460.964	1183.61
461.337	1239.2
461.71	1212.99
462.083	1276.72
462.456	1262.25
462.829	1263.16
463.201	1245.08
463.574	1273.33
463.947	1295.7
464.32	1324.85
464.692	1330.5
465.065	1355.36
465.438	1343.61
465.81	1373.44
466.183	1389.26
466.555	1390.84
466.928	1436.94
467.3	1452.31
467.672	1434.68
468.045	1485.98
468.417	1474
468.789	1474.9
469.161	1483.72
469.534	1516.26
469.906	1556.03
470.278	1563.72
470.65	1579.53
471.022	1580.44
471.394	1640.1
471.766	1653.88
472.138	1666.31
472.51	1688.68
472.882	1720.77
473.253	1745.86
473.625	1751.51
473.997	1770.72
474.369	1766.2
474.74	1841
475.112	1830.6
475.484	1879.41
475.855	1915.8
476.227	1920.54
476.598	1984.95
476.97	1971.84
477.341	2012.07
477.713	2038.05
478.084	2077.37
478.455	2126.41
478.827	2119.63
479.198	2185.17
479.569	2219.52
479.94	2242.34
480.311	2262.45
480.682	2336.35
481.053	2379.97
481.424	2374.99
481.795	2443.24
482.166	2429.46
482.537	2501.54
482.908	2520.98
483.279	2547.42
483.65	2629.68
484.021	2626.96
484.391	2663.35
484.762	2728.21
485.133	2759.62
485.503	2771.59
485.874	2837.13
486.244	2865.15
486.615	2921.42
486.985	2940.63
487.356	2984.02
487.726	3066.05
488.097	3073.05
488.467	3118.03
488.837	3144.92
489.207	3210.45
489.578	3261.75
489.948	3304.91
490.318	3388.53
490.688	3409.09
491.058	3447.06
491.428	3513.95
491.798	3535.87
492.168	3586.94
492.538	3602.76
492.908	3644.11
493.278	3703.55
493.648	3732.92
494.017	3810.89
494.387	3852.24
494.757	3827.84
495.126	3941.05
495.496	3946.93
495.866	3999.81
496.235	4032.35
496.605	4033.03
496.974	4110.77
497.344	4119.58
497.713	4170.65
498.082	4205.91
498.452	4259.24
498.821	4282.74
499.19	4323.19
499.559	4350.76
499.928	4372.46
500.298	4419.46
500.667	4491.32
501.036	4525.22
501.405	4523.19
501.774	4539.46
502.143	4659.68
502.512	4615.39
502.88	4716.18
503.249	4716.18
503.618	4758.43
503.987	4791.43
504.356	4836.4
504.724	4890.86
505.093	4914.36
505.462	4927.24
505.83	4985.32
506.199	5045.43
506.567	5061.48
506.936	5113.91
507.304	5177.41
507.672	5249.72
508.041	5275.03
508.409	5337.18
508.777	5406.78
509.145	5397.74
509.514	5473.44
509.882	5499.66
510.25	5551.18
510.618	5564.51
510.986	5634.12
511.354	5726.32
511.722	5745.07
512.09	5829.59
512.458	5827.56
512.826	5878.63
513.193	5895.81
513.561	6004.28
513.929	6049.02
514.297	6143.48
514.664	6200.88
515.032	6188.45
515.4	6179.19
515.767	6263.93
516.135	6371.05
516.502	6372.86
516.869	6469.58
517.237	6562.68
517.604	6508.9
517.972	6556.8
518.339	6670.7
518.706	6705.5
519.073	6781.88
519.44	6819.4
519.808	6901.2
520.175	6921.54
520.542	7056.9
520.909	7078.83
521.276	7131.71
521.643	7227.75
522.009	7351.13
522.376	7397.23
522.743	7415.77
523.11	7555.2
523.477	7652.6
523.843	7626.61
524.21	7752.03
524.577	7818.69
524.943	7891.69
525.31	7953.6
525.676	8076.99
526.043	8099.14
526.409	8143.43
526.776	8319.24
527.142	8317.89
527.508	8420.48
527.874	8459.81
528.241	8569.63
528.607	8635.39
528.973	8742.74
529.339	8684.43
529.705	8830.42
530.071	8943.18
530.437	9046.23
530.803	9032.9
531.169	9150.18
531.535	9191.54
531.901	9217.07
532.267	9321.48
532.632	9430.85
532.998	9434.02
533.364	9497.97
533.73	9613.45
534.095	9695.03
534.461	9724.41
534.826	9759.21
535.192	9832.88
535.557	9968.92
535.923	9949.03
536.288	10040.33
536.653	10082.59
537.019	10149.25
537.384	10197.16
537.749	10289.14
538.114	10267.89
538.479	10313.09
538.845	10452.07
539.21	10450.26
539.575	10558.51
539.94	10585.17
540.305	10671.27
540.67	10678.73
541.034	10771.61
541.399	10819.74
541.764	10837.6
542.129	10939.51
542.494	10960.98
542.858	11052.51
543.223	11148.55
543.587	11236.23
543.952	11196.91
544.316	11308.54
544.681	11262.67
545.045	11464.92
545.41	11455.89
545.774	11511.48
546.138	11547.86
546.503	11585.83
546.867	11701.98
547.231	11799.15
547.595	11852.26
547.959	11904.46
548.324	11934.52
548.688	11948.53
549.052	12132.7
549.416	12123.66
549.779	12180.61
550.143	12238.92
550.507	12327.5
550.871	12351.45
551.235	12392.13
551.599	12522.07
551.962	12562.07
552.326	12651.33
552.689	12747.38
553.053	12799.58
553.417	12860.14
553.78	12933.59
554.143	12995.96
554.507	13062.4
554.87	13131.55
555.234	13295.38
555.597	13231.43
555.96	13369.96
556.323	13426.68
556.686	13424.65
557.05	13612.21
557.413	13651.76
557.776	13701.02
558.139	13797.97
558.502	13846.78
558.865	13948.93
559.228	14038.87
559.59	14171.07
559.953	14255.36
560.316	14384.4
560.679	14342.81
561.041	14392.08
561.404	14545.97
561.767	14692.86
562.129	14580.55
562.492	14798.85
562.854	14885.85
563.217	14958.84
563.579	14951.39
563.941	15081.78
564.304	15247.65
564.666	15370.58
565.028	15339.62
565.39	15426.4
565.753	15577.58
566.115	15561.54
566.477	15671.59
566.839	15815.77
567.201	15949.33
567.563	15957.69
567.925	16236.78
568.287	16165.59
568.648	16214.63
569.01	16279.94
569.372	16437.68
569.734	16364
570.095	16571.68
570.457	16604.45
570.819	16646.71
571.18	16795.41
571.542	16801.06
571.903	16858
572.265	16969.86
572.626	16982.75
572.987	17120.14
573.349	17187.94
573.71	17220.25
574.071	17310.65
574.432	17440.13
574.794	17521.26
575.155	17557.87
575.516	17426.35
575.877	17645.33
576.238	17621.82
576.599	17740.24
576.96	17878.09
577.32	17879.67
577.681	17970.29
578.042	18003.74
578.403	18016.62
578.763	18202.6
579.124	18074.47
579.485	18192.43
579.845	18310.17
580.206	18290.06
580.566	18281.92
580.927	18477.17
581.287	18476.94
581.648	18368.47
582.008	18629.26
582.368	18535.02
582.728	18646.66
583.089	18640.33
583.449	18619.76
583.809	18792.42
584.169	18794.68
584.529	18754.45
584.889	18932.3
585.249	18764.39
585.609	18897.95
585.969	18966.65
586.329	18859.53
586.688	18894.33
587.048	18997.61
587.408	18896.59
587.768	19025.86
588.127	19098.17
588.487	19022.24
588.846	19290.03
589.206	19127.32
589.565	19211.39
589.925	19304.94
590.284	19262.46
590.643	19309.01
591.003	19478.95
591.362	19500.19
591.721	19409.8
592.08	19487.09
592.44	19569.57
592.799	19520.98
593.158	19590.36
593.517	19628.55
593.876	19514.88
594.235	19607.31
594.593	19613.41
594.952	19685.05
595.311	19617.03
595.67	19737.25
596.029	19833.29
596.387	19819.51
596.746	19957.58
597.104	19829.68
597.463	19829.22
597.822	19896.34
598.18	19909.9
598.538	19871.03
598.897	20102.44
599.255	19847.08
599.613	20192.38
599.972	20010.24
600.33	20236.9
600.688	20172.94
601.046	20229.67
601.404	20234.19
601.762	20316.9
602.12	20361.19
602.478	20366.61
602.836	20341.3
603.194	20276.22
603.552	20379.49
603.91	20382.2
604.268	20538.13
604.625	20403.67
604.983	20552.14
605.341	20450.68
605.698	20627.85
606.056	20725.02
606.413	20647.28
606.771	20678.69
607.128	20816.09
607.485	20771.35
607.843	20818.35
608.2	20946.48
608.557	20956.65
608.914	21006.59
609.272	21024.45
609.629	20975.41
609.986	21213.37
610.343	21119.36
610.7	21188.51
611.057	21179.02
611.414	21283.65
611.771	21219.47
612.127	21387.15
612.484	21355.51
612.841	21449.75
613.198	21412.46
613.554	21421.72
613.911	21594.6
614.267	21509.41
614.624	21598.22
614.98	21657.88
615.337	21692.23
615.693	21680.25
616.05	21734.71
616.406	21878.66
616.762	21746.46
617.118	21766.8
617.475	21797.99
617.831	21905.55
618.187	21740.36
618.543	21988.72
618.899	22114.59
619.255	22061.48
619.611	22130.18
619.967	22140.58
620.323	22171.54
620.678	22139.67
621.034	22145.77
621.39	22141.93
621.746	22137.86
622.101	22381.02
622.457	22192.55
622.812	22291.76
623.168	22346.67
623.523	22300.57
623.879	22482.94
624.234	22236.39
624.589	22431.19
624.945	22420.57
625.3	22510.74
625.655	22489.72
626.01	22456.05
626.365	22490.62
626.72	22536.5
627.075	22487.23
627.43	22519.55
627.785	22481.81
628.14	22470.96
628.495	22533.56
628.85	22452.88
629.205	22435.71
629.559	22629.83
629.914	22427.57
630.269	22542.6
630.623	22419.89
630.978	22454.01
631.332	22544.41
631.687	22658.3
632.041	22518.65
632.396	22627.12
632.75	22498.31
633.104	22560.23
633.459	22387.8
633.813	22356.16
634.167	22526.55
634.521	22433
634.875	22455.37
635.229	22489.72
635.583	22341.93
635.937	22314.36
636.291	22375.37
636.645	22416.95
636.999	22353.23
637.352	22388.03
637.706	22372.66
638.06	22319.1
638.413	22304.19
638.767	22214.7
639.121	22286.33
639.474	22200.69
639.828	22163.85
640.181	22317.07
640.534	22281.36
640.888	22203.17
641.241	22229.61
641.594	22199.78
641.947	22253.12
642.301	22207.69
642.654	22254.47
643.007	22342.15
643.36	22123.85
643.713	22164.3
644.066	22201.82
644.419	22057.64
644.771	22053.12
645.124	21845.67
645.477	21880.47
645.83	21717.08
646.182	21568.39
646.535	21505.56
646.888	21688.61
647.24	21538.78
647.593	21605.9
647.945	21652.23
648.298	21503.3
648.65	21438
649.002	21345.57
649.355	21419.69
649.707	21420.14
650.059	21589.18
650.411	21767.48
650.763	21864.65
651.115	22062.84
651.467	22001.37
651.819	22090.86
652.171	21994.14
652.523	21880.02
652.875	21922.5
653.227	21974.48
653.578	22025.32
653.93	21984.65
654.282	21910.07
654.633	21917.08
654.985	21939.45
655.337	22041.37
655.688	21929.06
656.039	22003.63
656.391	21869.4
656.742	21830.53
657.094	21830.3
657.445	22001.82
657.796	21912.11
658.147	21890.64
658.498	21894.71
658.849	21891.77
659.2	21877.53
659.551	21922.28
659.902	21998.43
660.253	21948.04
660.604	22004.99
660.955	21840.02
661.306	21924.99
661.656	21946.68
662.007	22025.78
662.358	21962.5
662.708	21960.92
663.059	21955.72
663.409	21813.35
663.76	21997.98
664.11	21913.24
664.461	22024.19
664.811	21995.04
665.161	22054.48
665.511	22053.35
665.862	22010.86
666.212	22063.97
666.562	22091.09
666.912	21989.85
667.262	21919.34
667.612	22082.5
667.962	22068.04
668.312	22110.07
668.662	22040.69
669.011	22102.38
669.361	22035.04
669.711	22063.06
670.06	22031.88
670.41	22105.77
670.76	22102.84
671.109	22066.68
671.459	21969.51
671.808	21941.49
672.157	22055.15
672.507	21954.37
672.856	21942.62
673.205	21994.59
673.554	22002.5
673.904	21917.98
674.253	22086.34
674.602	21942.62
674.951	21650.87
675.3	21604.77
675.649	21946.46
675.998	21837.53
676.346	21882.5
676.695	22051.76
677.044	21825.78
677.393	21869.85
677.741	21998.88
678.09	21832.79
678.438	21781.94
678.787	21900.36
679.135	21886.57
679.484	21673.92
679.832	21816.97
680.181	21628.5
680.529	21822.84
680.877	21734.94
681.225	21671.44
681.573	21825.56
681.922	21737.2
682.27	21633.92
682.618	21566.81
682.966	21555.73
683.314	21717.08
683.661	21490.42
684.009	21518.67
684.357	21325.46
684.705	21382.4
685.053	21516.19
685.4	21350.31
685.748	21362.29
686.095	21452.68
686.443	21184.89
686.79	21188.06
687.138	21335.4
687.485	21327.49
687.832	21214.27
688.18	21273.25
688.527	21111.9
688.874	21114.39
689.221	21097.21
689.568	20995.07
689.915	20952.58
690.262	21044.56
690.609	20983.09
690.956	20881.63
691.303	20824.23
691.65	20878.91
691.997	20852.47
692.344	20704.91
692.69	20645.93
693.037	20682.31
693.383	20524.35
693.73	20489.09
694.077	20429.21
694.423	20424.46
694.769	20425.82
695.116	20440.73
695.462	20379.49
695.808	20365.71
696.155	20376.33
696.501	20163.45
696.847	20164.13
697.193	20139.72
697.539	20186.5
697.885	20034.42
698.231	19899.73
698.577	19922.56
698.923	19850.01
699.269	19748.32
699.614	19853.18
699.96	19858.38
700.306	19746.06
700.651	19748.77
700.997	19622.68
701.342	19587.65
701.688	19553.75
702.033	19511.27
702.379	19525.28
702.724	19458.61
703.069	19568.89
703.415	19228.79
703.76	19278.28
704.105	19264.04
704.45	19301.1
704.795	19092.07
705.14	19076.93
705.485	19075.57
705.83	18986.53
706.175	19078.28
706.52	19048.91
706.865	18952.19
707.209	18847.56
707.554	18819.53
707.899	18912.86
708.243	18798.07
708.588	18820.44
708.932	18736.37
709.277	18730.95
709.621	18741.8
709.966	18610.5
710.31	18610.27
710.654	18551.97
710.998	18462.71
711.342	18441.46
711.687	18518.98
712.031	18320.79
712.375	18326.67
712.719	18421.58
713.063	18347.46
713.407	18383.84
713.75	18243.05
714.094	18193.34
714.438	18255.25
714.782	18218.87
715.125	18056.62
715.469	18087.58
715.812	18039.44
716.156	17920.8
716.499	18060.68
716.843	18079.21
717.186	17918.09
717.53	18091.42
717.873	17948.37
718.216	17925.32
718.559	17956.51
718.902	17778.66
719.246	17847.58
719.589	17775.72
719.932	17760.35
720.275	17748.38
720.617	17618.89
720.96	17648.04
721.303	17700.24
721.646	17740.92
721.989	17559
722.331	17647.59
722.674	17551.77
723.016	17587.25
723.359	17548.38
723.701	17626.34
724.044	17496.63
724.386	17430.42
724.729	17534.82
725.071	17487.82
725.413	17496.18
725.755	17486.91
726.097	17422.06
726.439	17295.96
726.782	17316.52
727.124	17434.03
727.465	17341.61
727.807	17324.88
728.149	17272.68
728.491	17303.19
728.833	17311.78
729.175	17231.1
729.516	17193.14
729.858	17251.21
730.199	17141.39
730.541	17216.41
730.882	17200.14
731.224	17156.53
731.565	17185.23
731.906	17152.46
732.248	17121.05
732.589	16938.45
732.93	17022.07
733.271	17049.86
733.612	17153.59
733.953	17076.98
734.294	16981.16
734.635	16924.44
734.976	16984.33
735.317	16939.81
735.658	16944.55
735.999	16977.55
736.339	16942.75
736.68	16942.75
737.021	16872.47
737.361	16869.98
737.702	16978.23
738.042	16877.89
738.383	16914.72
738.723	16928.51
739.063	16790.89
739.404	16862.97
739.744	16912.24
740.084	16820.72
740.424	16843.99
740.764	16903.2
741.104	16901.62
741.444	16770.77
741.784	16705.92
742.124	16804.45
742.464	16669.76
742.804	16721.51
743.143	16768.06
743.483	16635.86
743.823	16688.06
744.162	16609.2
744.502	16664.11
744.841	16628.63
745.181	16662.3
745.52	16582.98
745.86	16624.56
746.199	16639.48
746.538	16601.29
746.877	16585.02
747.216	16565.36
747.556	16550.44
747.895	16654.84
748.234	16583.89
748.573	16502.53
748.911	16568.52
749.25	16500.05
749.589	16478.58
749.928	16575.98
750.267	16514.96
750.605	16412.82
750.944	16371.46
751.283	16474.06
751.621	16377.56
751.96	16316.55
752.298	16320.62
752.636	16348.64
752.975	16368.52
753.313	16213.27
753.651	16356.32
753.989	16307.06
754.327	16210.34
754.666	16157.23
755.004	16171.92
755.342	16230.67
755.679	16093.96
756.017	16164.91
756.355	16280.17
756.693	16085.59
757.031	16090.79
757.368	16048.98
757.706	16119.72
758.044	16000.17
758.381	16024.13
758.719	15955.88
759.056	15990
759.394	15957.24
759.731	15837.46
760.068	15883.34
760.405	15812.38
760.743	15733.06
761.08	15763.57
761.417	15655.55
761.754	15685.15
762.091	15536.46
762.428	15646.96
762.765	15540.3
763.102	15609.9
763.438	15531.03
763.775	15393.18
764.112	15455.55
764.449	15483.35
764.785	15342.11
765.122	15220.98
765.458	15221.44
765.795	15200.87
766.131	15198.84
766.467	15098.05
766.804	15115.9
767.14	15081.55
767.476	15144.38
767.812	15086.3
768.148	15025.06
768.485	14875.46
768.821	14834.78
769.157	14853.31
769.492	14850.82
769.828	14806.31
770.164	14685.4
770.5	14706.65
770.836	14668.23
771.171	14599.08
771.507	14543.94
771.842	14534
772.178	14451.96
772.513	14441.12
772.849	14412.42
773.184	14363.61
773.519	14419.42
773.855	14255.36
774.19	14241.35
774.525	14098.75
774.86	14162.03
775.195	14097.85
775.53	14081.8
775.865	14044.74
776.2	13983.05
776.535	13862.15
776.87	13865.09
777.205	13861.25
777.539	13782.38
777.874	13828.25
778.209	13706
778.543	13697.63
778.878	13526.34
779.212	13670.52
779.547	13539.22
779.881	13531.54
780.215	13388.94
780.55	13498.09
780.884	13306.68
781.218	13274.37
781.552	13342.62
781.886	13253.58
782.22	13184.88
782.554	13103.98
782.888	13179.91
783.222	13019.01
783.556	13010.65
783.889	12952.34
784.223	12896.98
784.557	12880.71
784.89	12842.74
785.224	12865.79
785.557	12718.9
785.891	12738.79
786.224	12645.46
786.558	12665.57
786.891	12515.07
787.224	12539.02
787.557	12484.11
787.891	12449.76
788.224	12461.28
788.557	12418.35
788.89	12384.67
789.223	12392.58
789.556	12329.53
789.888	12343.55
790.221	12201.18
790.554	12158.69
790.887	12152.59
791.219	12131.8
791.552	12082.31
791.884	11976.32
792.217	12049.99
792.549	11958.47
792.882	11915.08
793.214	11883.44
793.546	11871.92
793.879	11819.27
794.211	11675.09
794.543	11805.93
794.875	11652.72
795.207	11735.88
795.539	11636.22
795.871	11646.84
796.203	11546.28
796.535	11500.63
796.867	11459.73
797.198	11493.4
797.53	11474.19
797.862	11411.59
798.193	11439.39
798.525	11376.57
798.856	11332.5
799.188	11260.18
799.519	11194.65
799.85	11152.16
800.182	11205.27
800.513	11153.29
800.844	11111.26
801.175	11078.04
801.506	11097.48
801.837	11062.22
802.168	10979.29
802.499	10976.12
802.83	10931.38
803.161	10934.32
803.491	10851.83
803.822	10937.93
804.153	10879.18
804.483	10779.74
804.814	10793.53
805.145	10704.49
805.475	10794.89
805.805	10680.31
806.136	10669.01
806.466	10660.65
806.796	10703.14
807.126	10556.93
807.457	10520.54
807.787	10588.79
808.117	10495.23
808.447	10463.14
808.777	10485.74
809.107	10392.64
809.436	10422.92
809.766	10399.42
810.096	10382.24
810.426	10335.24
810.755	10394.67
811.085	10274.22
811.414	10297.05
811.744	10168.46
812.073	10239.87
812.403	10213.66
812.732	10150.38
813.061	10152.64
813.39	10137.73
813.719	10067
814.049	10094.79
814.378	10093.66
814.707	10063.38
815.036	10122.59
815.365	10012.99
815.693	9866.77
816.022	9923.27
816.351	9935.47
816.68	9854.57
817.008	9839.66
817.337	9827.45
817.665	9749.26
817.994	9871.52
818.322	9810.28
818.651	9809.6
818.979	9740.9
819.307	9736.61
819.636	9718.3
819.964	9649.83
820.292	9752.88
820.62	9704.97
820.948	9604.41
821.276	9661.13
821.604	9667.68
821.932	9690.51
822.259	9641.92
822.587	9738.19
822.915	9692.32
823.243	9728.47
823.57	9637.4
823.898	9635.37
824.225	9629.04
824.553	9623.17
824.88	9636.27
825.207	9686.21
825.535	9557.63
825.862	9717.4
826.189	9588.82
826.516	9667.91
826.843	9659.32
827.17	9656.84
827.497	9694.58
827.824	9669.49
828.151	9729.6
828.478	9703.61
828.805	9660.9
829.131	9653.22
829.458	9699.32
829.785	9629.49
830.111	9623.62
830.438	9765.76
830.764	9672.43
831.09	9691.86
831.417	9595.14
831.743	9697.97
832.069	9637.63
832.395	9645.09
832.722	9731.18
833.048	9632.43
833.374	9692.09
833.7	9581.58
834.026	9583.17
834.351	9623.39
834.677	9606.44
835.003	9603.5
835.329	9574.8
835.654	9592.88
835.98	9588.36
836.306	9554.47
836.631	9496.39
836.956	9593.11
837.282	9576.39
837.607	9508.37
837.932	9493
838.258	9478.99
838.583	9487.35
838.908	9384.75
839.233	9464.53
839.558	9407.35
839.883	9452.1
840.208	9389.27
840.533	9354.25
840.858	9354.25
841.182	9380.01
841.507	9351.99
841.832	9309.5
842.156	9353.79
842.481	9330.07
842.805	9248.49
843.13	9275.83
843.454	9237.64
843.778	9206.23
844.103	9193.57
844.427	9138.43
844.751	9167.36
845.075	9169.17
845.399	9179.56
845.723	9029.06
846.047	9090.07
846.371	9050.07
846.695	9059.11
847.019	8989.96
847.343	8924.2
847.666	8902.96
847.99	8847.82
848.313	8881.26
848.637	8777.09
848.96	8806.01
849.284	8748.16
849.607	8673.36
849.931	8659.12
850.254	8687.37
850.577	8543.65
850.9	8503.87
851.223	8588.62
851.546	8534.15
851.869	8446.25
852.192	8473.82
852.515	8368.51
852.838	8369.41
853.161	8377.1
853.483	8272.47
853.806	8315.4
854.129	8315.4
854.451	8251.68
854.774	8229.53
855.096	8211
855.419	8203.99
855.741	8146.82
856.063	8159.47
856.385	8054.62
856.708	8053.26
857.03	8015.52
857.352	8015.3
857.674	7984.34
857.996	7982.3
858.318	7965.58
858.64	7938.24
858.961	7937.56
859.283	7953.6
859.605	7844.91
859.926	7839.26
860.248	7848.3
860.57	7878.8
860.891	7897.79
861.212	7803.33
861.534	7810.78
861.855	7730.79
862.176	7782.31
862.498	7673.61
862.819	7794.06
863.14	7688.3
863.461	7648.3
863.782	7738.02
864.103	7702.09
864.424	7649.88
864.745	7685.36
865.065	7622.54
865.386	7634.52
865.707	7601.07
866.027	7574.41
866.348	7659.6
866.668	7615.31
866.989	7580.96
867.309	7545.93
867.63	7563.56
867.95	7549.77
868.27	7421.87
868.59	7491.47
868.91	7533.95
869.23	7489.66
869.55	7431.36
869.87	7415.31
870.19	7445.6
870.51	7466.39
870.83	7478.59
871.15	7423.67
871.469	7371.25
871.789	7434.97
872.109	7405.82
872.428	7343
872.748	7360.85
873.067	7398.36
873.386	7321.08
873.706	7372.15
874.025	7325.6
874.344	7326.05
874.663	7359.04
874.982	7243.57
875.301	7330.57
875.62	7279.5
875.939	7303.68
876.258	7234.53
876.577	7221.42
876.896	7232.95
877.214	7234.3
877.533	7226.62
877.852	7168.99
878.17	7184.59
878.489	7189.1
878.807	7218.93
879.125	7156.11
879.444	7133.96
879.762	7122.89
880.08	7151.14
880.398	7150.69
880.716	7106.17
881.034	7103.46
881.352	7089.9
881.67	7093.97
881.988	7037.24
882.306	7001.31
882.624	7032.05
882.941	6971.94
883.259	7006.96
883.577	6941.43
883.894	6963.57
884.212	6926.96
884.529	6920.19
884.846	6961.77
885.164	6905.5
885.481	6864.37
885.798	6874.99
886.115	6829.57
886.432	6881.99
886.75	6859.62
887.067	6842.67
887.383	6835.44
887.7	6771.71
888.017	6773.3
888.334	6728.1
888.651	6787.99
888.967	6738.95
889.284	6686.75
889.6	6620.76
889.917	6646.75
890.233	6660.31
890.55	6635
890.866	6624.15
891.182	6581.89
891.498	6577.37
891.815	6560.65
892.131	6569.91
892.447	6545.05
892.763	6510.03
893.079	6471.16
893.395	6531.27
893.71	6471.16
894.026	6453.08
894.342	6465.28
894.657	6413.98
894.973	6384.15
895.289	6424.38
895.604	6320.65
895.92	6287.66
896.235	6278.85
896.55	6296.7
896.865	6270.03
897.181	6311.39
897.496	6254.44
897.811	6227.55
898.126	6234.1
898.441	6212.41
898.756	6149.58
899.071	6108.91
899.386	6100.32
899.7	6112.3
900.015	6054.22
900.33	5977.39
900.644	5979.42
900.959	5974.45
901.273	6003.37
901.588	5961.57
901.902	5872.53
902.216	5931.74
902.531	5895.58
902.845	5882.02
903.159	5836.6
903.473	5839.76
903.787	5813.1
904.101	5814.9
904.415	5762.25
904.729	5803.6
905.042	5755.7
905.356	5760.22
905.67	5724.28
905.984	5724.06
906.297	5718.18
906.611	5698.07
906.924	5692.42
907.237	5658.07
907.551	5631.86
907.864	5582.37
908.177	5593.67
908.491	5581.92
908.804	5487.91
909.117	5452.65
909.43	5480
909.743	5485.42
910.056	5423.28
910.368	5388.93
910.681	5380.79
910.994	5359.77
911.307	5338.76
911.619	5332.2
911.932	5316.84
912.244	5244.75
912.557	5297.18
912.869	5236.84
913.181	5267.12
913.494	5235.48
913.806	5183.96
914.118	5127.01
914.43	5095.15
914.742	5100.12
915.054	5076.62
915.366	5067.58
915.678	5042.95
915.99	5051.53
916.302	5022.38
916.613	4958.65
916.925	4995.04
917.236	4944.64
917.548	4913.46
917.859	4931.54
918.171	4921.82
918.482	4870.07
918.794	4906.9
919.105	4856.74
919.416	4806.79
919.727	4818.77
920.038	4779.22
920.349	4803.18
920.66	4730.64
920.971	4725.67
921.282	4764.76
921.593	4744.88
921.903	4624.65
922.214	4679.11
922.525	4642.73
922.835	4597.53
923.146	4605.9
923.456	4581.26
923.767	4533.13
924.077	4556.63
924.387	4529.97
924.697	4491.77
925.008	4531.1
925.318	4463.07
925.628	4476.41
925.938	4435.5
926.248	4445.45
926.558	4449.52
926.867	4399.12
927.177	4345.11
927.487	4374.04
927.796	4321.38
928.106	4314.83
928.416	4311.44
928.725	4285.68
929.034	4236.41
929.344	4290.42
929.653	4252.01
929.962	4232.57
930.271	4153.93
930.581	4180.37
930.89	4147.15
931.199	4122.07
931.508	4150.99
931.817	4142.86
932.125	4101.5
932.434	4145.34
932.743	4022.63
933.051	4071.22
933.36	4011.79
933.669	3960.72
933.977	3983.99
934.286	4014.72
934.594	3943.77
934.902	3949.64
935.21	3938.57
935.519	3900.38
935.827	3891.11
936.135	3899.7
936.443	3802.98
936.751	3836.42
937.059	3812.24
937.367	3836.88
937.674	3795.52
937.982	3821.96
938.29	3746.71
938.597	3752.36
938.905	3727.05
939.213	3754.62
939.52	3738.12
939.827	3690.67
940.135	3656.54
940.442	3671.23
940.749	3648.63
941.056	3673.72
941.363	3637.11
941.67	3600.27
941.977	3577.9
942.284	3570.89
942.591	3575.19
942.898	3539.26
943.205	3568.41
943.511	3515.76
943.818	3520.5
944.125	3466.49
944.431	3470.78
944.738	3455.42
945.044	3428.3
945.35	3449.99
945.657	3419.03
945.963	3435.98
946.269	3370
946.575	3370.9
946.881	3355.76
947.187	3373.39
947.493	3364.35
947.799	3286.61
948.105	3342.88
948.41	3303.33
948.716	3306.04
949.022	3269.21
949.327	3283.67
949.633	3252.94
949.938	3264.24
950.244	3232.15
950.549	3196.89
950.854	3182.43
951.16	3192.83
951.465	3187.18
951.77	3137.69
952.075	3101.75
952.38	3144.92
952.685	3126.61
952.99	3086.84
953.294	3085.71
953.599	3055.88
953.904	3048.65
954.209	3039.61
954.513	3031.7
954.818	3006.16
955.122	3000.06
955.426	3011.36
955.731	2969.78
956.035	2956.9
956.339	2979.05
956.643	2982.44
956.948	2930.01
957.252	2942.21
957.556	2918.71
957.86	2897.01
958.163	2876.9
958.467	2870.8
958.771	2864.7
959.075	2845.26
959.378	2840.74
959.682	2853.63
959.985	2798.03
960.289	2825.38
960.592	2793.29
960.896	2784.02
961.199	2785.15
961.502	2743.8
961.805	2743.12
962.108	2737.92
962.411	2749.45
962.714	2673.52
963.017	2686.62
963.32	2704.02
963.623	2666.74
963.926	2687.53
964.228	2633.97
964.531	2651.14
964.833	2617.47
965.136	2620.86
965.438	2636.91
965.741	2601.43
966.043	2606.17
966.345	2600.3
966.648	2583.12
966.95	2566.18
967.252	2530.7
967.554	2548.1
967.856	2529.57
968.158	2524.37
968.46	2546.06
968.761	2496.8
969.063	2488.21
969.365	2500.19
969.666	2490.02
969.968	2428.55
970.269	2448.66
970.571	2450.92
970.872	2446.86
971.174	2398.72
971.475	2401.21
971.776	2432.85
972.077	2388.78
972.378	2385.62
972.679	2362.56
972.98	2395.33
973.281	2372.51
973.582	2348.55
973.883	2338.38
974.183	2328.67
974.484	2338.38
974.785	2306.3
975.085	2299.74
975.386	2297.93
975.686	2261.1
975.986	2272.17
976.287	2304.04
976.587	2233.08
976.887	2259.29
977.187	2246.86
977.487	2224.26
977.787	2184.04
978.087	2197.37
978.387	2206.86
978.687	2172.97
978.987	2192.17
979.286	2156.47
979.586	2157.37
979.885	2219.52
980.185	2132.29
980.484	2127.77
980.784	2138.62
981.083	2126.19
981.382	2112.85
981.682	2080.31
981.981	2101.78
982.28	2057.71
982.579	2047.77
982.878	2040.77
983.177	2085.74
983.475	2080.09
983.774	2063.36
984.073	2056.13
984.372	2019.98
984.67	2016.81
984.969	1999.18
985.267	2022.23
985.566	2022.23
985.864	1982.91
986.162	1953.99
986.461	1944.95
986.759	1952.18
987.057	1936.81
987.355	1932.52
987.653	1936.81
987.951	1930.71
988.249	1933.88
988.547	1932.97
988.844	1904.05
989.142	1874.67
989.44	1882.8
989.737	1882.35
990.035	1850.94
990.332	1870.6
990.63	1828.79
990.927	1844.39
991.224	1840.77
991.521	1783.82
991.819	1821.79
992.116	1809.59
992.413	1800.55
992.71	1810.94
993.006	1777.04
993.303	1782.47
993.6	1796.93
993.897	1743.37
994.193	1763.03
994.49	1753.32
994.787	1761.68
995.083	1723.03
995.379	1697.95
995.676	1735.91
995.972	1713.32
996.268	1695.69
996.565	1709.93
996.861	1694.79
997.157	1698.18
997.453	1668.8
997.749	1659.08
998.044	1634
998.34	1648.23
998.636	1632.87
998.932	1650.49
999.227	1612.08
999.523	1590.83
999.818	1584.51
1000.114	1564.62
1000.409	1582.02
1000.704	1574.56
1001	1577.05
1001.295	1554.9
1001.59	1558.52
1001.885	1561.68
1002.18	1556.03
1002.475	1541.8
1002.77	1544.73
1003.065	1544.51
1003.359	1542.47
1003.654	1532.3
1003.949	1503.6
1004.243	1500.89
1004.538	1509.93
1004.832	1497.95
1005.127	1472.87
1005.421	1466.32
1005.715	1433.55
1006.009	1464.74
1006.304	1472.42
1006.598	1429.03
1006.892	1416.15
1007.186	1433.55
1007.48	1408.92
1007.773	1425.41
1008.067	1396.26
1008.361	1411.4
1008.655	1370.95
1008.948	1383.38
1009.242	1356.94
1009.535	1377.28
1009.829	1362.37
1010.122	1369.6
1010.415	1347.9
1010.708	1338.19
1011.001	1335.7
1011.295	1327.56
1011.588	1317.39
1011.881	1306.32
1012.173	1301.35
1012.466	1302.03
1012.759	1289.15
1013.052	1302.93
1013.344	1276.49
1013.637	1265.87
1013.93	1245.76
1014.222	1260.22
1014.514	1244.85
1014.807	1258.87
1015.099	1220.9
1015.391	1241.24
1015.683	1225.42
1015.976	1219.77
1016.268	1168.47
1016.56	1190.84
1016.851	1198.08
1017.143	1209.6
1017.435	1207.57
1017.727	1137.06
1018.018	1170.96
1018.31	1180.45
1018.602	1168.7
1018.893	1122.6
1019.185	1110.85
1019.476	1127.8
1019.767	1120.56
1020.058	1100.68
1020.35	1090.28
1020.641	1117.63
1020.932	1099.77
1021.223	1093.22
1021.514	1094.58
1021.804	1083.73
1022.095	1074.69
1022.386	1069.49
1022.677	1063.84
1022.967	1053.67
1023.258	1022.71
1023.548	1048.93
1023.839	1030.85
1024.129	1052.09
1024.419	1038.31
1024.709	1010.96
1025	1025.88
1025.29	1004.18
1025.58	1006.44
1025.87	989.95
1026.16	980.45
1026.449	1000.79
1026.739	998.76
1027.029	972.32
1027.319	974.35
1027.608	987.23
1027.898	962.15
1028.187	932.55
1028.477	948.14
1028.766	957.4
1029.055	941.81
1029.344	925.77
1029.634	914.47
1029.923	921.92
1030.212	900
1030.501	947.23
1030.79	893.23
1031.078	881.25
1031.367	866.33
1031.656	881.93
1031.945	900.23
1032.233	874.24
1032.522	887.35
1032.81	866.11
1033.099	875.6
1033.387	862.72
1033.675	848.93
1033.963	824.98
1034.251	855.71
1034.54	852.55
1034.828	839.89
1035.116	837.18
1035.403	813.23
1035.691	819.1
1035.979	812.55
1036.267	807.13
1036.554	820.23
1036.842	812.32
1037.129	784.3
1037.417	812.32
1037.704	779.56
1037.992	783.17
1038.279	774.13
1038.566	783.85
1038.853	783.85
1039.14	783.85
