Data from cardboard_FLMS001491_054.txt Node
Date: Tue Feb 07 11:39:44 GMT 2017
User: dcchb
Spectrometer: FLMS00149
Trigger mode: 0
Integration Time (sec): 2.000000E-2
Scans to average: 10
Electric dark correction enabled: true
Nonlinearity correction enabled: false
Boxcar width: 0
XAxis mode: Wavelengths
Number of Pixels in Spectrum: 2048
>>>>>Begin Spectral Data<<<<<
341.393	-26.09
341.776	-26.09
342.16	-26.09
342.543	-61.34
342.927	-61.79
343.31	-65.41
343.693	-52.98
344.077	-46.65
344.46	-69.25
344.843	-42.81
345.226	-64.96
345.61	-31.96
345.993	-38.97
346.376	3.74
346.759	-12.3
347.142	38.09
347.525	53.23
347.908	57.75
348.291	64.08
348.674	76.28
349.057	132.1
349.44	117.19
349.823	141.14
350.206	170.07
350.588	172.78
350.971	217.3
351.354	217.97
351.737	215.49
352.119	234.25
352.502	262.27
352.884	266.79
353.267	278.54
353.65	284.87
354.032	282.15
354.414	301.14
354.797	313.57
355.179	316.95
355.562	325.54
355.944	321.02
356.326	329.38
356.709	331.42
357.091	321.25
357.473	317.41
357.855	325.99
358.238	332.32
358.62	336.62
359.002	323.96
359.384	342.72
359.766	333.45
360.148	329.16
360.53	337.29
360.912	350.63
361.294	322.38
361.676	323.96
362.057	312.66
362.439	306.33
362.821	310.85
363.203	335.03
363.584	290.97
363.966	314.02
364.348	321.93
364.729	322.83
365.111	323.51
365.493	296.62
365.874	293.45
366.256	313.11
366.637	297.52
367.019	291.19
367.4	300.23
367.781	315.83
368.163	313.57
368.544	301.59
368.925	323.96
369.306	299.55
369.688	317.63
370.069	313.79
370.45	286.9
370.831	296.16
371.212	299.1
371.593	294.81
371.974	298.2
372.355	301.36
372.736	323.51
373.117	298.42
373.498	317.63
373.879	306.79
374.26	306.79
374.641	328.48
375.021	316.28
375.402	299.55
375.783	304.3
376.163	320.12
376.544	309.72
376.925	309.95
377.305	319.44
377.686	300.46
378.066	326.9
378.447	320.12
378.827	313.57
379.208	307.01
379.588	321.47
379.968	325.99
380.349	326.45
380.729	337.97
381.109	307.46
381.489	313.79
381.87	343.85
382.25	326.67
382.63	328.25
383.01	326.22
383.39	339.78
383.77	328.03
384.15	364.41
384.53	332.32
384.91	330.51
385.29	346.33
385.67	338.2
386.049	328.25
386.429	348.59
386.809	331.42
387.189	353.79
387.568	341.59
387.948	338.42
388.328	346.78
388.707	344.3
389.087	352.21
389.466	330.74
389.846	351.98
390.225	356.05
390.605	338.2
390.984	348.37
391.363	357.86
391.743	343.85
392.122	351.3
392.501	373.9
392.881	370.29
393.26	364.41
393.639	384.07
394.018	366.45
394.397	351.53
394.776	371.42
395.155	390.4
395.534	361.7
395.913	371.19
396.292	367.12
396.671	383.39
397.05	375.94
397.429	390.17
397.808	385.65
398.186	370.06
398.565	391.53
398.944	382.49
399.323	381.81
399.701	381.81
400.08	382.94
400.458	387.46
400.837	394.24
401.215	405.99
401.594	400.79
401.972	385.65
402.351	401.02
402.729	378.87
403.107	393.56
403.486	386.33
403.864	398.76
404.242	390.63
404.62	399.66
404.999	407.57
405.377	404.18
405.755	399.44
406.133	421.58
406.511	411.64
406.889	415.26
407.267	429.72
407.645	433.34
408.023	422.26
408.401	432.88
408.779	419.55
409.156	435.37
409.534	440.57
409.912	435.37
410.29	441.02
410.667	440.12
411.045	444.41
411.422	434.92
411.8	438.53
412.178	437.4
412.555	469.72
412.933	449.38
413.31	464.75
413.687	482.6
414.065	484.18
414.442	464.52
414.819	459.78
415.197	477.63
415.574	495.26
415.951	483.05
416.328	466.1
416.705	484.86
417.082	504.52
417.46	490.28
417.837	497.97
418.214	510.17
418.591	504.97
418.967	483.96
419.344	519.66
419.721	511.75
420.098	500.45
420.475	517.63
420.852	518.76
421.228	516.5
421.605	504.07
421.982	509.04
422.358	528.7
422.735	505.88
423.111	546.1
423.488	525.76
423.864	554.01
424.241	548.81
424.617	556.95
424.994	544.97
425.37	534.8
425.746	558.76
426.123	588.36
426.499	556.95
426.875	588.13
427.251	580.68
427.627	569.83
428.003	572.54
428.379	572.32
428.756	580
429.132	589.49
429.507	598.08
429.883	612.77
430.259	625.65
430.635	611.86
431.011	606.44
431.387	631.75
431.763	652.77
432.138	636.95
432.514	638.08
432.89	636.27
433.265	664.29
433.641	639.88
434.016	671.07
434.392	667
434.767	682.37
435.143	680.56
435.518	695.93
435.894	674.46
436.269	703.39
436.644	692.09
437.02	698.41
437.395	716.04
437.77	704.97
438.145	700.22
438.52	728.02
438.895	744.97
439.271	741.12
439.646	768.02
440.021	742.71
440.395	744.51
440.77	739.77
441.145	750.39
441.52	783.38
441.895	762.82
442.27	783.16
442.645	746.1
443.019	765.98
443.394	810.73
443.769	805.3
444.143	778.86
444.518	804.17
444.892	795.13
445.267	809.37
445.641	792.65
446.016	796.94
446.39	797.17
446.764	826.77
447.139	791.97
447.513	817.28
447.887	829.03
448.262	822.93
448.636	835.36
449.01	829.48
449.384	858.18
449.758	848.69
450.132	865.42
450.506	877.39
450.88	845.75
451.254	869.93
451.628	892.53
452.002	888.92
452.376	879.2
452.75	883.27
453.123	917.62
453.497	929.37
453.871	904.51
454.244	949.03
454.618	940.89
454.992	950.16
455.365	961.68
455.739	968.69
456.112	989.71
456.486	979.99
456.859	1001.91
457.232	1002.36
457.606	1031.74
457.979	1040.55
458.352	1033.77
458.725	1055.92
459.099	1056.82
459.472	1060.21
459.845	1058.18
460.218	1093.88
460.591	1075.81
460.964	1078.52
461.337	1121
461.71	1150.61
462.083	1124.84
462.456	1152.19
462.829	1149.02
463.201	1180.44
463.574	1160.55
463.947	1206.42
464.32	1212.3
464.692	1199.64
465.065	1225.41
465.438	1246.42
465.81	1268.34
466.183	1264.27
466.555	1293.2
466.928	1288.68
467.3	1298.85
467.672	1323.03
468.045	1329.13
468.417	1348.57
468.789	1352.41
469.161	1375.23
469.534	1391.05
469.906	1405.74
470.278	1436.47
470.65	1443.93
471.022	1453.2
471.394	1502.23
471.766	1530.93
472.138	1522.12
472.51	1537.26
472.882	1562.57
473.253	1582.68
473.625	1594.21
473.997	1611.61
474.369	1635.56
474.74	1670.14
475.112	1694.32
475.484	1692.29
475.855	1740.42
476.227	1721.21
476.598	1784.71
476.97	1831.27
477.341	1830.81
477.713	1871.94
478.084	1860.19
478.455	1897.93
478.827	1937.48
479.198	1983.58
479.569	1972.05
479.94	2040.75
480.311	2082.33
480.682	2083.24
481.053	2117.36
481.424	2197.81
481.795	2227.19
482.166	2194.42
482.537	2238.94
482.908	2292.27
483.279	2358.26
483.65	2366.62
484.021	2431.25
484.391	2403.68
484.762	2419.05
485.133	2510.12
485.503	2536.11
485.874	2531.36
486.244	2609.1
486.615	2646.84
486.985	2683.67
487.356	2750.56
487.726	2765.48
488.097	2831.24
488.467	2809.54
488.837	2862.2
489.207	2911.24
489.578	2938.81
489.948	2990.78
490.318	3001.63
490.688	3078.69
491.058	3119.37
491.428	3082.98
491.798	3166.15
492.168	3248.4
492.538	3290.44
492.908	3312.81
493.278	3350.1
493.648	3395.07
494.017	3381.73
494.387	3437.55
494.757	3471
495.126	3521.16
495.496	3563.2
495.866	3601.39
496.235	3599.13
496.605	3683.65
496.974	3688.39
497.344	3728.16
497.713	3742.63
498.082	3764.1
498.452	3828.05
498.821	3862.62
499.19	3876.64
499.559	3946.46
499.928	3934.94
500.298	4012.23
500.667	4034.15
501.036	4043.86
501.405	4098.78
501.774	4118.89
502.143	4154.14
502.512	4229.17
502.88	4243.41
503.249	4265.33
503.618	4279.11
503.987	4298.32
504.356	4348.94
504.724	4361.59
505.093	4417.19
505.462	4470.07
505.83	4502.61
506.199	4546.45
506.567	4628.03
506.936	4595.26
507.304	4637.07
507.672	4737.4
508.041	4763.62
508.409	4786.67
508.777	4827.8
509.145	4887
509.514	4891.75
509.882	4964.52
510.25	5014.91
510.618	5077.51
510.986	5105.08
511.354	5130.16
511.722	5154.79
512.09	5224.85
512.458	5210.61
512.826	5266.43
513.193	5391.4
513.561	5434.79
513.929	5448.8
514.297	5521.56
514.664	5491.96
515.032	5548.68
515.4	5627.55
515.767	5695.57
516.135	5725.17
516.502	5727.66
516.869	5832.52
517.237	5897.6
517.604	5886.98
517.972	5961.55
518.339	6023.7
518.706	6028.67
519.073	6079.74
519.44	6145.28
519.808	6190.47
520.175	6281.32
520.542	6393.86
520.909	6397.92
521.276	6453.74
521.643	6518.15
522.009	6527.41
522.376	6663.23
522.743	6723.11
523.11	6721.08
523.477	6839.72
523.843	6882.21
524.21	7000.62
524.577	6983.9
524.943	7089.88
525.31	7142.09
525.676	7265.92
526.043	7347.73
526.409	7386.83
526.776	7474.28
527.142	7446.71
527.508	7550.44
527.874	7637.67
528.241	7704.11
528.607	7752.01
528.973	7901.61
529.339	7891.9
529.705	8010.54
530.071	8071.33
530.437	8149.07
530.803	8066.81
531.169	8210.08
531.535	8246.24
531.901	8354.48
532.267	8356.52
532.632	8465.67
532.998	8516.06
533.364	8630.18
533.73	8613.91
534.095	8713.57
534.461	8738.43
534.826	8822.72
535.192	8903.62
535.557	8983.17
535.923	9009.61
536.288	9029.04
536.653	9131.86
537.019	9142.26
537.384	9208.47
537.749	9308.13
538.114	9340.45
538.479	9395.36
538.845	9376.15
539.21	9419.31
539.575	9514.68
539.94	9561.01
540.305	9680.55
540.67	9692.98
541.034	9726.88
541.399	9782.92
541.764	9886.19
542.129	9923.26
542.494	9970.94
542.858	9976.59
543.223	10045.51
543.587	10170.26
543.952	10161.22
544.316	10152.63
544.681	10269.46
545.045	10284.6
545.41	10392.85
545.774	10513.97
546.138	10478.04
546.503	10525.5
546.867	10567.08
547.231	10697.7
547.595	10701.99
547.959	10743.12
548.324	10775.21
548.688	10853.18
549.052	10951.48
549.416	11016.79
549.779	11011.36
550.143	11132.49
550.507	11174.3
550.871	11228.08
551.235	11254.52
551.599	11405.7
551.962	11423.56
552.326	11506.49
552.689	11559.15
553.053	11637.11
553.417	11607.51
553.78	11843.21
554.143	11816.09
554.507	11885.92
554.87	11871.91
555.234	12099.47
555.597	12025.12
555.96	12111
556.323	12294.04
556.686	12290.88
557.05	12328.62
557.413	12380.37
557.776	12496.3
558.139	12528.16
558.502	12600.02
558.865	12643.86
559.228	12798.66
559.59	12779.23
559.953	12915.95
560.316	13042.95
560.679	13128.37
561.041	13220.12
561.404	13217.86
561.767	13403.62
562.129	13417.85
562.492	13481.13
562.854	13550.05
563.217	13551.64
563.579	13722.93
563.941	13737.84
564.304	13820.78
564.666	14011.28
565.028	13961.34
565.39	14150.04
565.753	14218.06
566.115	14191.84
566.477	14371.95
566.839	14400.2
567.201	14497.37
567.563	14578.73
567.925	14655.79
568.287	14676.35
568.648	14755.9
569.01	14869.11
569.372	14983.46
569.734	14960.86
570.095	15100.75
570.457	15151.82
570.819	15212.61
571.18	15261.87
571.542	15391.13
571.903	15440.17
572.265	15573.5
572.626	15556.55
572.987	15621.86
573.349	15703.22
573.71	15822.54
574.071	15831.35
574.432	15909.99
574.794	16056.88
575.155	16077.22
575.516	15969.42
575.877	16109.99
576.238	16192.47
576.599	16312.69
576.96	16267.04
577.32	16316.08
577.681	16429.53
578.042	16549.75
578.403	16601.72
578.763	16634.04
579.124	16640.59
579.485	16708.39
579.845	16817.76
580.206	16768.5
580.566	16812.57
580.927	16757.43
581.287	16920.13
581.648	16873.81
582.008	17027.02
582.368	17086.23
582.728	17106.12
583.089	17118.55
583.449	17124.65
583.809	17210.52
584.169	17227.92
584.529	17245.78
584.889	17318.99
585.249	17359.67
585.609	17204.65
585.969	17426.11
586.329	17393.34
586.688	17472.66
587.048	17453.91
587.408	17506.79
587.768	17496.16
588.127	17591.3
588.487	17446.9
588.846	17620.45
589.206	17656.16
589.565	17650.28
589.925	17806.66
590.284	17579.78
590.643	17725.54
591.003	17732.09
591.362	17883.72
591.721	17856.61
592.08	17901.8
592.44	17950.62
592.799	18001.24
593.158	17934.57
593.517	17932.08
593.876	17981.8
594.235	17956.27
594.593	18100.22
594.952	18054.79
595.311	18018.41
595.67	18177.05
596.029	18331.17
596.387	18241
596.746	18304.96
597.104	18236.03
597.463	18252.53
597.822	18394.45
598.18	18407.1
598.538	18340.44
598.897	18418.85
599.255	18314.22
599.613	18527.78
599.972	18554.67
600.33	18609.13
600.688	18502.92
601.046	18646.87
601.404	18702.69
601.762	18737.04
602.12	18920.53
602.478	18843.7
602.836	18909.46
603.194	18800.08
603.552	18922.34
603.91	18792.85
604.268	18948.78
604.625	18869.91
604.983	18974.54
605.341	18891.83
605.698	18895.68
606.056	19101.09
606.413	19177.02
606.771	19146.06
607.128	19282.33
607.485	19088.89
607.843	19250.69
608.2	19296.79
608.557	19398.71
608.914	19367.53
609.272	19370.24
609.629	19486.39
609.986	19575.21
610.343	19452.05
610.7	19618.59
611.057	19661.53
611.414	19639.61
611.771	19612.04
612.127	19698.82
612.484	19727.74
612.841	19767.97
613.198	19821.75
613.554	19823.56
613.911	19972.71
614.267	19924.8
614.624	20022.88
614.98	20034.63
615.337	20144.91
615.693	20059.26
616.05	20081.18
616.406	20223.78
616.762	20201.18
617.118	20233.27
617.475	20287.73
617.831	20326.37
618.187	20311.68
618.543	20448.4
618.899	20583.77
619.255	20468.52
619.611	20527.05
619.967	20539.25
620.323	20627.16
620.678	20510.1
621.034	20546.71
621.39	20602.75
621.746	20640.71
622.101	20799.35
622.457	20654.27
622.812	20680.49
623.168	20765
623.523	20765.68
623.879	20849.97
624.234	20719.13
624.589	20840.94
624.945	20903.98
625.3	20849.75
625.655	20858.11
626.01	20905.79
626.365	20953.25
626.72	20918.9
627.075	20946.69
627.43	20878.9
627.785	20907.6
628.14	20990.99
628.495	21008.84
628.85	20917.54
629.205	20926.81
629.559	21025.34
629.914	20963.87
630.269	21080.93
630.623	20925
630.978	20970.2
631.332	21042.74
631.687	21061.04
632.041	20944.66
632.396	21068.95
632.75	20913.48
633.104	21058.78
633.459	20882.06
633.813	20976.98
634.167	20981.04
634.521	21029.18
634.875	21017.43
635.229	21038.67
635.583	20923.19
635.937	20921.84
636.291	20972.23
636.645	20980.59
636.999	20941.72
637.352	21025.56
637.706	20847.94
638.06	20957.99
638.413	20863.99
638.767	20793.48
639.121	20885
639.474	20753.71
639.828	20720.49
640.181	20947.15
640.534	20916.64
640.888	20873.25
641.241	20840.26
641.594	20790.99
641.947	20907.37
642.301	20767.04
642.654	20846.58
643.007	20812.69
643.36	20838.45
643.713	20775.63
644.066	20872.57
644.419	20677.78
644.771	20633.03
645.124	20471.23
645.477	20328.18
645.83	20286.83
646.182	20234.62
646.535	20090.45
646.888	20226.49
647.24	20188.3
647.593	20294.28
647.945	20190.78
648.298	20073.72
648.65	20182.87
649.002	20045.25
649.355	20144.46
649.707	20180.84
650.059	20220.84
650.411	20604.11
650.763	20546.48
651.115	20775.85
651.467	20729.75
651.819	20703.76
652.171	20714.16
652.523	20676.65
652.875	20604.11
653.227	20553.71
653.578	20793.48
653.93	20720.94
654.282	20595.52
654.633	20595.29
654.985	20538.8
655.337	20712.58
655.688	20557.55
656.039	20651.79
656.391	20573.6
656.742	20638.91
657.094	20648.17
657.445	20718.68
657.796	20716.42
658.147	20644.78
658.498	20655.63
658.849	20637.1
659.2	20678.23
659.551	20596.42
659.902	20663.99
660.253	20570.43
660.604	20695.18
660.955	20562.07
661.306	20678.91
661.656	20673.03
662.007	20649.53
662.358	20770.2
662.708	20682.75
663.059	20654.73
663.409	20565.46
663.76	20832.8
664.11	20763.42
664.461	20793.93
664.811	20702.18
665.161	20672.35
665.511	20757.1
665.862	20757.1
666.212	20814.5
666.562	20721.39
666.912	20698.57
667.262	20698.11
667.612	20750.77
667.962	20714.16
668.312	20668.51
668.662	20875.96
669.011	20778.56
669.361	20696.31
669.711	20696.53
670.06	20741.95
670.41	20740.82
670.76	20651.34
671.109	20821.5
671.459	20727.94
671.808	20621.51
672.157	20678
672.507	20545.35
672.856	20685.68
673.205	20698.34
673.554	20772.46
673.904	20639.58
674.253	20860.37
674.602	20836.19
674.951	20471.91
675.3	20333.83
675.649	20586.7
675.998	20604.33
676.346	20617.21
676.695	20710.99
677.044	20571.79
677.393	20634.39
677.741	20669.64
678.09	20556.87
678.438	20573.37
678.787	20560.72
679.135	20656.31
679.484	20521.4
679.832	20635.97
680.181	20511
680.529	20605.46
680.877	20517.33
681.225	20516.65
681.573	20629.87
681.922	20382.87
682.27	20402.08
682.618	20413.83
682.966	20404.79
683.314	20536.31
683.661	20407.95
684.009	20282.31
684.357	20236.21
684.705	20276.88
685.053	20268.75
685.4	20268.07
685.748	20181.52
686.095	20191.01
686.443	20031.92
686.79	20158.02
687.138	20142.65
687.485	20122.54
687.832	20107.17
688.18	20082.99
688.527	19998.25
688.874	19958.02
689.221	20058.13
689.568	19843.67
689.915	19852.71
690.262	19850.23
690.609	19797.12
690.956	19722.77
691.303	19758.93
691.65	19684.81
691.997	19632.83
692.344	19602.1
692.69	19485.04
693.037	19644.81
693.383	19446.62
693.73	19535.21
694.077	19411.59
694.423	19320.07
694.769	19368.88
695.116	19363.23
695.462	19268.32
695.808	19242.78
696.155	19228.32
696.501	19093.18
696.847	19057.48
697.193	18858.16
697.539	19085.5
697.885	18909.69
698.231	18946.75
698.577	18852.96
698.923	18788.56
699.269	18798.28
699.614	18727.09
699.96	18747.43
700.306	18726.64
700.651	18594.44
700.997	18639.86
701.342	18628.56
701.688	18585.18
702.033	18441
702.379	18538.17
702.724	18392.19
703.069	18486.87
703.415	18248.46
703.76	18341.34
704.105	18308.35
704.45	18261.12
704.795	18176.6
705.14	18060.9
705.485	18081.69
705.83	18019.77
706.175	18023.61
706.52	17915.36
706.865	17916.94
707.209	17935.93
707.554	17890.5
707.899	17995.59
708.243	17850.05
708.588	17764.41
708.932	17676.72
709.277	17681.92
709.621	17678.98
709.966	17626.1
710.31	17585.43
710.654	17469.95
710.998	17574.58
711.342	17592.88
711.687	17499.55
712.031	17404.64
712.375	17493.9
712.719	17466.79
713.063	17421.82
713.407	17414.58
713.75	17400.8
714.094	17331.42
714.438	17243.52
714.782	17399.22
715.125	17231.09
715.469	17384.3
715.812	17266.79
716.156	17121.71
716.499	17150.41
716.843	17201.26
717.186	17077.42
717.53	17143.86
717.873	17107.93
718.216	16985.9
718.559	17026.35
718.902	16857.54
719.246	16936.18
719.589	16942.73
719.932	16836.07
720.275	16820.48
720.617	16864.54
720.96	16784.77
721.303	16810.31
721.646	16861.38
721.989	16732.34
722.331	16819.12
722.674	16746.13
723.016	16786.13
723.359	16712.68
723.701	16827.48
724.044	16732.34
724.386	16586.58
724.729	16719.91
725.071	16597.2
725.413	16681.27
725.755	16641.95
726.097	16540.94
726.439	16507.94
726.782	16583.42
727.124	16560.37
727.465	16409.64
727.807	16465.91
728.149	16524.66
728.491	16372.13
728.833	16495.06
729.175	16452.35
729.516	16491.67
729.858	16353.6
730.199	16401.73
730.541	16394.5
730.882	16402.41
731.224	16400.37
731.565	16326.7
731.906	16353.37
732.248	16354.73
732.589	16238.12
732.93	16288.06
733.271	16272.24
733.612	16369.41
733.953	16243.32
734.294	16194.96
734.635	16193.37
734.976	16286.7
735.317	16199.25
735.658	16216.88
735.999	16103.88
736.339	16124.9
736.68	16332.13
737.021	16195.41
737.361	16083.55
737.702	16198.8
738.042	16164.9
738.383	16114.28
738.723	16142.3
739.063	16150.44
739.404	16060.27
739.744	16106.6
740.084	15940.72
740.424	16054.39
740.764	16070.67
741.104	16087.39
741.444	15936.21
741.784	15929.88
742.124	16046.71
742.464	15930.33
742.804	16009.2
743.143	15920.84
743.483	15926.94
743.823	15875.87
744.162	15985.92
744.502	15954.51
744.841	15893.95
745.181	15896.43
745.52	15846.49
745.86	15908.18
746.199	15716.55
746.538	15851.24
746.877	15862.31
747.216	15863.89
747.556	15855.76
747.895	15811.46
748.234	15808.53
748.573	15743.44
748.911	15701.86
749.25	15718.13
749.589	15752.26
749.928	15699.38
750.267	15821.63
750.605	15766.49
750.944	15646.27
751.283	15607.63
751.621	15657.79
751.96	15647.85
752.298	15632.94
752.636	15666.38
752.975	15601.3
753.313	15438.37
753.651	15666.38
753.989	15542.32
754.327	15492.6
754.666	15457.57
755.004	15554.29
755.342	15547.74
755.679	15540.96
756.017	15441.08
756.355	15494.86
756.693	15463.9
757.031	15448.31
757.368	15357.46
757.706	15308.88
758.044	15255.32
758.381	15363.79
758.719	15316.33
759.056	15309.1
759.394	15175.32
759.731	15209.9
760.068	15199.95
760.405	15085.15
760.743	15145.04
761.08	15130.35
761.417	15059.62
761.754	15021.88
762.091	14940.53
762.428	14812.84
762.765	14897.59
763.102	14909.11
763.438	14863.47
763.775	14798.16
764.112	14759.06
764.449	14822.11
764.785	14702.79
765.122	14649.46
765.458	14586.64
765.795	14620.08
766.131	14657.37
766.467	14555
766.804	14511.16
767.14	14402.46
767.476	14458.05
767.812	14315.68
768.148	14480.65
768.485	14225.52
768.821	14265.51
769.157	14224.39
769.492	14225.52
769.828	14275.23
770.164	14053.32
770.5	14026.88
770.836	14103.94
771.171	14061.45
771.507	14031.17
771.842	13893.1
772.178	13886.54
772.513	13758.86
772.849	13746.43
773.184	13680.45
773.519	13803.61
773.855	13680.9
774.19	13557.96
774.525	13613.1
774.86	13525.65
775.195	13603.39
775.53	13510.51
775.865	13447.91
776.2	13420.11
776.535	13291.3
776.87	13250.63
777.205	13213.79
777.539	13169.05
777.874	13150.52
778.209	13019.67
778.543	13011.08
778.878	12957.07
779.212	12932.67
779.547	12934.25
779.881	12968.37
780.215	12798.89
780.55	12910.3
780.884	12795.95
781.218	12781.03
781.552	12777.42
781.886	12727.02
782.22	12631.66
782.554	12596.86
782.888	12499.46
783.222	12403.64
783.556	12414.26
783.889	12294.27
784.223	12331.55
784.557	12264.66
784.89	12297.2
785.224	12256.53
785.557	12240.26
785.891	12198.68
786.224	12204.78
786.558	12169.75
786.891	12039.36
787.224	12006.37
787.557	11873.04
787.891	11935.86
788.224	11945.12
788.557	11909.87
788.89	11870.78
789.223	11850.21
789.556	11784.68
789.888	11719.14
790.221	11671.23
790.554	11619.26
790.887	11632.59
791.219	11622.19
791.552	11545.13
791.884	11553.04
792.217	11467.85
792.549	11472.59
792.882	11378.13
793.214	11294.97
793.546	11345.82
793.879	11281.41
794.211	11162.77
794.543	11241.64
794.875	11167.29
795.207	11204.58
795.539	11178.59
795.871	11157.35
796.203	11064.92
796.535	10998.48
796.867	11030.57
797.198	10937.24
797.53	10986.28
797.862	10899.5
798.193	11020.4
798.525	10885.26
798.856	10905.38
799.188	10811.82
799.519	10826.96
799.85	10690.02
800.182	10700.18
800.513	10701.77
800.844	10558.04
801.175	10650.92
801.506	10625.84
801.837	10595.55
802.168	10544.03
802.499	10467.2
802.83	10479.4
803.161	10485.05
803.491	10446.18
803.822	10417.48
804.153	10420.64
804.483	10367.76
804.814	10245.51
805.145	10327.31
805.475	10257.26
805.805	10224.49
806.136	10270.82
806.466	10228.11
806.796	10170.93
807.126	10150.37
807.457	10114.89
807.787	10049.81
808.117	10054.78
808.447	10078.73
808.777	10076.02
809.107	9974.78
809.436	9967.77
809.766	9899.3
810.096	9906.08
810.426	9897.27
810.755	9861.56
811.085	9877.16
811.414	9797.38
811.744	9787.89
812.073	9712.41
812.403	9718.29
812.732	9684.39
813.061	9742.24
813.39	9694.11
813.719	9664.51
814.049	9707.44
814.378	9683.49
814.707	9631.06
815.036	9637.16
815.365	9556.03
815.693	9388.13
816.022	9457.28
816.351	9440.1
816.68	9405.08
817.008	9455.47
817.337	9354.23
817.665	9361.01
817.994	9357.17
818.322	9434.68
818.651	9370.05
818.979	9379.99
819.307	9315.59
819.636	9331.18
819.964	9263.39
820.292	9262.93
820.62	9302.48
820.948	9202.82
821.276	9292.31
821.604	9165.99
821.932	9253.9
822.259	9297.96
822.587	9283.27
822.915	9225.65
823.243	9235.82
823.57	9177.29
823.898	9193.56
824.225	9167.57
824.553	9154.91
824.88	9188.59
825.207	9242.37
825.535	9182.48
825.862	9244.86
826.189	9204.86
826.516	9234.69
826.843	9229.49
827.17	9260.67
827.497	9299.32
827.824	9278.98
828.151	9272.88
828.478	9163.05
828.805	9260.22
829.131	9176.16
829.458	9277.62
829.785	9163.73
830.111	9224.29
830.438	9235.14
830.764	9217.96
831.09	9214.12
831.417	9149.94
831.743	9262.71
832.069	9232.65
832.395	9221.58
832.722	9130.51
833.048	9175.93
833.374	9190.62
833.7	9169.6
834.026	9150.85
834.351	9234.23
834.677	9209.15
835.003	9200.79
835.329	9119.66
835.654	9107.23
835.98	9074.24
836.306	9166.21
836.631	9043.05
836.956	9115.37
837.282	9124.41
837.607	9043.28
837.932	9038.76
838.258	8949.04
838.583	9001.47
838.908	9021.58
839.233	9000.34
839.558	8969.38
839.883	8875.37
840.208	8907.01
840.533	8918.76
840.858	8931.87
841.182	8920.12
841.507	8897.07
841.832	8853.68
842.156	8892.55
842.481	8852.78
842.805	8819.33
843.13	8838.99
843.454	8727.81
843.778	8658.66
844.103	8704.76
844.427	8746.56
844.751	8716.28
845.075	8664.31
845.399	8705.21
845.723	8714.47
846.047	8643.29
846.371	8571.2
846.695	8577.75
847.019	8437.87
847.343	8515.16
847.666	8401.04
847.99	8330.98
848.313	8416.4
848.637	8355.39
848.96	8401.94
849.284	8326.01
849.607	8287.59
849.931	8241.04
850.254	8178.44
850.577	8181.61
850.9	8103.42
851.223	8157.43
851.546	8041.95
851.869	8082.17
852.192	8053.25
852.515	7969.64
852.838	7962.63
853.161	7984.1
853.483	7965.57
853.806	7872.91
854.129	7925.79
854.451	7912.01
854.774	7784.56
855.096	7762.63
855.419	7747.72
855.741	7773.26
856.063	7653.49
856.385	7707.72
856.708	7648.06
857.03	7623.2
857.352	7626.14
857.674	7563.32
857.996	7606.25
858.318	7515.86
858.64	7536.43
858.961	7482.64
859.283	7485.58
859.605	7425.69
859.926	7495.07
860.248	7413.49
860.57	7410.33
860.891	7439.03
861.212	7404
861.534	7328.75
861.855	7322.87
862.176	7401.29
862.498	7337.34
862.819	7326.71
863.14	7326.49
863.461	7328.75
863.782	7322.19
864.103	7287.39
864.424	7272.25
864.745	7239.26
865.065	7183.22
865.386	7208.3
865.707	7178.24
866.027	7205.36
866.348	7196.55
866.668	7189.77
866.989	7119.49
867.309	7117.68
867.63	7175.76
867.95	7151.35
868.27	7068.64
868.59	7078.81
868.91	7157.23
869.23	7101.64
869.55	7044.24
869.87	7157
870.19	7050.34
870.51	7051.02
870.83	7056.44
871.15	7056.66
871.469	7052.82
871.789	7055.76
872.109	7024.12
872.428	7020.51
872.748	7047.4
873.067	6981.41
873.386	7026.61
873.706	6964.46
874.025	6946.61
874.344	6925.59
874.663	6996.78
874.982	6956.33
875.301	6894.41
875.62	6892.15
875.939	6901.87
876.258	6898.25
876.577	6888.99
876.896	6847.86
877.214	6836.11
877.533	6853.05
877.852	6815.77
878.17	6806.05
878.489	6844.47
878.807	6809.44
879.125	6749.1
879.444	6837.46
879.762	6752.04
880.08	6702.32
880.398	6754.75
880.716	6696
881.034	6731.93
881.352	6700.06
881.67	6656.22
881.988	6697.35
882.306	6674.53
882.624	6683.79
882.941	6549.56
883.259	6616
883.577	6599.05
883.894	6597.92
884.212	6555.89
884.529	6575.32
884.846	6564.25
885.164	6562.21
885.481	6558.82
885.798	6592.27
886.115	6505.49
886.432	6495.32
886.75	6485.15
887.067	6500.75
887.383	6454.87
887.7	6431.82
888.017	6417.13
888.334	6417.81
888.651	6367.64
888.967	6398.15
889.284	6376.91
889.6	6320.64
889.917	6255.56
890.233	6294.65
890.55	6314.09
890.866	6336.91
891.182	6287.19
891.498	6285.61
891.815	6235.9
892.131	6203.58
892.447	6173.98
892.763	6189.12
893.079	6134.2
893.395	6142.34
893.71	6134.43
894.026	6130.59
894.342	6081.78
894.657	6075.67
894.973	6071.61
895.289	6036.8
895.604	6041.78
895.92	5959.07
896.235	5992.74
896.55	5921.1
896.865	5957.94
897.181	5930.59
897.496	5949.35
897.811	5943.25
898.126	5861.22
898.441	5859.18
898.756	5804.27
899.071	5789.58
899.386	5827.09
899.7	5810.14
900.015	5789.35
900.33	5740.32
900.644	5689.7
900.959	5733.08
901.273	5733.99
901.588	5657.61
901.902	5621.22
902.216	5595.46
902.531	5612.41
902.845	5552.3
903.159	5585.97
903.473	5568.57
903.787	5490.6
904.101	5451.28
904.415	5519.53
904.729	5529.47
905.042	5418.74
905.356	5461.68
905.67	5419.65
905.984	5410.15
906.297	5391.85
906.611	5322.7
906.924	5398.86
907.237	5330.83
907.551	5317.95
907.864	5303.94
908.177	5284.73
908.491	5243.61
908.804	5262.36
909.117	5273.66
909.43	5216.49
909.743	5151.18
910.056	5129.26
910.368	5122.48
910.681	5110.5
910.994	5051.97
911.307	5059.43
911.619	5000
911.932	5017.17
912.244	4988.24
912.557	5014.46
912.869	4947.12
913.181	4952.31
913.494	4979.88
913.806	4950.28
914.118	4935.82
914.43	4916.61
914.742	4883.84
915.054	4835.48
915.366	4832.09
915.678	4798.87
915.99	4790.96
916.302	4713.9
916.613	4766.78
916.925	4725.88
917.236	4730.62
917.548	4704.86
917.859	4651.08
918.171	4667.58
918.482	4590.74
918.794	4642.04
919.105	4603.4
919.416	4616.28
919.727	4546.22
920.038	4563.17
920.349	4549.16
920.66	4517.75
920.971	4473.68
921.282	4470.29
921.593	4434.59
921.903	4343.29
922.214	4443.63
922.525	4408.37
922.835	4449.28
923.146	4372.89
923.456	4366.79
923.767	4353.23
924.077	4351.43
924.387	4294.48
924.697	4306.91
925.008	4281.14
925.318	4256.29
925.628	4264.65
925.938	4273.69
926.248	4164.99
926.558	4196.4
926.867	4164.31
927.177	4158.66
927.487	4101.04
927.796	4103.3
928.106	4132.45
928.416	4077.99
928.725	4050.64
929.034	4049.51
929.344	4049.96
929.653	4042.96
929.962	3986.01
930.271	3995.73
930.581	3964.77
930.89	3966.58
931.199	3948.27
931.508	3949.4
931.817	3978.33
932.125	3915.05
932.434	3921.38
932.743	3834.6
933.051	3844.32
933.36	3824.43
933.669	3828.95
933.977	3818.11
934.286	3791.89
934.594	3787.82
934.902	3746.7
935.21	3712.8
935.519	3722.06
935.827	3697.66
936.135	3703.76
936.443	3678
936.751	3658.34
937.059	3644.55
937.367	3621.05
937.674	3667.15
937.982	3563.2
938.29	3578.56
938.597	3585.34
938.905	3532.69
939.213	3522.07
939.52	3513.03
939.827	3531.79
940.135	3531.79
940.442	3497.44
940.749	3458.79
941.056	3443.88
941.363	3442.07
941.67	3448.4
941.977	3467.38
942.284	3388.06
942.591	3383.54
942.898	3358.46
943.205	3331.11
943.511	3359.81
943.818	3356.65
944.125	3309.64
944.431	3320.27
944.738	3275.75
945.044	3315.52
945.35	3270.32
945.657	3254.73
945.963	3265.35
946.269	3233.71
946.575	3260.83
946.881	3221.29
947.187	3192.81
947.493	3146.71
947.799	3162.08
948.105	3171.12
948.41	3135.64
948.716	3179.03
949.022	3109.2
949.327	3138.58
949.633	3054.74
949.938	3066.94
950.244	3083.44
950.549	3057.9
950.854	3015.64
951.16	3022.42
951.465	3020.39
951.77	2991.91
952.075	2983.55
952.38	3005.25
952.685	3003.66
952.99	2929.54
953.294	2963.67
953.599	2905.36
953.904	2906.27
954.209	2878.7
954.513	2922.76
954.818	2875.31
955.122	2904.01
955.426	2865.59
955.731	2879.37
956.035	2820.39
956.339	2812.48
956.643	2847.06
956.948	2817.45
957.252	2767.29
957.556	2819.49
957.86	2786.27
958.163	2754.18
958.467	2752.6
958.771	2731.58
959.075	2722.77
959.378	2703.11
959.682	2733.61
959.985	2696.78
960.289	2714.18
960.592	2716.44
960.896	2687.74
961.199	2662.2
961.502	2612.94
961.805	2618.59
962.108	2595.31
962.411	2593.73
962.714	2561.64
963.017	2557.8
963.32	2569.55
963.623	2580.85
963.926	2566.16
964.228	2509.67
964.531	2553.51
964.833	2550.34
965.136	2516.9
965.438	2479.38
965.741	2488.2
966.043	2489.1
966.345	2457.92
966.648	2471.47
966.95	2447.07
967.252	2420.63
967.554	2424.24
967.856	2466.73
968.158	2408.88
968.46	2384.47
968.761	2409.78
969.063	2401.87
969.365	2354.64
969.666	2377.69
969.968	2346.28
970.269	2329.11
970.571	2374.3
970.872	2328.2
971.174	2293.85
971.475	2276.9
971.776	2258.82
972.077	2258.37
972.378	2280.29
972.679	2271.71
972.98	2318.26
973.281	2226.28
973.582	2244.36
973.883	2231.03
974.183	2203.91
974.484	2206.17
974.785	2233.97
975.085	2177.02
975.386	2181.54
975.686	2153.74
975.986	2163.46
976.287	2159.84
976.587	2144.03
976.887	2123.01
977.187	2159.17
977.487	2130.47
977.787	2111.48
978.087	2091.37
978.387	2130.24
978.687	2108.55
978.987	2086.85
979.286	2083.69
979.586	2067.42
979.885	2063.8
980.185	2028.1
980.484	2040.53
980.784	2031.26
981.083	2031.71
981.382	2024.93
981.682	1995.1
981.981	1974.31
982.28	1993.75
982.579	1964.14
982.878	1974.99
983.177	1987.42
983.475	1972.05
983.774	1966.18
984.073	1963.69
984.372	1944.48
984.67	1931.15
984.969	1910.13
985.267	1934.54
985.566	1920.3
985.864	1897.7
986.162	1897.25
986.461	1861.1
986.759	1875.11
987.057	1847.76
987.355	1829.91
987.653	1862
987.951	1830.59
988.249	1843.47
988.547	1843.92
988.844	1827.2
989.142	1831.04
989.44	1792.17
989.737	1801.89
990.035	1792.17
990.332	1804.37
990.63	1785.39
990.927	1783.81
991.224	1754.21
991.521	1769.57
991.819	1731.38
992.116	1771.61
992.413	1731.61
992.71	1718.05
993.006	1710.14
993.303	1678.95
993.6	1699.97
993.897	1704.26
994.193	1687.09
994.49	1661.78
994.787	1684.83
995.083	1642.8
995.379	1641.21
995.676	1675.11
995.972	1645.73
996.268	1617.03
996.565	1620.65
996.861	1614.77
997.157	1657.03
997.453	1604.6
997.749	1603.02
998.044	1554.66
998.34	1575
998.636	1571.16
998.932	1548.79
999.227	1565.74
999.523	1559.63
999.818	1551.72
1000.114	1552.4
1000.409	1519.86
1000.704	1522.57
1001	1510.6
1001.295	1476.02
1001.59	1507.21
1001.885	1492.07
1002.18	1473.08
1002.475	1480.31
1002.77	1468.56
1003.065	1449.13
1003.359	1435.12
1003.654	1456.81
1003.949	1455.46
1004.243	1441.67
1004.538	1417.49
1004.832	1437.83
1005.127	1414.33
1005.421	1396.02
1005.715	1407.1
1006.009	1403.48
1006.304	1391.73
1006.598	1384.05
1006.892	1365.74
1007.186	1402.58
1007.48	1314.44
1007.773	1334.1
1008.067	1291.17
1008.361	1327.78
1008.655	1315.35
1008.948	1330.26
1009.242	1312.41
1009.535	1295.23
1009.829	1291.62
1010.122	1293.43
1010.415	1288.45
1010.708	1281
1011.001	1289.36
1011.295	1277.16
1011.588	1264.73
1011.881	1239.42
1012.173	1281.68
1012.466	1251.39
1012.759	1236.7
1013.052	1206.2
1013.344	1231.28
1013.637	1201.23
1013.93	1225.18
1014.222	1224.28
1014.514	1209.13
1014.807	1205.07
1015.099	1195.12
1015.391	1191.51
1015.683	1147.89
1015.976	1178.4
1016.268	1140.89
1016.56	1149.25
1016.851	1130.27
1017.143	1131.85
1017.435	1130.72
1017.727	1152.87
1018.018	1113.54
1018.31	1130.94
1018.602	1121.23
1018.893	1103.83
1019.185	1108.57
1019.476	1084.17
1019.767	1092.98
1020.058	1092.98
1020.35	1063.83
1020.641	1083.49
1020.932	1068.57
1021.223	1049.59
1021.514	1055.92
1021.804	1025.86
1022.095	1036.03
1022.386	1044.39
1022.677	1013.66
1022.967	1007.33
1023.258	1019.31
1023.548	1032.19
1023.839	1002.81
1024.129	987.45
1024.419	978.18
1024.709	979.08
1025	1004.17
1025.29	969.14
1025.58	986.32
1025.87	967.56
1026.16	963.49
1026.449	952.42
1026.739	931.85
1027.029	933.66
1027.319	926.88
1027.608	909.03
1027.898	927.33
1028.187	914.91
1028.477	912.87
1028.766	917.62
1029.055	929.59
1029.344	894.57
1029.634	885.53
1029.923	870.39
1030.212	883.04
1030.501	883.27
1030.79	849.37
1031.078	852.99
1031.367	846.43
1031.656	870.84
1031.945	875.36
1032.233	839.2
1032.522	863.38
1032.81	836.94
1033.099	835.13
1033.387	813.89
1033.675	809.6
1033.963	818.18
1034.251	820.67
1034.54	819.09
1034.828	829.03
1035.116	796.94
1035.403	784.74
1035.691	782.48
1035.979	771.86
1036.267	744.74
1036.554	782.03
1036.842	789.03
1037.129	784.29
1037.417	747.23
1037.704	768.92
1037.992	752.2
1038.279	750.39
1038.566	724.85
1038.853	724.85
1039.14	724.85
