Data from cardboard_FLMS001491_064.txt Node
Date: Tue Feb 07 11:39:56 GMT 2017
User: dcchb
Spectrometer: FLMS00149
Trigger mode: 0
Integration Time (sec): 2.000000E-2
Scans to average: 10
Electric dark correction enabled: true
Nonlinearity correction enabled: false
Boxcar width: 0
XAxis mode: Wavelengths
Number of Pixels in Spectrum: 2048
>>>>>Begin Spectral Data<<<<<
341.393	-18.83
341.776	-18.83
342.16	-18.83
342.543	-46.62
342.927	-62.22
343.31	-90.46
343.693	-47.75
344.077	-58.83
344.46	-61.76
344.843	-54.76
345.226	-54.08
345.61	-24.25
345.993	2.87
346.376	-7.53
346.759	-17.47
347.142	30.21
347.525	23.66
347.908	60.72
348.291	99.81
348.674	83.77
349.057	115.86
349.44	122.86
349.823	141.62
350.206	157.89
350.588	210.55
350.971	205.12
351.354	243.31
351.737	236.08
352.119	246.7
352.502	267.04
352.884	264.78
353.267	281.05
353.65	319.92
354.032	293.03
354.414	305.01
354.797	311.56
355.179	326.93
355.562	321.73
355.944	314.72
356.326	332.8
356.709	351.78
357.091	349.07
357.473	356.76
357.855	340.49
358.238	338.23
358.62	340.49
359.002	335.51
359.384	338.45
359.766	358.11
360.148	326.25
360.53	342.75
360.912	339.81
361.294	330.77
361.676	353.14
362.057	335.97
362.439	323.99
362.821	333.71
363.203	339.36
363.584	342.29
363.966	330.09
364.348	325.12
364.729	336.42
365.111	304.1
365.493	335.97
365.874	333.71
366.256	328.28
366.637	323.31
367.019	314.27
367.4	339.58
367.781	332.58
368.163	308.85
368.544	332.12
368.925	313.59
369.306	338.9
369.688	318.34
370.069	315.63
370.45	318.11
370.831	334.61
371.212	332.8
371.593	328.51
371.974	310.43
372.355	310.2
372.736	313.14
373.117	339.58
373.498	306.36
373.879	339.58
374.26	331.9
374.641	338
375.021	343.65
375.402	326.47
375.783	323.76
376.163	330.77
376.544	334.16
376.925	337.55
377.305	335.06
377.686	344.78
378.066	312.24
378.447	329.86
378.827	338.68
379.208	342.29
379.588	343.65
379.968	333.71
380.349	338.9
380.729	331.9
381.109	347.26
381.489	344.78
381.87	337.1
382.25	364.21
382.63	358.11
383.01	338.68
383.39	352.69
383.77	368.96
384.15	357.89
384.53	358.79
384.91	364.44
385.29	347.04
385.67	340.71
386.049	366.93
386.429	374.83
386.809	366.47
387.189	370.99
387.568	365.12
387.948	362.41
388.328	365.8
388.707	361.5
389.087	367.6
389.466	362.18
389.846	372.12
390.225	376.87
390.605	381.39
390.984	385.91
391.363	384.1
391.743	392.69
392.122	361.73
392.501	405.79
392.881	413.03
393.26	395.63
393.639	413.7
394.018	409.18
394.397	385
394.776	398.11
395.155	397.43
395.534	420.03
395.913	405.79
396.292	402.4
396.671	417.09
397.05	407.38
397.429	413.03
397.808	427.26
398.186	418.45
398.565	439.69
398.944	408.05
399.323	421.16
399.701	434.49
400.08	416.42
400.458	424.78
400.837	440.82
401.215	409.64
401.594	450.76
401.972	443.31
402.351	455.06
402.729	484.89
403.107	456.41
403.486	467.04
403.864	460.48
404.242	446.7
404.62	460.26
404.999	473.59
405.377	466.81
405.755	457.77
406.133	478.56
406.511	468.62
406.889	476.08
407.267	460.48
407.645	478.79
408.023	472.69
408.401	490.76
408.779	474.27
409.156	490.54
409.534	472.91
409.912	499.35
410.29	510.65
410.667	507.03
411.045	519.24
411.422	537.99
411.8	507.49
412.178	530.76
412.555	540.48
412.933	534.38
413.31	568.28
413.687	543.64
414.065	569.41
414.442	567.82
414.819	553.36
415.197	568.5
415.574	553.81
415.951	573.93
416.328	570.31
416.705	589.52
417.082	587.71
417.46	562.17
417.837	582.96
418.214	583.42
418.591	585.22
418.967	607.37
419.344	600.82
419.721	614.6
420.098	608.05
420.475	633.59
420.852	639.01
421.228	610.99
421.605	622.06
421.982	624.77
422.358	624.09
422.735	650.53
423.111	667.48
423.488	620.7
423.864	667.71
424.241	676.52
424.617	662.74
424.994	671.78
425.37	684.21
425.746	688.95
426.123	701.83
426.499	681.95
426.875	696.63
427.251	686.69
427.627	722.17
428.003	717.88
428.379	715.84
428.756	732.57
429.132	729.18
429.507	733.02
429.883	736.63
430.259	747.93
430.635	749.51
431.011	766.24
431.387	758.33
431.763	810.3
432.138	793.35
432.514	774.37
432.89	817.76
433.265	818.66
433.641	810.08
434.016	839.46
434.392	850.53
434.767	839
435.143	839.46
435.518	851.88
435.894	858.89
436.269	856.63
436.644	873.13
437.02	876.97
437.395	853.47
437.77	921.26
438.145	913.13
438.52	890.75
438.895	906.12
439.271	923.75
439.646	932.56
440.021	934.14
440.395	948.83
440.77	939.11
441.145	912.45
441.52	987.25
441.895	985.44
442.27	959.68
442.645	989.28
443.019	980.02
443.394	986.34
443.769	981.82
444.143	1014.37
444.518	982.28
444.892	1004.42
445.267	1004.42
445.641	1025.67
446.016	1031.31
446.39	1028.38
446.764	1047.13
447.139	1033.12
447.513	1056.62
447.887	1071.54
448.262	1053.69
448.636	1066.12
449.01	1079.22
449.384	1096.17
449.758	1104.76
450.132	1113.57
450.506	1123.06
450.88	1113.57
451.254	1116.06
451.628	1152.67
452.002	1130.3
452.376	1145.89
452.75	1163.97
453.123	1147.24
453.497	1176.62
453.871	1217.3
454.244	1207.13
454.618	1233.12
454.992	1219.33
455.365	1221.82
455.739	1267.24
456.112	1244.42
456.486	1253.68
456.859	1305.43
457.232	1289.16
457.606	1294.58
457.979	1306.56
458.352	1323.51
458.725	1368.93
459.099	1392.89
459.472	1399.67
459.845	1396.95
460.218	1404.41
460.591	1428.82
460.964	1431.08
461.337	1482.83
461.71	1471.3
462.083	1514.69
462.456	1499.55
462.829	1504.3
463.201	1556.95
463.574	1564.18
463.947	1566.89
464.32	1581.36
464.692	1591.3
465.065	1642.82
465.438	1615.93
465.81	1663.61
466.183	1683.05
466.555	1686.89
466.928	1713.33
467.3	1715.82
467.672	1759.88
468.045	1769.6
468.417	1769.37
468.789	1787
469.161	1814.57
469.534	1876.49
469.906	1902.48
470.278	1883.95
470.65	1903.83
471.022	1954.91
471.394	1984.96
471.766	2016.83
472.138	2026.54
472.51	2079.2
472.882	2127.56
473.253	2138.86
473.625	2139.99
473.997	2192.19
474.369	2216.14
474.74	2250.04
475.112	2264.5
475.484	2299.98
475.855	2325.74
476.227	2320.77
476.598	2428.34
476.97	2473.31
477.341	2488
477.713	2550.14
478.084	2546.3
478.455	2627.2
478.827	2648.9
479.198	2669.46
479.569	2703.14
479.94	2803.7
480.311	2804.38
480.682	2848.22
481.053	2954.2
481.424	2969.79
481.795	2965.28
482.166	3018.38
482.537	3113.75
482.908	3149.23
483.279	3193.29
483.65	3254.99
484.021	3307.87
484.391	3332.27
484.762	3406.62
485.133	3438.48
485.503	3492.94
485.874	3547.41
486.244	3598.48
486.615	3680.06
486.985	3701.98
487.356	3781.07
487.726	3865.36
488.097	3921.18
488.467	3917.57
488.837	4026.26
489.207	4014.51
489.578	4095.41
489.948	4133.38
490.318	4201.63
490.688	4185.58
491.058	4277.56
491.428	4344.45
491.798	4440.94
492.168	4534.27
492.538	4515.97
492.908	4577.89
493.278	4714.61
493.648	4683.2
494.017	4703.53
494.387	4838.45
494.757	4851.1
495.126	4883.19
495.496	4919.35
495.866	4971.32
496.235	5035.5
496.605	5077.54
496.974	5131.32
497.344	5222.84
497.713	5211.09
498.082	5304.87
498.452	5367.7
498.821	5418.09
499.19	5414.25
499.559	5543.51
499.928	5563.4
500.298	5546.68
500.667	5627.8
501.036	5699.44
501.405	5741.47
501.774	5758.65
502.143	5847.23
502.512	5845.43
502.88	5905.76
503.249	5985.76
503.618	6006.78
503.987	6098.98
504.356	6163.61
504.724	6108.92
505.093	6193.44
505.462	6260.56
505.83	6312.98
506.199	6396.82
506.567	6497.84
506.936	6443.83
507.304	6614.22
507.672	6666.19
508.041	6675.01
508.409	6701.9
508.777	6806.08
509.145	6871.39
509.514	6912.06
509.882	6999.07
510.25	7106.41
510.618	7083.81
510.986	7241.77
511.354	7270.7
511.722	7305.73
512.09	7443.8
512.458	7432.95
512.826	7509.11
513.193	7591.82
513.561	7658.49
513.929	7727.64
514.297	7748.65
514.664	7904.13
515.032	7912.04
515.4	8016.67
515.767	8032.26
516.135	8142.09
516.502	8169.43
516.869	8312.48
517.237	8368.97
517.604	8422.53
517.972	8488.52
518.339	8501.63
518.706	8629.08
519.073	8672.92
519.44	8778.91
519.808	8861.39
520.175	8955.85
520.542	9078.79
520.909	9184.09
521.276	9211.89
521.643	9273.58
522.009	9394.48
522.376	9547.02
522.743	9553.58
523.11	9682.16
523.477	9828.6
523.843	9888.93
524.21	9999.44
524.577	10078.99
524.943	10168.93
525.31	10249.38
525.676	10432.42
526.043	10500.44
526.409	10556.04
526.776	10663.83
527.142	10717.16
527.508	10860.21
527.874	10902.47
528.241	11048.9
528.607	11051.84
528.973	11164.16
529.339	11257.03
529.705	11422.23
530.071	11519.63
530.437	11601.88
530.803	11738.83
531.169	11846.4
531.535	11818.6
531.901	12002.55
532.267	12027.86
532.632	12200.06
532.998	12227.86
533.364	12346.05
533.73	12378.59
534.095	12546.04
534.461	12590.33
534.826	12670.56
535.192	12714.62
535.557	12935.41
535.923	12946.26
536.288	13004.56
536.653	13104.9
537.019	13163.65
537.384	13225.8
537.749	13358.67
538.114	13404.32
538.479	13431.21
538.845	13483.87
539.21	13529.29
539.575	13684.54
539.94	13845.44
540.305	13842.73
540.67	13925.21
541.034	14082.27
541.399	14068.03
541.764	14201.36
542.129	14172.44
542.494	14356.16
542.858	14410.62
543.223	14486.1
543.587	14713.67
543.952	14628.47
544.316	14729.49
544.681	14779.43
545.045	14952.98
545.41	14969.93
545.774	15077.05
546.138	15119.08
546.503	15226.65
546.867	15277.49
547.231	15412.41
547.595	15493.31
547.959	15523.81
548.324	15690.36
548.688	15627.54
549.052	15771.49
549.416	15800.64
549.779	15954.54
550.143	15973.29
550.507	16177.58
550.871	16232.95
551.235	16209.9
551.599	16467.52
551.962	16439.95
552.326	16542.77
552.689	16685.14
553.053	16636.1
553.417	16806.95
553.78	17027.73
554.143	16994.74
554.507	17168.97
554.87	17293.49
555.234	17386.36
555.597	17299.14
555.96	17477.66
556.323	17618.22
556.686	17779.57
557.05	17805.79
557.413	17840.14
557.776	18032
558.139	18038.78
558.502	18227.92
558.865	18209.85
559.228	18388.15
559.59	18572.55
559.953	18683.96
560.316	18906.1
560.679	18902.03
561.041	19086.66
561.404	19168.69
561.767	19329.36
562.129	19274.9
562.492	19474.45
562.854	19600.09
563.217	19573.2
563.579	19760.09
563.941	19907.65
564.304	20020.87
564.666	20127.54
565.028	20132.96
565.39	20304.25
565.753	20473.06
566.115	20497.47
566.477	20674.41
566.839	20740.63
567.201	20973.62
567.563	21048.87
567.925	21195.08
568.287	21201.86
568.648	21319.37
569.01	21501.96
569.372	21570.21
569.734	21616.08
570.095	21835.74
570.457	21868.73
570.819	21975.17
571.18	21967.49
571.542	22087.71
571.903	22360.92
572.265	22290.87
572.626	22370.19
572.987	22430.07
573.349	22726.79
573.71	22694.02
574.071	22809.73
574.432	22965.88
574.794	23105.99
575.155	23077.29
575.516	23070.06
575.877	23290.16
576.238	23359.99
576.599	23403.16
576.96	23461.69
577.32	23615.81
577.681	23614.68
578.042	23727.22
578.403	23812.18
578.763	23851.96
579.124	23940.99
579.485	24019.64
579.845	24052.18
580.206	24144.38
580.566	24128.79
580.927	24188.45
581.287	24264.15
581.648	24392.06
582.008	24474.99
582.368	24480.42
582.728	24491.94
583.089	24503.01
583.449	24723.8
583.809	24671.37
584.169	24858.03
584.529	24891.7
584.889	24875.66
585.249	24902.1
585.609	24834.3
585.969	25120.17
586.329	24993.62
586.688	25082.43
587.048	25067.07
587.408	25102.77
587.768	25208.08
588.127	25213.96
588.487	25253.5
588.846	25396.32
589.206	25403.78
589.565	25288.3
589.925	25539.37
590.284	25516.55
590.643	25629.31
591.003	25704.34
591.362	25652.59
591.721	25698.01
592.08	25802.19
592.44	25846.93
592.799	25892.36
593.158	25805.8
593.517	25803.32
593.876	25970.55
594.235	25956.76
594.593	26128.28
594.952	26137.55
595.311	26022.3
595.67	26175.29
596.029	26420.25
596.387	26366.69
596.746	26417.31
597.104	26347.49
597.463	26464.09
597.822	26464.32
598.18	26385.22
598.538	26362.63
598.897	26580.7
599.255	26359.24
599.613	26865.89
599.972	26641.49
600.33	26655.73
600.688	26603.75
601.046	26780.92
601.404	26897.75
601.762	26958.99
602.12	27001.03
602.478	27043.51
602.836	27095.26
603.194	27010.52
603.552	27044.87
603.91	27122.83
604.268	27066.11
604.625	27093.45
604.983	27273.11
605.341	27113.34
605.698	27309.27
606.056	27489.83
606.413	27335.71
606.771	27543.16
607.128	27628.58
607.485	27568.47
607.843	27507.91
608.2	27758.97
608.557	27735.02
608.914	27657.06
609.272	27850.04
609.629	28024.28
609.986	27975.46
610.343	27908.8
610.7	28268.11
611.057	28107.89
611.414	28097.04
611.771	28285.51
612.127	28318.51
612.484	28220.2
612.841	28398.73
613.198	28356.7
613.554	28476.92
613.911	28517.6
614.267	28520.08
614.624	28505.85
614.98	28559.86
615.337	28795.78
615.693	28704.49
616.05	28688.89
616.406	28893.63
616.762	28777.7
617.118	28893.18
617.475	28985.16
617.831	29045.95
618.187	29055.21
618.543	29171.59
618.899	29424.01
619.255	29329.78
619.611	29215.43
619.967	29390.57
620.323	29516.89
620.678	29295.43
621.034	29340.63
621.39	29343.56
621.746	29298.37
622.101	29669.21
622.457	29536.55
622.812	29659.71
623.168	29725.48
623.523	29553.5
623.879	29827.85
624.234	29591.92
624.589	29636.44
624.945	29684.8
625.3	29820.61
625.655	29719.37
626.01	29848.18
626.365	29863.1
626.72	29781.75
627.075	29727.96
627.43	29678.02
627.785	29741.29
628.14	29889.54
628.495	29772.93
628.85	29859.03
629.205	29803.89
629.559	29995.98
629.914	29783.33
630.269	29877.79
630.623	29822.87
630.978	29847.28
631.332	29852.25
631.687	29904.91
632.041	29789.88
632.396	29868.97
632.75	29827.39
633.104	29927.5
633.459	29852.25
633.813	29650.22
634.167	29807.73
634.521	29856.09
634.875	29980.38
635.229	29841.4
635.583	29642.54
635.937	29742.42
636.291	29827.62
636.645	29581.52
636.999	29705.81
637.352	29746.49
637.706	29518.7
638.06	29642.54
638.413	29648.19
638.767	29528.19
639.121	29550.34
639.474	29421.53
639.828	29518.48
640.181	29565.93
640.534	29527.74
640.888	29427.4
641.241	29478.25
641.594	29467.4
641.947	29696.55
642.301	29518.7
642.654	29506.95
643.007	29570.68
643.36	29461.3
643.713	29466.27
644.066	29645.25
644.419	29302.44
644.771	29185.83
645.124	28829.45
645.477	28897.93
645.83	28767.31
646.182	28707.42
646.535	28609.57
646.888	28735.22
647.24	28570.03
647.593	28710.13
647.945	28678.95
648.298	28492.97
648.65	28461.55
649.002	28422.01
649.355	28535.22
649.707	28495.45
650.059	28706.97
650.411	28997.13
650.763	28970.47
651.115	29353.96
651.467	29163.68
651.819	29174.08
652.171	29292.72
652.523	29182.44
652.875	29210.69
653.227	29106.73
653.578	29301.98
653.93	29278.48
654.282	29057.92
654.633	29005.49
654.985	29239.16
655.337	29134.98
655.688	29201.42
656.039	29171.14
656.391	28972.5
656.742	29010.69
657.094	29088.43
657.445	29103.57
657.796	29149.45
658.147	29053.85
658.498	29079.16
658.849	29144.02
659.2	29028.32
659.551	29067.64
659.902	29167.07
660.253	29045.04
660.604	29136.56
660.955	28977.25
661.306	29151.71
661.656	29117.58
662.007	29077.81
662.358	29013.18
662.708	29132.5
663.059	29226.28
663.409	28962.33
663.76	29143.12
664.11	29148.54
664.461	29222.44
664.811	29261.31
665.161	29245.04
665.511	29182.21
665.862	29262.89
666.212	29304.7
666.562	29288.88
666.912	29152.16
667.262	29191.93
667.612	29189.44
667.962	29169.56
668.312	29147.64
668.662	29376.56
669.011	29169.56
669.361	29115.32
669.711	29252.49
670.06	29142.21
670.41	29089.11
670.76	29075.78
671.109	29129.56
671.459	29163.91
671.808	29130.24
672.157	29138.15
672.507	28993.52
672.856	29071.71
673.205	29039.39
673.554	29185.15
673.904	28992.39
674.253	29109.45
674.602	29006.4
674.951	28640.98
675.3	28607.31
675.649	29022.9
675.998	28977.47
676.346	29142.89
676.695	29165.49
677.044	28962.78
677.393	29060.41
677.741	28982.67
678.09	28895.67
678.438	28977.02
678.787	29004.59
679.135	29011.6
679.484	28759.85
679.832	28901.54
680.181	28713.52
680.529	28868.32
680.877	28714.2
681.225	28609.57
681.573	28938.38
681.922	28632.17
682.27	28670.36
682.618	28706.52
682.966	28571.16
683.314	28681.66
683.661	28570.48
684.009	28402.57
684.357	28468.79
684.705	28405.06
685.053	28470.14
685.4	28275.34
685.748	28256.81
686.095	28247.77
686.443	28248.23
686.79	28138.4
687.138	28070.6
687.485	28231.28
687.832	28058.85
688.18	28206.42
688.527	28005.52
688.874	27975.46
689.221	28017.05
689.568	27836.94
689.915	27647.56
690.262	27846.2
690.609	27801.91
690.956	27623.84
691.303	27639.65
691.65	27523.05
691.997	27632.42
692.344	27450.73
692.69	27449.6
693.037	27272.21
693.383	27141.59
693.73	27207.58
694.077	27077.41
694.423	27198.54
694.769	26975.27
695.116	27057.3
695.462	26975.72
695.808	26834.03
696.155	26886.91
696.501	26587.25
696.847	26747.93
697.193	26569.85
697.539	26724.65
697.885	26394.04
698.231	26337.32
698.577	26487.82
698.923	26395.85
699.269	26293.25
699.614	26117.89
699.96	26187.94
700.306	26276.3
700.651	25943.88
700.997	25917.21
701.342	25963.99
701.688	26011.67
702.033	25801.51
702.379	25839.48
702.724	25623.66
703.069	25735.98
703.415	25445.59
703.76	25504.57
704.105	25602.42
704.45	25371.01
704.795	25306.83
705.14	25237.91
705.485	25194.97
705.83	25173.96
706.175	25232.03
706.52	25114.98
706.865	25062.32
707.209	25166.27
707.554	24981.19
707.899	25023
708.243	24863.23
708.588	24774.19
708.932	24693.29
709.277	24633.18
709.621	24700.07
709.966	24593.63
710.31	24547.53
710.654	24301.44
710.998	24448.1
711.342	24446.74
711.687	24428.21
712.031	24259.4
712.375	24192.29
712.719	24299.86
713.063	24277.26
713.407	24264.83
713.75	24248.56
714.094	24208.33
714.438	24082.23
714.782	24154.77
715.125	23991.84
715.469	24022.57
715.812	23991.61
716.156	23730.6
716.499	23856.48
716.843	23905.97
717.186	23737.38
717.53	23829.81
717.873	23715.01
718.216	23755.01
718.559	23609.03
718.902	23560.21
719.246	23604.73
719.589	23582.59
719.932	23419.65
720.275	23456.26
720.617	23392.76
720.96	23339.88
721.303	23399.09
721.646	23435.7
721.989	23254.69
722.331	23402.7
722.674	23319.77
723.016	23291.75
723.359	23272.76
723.701	23313.44
724.044	23207.45
724.386	23116.16
724.729	23317.51
725.071	23085.2
725.413	23101.69
725.755	23108.25
726.097	22965.65
726.439	22991.42
726.782	22978.76
727.124	23055.14
727.465	22926.56
727.807	22905.09
728.149	22898.08
728.491	22920.91
728.833	22812.44
729.175	22799.56
729.516	22809.73
729.858	22634.59
730.199	22740.12
730.541	22670.29
730.882	22716.17
731.224	22838.42
731.565	22670.52
731.906	22755.94
732.248	22719.56
732.589	22576.06
732.93	22549.17
733.271	22616.96
733.612	22576.51
733.953	22663.51
734.294	22601.82
734.635	22508.04
734.976	22557.08
735.317	22474.14
735.658	22528.6
735.999	22422.39
736.339	22341.71
736.68	22435.27
737.021	22394.14
737.361	22199.12
737.702	22384.43
738.042	22375.39
738.383	22396.63
738.723	22335.61
739.063	22305.33
739.404	22250.42
739.744	22266.24
740.084	22186.69
740.424	22322.96
740.764	22107.6
741.104	22229.63
741.444	22222.4
741.784	22173.81
742.124	22129.07
742.464	22131.32
742.804	22178.33
743.143	22086.13
743.483	22026.69
743.823	22015.4
744.162	22031.44
744.502	22041.38
744.841	21899.92
745.181	22100.14
745.52	21940.14
745.86	22005.9
746.199	21903.31
746.538	21964.32
746.877	22030.99
747.216	21950.99
747.556	21963.65
747.895	21996.64
748.234	21749.19
748.573	21900.14
748.911	21753.93
749.25	21815.85
749.589	21692.92
749.928	21838.9
750.267	21899.69
750.605	21793.93
750.944	21671.68
751.283	21720.49
751.621	21706.7
751.96	21600.72
752.298	21746.7
752.636	21687.72
752.975	21676.42
753.313	21526.14
753.651	21530.66
753.989	21489.53
754.327	21574.05
754.666	21434.85
755.004	21478.69
755.342	21453.6
755.679	21477.78
756.017	21299.26
756.355	21396.2
756.693	21273.04
757.031	21353.94
757.368	21220.84
757.706	21346.71
758.044	21109.88
758.381	21206.83
758.719	21104.01
759.056	21194.63
759.394	21078.47
759.731	20992.15
760.068	20946.05
760.405	20861.3
760.743	20814.98
761.08	20926.84
761.417	20747.86
761.754	20707.86
762.091	20734.98
762.428	20683
762.765	20544.47
763.102	20675.32
763.438	20487.75
763.775	20375.21
764.112	20462.89
764.449	20435.32
764.785	20344.48
765.122	20337.25
765.458	20246.4
765.795	20217.02
766.131	20085.5
766.467	20135.45
766.804	19996.92
767.14	19990.36
767.476	19919.63
767.812	19794.66
768.148	19919.18
768.485	19813.65
768.821	19659.3
769.157	19636.7
769.492	19633.76
769.828	19557.38
770.164	19531.62
770.5	19450.49
770.836	19309.48
771.171	19241.91
771.507	19192.42
771.842	19121.01
772.178	19106.55
772.513	19059.99
772.849	19069.48
773.184	19024.29
773.519	18980.45
773.855	18866.78
774.19	18773.45
774.525	18756.5
774.86	18684.64
775.195	18598.31
775.53	18633.11
775.865	18533.23
776.2	18450.97
776.535	18213.01
776.87	18266.79
777.205	18268.38
777.539	18191.09
777.874	18246.23
778.209	18027.93
778.543	18071.09
778.878	17846.47
779.212	17891.21
779.547	17865.22
779.881	17835.17
780.215	17727.6
780.55	17826.58
780.884	17704.55
781.218	17632.91
781.552	17614.16
781.886	17414.61
782.22	17387.27
782.554	17373.03
782.888	17231.79
783.222	17191.12
783.556	17087.62
783.889	17091.46
784.223	16934.63
784.557	16946.15
784.89	16892.59
785.224	16873.16
785.557	16856.66
785.891	16794.97
786.224	16697.8
786.558	16758.36
786.891	16586.61
787.224	16566.95
787.557	16486.05
787.891	16419.38
788.224	16480.63
788.557	16403.57
788.89	16326.96
789.223	16272.04
789.556	16201.09
789.888	16113.4
790.221	16063.69
790.554	16001.09
790.887	15946.63
791.219	15941.66
791.552	15900.08
791.884	15819.4
792.217	15840.19
792.549	15699.18
792.882	15691.04
793.214	15576.24
793.546	15538.73
793.879	15636.13
794.211	15548.22
794.543	15456.25
794.875	15365.85
795.207	15424.38
795.539	15298.28
795.871	15415.57
796.203	15150.27
796.535	15122.7
796.867	15141.9
797.198	15063.04
797.53	15076.37
797.862	14998.41
798.193	15054.22
798.525	14817.84
798.856	14909.37
799.188	14858.75
799.519	14792.76
799.85	14667.57
800.182	14677.28
800.513	14670.5
800.844	14520
801.175	14626.44
801.506	14566.55
801.837	14545.54
802.168	14539.89
802.499	14437.29
802.83	14351.64
803.161	14334.24
803.491	14254.92
803.822	14291.08
804.153	14174.92
804.483	14200.91
804.814	14093.12
805.145	14126.56
805.475	14099.9
805.805	14047.7
806.136	14001.14
806.466	13920.02
806.796	13908.26
807.126	13889.06
807.457	13798.89
807.787	13810.64
808.117	13770.41
808.447	13706.24
808.777	13728.61
809.107	13677.31
809.436	13583.3
809.766	13594.83
810.096	13578.56
810.426	13479.57
810.755	13538.1
811.085	13469.63
811.414	13463.98
811.744	13346.92
812.073	13346.7
812.403	13302.4
812.732	13313.48
813.061	13294.5
813.39	13155.74
813.719	13193.48
814.049	13240.26
814.378	13177.66
814.707	13090.88
815.036	13119.36
815.365	13075.74
815.693	12976.09
816.022	12955.52
816.351	12958.46
816.68	12854.96
817.008	12863.09
817.337	12857.44
817.665	12788.29
817.994	12823.1
818.322	12784
818.651	12788.75
818.979	12770.89
819.307	12722.08
819.636	12708.75
819.964	12577
820.292	12659.03
820.62	12701.06
820.948	12607.96
821.276	12637.11
821.604	12553.27
821.932	12593.72
822.259	12711.46
822.587	12563.67
822.915	12593.27
823.243	12660.84
823.57	12581.75
823.898	12617.22
824.225	12541.97
824.553	12563.21
824.88	12575.42
825.207	12602.08
825.535	12546.49
825.862	12628.98
826.189	12479.6
826.516	12680.5
826.843	12675.53
827.17	12615.87
827.497	12667.17
827.824	12617.68
828.151	12541.52
828.478	12692.48
828.805	12646.6
829.131	12584.46
829.458	12585.81
829.785	12586.04
830.111	12626.26
830.438	12657.45
830.764	12611.8
831.09	12567.06
831.417	12558.92
831.743	12546.27
832.069	12512.14
832.395	12528.64
832.722	12581.07
833.048	12508.98
833.374	12549.43
833.7	12410.9
834.026	12478.47
834.351	12514.85
834.677	12490.9
835.003	12458.58
835.329	12466.04
835.654	12438.25
835.98	12398.93
836.306	12408.87
836.631	12384.01
836.956	12418.36
837.282	12453.84
837.607	12421.3
837.932	12316.22
838.258	12340.17
838.583	12314.41
838.908	12227.63
839.233	12222.43
839.558	12224.92
839.883	12153.51
840.208	12210.46
840.533	12163.9
840.858	12118.93
841.182	12160.97
841.507	12094.53
841.832	12102.89
842.156	12052.27
842.481	11998.48
842.805	12001.87
843.13	11991.25
843.454	12001.42
843.778	11996.22
844.103	11932.05
844.427	11926.4
844.751	11915.1
845.075	11790.58
845.399	11765.5
845.723	11760.52
846.047	11749.45
846.371	11612.73
846.695	11683.46
847.019	11593.07
847.343	11587.42
847.666	11421.32
847.99	11397.14
848.313	11510.14
848.637	11361.89
848.96	11436.92
849.284	11363.7
849.607	11207.32
849.931	11243.02
850.254	11239.18
850.577	11075.34
850.9	11002.58
851.223	11016.36
851.546	10949.47
851.869	10885.07
852.192	10970.71
852.515	10850.94
852.838	10878.97
853.161	10830.15
853.483	10779.08
853.806	10740.89
854.129	10679.65
854.451	10702.25
854.774	10615.47
855.096	10609.37
855.419	10560.33
855.741	10459.77
856.063	10460.9
856.385	10423.38
856.708	10455.02
857.03	10421.12
857.352	10417.73
857.674	10378.64
857.996	10262.03
858.318	10305.42
858.64	10360.79
858.961	10242.6
859.283	10233.56
859.605	10225.42
859.926	10142.49
860.248	10173.45
860.57	10093.45
860.891	10086.9
861.212	10084.41
861.534	10045.09
861.855	9969.84
862.176	10081.02
862.498	10045.99
862.819	9987.92
863.14	9944.07
863.461	9938.43
863.782	9914.7
864.103	9868.82
864.424	9873.57
864.745	9864.3
865.065	9817.75
865.386	9819.78
865.707	9820.24
866.027	9819.11
866.348	9687.13
866.668	9822.95
866.989	9731.65
867.309	9645.1
867.63	9695.27
867.95	9639.22
868.27	9648.72
868.59	9616.63
868.91	9585.89
869.23	9608.26
869.55	9584.54
869.87	9627.92
870.19	9627.02
870.51	9613.46
870.83	9608.49
871.15	9580.24
871.469	9545.44
871.789	9538.66
872.109	9518.55
872.428	9472.45
872.748	9460.47
873.067	9530.3
873.386	9499.34
873.706	9483.3
874.025	9346.58
874.344	9371.21
874.663	9422.05
874.982	9312.68
875.301	9411.89
875.62	9368.04
875.939	9289.85
876.258	9272.91
876.577	9303.87
876.896	9319.68
877.214	9249.4
877.533	9279.91
877.852	9200.37
878.17	9284.66
878.489	9182.06
878.807	9236.3
879.125	9163.08
879.444	9182.96
879.762	9181.83
880.08	9188.16
880.398	9154.94
880.716	9137.77
881.034	9087.15
881.352	9065.91
881.67	9009.41
881.988	9001.05
882.306	9006.02
882.624	8951.11
882.941	8956.53
883.259	8935.29
883.577	8964.89
883.894	8877.66
884.212	8914.72
884.529	8905.68
884.846	8842.86
885.164	8849.19
885.481	8787.95
885.798	8874.72
886.115	8740.26
886.432	8802.64
886.75	8785.24
887.067	8671.79
887.383	8703.66
887.7	8778
888.017	8648.74
888.334	8669.31
888.651	8610.1
888.967	8637.44
889.284	8601.74
889.6	8615.07
889.917	8541.63
890.233	8532.59
890.55	8501.4
890.866	8512.7
891.182	8479.25
891.498	8409.43
891.815	8455.98
892.131	8334.85
892.447	8355.87
892.763	8338.24
893.079	8314.96
893.395	8310.22
893.71	8280.62
894.026	8295.3
894.342	8282.88
894.657	8204.69
894.973	8187.06
895.289	8136.89
895.604	8148.87
895.92	8088.53
896.235	8028.64
896.55	8088.53
896.865	7945.26
897.181	7995.88
897.496	7961.3
897.811	7961.08
898.126	7905.94
898.441	7862.32
898.756	7846.5
899.071	7783.68
899.386	7831.14
899.7	7791.81
900.015	7752.72
900.33	7670.91
900.644	7648.09
900.959	7722.21
901.273	7643.57
901.588	7646.96
901.902	7562.67
902.216	7512.27
902.531	7541.43
902.845	7514.99
903.159	7472.73
903.473	7412.62
903.787	7409.68
904.101	7370.13
904.415	7380.07
904.729	7410.58
905.042	7273.18
905.356	7252.39
905.67	7311.38
905.984	7296.46
906.297	7232.51
906.611	7201.77
906.924	7131.49
907.237	7132.4
907.551	7119.52
907.864	7147.76
908.177	7037.48
908.491	7075.9
908.804	7021.44
909.117	6922.69
909.43	6992.74
909.743	6896.47
910.056	6929.46
910.368	6928.33
910.681	6844.72
910.994	6806.76
911.307	6757.49
911.619	6649.47
911.932	6715.69
912.244	6657.38
912.557	6742.8
912.869	6636.14
913.181	6633.65
913.494	6601.34
913.806	6598.85
914.118	6566.08
914.43	6491.28
914.742	6475.47
915.054	6440.66
915.366	6409.7
915.678	6468.01
915.99	6356.6
916.302	6360.67
916.613	6354.11
916.925	6324.96
917.236	6301.23
917.548	6289.48
917.859	6290.84
918.171	6221.46
918.482	6204.74
918.794	6160.67
919.105	6195.47
919.416	6112.31
919.727	6131.07
920.038	6106.44
920.349	6024.4
920.66	6079.32
920.971	5997.51
921.282	5942.82
921.593	5893.79
921.903	5932.43
922.214	5873.22
922.525	5925.2
922.835	5843.17
923.146	5813.56
923.456	5779.44
923.767	5829.61
924.077	5785.54
924.387	5681.36
924.697	5731.76
925.008	5663.51
925.318	5672.1
925.628	5658.76
925.938	5639.1
926.248	5586.68
926.558	5553.23
926.867	5542.16
927.177	5519.78
927.487	5494.93
927.796	5429.62
928.106	5457.41
928.416	5400.47
928.725	5397.08
929.034	5385.78
929.344	5381.03
929.653	5327.25
929.962	5328.38
930.271	5249.51
930.581	5229.85
930.89	5217.65
931.199	5205.44
931.508	5255.84
931.817	5209.51
932.125	5205.67
932.434	5154.6
932.743	5113.24
933.051	5123.64
933.36	5080.47
933.669	5058.33
933.977	5066.24
934.286	4986.24
934.594	4940.14
934.902	4943.3
935.21	4927.94
935.519	4943.75
935.827	4896.52
936.135	4876.86
936.443	4864.43
936.751	4889.07
937.059	4818.11
937.367	4830.99
937.674	4788.73
937.982	4777.2
938.29	4759.13
938.597	4768.39
938.905	4698.56
939.213	4651.78
939.52	4655.85
939.827	4689.52
940.135	4610.66
940.442	4624.89
940.749	4610.66
941.056	4605.01
941.363	4581.05
941.67	4514.84
941.977	4577.21
942.284	4452.92
942.591	4436.42
942.898	4447.95
943.205	4484.33
943.511	4402.98
943.818	4385.12
944.125	4386.03
944.431	4376.99
944.738	4327.05
945.044	4332.24
945.35	4300.61
945.657	4244.56
945.963	4302.64
946.269	4250.44
946.575	4207.5
946.881	4232.81
947.187	4191.91
947.493	4154.4
947.799	4198.24
948.105	4145.58
948.41	4138.8
948.716	4116.88
949.022	4072.14
949.327	4065.81
949.633	4001.86
949.938	4060.39
950.244	4061.97
950.549	4001.41
950.854	4012.48
951.16	3987.62
951.465	3971.8
951.77	3957.57
952.075	3918.7
952.38	3893.61
952.685	3914.4
952.99	3905.59
953.294	3846.38
953.599	3835.31
953.904	3836.21
954.209	3790.11
954.513	3799.6
954.818	3779.27
955.122	3767.97
955.426	3769.1
955.731	3715.09
956.035	3711.02
956.339	3683
956.643	3710.34
956.948	3662.21
957.252	3637.12
957.556	3619.95
957.86	3597.57
958.163	3607.52
958.467	3590.34
958.771	3570.46
959.075	3581.08
959.378	3559.16
959.682	3549.89
959.985	3543.79
960.289	3510.57
960.592	3502.21
960.896	3483.68
961.199	3477.13
961.502	3455.43
961.805	3422.89
962.108	3397.35
962.411	3397.13
962.714	3407.98
963.017	3391.03
963.32	3364.81
963.623	3346.51
963.926	3343.57
964.228	3311.25
964.531	3315.32
964.833	3297.92
965.136	3290.69
965.438	3231.26
965.741	3246.4
966.043	3215.44
966.345	3191.26
966.648	3212.95
966.95	3216.12
967.252	3170.92
967.554	3164.37
967.856	3152.16
968.158	3138.38
968.46	3131.6
968.761	3114.88
969.063	3092.5
969.365	3088.89
969.666	3065.39
969.968	3022.67
970.269	3078.04
970.571	3039.17
970.872	3028.1
971.174	2991.72
971.475	3016.57
971.776	2986.52
972.077	2969.12
972.378	2960.53
972.679	2992.85
972.98	2941.77
973.281	2907.65
973.582	2897.48
973.883	2885.96
974.183	2875.79
974.484	2850.02
974.785	2869.68
975.085	2853.19
975.386	2861.78
975.686	2830.14
975.986	2833.75
976.287	2832.85
976.587	2754.66
976.887	2788.78
977.187	2788.78
977.487	2765.73
977.787	2743.13
978.087	2732.74
978.387	2706.07
978.687	2718.28
978.987	2683.93
979.286	2664.04
979.586	2685.51
979.885	2674.89
980.185	2663.14
980.484	2662.91
980.784	2629.01
981.083	2599.86
981.382	2616.13
981.682	2598.05
981.981	2588.11
982.28	2582.01
982.579	2553.31
982.878	2553.31
983.177	2548.79
983.475	2529.13
983.774	2523.25
984.073	2493.88
984.372	2522.57
984.67	2519.86
984.969	2467.44
985.267	2475.12
985.566	2454.78
985.864	2448.9
986.162	2455.01
986.461	2398.28
986.759	2415.01
987.057	2400.09
987.355	2419.75
987.653	2371.62
987.951	2342.01
988.249	2367.78
988.547	2352.64
988.844	2333.43
989.142	2333.65
989.44	2295.69
989.737	2268.8
990.035	2280.55
990.332	2249.36
990.63	2281
990.927	2266.99
991.224	2243.94
991.521	2259.76
991.819	2235.12
992.116	2225.63
992.413	2198.97
992.71	2194.67
993.006	2186.76
993.303	2168.23
993.6	2201
993.897	2195.13
994.193	2182.24
994.49	2161.68
994.787	2113.09
995.083	2120.78
995.379	2117.16
995.676	2095.24
995.972	2098.63
996.268	2095.47
996.565	2057.73
996.861	2071.29
997.157	2045.3
997.453	2057.5
997.749	2057.05
998.044	2023.15
998.34	1999.88
998.636	2017.96
998.932	1959.2
999.227	1999.42
999.523	1996.49
999.818	1971.18
1000.114	1968.01
1000.409	1941.12
1000.704	1940.44
1001	1914.68
1001.295	1895.92
1001.59	1908.81
1001.885	1915.36
1002.18	1853.44
1002.475	1883.5
1002.77	1866.77
1003.065	1864.51
1003.359	1802.37
1003.654	1843.72
1003.949	1848.92
1004.243	1811.41
1004.538	1829.71
1004.832	1800.11
1005.127	1786.1
1005.421	1789.26
1005.715	1792.2
1006.009	1747.23
1006.304	1753.56
1006.598	1768.02
1006.892	1733.22
1007.186	1706.33
1007.48	1730.28
1007.773	1693.67
1008.067	1732.54
1008.361	1684.4
1008.655	1672.88
1008.948	1661.58
1009.242	1663.61
1009.535	1628.81
1009.829	1628.36
1010.122	1647.12
1010.415	1642.82
1010.708	1628.14
1011.001	1615.03
1011.295	1590.17
1011.588	1576.16
1011.881	1557.4
1012.173	1556.05
1012.466	1546.78
1012.759	1572.54
1013.052	1551.53
1013.344	1538.65
1013.637	1536.16
1013.93	1520.34
1014.222	1517.18
1014.514	1490.29
1014.807	1504.97
1015.099	1479.89
1015.391	1480.79
1015.683	1443.73
1015.976	1456.16
1016.268	1431.76
1016.56	1410.97
1016.851	1445.09
1017.143	1420.01
1017.435	1425.2
1017.727	1385.66
1018.018	1375.94
1018.31	1415.94
1018.602	1408.71
1018.893	1395.82
1019.185	1369.84
1019.476	1350.63
1019.767	1345.2
1020.058	1340.46
1020.35	1316.28
1020.641	1311.08
1020.932	1317.86
1021.223	1289.61
1021.514	1292.55
1021.804	1291.42
1022.095	1293.91
1022.386	1277.64
1022.677	1244.19
1022.967	1274.02
1023.258	1218.88
1023.548	1225.43
1023.839	1239.67
1024.129	1220.69
1024.419	1206.23
1024.709	1194.47
1025	1193.8
1025.29	1229.5
1025.58	1187.92
1025.87	1170.97
1026.16	1175.72
1026.449	1146.34
1026.739	1166.23
1027.029	1166.9
1027.319	1146.34
1027.608	1115.15
1027.898	1130.52
1028.187	1138.88
1028.477	1123.52
1028.766	1086.68
1029.055	1090.52
1029.344	1085.78
1029.634	1082.61
1029.923	1099.11
1030.212	1089.39
1030.501	1049.17
1030.79	1067.92
1031.078	1067.25
1031.367	1047.59
1031.656	1041.71
1031.945	1034.03
1032.233	1047.13
1032.522	996.74
1032.81	999
1033.099	1004.65
1033.387	1016.85
1033.675	995.38
1033.963	992.67
1034.251	979.34
1034.54	980.69
1034.828	968.49
1035.116	968.72
1035.403	974.14
1035.691	923.29
1035.979	951.99
1036.267	932.11
1036.554	913.13
1036.842	931.2
1037.129	929.85
1037.417	928.04
1037.704	908.38
1037.992	883.3
1038.279	902.5
1038.566	877.42
1038.853	877.42
1039.14	877.42
