Data from cardboard_FLMS001491_018.txt Node
Date: Tue Feb 07 11:39:01 GMT 2017
User: dcchb
Spectrometer: FLMS00149
Trigger mode: 0
Integration Time (sec): 2.000000E-2
Scans to average: 10
Electric dark correction enabled: true
Nonlinearity correction enabled: false
Boxcar width: 0
XAxis mode: Wavelengths
Number of Pixels in Spectrum: 2048
>>>>>Begin Spectral Data<<<<<
341.393	-31.4
341.776	-31.4
342.16	-31.4
342.543	-59.19
342.927	-54.9
343.31	-88.35
343.693	-75.24
344.077	-44.96
344.46	-51.51
344.843	-45.86
345.226	-36.37
345.61	-23.71
345.993	-17.61
346.376	-3.15
346.759	22.61
347.142	26.23
347.525	32.33
347.908	41.59
348.291	87.24
348.674	75.27
349.057	101.48
349.44	134.7
349.823	146
350.206	173.12
350.588	185.32
350.971	213.12
351.354	236.84
351.737	246.56
352.119	264.64
352.502	283.85
352.884	283.17
353.267	279.78
353.65	293.79
354.032	299.89
354.414	311.19
354.797	317.07
355.179	324.3
355.562	332.66
355.944	337.41
356.326	306.9
356.709	324.98
357.091	343.96
357.473	351.87
357.855	342.6
358.238	358.65
358.62	355.03
359.002	342.6
359.384	334.69
359.766	320.91
360.148	327.01
360.53	339.89
360.912	340.8
361.294	331.76
361.676	326.11
362.057	326.79
362.439	334.02
362.821	332.43
363.203	329.72
363.584	310.97
363.966	308.93
364.348	338.08
364.729	320.23
365.111	304.64
365.493	318.42
365.874	324.75
366.256	315.49
366.637	324.75
367.019	319.55
367.4	325.88
367.781	313.23
368.163	317.52
368.544	317.52
368.925	296.28
369.306	308.71
369.688	298.99
370.069	294.92
370.45	339.44
370.831	315.49
371.212	313.23
371.593	315.71
371.974	305.54
372.355	315.49
372.736	309.38
373.117	345.54
373.498	301.7
373.879	324.75
374.26	321.81
374.641	291.98
375.021	314.58
375.402	323.4
375.783	326.79
376.163	315.26
376.544	329.27
376.925	303.51
377.305	314.81
377.686	320.68
378.066	325.88
378.447	353
378.827	335.82
379.208	347.8
379.588	317.07
379.968	350.51
380.349	317.75
380.729	321.36
381.109	356.61
381.489	336.05
381.87	330.17
382.25	353.45
382.63	336.95
383.01	347.35
383.39	337.41
383.77	353.68
384.15	351.19
384.53	358.2
384.91	345.32
385.29	331.53
385.67	353
386.049	352.1
386.429	363.62
386.809	351.42
387.189	350.97
387.568	369.95
387.948	351.87
388.328	339.67
388.707	360.91
389.087	357.74
389.466	360.46
389.846	397.07
390.225	364.98
390.605	351.64
390.984	364.3
391.363	361.59
391.743	373.56
392.122	371.53
392.501	372.21
392.881	360.68
393.26	383.96
393.639	373.56
394.018	387.12
394.397	379.67
394.776	393.22
395.155	379.44
395.534	388.03
395.913	388.25
396.292	386.44
396.671	410.85
397.05	390.06
397.429	383.73
397.808	398.2
398.186	390.06
398.565	389.16
398.944	391.19
399.323	408.36
399.701	378.54
400.08	399.33
400.458	404.07
400.837	423.73
401.215	425.09
401.594	416.95
401.972	415.37
402.351	417.4
402.729	404.3
403.107	423.73
403.486	433.9
403.864	417.4
404.242	415.37
404.62	443.17
404.999	440
405.377	408.14
405.755	426.22
406.133	437.06
406.511	446.56
406.889	428.48
407.267	441.36
407.645	447.23
408.023	455.37
408.401	443.39
408.779	449.95
409.156	463.73
409.534	470.51
409.912	475.26
410.29	470.28
410.667	479.55
411.045	484.97
411.422	494.24
411.8	477.06
412.178	491.75
412.555	480.68
412.933	487.91
413.31	483.62
413.687	497.63
414.065	517.74
414.442	525.42
414.819	522.94
415.197	512.09
415.574	521.36
415.951	510.51
416.328	535.82
416.705	531.75
417.082	524.29
417.46	530.4
417.837	530.17
418.214	552.77
418.591	573.33
418.967	564.97
419.344	549.83
419.721	548.25
420.098	559.32
420.475	582.6
420.852	565.87
421.228	582.6
421.605	581.24
421.982	564.75
422.358	586.21
422.735	574.69
423.111	587.12
423.488	601.81
423.864	606.1
424.241	599.09
424.617	627.57
424.994	602.48
425.37	604.52
425.746	607.46
426.123	632.99
426.499	633.22
426.875	635.03
427.251	647.23
427.627	637.06
428.003	656.04
428.379	641.13
428.756	656.04
429.132	693.33
429.507	690.84
429.883	690.62
430.259	673.67
430.635	694.69
431.011	665.99
431.387	684.97
431.763	718.87
432.138	714.8
432.514	686.78
432.89	710.05
433.265	729.94
433.641	729.49
434.016	767.68
434.392	729.71
434.767	760.45
435.143	778.3
435.518	755.47
435.894	773.1
436.269	778.07
436.644	782.14
437.02	781.91
437.395	813.78
437.77	802.7
438.145	804.29
438.52	824.63
438.895	815.59
439.271	827.34
439.646	834.79
440.021	836.38
440.395	852.87
440.77	817.17
441.145	854.91
441.52	858.97
441.895	857.62
442.27	855.81
442.645	879.31
443.019	904.17
443.394	881.12
443.769	884.06
444.143	900.33
444.518	905.08
444.892	880.89
445.267	918.18
445.641	918.41
446.016	926.77
446.39	927.22
446.764	952.76
447.139	928.13
447.513	968.12
447.887	942.14
448.262	958.63
448.636	945.75
449.01	954.57
449.384	974.45
449.758	966.09
450.132	971.51
450.506	988.91
450.88	989.82
451.254	1020.55
451.628	998.41
452.002	999.54
452.376	1054.68
452.75	1032.3
453.123	1043.15
453.497	1041.57
453.871	1057.84
454.244	1105.75
454.618	1059.42
454.992	1093.32
455.365	1094.67
455.739	1101.23
456.112	1147.33
456.486	1173.54
456.859	1155.92
457.232	1172.64
457.606	1156.59
457.979	1195.91
458.352	1197.95
458.725	1231.62
459.099	1201.56
459.472	1243.6
459.845	1229.36
460.218	1260.32
460.591	1269.81
460.964	1292.64
461.337	1294.22
461.71	1307.1
462.083	1310.94
462.456	1321.34
462.829	1349.36
463.201	1347.1
463.574	1359.3
463.947	1381.9
464.32	1395.01
464.692	1428.9
465.065	1417.83
465.438	1432.74
465.81	1463.7
466.183	1506.19
466.555	1486.08
466.928	1509.13
467.3	1523.82
467.672	1520.88
468.045	1581.44
468.417	1568.79
468.789	1576.47
469.161	1594.55
469.534	1633.42
469.906	1668.9
470.278	1650.82
470.65	1698.05
471.022	1699.18
471.394	1767.2
471.766	1761.78
472.138	1762.23
472.51	1824.6
472.882	1820.98
473.253	1830.25
473.625	1865.05
473.997	1926.74
474.369	1944.6
474.74	1956.57
475.112	2004.26
475.484	1996.35
475.855	2076.34
476.227	2124.25
476.598	2154.76
476.97	2150.47
477.341	2175.78
477.713	2231.37
478.084	2240.63
478.455	2246.06
478.827	2277.47
479.198	2382.32
479.569	2377.13
479.94	2427.97
480.311	2436.79
480.682	2479.5
481.053	2579.83
481.424	2607.63
481.795	2590.45
482.166	2625.48
482.537	2715.87
482.908	2745.93
483.279	2745.48
483.65	2793.84
484.021	2902.08
484.391	2927.62
484.762	2961.07
485.133	2963.55
485.503	2987.05
485.874	3097.11
486.244	3137.78
486.615	3202.42
486.985	3230.66
487.356	3252.13
487.726	3306.14
488.097	3409.19
488.467	3415.29
488.837	3464.1
489.207	3490.09
489.578	3556.98
489.948	3571.67
490.318	3626.13
490.688	3617.77
491.058	3729.18
491.428	3816.64
491.798	3812.12
492.168	3879.46
492.538	3945.22
492.908	3993.13
493.278	4006.69
493.648	4033.58
494.017	4100.25
494.387	4154.71
494.757	4231.99
495.126	4218.89
495.496	4263.4
495.866	4264.99
496.235	4339.34
496.605	4357.41
496.974	4455.72
497.344	4473.12
497.713	4533.91
498.082	4565.32
498.452	4598.31
498.821	4717.4
499.19	4668.14
499.559	4730.96
499.928	4768.25
500.298	4843.05
500.667	4880.56
501.036	4843.5
501.405	4938.42
501.774	4940.22
502.143	4995.14
502.512	5058.64
502.88	5149.71
503.249	5090.28
503.618	5176.15
503.987	5207.11
504.356	5217.28
504.724	5358.52
505.093	5354.9
505.462	5364.84
505.83	5435.13
506.199	5493.43
506.567	5529.36
506.936	5569.13
507.304	5643.48
507.672	5718.51
508.041	5792.18
508.409	5774.33
508.777	5858.84
509.145	5892.51
509.514	5979.52
509.882	5995.34
510.25	6039.4
510.618	6115.56
510.986	6143.81
511.354	6142.45
511.722	6212.28
512.09	6344.25
512.458	6387.19
512.826	6433.07
513.193	6448.21
513.561	6549.67
513.929	6584.93
514.297	6637.35
514.664	6711.7
515.032	6784.24
515.4	6809.33
515.767	6830.34
516.135	6921.19
516.502	6923.9
516.869	7048.19
517.237	7103.1
517.604	7106.27
517.972	7146.49
518.339	7304.68
518.706	7300.16
519.073	7366.83
519.44	7447.95
519.808	7476.88
520.175	7577.89
520.542	7727.04
520.909	7740.15
521.276	7774.72
521.643	7841.39
522.009	7935.17
522.376	8040.71
522.743	8109.41
523.11	8198.67
523.477	8294.26
523.843	8364.77
524.21	8460.81
524.577	8521.6
524.943	8577.42
525.31	8625.1
525.676	8722.27
526.043	8818.99
526.409	8894.7
526.776	9001.36
527.142	9031.87
527.508	9185.76
527.874	9222.82
528.241	9320.9
528.607	9306.66
528.973	9485.64
529.339	9507.79
529.705	9569.48
530.071	9738.74
530.437	9817.38
530.803	9803.6
531.169	9927.89
531.535	9962.24
531.901	10005.17
532.267	10034.1
532.632	10209.92
532.998	10208.33
533.364	10291.95
533.73	10408.78
534.095	10503.92
534.461	10496.69
534.826	10590.7
535.192	10613.97
535.557	10750.92
535.923	10741.88
536.288	10868.65
536.653	10899.39
537.019	10915.21
537.384	11072.94
537.749	11079.27
538.114	11150.91
538.479	11217.8
538.845	11305.48
539.21	11291.69
539.575	11407.85
539.94	11488.98
540.305	11538.24
540.67	11653.49
541.034	11640.61
541.399	11768.97
541.764	11785.01
542.129	11956.76
542.494	11935.97
542.858	12016.2
543.223	12003.54
543.587	12157.21
543.952	12115.63
544.316	12306.36
544.681	12304.1
545.045	12413.47
545.41	12475.62
545.774	12479.69
546.138	12568.05
546.503	12640.81
546.867	12634.03
547.231	12730.75
547.595	12846
547.959	12977.3
548.324	12954.02
548.688	13008.26
549.052	13090.07
549.416	13141.59
549.779	13127.8
550.143	13306.56
550.507	13370.28
550.871	13478.76
551.235	13484.18
551.599	13620.67
551.962	13676.04
552.326	13695.02
552.689	13812.98
553.053	13860.44
553.417	13872.87
553.78	14074.45
554.143	14057.05
554.507	14148.12
554.87	14222.69
555.234	14422.69
555.597	14330.94
555.96	14431.05
556.323	14579.07
556.686	14602.57
557.05	14678.72
557.413	14771.6
557.776	14796.24
558.139	14977.7
558.502	14949.68
558.865	15086.85
559.228	15249.78
559.59	15319.84
559.953	15354.86
560.316	15466.95
560.679	15487.29
561.041	15653.84
561.404	15734.06
561.767	15938.8
562.129	15914.17
562.492	16079.59
562.854	16043.43
563.217	16076.88
563.579	16271.9
563.941	16329.98
564.304	16440.71
564.666	16587.15
565.028	16657.2
565.39	16719.57
565.753	16856.29
566.115	16942.17
566.477	16985.33
566.839	17090.64
567.201	17213.12
567.563	17286.34
567.925	17510.51
568.287	17453.79
568.648	17545.09
569.01	17546.9
569.372	17775.82
569.734	17701.7
570.095	17915.93
570.457	17990.28
570.819	17971.29
571.18	18075.47
571.542	18189.14
571.903	18232.3
572.265	18363.37
572.626	18389.36
572.987	18537.38
573.349	18603.37
573.71	18728.79
574.071	18734.21
574.432	18901.66
574.794	19076.35
575.155	18981.89
575.516	18989.35
575.877	19144.37
576.238	19161.77
576.599	19255.33
576.96	19269.79
577.32	19315.89
577.681	19464.59
578.042	19463.68
578.403	19601.98
578.763	19624.58
579.124	19653.73
579.485	19779.38
579.845	19883.11
580.206	19899.15
580.566	19910.45
580.927	19842.66
581.287	20053.27
581.648	20139.6
582.008	20135.76
582.368	20187.96
582.728	20190.67
583.089	20218.24
583.449	20213.27
583.809	20287.62
584.169	20424.34
584.529	20428.18
584.889	20517.21
585.249	20488.51
585.609	20417.56
585.969	20618.23
586.329	20554.95
586.688	20615.97
587.048	20707.04
587.408	20621.62
587.768	20695.97
588.127	20788.62
588.487	20810.77
588.846	20931.67
589.206	20745.23
589.565	20819.81
589.925	20923.08
590.284	20955.4
590.643	21059.35
591.003	21003.53
591.362	21269.51
591.721	21168.95
592.08	21074.71
592.44	21235.39
592.799	21207.59
593.158	21275.84
593.517	21176.18
593.876	21461.37
594.235	21374.37
594.593	21330.98
594.952	21420.69
595.311	21460.92
595.67	21490.07
596.029	21608.26
596.387	21645.77
596.746	21683.74
597.104	21558.77
597.463	21693.46
597.822	21752.66
598.18	21671.76
598.538	21664.08
598.897	21861.13
599.255	21666.79
599.613	22066.55
599.972	21945.88
600.33	22013.67
600.688	21949.95
601.046	21994.01
601.404	22176.15
601.762	22170.5
602.12	22236.72
602.478	22156.04
602.836	22304.06
603.194	22110.85
603.552	22120.56
603.91	22271.97
604.268	22294.12
604.625	22300.22
604.983	22320.11
605.341	22297.05
605.698	22452.53
606.056	22557.61
606.413	22566.2
606.771	22622.7
607.128	22728
607.485	22595.35
607.843	22678.97
608.2	22715.12
608.557	22869.47
608.914	22738.17
609.272	22939.3
609.629	22925.51
609.986	23024.49
610.343	22966.87
610.7	23105.62
611.057	23125.96
611.414	23127.32
611.771	23094.1
612.127	23277.82
612.484	23290.02
612.841	23284.15
613.198	23283.7
613.554	23355.78
613.911	23442.34
614.267	23445.5
614.624	23479.4
614.98	23595.78
615.337	23661.99
615.693	23652.5
616.05	23680.07
616.406	23819.27
616.762	23664.48
617.118	23745.83
617.475	23819.5
617.831	23844.58
618.187	23913.51
618.543	23897.92
618.899	24050.68
619.255	24045.94
619.611	23929.1
619.967	24181.53
620.323	24117.35
620.678	24188.08
621.034	24101.98
621.39	24153.28
621.746	24104.24
622.101	24511.46
622.457	24303.78
622.812	24240.05
623.168	24407.06
623.523	24445.47
623.879	24546.04
624.234	24268.75
624.589	24434.85
624.945	24409.54
625.3	24611.12
625.655	24521.18
626.01	24514.62
626.365	24481.86
626.72	24553.04
627.075	24504.23
627.43	24513.27
627.785	24497.68
628.14	24492.48
628.495	24544.45
628.85	24457.68
629.205	24484.12
629.559	24616.54
629.914	24506.94
630.269	24572.93
630.623	24565.92
630.978	24629.87
631.332	24720.95
631.687	24875.29
632.041	24635.75
632.396	24685.24
632.75	24549.43
633.104	24588.52
633.459	24547.62
633.813	24476.88
634.167	24546.26
634.521	24576.77
634.875	24632.13
635.229	24556.88
635.583	24452.48
635.937	24495.19
636.291	24460.39
636.645	24553.72
636.999	24559.14
637.352	24515.75
637.706	24422.87
638.06	24502.19
638.413	24343.33
638.767	24358.7
639.121	24429.43
639.474	24244.12
639.828	24252.03
640.181	24303.1
640.534	24275.99
640.888	24404.57
641.241	24196.67
641.594	24274.4
641.947	24273.5
642.301	24313.27
642.654	24310.56
643.007	24306.49
643.36	24355.53
643.713	24261.52
644.066	24419.49
644.419	24210
644.771	24229.66
645.124	23850.91
645.477	23800.29
645.83	23652.73
646.182	23659.73
646.535	23621.99
646.888	23635.55
647.24	23461.77
647.593	23628.32
647.945	23525.05
648.298	23350.59
648.65	23448.66
649.002	23393.98
649.355	23549.45
649.707	23527.08
650.059	23598.94
650.411	23971.36
650.763	23948.31
651.115	24215.2
651.467	24067.86
651.819	24095.2
652.171	24027.4
652.523	24046.16
652.875	24073.51
653.227	24006.84
653.578	24203.9
653.93	23998.03
654.282	24103.56
654.633	24005.26
654.985	23970.46
655.337	24017.01
655.688	23962.55
656.039	24118.7
656.391	23856.79
656.742	23966.84
657.094	24017.91
657.445	24113.05
657.796	24098.14
658.147	23970.23
658.498	23963.68
658.849	24018.59
659.2	24042.09
659.551	23965.49
659.902	24219.26
660.253	24114.63
660.604	24013.39
660.955	23938.14
661.306	24079.83
661.656	24031.47
662.007	24211.81
662.358	24024.47
662.708	24016.56
663.059	23984.24
663.409	23841.87
663.76	24092.94
664.11	24121.19
664.461	24179.94
664.811	24080.28
665.161	24021.98
665.511	23991.47
665.862	24080.51
666.212	24191.69
666.562	24132.71
666.912	24218.13
667.262	24025.6
667.612	24129.1
667.962	24203.9
668.312	24139.04
668.662	24308.08
669.011	24286.83
669.361	24225.37
669.711	24167.74
670.06	24183.11
670.41	24024.69
670.76	23991.93
671.109	24125.93
671.459	24037.35
671.808	24057.23
672.157	24074.86
672.507	23930.23
672.856	23992.83
673.205	24021.53
673.554	24090
673.904	24056.56
674.253	24106.27
674.602	24178.14
674.951	23718.49
675.3	23663.57
675.649	24141.98
675.998	24033.73
676.346	24038.7
676.695	24079.61
677.044	23902.21
677.393	24020.85
677.741	24078.7
678.09	23866.96
678.438	23935.66
678.787	23973.4
679.135	24043.68
679.484	23803
679.832	23963.68
680.181	23828.54
680.529	23875.77
680.877	23846.17
681.225	23913.74
681.573	24008.87
681.922	23830.12
682.27	23787.41
682.618	23727.75
682.966	23741.99
683.314	23714.19
683.661	23715.77
684.009	23677.58
684.357	23527.53
684.705	23635.1
685.053	23554.42
685.4	23588.55
685.748	23455.22
686.095	23482.56
686.443	23352.17
686.79	23358.5
687.138	23471.71
687.485	23285.05
687.832	23260.42
688.18	23417.25
688.527	23249.12
688.874	23239.4
689.221	23143.59
689.568	23064.94
689.915	23033.76
690.262	23040.76
690.609	23001.44
690.956	22982.91
691.303	22952.4
691.65	22933.42
691.997	22834.22
692.344	22720.09
692.69	22640.55
693.037	22585.18
693.383	22518.29
693.73	22673.32
694.077	22524.62
694.423	22431.51
694.769	22407.11
695.116	22453.44
695.462	22437.39
695.808	22295.25
696.155	22277.62
696.501	22188.58
696.847	22203.05
697.193	22118.08
697.539	22085.31
697.885	22054.8
698.231	21942.71
698.577	21952.21
698.923	21902.04
699.269	21818.42
699.614	21790.18
699.96	21687.58
700.306	21726.45
700.651	21651.87
700.997	21471.77
701.342	21527.36
701.688	21511.76
702.033	21423.18
702.379	21401.49
702.724	21331.66
703.069	21421.82
703.415	21224.99
703.76	21231.55
704.105	21251.66
704.45	21142.06
704.795	21086.47
705.14	20938.9
705.485	20946.81
705.83	20884.89
706.175	20873.82
706.52	20865
706.865	20730.77
707.209	20773.93
707.554	20710.2
707.899	20809.64
708.243	20678.79
708.588	20642.86
708.932	20486.03
709.277	20582.52
709.621	20574.61
709.966	20417.78
710.31	20494.62
710.654	20247.62
710.998	20314.73
711.342	20383.43
711.687	20232.93
712.031	20281.29
712.375	20120.62
712.719	20156.32
713.063	20192.48
713.407	20188.41
713.75	20057.79
714.094	20144.12
714.438	20108.41
714.782	20029.77
715.125	20045.81
715.469	19947.74
715.812	19850.11
716.156	19865.25
716.499	19860.73
716.843	19869.32
717.186	19802.88
717.53	19887.85
717.873	19815.31
718.216	19811.24
718.559	19640.63
718.902	19581.87
719.246	19655.32
719.589	19722.89
719.932	19553.17
720.275	19492.61
720.617	19522.44
720.96	19488.32
721.303	19477.92
721.646	19517.69
721.989	19306.17
722.331	19478.82
722.674	19456.9
723.016	19437.47
723.359	19407.64
723.701	19417.58
724.044	19243.58
724.386	19251.71
724.729	19354.99
725.071	19233.41
725.413	19217.81
725.755	19179.85
726.097	19105.5
726.439	19144.6
726.782	19034.54
727.124	19214.88
727.465	18986.41
727.807	19075.67
728.149	19042.45
728.491	19054.2
728.833	19090.36
729.175	19033.41
729.516	18987.99
729.858	18970.81
730.199	18994.54
730.541	18974.2
730.882	18868.44
731.224	18872.29
731.565	18876.35
731.906	18855.56
732.248	18955.67
732.589	18793.42
732.93	18714.55
733.271	18854.43
733.612	18826.19
733.953	18899.86
734.294	18713.42
734.635	18682.91
734.976	18739.86
735.317	18677.49
735.658	18688.11
735.999	18724.95
736.339	18610.82
736.68	18792.74
737.021	18641.11
737.361	18589.58
737.702	18715.45
738.042	18613.08
738.383	18538.51
738.723	18682.23
739.063	18571.5
739.404	18618.51
739.744	18529.47
740.084	18474.33
740.424	18429.81
740.764	18426.2
741.104	18545.74
741.444	18544.61
741.784	18351.17
742.124	18503.48
742.464	18470.94
742.804	18482.01
743.143	18421
743.483	18466.87
743.823	18351.85
744.162	18380.77
744.502	18344.62
744.841	18290.15
745.181	18432.52
745.52	18275.69
745.86	18376.03
746.199	18347.33
746.538	18354.33
746.877	18246.31
747.216	18393.2
747.556	18224.62
747.895	18320.66
748.234	18268.69
748.573	18289.25
748.911	18225.07
749.25	18229.59
749.589	18143.94
749.928	18171.74
750.267	18207.67
750.605	18109.59
750.944	18085.87
751.283	18136.49
751.621	18204.28
751.96	17968.13
752.298	18117.73
752.636	18054
752.975	17983.5
753.313	17943.05
753.651	18043.16
753.989	17938.07
754.327	17940.33
754.666	17873.67
755.004	17896.94
755.342	17939.66
755.679	17966.32
756.017	17865.76
756.355	17873.67
756.693	17769.72
757.031	17826.66
757.368	17711.64
757.706	17710.51
758.044	17774.46
758.381	17682.26
758.719	17685.65
759.056	17630.51
759.394	17590.29
759.731	17592.09
760.068	17509.38
760.405	17484.75
760.743	17428.48
761.08	17432.78
761.417	17467.8
761.754	17279.11
762.091	17306.68
762.428	17226.68
762.765	17128.83
763.102	17237.08
763.438	17149.85
763.775	17025.56
764.112	17115.5
764.449	17136.96
764.785	16934.48
765.122	16920.7
765.458	16868.05
765.795	16858.33
766.131	16842.06
766.467	16799.35
766.804	16735.62
767.14	16682.51
767.476	16681.16
767.812	16660.14
768.148	16612.91
768.485	16533.59
768.821	16399.36
769.157	16431.45
769.492	16399.58
769.828	16425.57
770.164	16276.42
770.5	16205.69
770.836	16240.49
771.171	16184.67
771.507	16096.31
771.842	15990.78
772.178	16033.26
772.513	15942.19
772.849	15932.25
773.184	15860.61
773.519	15902.87
773.855	15786.72
774.19	15764.35
774.525	15657.46
774.86	15673.5
775.195	15682.31
775.53	15570.23
775.865	15438.48
776.2	15425.6
776.535	15321.42
776.87	15341.76
777.205	15310.8
777.539	15329.33
777.874	15266.05
778.209	15181.31
778.543	15120.52
778.878	14980.86
779.212	14957.13
779.547	14940.19
779.881	14986.29
780.215	14904.71
780.55	14871.94
780.884	14726.41
781.218	14723.69
781.552	14800.98
781.886	14675.79
782.22	14524.6
782.554	14543.59
782.888	14417.26
783.222	14344.5
783.556	14321.45
783.889	14282.8
784.223	14241.9
784.557	14190.83
784.89	14186.08
785.224	14153.09
785.557	14069.47
785.891	14133.88
786.224	14139.76
786.558	13942.7
786.891	13834.23
787.224	13818.41
787.557	13852.31
787.891	13788.58
788.224	13716.26
788.557	13817.28
788.89	13750.16
789.223	13653.44
789.556	13590.39
789.888	13481.02
790.221	13439.21
790.554	13456.16
790.887	13363.05
791.219	13418.64
791.552	13350.62
791.884	13285.09
792.217	13248.03
792.549	13217.07
792.882	13132.55
793.214	13109.5
793.546	13101.82
793.879	12984.31
794.211	12985.44
794.543	13018.43
794.875	12915.38
795.207	12917.19
795.539	12951.99
795.871	12845.1
796.203	12786.12
796.535	12752.67
796.867	12724.65
797.198	12623.19
797.53	12634.71
797.862	12579.12
798.193	12639.68
798.525	12474.49
798.856	12588.84
799.188	12424.77
799.519	12357.43
799.85	12305.45
800.182	12359.24
800.513	12318.11
800.844	12161.5
801.175	12294.38
801.506	12252.12
801.837	12154.95
802.168	12140.49
802.499	12104.55
802.83	12092.35
803.161	12022.97
803.491	11967.16
803.822	11979.36
804.153	12002.64
804.483	11879.25
804.814	11889.42
805.145	11789.99
805.475	11838.12
805.805	11750.44
806.136	11698.46
806.466	11712.02
806.796	11743.43
807.126	11619.14
807.457	11613.72
807.787	11589.77
808.117	11596.77
808.447	11505.93
808.777	11537.34
809.107	11549.31
809.436	11453.95
809.766	11517.68
810.096	11467.51
810.426	11454.63
810.755	11425.7
811.085	11368.75
811.414	11357
811.744	11292.6
812.073	11251.24
812.403	11322.43
812.732	11214.63
813.061	11190
813.39	11119.04
813.719	11111.59
814.049	11199.49
814.378	11136.22
814.707	11089.67
815.036	11041.08
815.365	10974.87
815.693	10935.09
816.022	10882.89
816.351	10902.78
816.68	10859.84
817.008	10879.95
817.337	10831.82
817.665	10795.44
817.994	10815.32
818.322	10837.47
818.651	10795.21
818.979	10677.47
819.307	10831.37
819.636	10716.79
819.964	10632.28
820.292	10669.79
820.62	10693.52
820.948	10613.52
821.276	10701.2
821.604	10640.64
821.932	10670.69
822.259	10691.03
822.587	10642.9
822.915	10613.07
823.243	10664.14
823.57	10600.19
823.898	10577.59
824.225	10672.95
824.553	10626.18
824.88	10587.08
825.207	10672.28
825.535	10571.71
825.862	10670.69
826.189	10577.36
826.516	10693.29
826.843	10653.52
827.17	10617.59
827.497	10629.57
827.824	10625.95
828.151	10633.18
828.478	10679.73
828.805	10614.88
829.131	10640.86
829.458	10598.38
829.785	10552.05
830.111	10630.92
830.438	10684.7
830.764	10610.13
831.09	10603.8
831.417	10520.64
831.743	10648.55
832.069	10606.74
832.395	10541.43
832.722	10640.41
833.048	10615.33
833.374	10525.84
833.7	10501.88
834.026	10580.98
834.351	10589.57
834.677	10544.82
835.003	10567.87
835.329	10547.76
835.654	10547.53
835.98	10520.19
836.306	10465.73
836.631	10427.31
836.956	10552.96
837.282	10580.53
837.607	10453.52
837.932	10387.76
838.258	10386.18
838.583	10462.11
838.908	10303.92
839.233	10395
839.558	10359.06
839.883	10318.84
840.208	10284.94
840.533	10266.64
840.858	10196.58
841.182	10267.77
841.507	10241.1
841.832	10236.13
842.156	10194.55
842.481	10187.09
842.805	10148
843.13	10160.88
843.454	10140.09
843.778	10138.96
844.103	10052.86
844.427	10008.34
844.751	10017.38
845.075	10037.04
845.399	9972.63
845.723	9951.39
846.047	9976.47
846.371	9873.88
846.695	9906.65
847.019	9809.02
847.343	9761.79
847.666	9725.63
847.99	9648.35
848.313	9664.84
848.637	9646.99
848.96	9633.43
849.284	9564.51
849.607	9466.21
849.931	9452.42
850.254	9394.34
850.577	9357.51
850.9	9335.81
851.223	9314.12
851.546	9289.04
851.869	9235.93
852.192	9251.3
852.515	9162.26
852.838	9152.32
853.161	9161.36
853.483	9101.47
853.806	9061.47
854.129	9003.39
854.451	9046.56
854.774	8967.69
855.096	8950.97
855.419	8927.46
855.741	8877.07
856.063	8801.59
856.385	8872.55
856.708	8868.48
857.03	8760.69
857.352	8823.51
857.674	8786.9
857.996	8688.15
858.318	8700.58
858.64	8676.17
858.961	8687.24
859.283	8625.32
859.605	8633.69
859.926	8675.49
860.248	8561.6
860.57	8597.53
860.891	8560.24
861.212	8523.86
861.534	8541.94
861.855	8455.61
862.176	8503.75
862.498	8544.2
862.819	8479.57
863.14	8478.66
863.461	8389.17
863.782	8437.31
864.103	8395.95
864.424	8410.87
864.745	8357.53
865.065	8301.94
865.386	8280.47
865.707	8387.59
866.027	8324.32
866.348	8240.93
866.668	8295.39
866.989	8322.51
867.309	8260.14
867.63	8239.8
867.95	8219.91
868.27	8147.82
868.59	8221.27
868.91	8220.59
869.23	8137.43
869.55	8112.8
869.87	8155.28
870.19	8155.51
870.51	8123.19
870.83	8125.22
871.15	8068.95
871.469	8066.69
871.789	8104.43
872.109	8045
872.428	8000.93
872.748	8056.53
873.067	8073.7
873.386	8035.28
873.706	8010.2
874.025	7968.62
874.344	7970.2
874.663	7965.45
874.982	7978.56
875.301	8037.54
875.62	7957.77
875.939	7952.57
876.258	7936.98
876.577	7929.75
876.896	7873.48
877.214	7827.6
877.533	7943.31
877.852	7878
878.17	7844.55
878.489	7841.62
878.807	7854.27
879.125	7840.71
879.444	7813.37
879.762	7805.01
880.08	7774.5
880.398	7746.25
880.716	7726.14
881.034	7674.16
881.352	7743.99
881.67	7715.07
881.988	7705.57
882.306	7697.44
882.624	7705.12
882.941	7655.63
883.259	7602.75
883.577	7601.17
883.894	7551.91
884.212	7540.61
884.529	7500.83
884.846	7484.56
885.164	7526.37
885.481	7481.85
885.798	7566.14
886.115	7468.97
886.432	7492.02
886.75	7393.27
887.067	7459.03
887.383	7357.33
887.7	7453.15
888.017	7364.34
888.334	7373.83
888.651	7292.25
888.967	7337.9
889.284	7257.68
889.6	7315.08
889.917	7276.43
890.233	7223.1
890.55	7186.27
890.866	7209.99
891.182	7220.84
891.498	7160.05
891.815	7100.84
892.131	7080.28
892.447	7085.93
892.763	7053.16
893.079	7066.04
893.395	7042.31
893.71	7011.13
894.026	7035.76
894.342	6994.63
894.657	6951.47
894.973	6935.65
895.289	6953.28
895.604	6894.75
895.92	6898.14
896.235	6887.97
896.55	6840.29
896.865	6802.1
897.181	6858.36
897.496	6812.94
897.811	6809.78
898.126	6746.5
898.441	6697.69
898.756	6715.09
899.071	6705.83
899.386	6626.73
899.7	6631.03
900.015	6602.1
900.33	6540.63
900.644	6572.04
900.959	6617.24
901.273	6495.44
901.588	6441.43
901.902	6426.74
902.216	6433.07
902.531	6418.15
902.845	6365.5
903.159	6327.76
903.473	6302.9
903.787	6272.62
904.101	6341.77
904.415	6283.46
904.729	6307.19
905.042	6243.24
905.356	6186.97
905.67	6223.35
905.984	6163.92
906.297	6190.13
906.611	6099.29
906.924	6140.19
907.237	6149.23
907.551	6049.8
907.864	6054.32
908.177	6031.49
908.491	6023.36
908.804	5986.07
909.117	5950.59
909.43	5981.55
909.743	5857.26
910.056	5905.85
910.368	5866.53
910.681	5839.63
910.994	5852.06
911.307	5782.91
911.619	5752.41
911.932	5786.98
912.244	5699.53
912.557	5714.89
912.869	5681.9
913.181	5713.31
913.494	5674.67
913.806	5594.67
914.118	5625.85
914.43	5581.56
914.742	5582.69
915.054	5516.48
915.366	5523.71
915.678	5535.69
915.99	5440.32
916.302	5413.88
916.613	5431.74
916.925	5452.53
917.236	5406.65
917.548	5371.62
917.859	5359.42
918.171	5292.53
918.482	5330.95
918.794	5286.2
919.105	5281.01
919.416	5215.7
919.727	5221.8
920.038	5172.99
920.349	5211.63
920.66	5097.73
920.971	5148.13
921.282	5095.47
921.593	5146.77
921.903	5055.7
922.214	5027.23
922.525	5052.08
922.835	5017.06
923.146	5018.64
923.456	4947.23
923.767	4945.42
924.077	4960.79
924.387	4881.24
924.697	4883.05
925.008	4928.92
925.318	4838.76
925.628	4855.03
925.938	4850.28
926.248	4780.45
926.558	4766.22
926.867	4743.84
927.177	4741.13
927.487	4733.67
927.796	4678.31
928.106	4677.41
928.416	4666.33
928.725	4637.41
929.034	4620.46
929.344	4580.46
929.653	4659.1
929.962	4557.18
930.271	4608.25
930.581	4546.56
930.89	4536.39
931.199	4518.31
931.508	4501.59
931.817	4443.06
932.125	4431.99
932.434	4422.95
932.743	4369.62
933.051	4368.71
933.36	4342.72
933.669	4301.14
933.977	4287.36
934.286	4282.84
934.594	4306.34
934.902	4256.17
935.21	4219.11
935.519	4242.39
935.827	4244.87
936.135	4229.96
936.443	4192.45
936.751	4143.63
937.059	4175.5
937.367	4134.59
937.674	4111.54
937.982	4152.22
938.29	4088.27
938.597	4084.2
938.905	3991.32
939.213	4017.54
939.52	4001.04
939.827	4028.83
940.135	3992
940.442	3975.73
940.749	3949.29
941.056	3961.72
941.363	3935.96
941.67	3934.83
941.977	3907.71
942.284	3885.79
942.591	3861.61
942.898	3845.79
943.205	3841.04
943.511	3830.87
943.818	3785.45
944.125	3788.39
944.431	3769.86
944.738	3725.34
945.044	3751.1
945.35	3714.49
945.657	3693.93
945.963	3727.6
946.269	3660.93
946.575	3718.79
946.881	3673.82
947.187	3649.18
947.493	3622.07
947.799	3616.64
948.105	3595.4
948.41	3570.99
948.716	3543.2
949.022	3547.04
949.327	3522.63
949.633	3497.78
949.938	3516.76
950.244	3511.79
950.549	3508.4
950.854	3499.81
951.16	3428.62
951.465	3437.21
951.77	3406.7
952.075	3389.98
952.38	3393.6
952.685	3393.37
952.99	3307.72
953.294	3339.14
953.599	3344.11
953.904	3299.81
954.209	3312.47
954.513	3304.11
954.818	3286.71
955.122	3287.16
955.426	3229.08
955.731	3241.06
956.035	3217.1
956.339	3211.91
956.643	3189.53
956.948	3179.59
957.252	3173.94
957.556	3190.21
957.86	3181.85
958.163	3123.77
958.467	3111.8
958.771	3118.35
959.075	3073.61
959.378	3110.67
959.682	3072.93
959.985	3047.39
960.289	3048.07
960.592	3038.8
960.896	2999.71
961.199	3005.36
961.502	2971.24
961.805	2967.17
962.108	2969.43
962.411	2942.31
962.714	2894.4
963.017	2949.54
963.32	2940.95
963.623	2883.55
963.926	2911.12
964.228	2855.31
964.531	2849.2
964.833	2858.24
965.136	2837.68
965.438	2801.07
965.741	2831.58
966.043	2800.62
966.345	2797
966.648	2804.91
966.95	2753.16
967.252	2784.35
967.554	2742.77
967.856	2736.89
968.158	2725.59
968.46	2688.76
968.761	2743.67
969.063	2725.37
969.365	2653.5
969.666	2658.93
969.968	2666.16
970.269	2623.22
970.571	2658.02
970.872	2643.33
971.174	2613.73
971.475	2608.76
971.776	2583.9
972.077	2554.75
972.378	2565.82
972.679	2559.04
972.98	2523.79
973.281	2533.73
973.582	2511.13
973.883	2544.13
974.183	2500.97
974.484	2491.7
974.785	2493.51
975.085	2496.45
975.386	2479.04
975.686	2472.49
975.986	2440.63
976.287	2443.11
976.587	2439.72
976.887	2424.36
977.187	2436.11
977.487	2396.56
977.787	2361.08
978.087	2366.51
978.387	2367.64
978.687	2362.21
978.987	2355.21
979.286	2335.32
979.586	2310.24
979.885	2318.6
980.185	2308.65
980.484	2329.44
980.784	2293.06
981.083	2285.6
981.382	2251.25
981.682	2270.69
981.981	2238.15
982.28	2250.58
982.579	2204.48
982.878	2187.3
983.177	2251.03
983.475	2188.43
983.774	2175.1
984.073	2171.48
984.372	2182.1
984.67	2167.19
984.969	2199.28
985.267	2156.12
985.566	2159.96
985.864	2143.91
986.162	2143.69
986.461	2109.79
986.759	2112.05
987.057	2118.15
987.355	2086.51
987.653	2114.76
987.951	2057.36
988.249	2065.27
988.547	2018.94
988.844	2036.8
989.142	2042.22
989.44	2055.78
989.737	2009
990.035	2003.35
990.332	1966.06
990.63	2002.22
990.927	1989.57
991.224	1964.48
991.521	1950.92
991.819	1956.8
992.116	1995.89
992.413	1957.7
992.71	1950.02
993.006	1935.33
993.303	1933.75
993.6	1916.12
993.897	1914.77
994.193	1900.08
994.49	1877.25
994.787	1847.65
995.083	1866.18
995.379	1869.12
995.676	1852.62
995.972	1846.97
996.268	1828.89
996.565	1791.15
996.861	1794.09
997.157	1823.69
997.453	1809.01
997.749	1779.18
998.044	1767.88
998.34	1790.93
998.636	1756.13
998.932	1726.07
999.227	1752.74
999.523	1731.49
999.818	1695.34
1000.114	1707.99
1000.409	1741.66
1000.704	1693.75
1001	1717.48
1001.295	1698.73
1001.59	1679.07
1001.885	1675.9
1002.18	1649.69
1002.475	1674.77
1002.77	1665.96
1003.065	1617.6
1003.359	1618.05
1003.654	1623.7
1003.949	1630.48
1004.243	1606.75
1004.538	1603.81
1004.832	1604.04
1005.127	1568.79
1005.421	1542.35
1005.715	1564.94
1006.009	1540.54
1006.304	1547.09
1006.598	1511.84
1006.892	1569.92
1007.186	1511.16
1007.48	1524.95
1007.773	1521.78
1008.067	1505.74
1008.361	1502.8
1008.655	1479.07
1008.948	1478.62
1009.242	1464.38
1009.535	1453.99
1009.829	1436.13
1010.122	1449.24
1010.415	1454.21
1010.708	1425.97
1011.001	1463.93
1011.295	1428.9
1011.588	1414.67
1011.881	1389.81
1012.173	1382.35
1012.466	1362.46
1012.759	1384.61
1013.052	1395.46
1013.344	1360.88
1013.637	1358.4
1013.93	1368.11
1014.222	1366.53
1014.514	1350.49
1014.807	1309.36
1015.099	1292.41
1015.391	1329.24
1015.683	1303.93
1015.976	1313.2
1016.268	1255.12
1016.56	1276.59
1016.851	1255.8
1017.143	1272.52
1017.435	1281.56
1017.727	1247.44
1018.018	1239.76
1018.31	1242.92
1018.602	1213.09
1018.893	1228.68
1019.185	1239.08
1019.476	1204.95
1019.767	1206.99
1020.058	1203.15
1020.35	1185.29
1020.641	1166.76
1020.932	1165.41
1021.223	1137.61
1021.514	1164.73
1021.804	1147.1
1022.095	1138.06
1022.386	1149.36
1022.677	1121.34
1022.967	1108.01
1023.258	1114.56
1023.548	1126.54
1023.839	1089.7
1024.129	1112.53
1024.419	1099.87
1024.709	1082.25
1025	1049.93
1025.29	1058.29
1025.58	1075.47
1025.87	1037.73
1026.16	1053.55
1026.449	1076.82
1026.739	1046.99
1027.029	1016.48
1027.319	1010.38
1027.608	1031.17
1027.898	1004.06
1028.187	1015.81
1028.477	977.62
1028.766	1014.22
1029.055	1002.47
1029.344	985.52
1029.634	975.36
1029.923	983.27
1030.212	995.02
1030.501	965.64
1030.79	974.45
1031.078	938.97
1031.367	978.75
1031.656	941.46
1031.945	945.07
1032.233	929.26
1032.522	887.9
1032.81	907.11
1033.099	940.78
1033.387	908.01
1033.675	874.57
1033.963	884.51
1034.251	896.04
1034.54	877.28
1034.828	882.48
1035.116	878.86
1035.403	870.27
1035.691	847.68
1035.979	863.72
1036.267	849.03
1036.554	834.79
1036.842	845.87
1037.129	834.57
1037.417	827.56
1037.704	825.3
1037.992	841.57
1038.279	807.9
1038.566	838.18
1038.853	838.18
1039.14	838.18
