Data from cardboard_FLMS001491_081.txt Node
Date: Tue Feb 07 11:40:15 GMT 2017
User: dcchb
Spectrometer: FLMS00149
Trigger mode: 0
Integration Time (sec): 2.000000E-2
Scans to average: 10
Electric dark correction enabled: true
Nonlinearity correction enabled: false
Boxcar width: 0
XAxis mode: Wavelengths
Number of Pixels in Spectrum: 2048
>>>>>Begin Spectral Data<<<<<
341.393	-8.25
341.776	-8.25
342.16	-8.25
342.543	-55.03
342.927	-62.71
343.31	-62.48
343.693	-71.07
344.077	-74.91
344.46	-42.6
344.843	-42.37
345.226	-36.5
345.61	-34.69
345.993	-24.75
346.376	-3.95
346.759	26.78
347.142	7.34
347.525	52.99
347.908	49.6
348.291	55.48
348.674	94.35
349.057	106.78
349.44	115.59
349.823	131.86
350.206	186.32
350.588	186.32
350.971	214.57
351.354	212.76
351.737	248.24
352.119	261.12
352.502	264.51
352.884	291.63
353.267	267.45
353.65	286.66
354.032	297.28
354.414	306.55
354.797	307
355.179	326.88
355.562	323.72
355.944	315.13
356.326	321.69
356.709	342.02
357.091	339.31
357.473	343.83
357.855	317.39
358.238	344.96
358.62	347.22
359.002	345.64
359.384	333.66
359.766	337.05
360.148	334.57
360.53	340.44
360.912	351.06
361.294	330.95
361.676	327.34
362.057	333.66
362.439	314.46
362.821	334.34
363.203	316.94
363.584	329.82
363.966	304.29
364.348	308.35
364.729	327.11
365.111	294.12
365.493	320.33
365.874	311.07
366.256	319.88
366.637	310.84
367.019	309.03
367.4	327.11
367.781	308.81
368.163	314.46
368.544	313.1
368.925	326.43
369.306	335.47
369.688	299.77
370.069	307.9
370.45	339.31
370.831	318.07
371.212	318.07
371.593	302.48
371.974	325.53
372.355	287.79
372.736	330.95
373.117	316.94
373.498	318.52
373.879	313.55
374.26	330.27
374.641	321.91
375.021	330.5
375.402	340.67
375.783	333.66
376.163	331.18
376.544	337.73
376.925	337.28
377.305	339.99
377.686	325.75
378.066	341.57
378.447	348.13
378.827	342.02
379.208	350.61
379.588	329.82
379.968	332.53
380.349	348.35
380.729	334.12
381.109	332.76
381.489	328.69
381.87	368.01
382.25	347
382.63	361.01
383.01	347.9
383.39	345.64
383.77	354.91
384.15	356.71
384.53	368.24
384.91	342.93
385.29	357.62
385.67	342.93
386.049	361.01
386.429	364.62
386.809	373.44
387.189	373.44
387.568	366.21
387.948	380.89
388.328	382.48
388.707	367.11
389.087	373.66
389.466	389.03
389.846	388.58
390.225	377.05
390.605	374.11
390.984	382.7
391.363	399.88
391.743	381.57
392.122	383.15
392.501	401.23
392.881	388.8
393.26	409.82
393.639	423.6
394.018	401.91
394.397	396.03
394.776	385.87
395.155	398.52
395.534	422.02
395.913	413.44
396.292	416.15
396.671	412.76
397.05	423.6
397.429	419.54
397.808	436.03
398.186	409.82
398.565	448.24
398.944	436.71
399.323	437.16
399.701	450.95
400.08	424.28
400.458	430.38
400.837	438.52
401.215	437.62
401.594	437.62
401.972	438.29
402.351	442.14
402.729	462.25
403.107	467.67
403.486	466.77
403.864	447.33
404.242	470.61
404.62	475.13
404.999	451.85
405.377	452.3
405.755	488.01
406.133	491.17
406.511	479.42
406.889	501.57
407.267	480.33
407.645	490.27
408.023	486.43
408.401	494.79
408.779	523.94
409.156	531.4
409.534	512.42
409.912	535.69
410.29	517.39
410.667	518.52
411.045	535.92
411.422	540.66
411.8	553.09
412.178	532.53
412.555	553.09
412.933	579.76
413.31	575.92
413.687	563.49
414.065	559.87
414.442	568.23
414.819	555.58
415.197	594.45
415.574	568.23
415.951	586.76
416.328	593.77
416.705	603.94
417.082	604.16
417.46	591.96
417.837	610.27
418.214	603.03
418.591	643.26
418.967	624.05
419.344	599.65
419.721	641.68
420.098	623.15
420.475	645.29
420.852	651.17
421.228	653.2
421.605	670.83
421.982	673.54
422.358	680.77
422.735	665.41
423.111	654.33
423.488	649.81
423.864	693.43
424.241	709.25
424.617	727.1
424.994	693.43
425.37	700.89
425.746	701.56
426.123	708.34
426.499	696.82
426.875	713.54
427.251	729.36
427.627	740.66
428.003	753.77
428.379	747.21
428.756	759.87
429.132	770.71
429.507	781.34
429.883	786.76
430.259	799.87
430.635	804.61
431.011	776.59
431.387	809.81
431.763	823.82
432.138	851.16
432.514	815.23
432.89	821.33
433.265	828.11
433.641	869.47
434.016	863.14
434.392	884.16
434.767	887.77
435.143	882.12
435.518	886.19
435.894	895
436.269	903.59
436.644	932.29
437.02	937.72
437.395	941.78
437.77	959.86
438.145	928.22
438.52	972.52
438.895	983.82
439.271	983.82
439.646	1002.12
440.021	1018.62
440.395	997.15
440.77	987.21
441.145	1006.41
441.52	1033.31
441.895	1031.05
442.27	1030.82
442.645	1035.11
443.019	1050.25
443.394	1037.37
443.769	1058.84
444.143	1055
444.518	1074.66
444.892	1067.66
445.267	1061.55
445.641	1090.48
446.016	1090.71
446.39	1104.72
446.764	1104.72
447.139	1125.06
447.513	1131.38
447.887	1143.81
448.262	1134.09
448.636	1152.85
449.01	1189.69
449.384	1163.02
449.758	1175.68
450.132	1194.66
450.506	1162.12
450.88	1200.99
451.254	1212.06
451.628	1229.69
452.002	1227.43
452.376	1248.67
452.75	1255.45
453.123	1243.7
453.497	1252.74
453.871	1255.67
454.244	1302.23
454.618	1295.67
454.992	1330.47
455.365	1311.26
455.739	1322.56
456.112	1361.66
456.486	1374.09
456.859	1373.86
457.232	1403.24
457.606	1448.66
457.979	1419.51
458.352	1434.2
458.725	1475.78
459.099	1487.08
459.472	1462.9
459.845	1499.06
460.218	1506.74
460.591	1565.27
460.964	1582.9
461.337	1573.86
461.71	1610.92
462.083	1608.88
462.456	1631.48
462.829	1652.95
463.201	1679.39
463.574	1684.59
463.947	1673.52
464.32	1714.42
464.692	1743.8
465.065	1762.1
465.438	1774.98
465.81	1788.54
466.183	1832.83
466.555	1847.07
466.928	1859.05
467.3	1847.07
467.672	1931.59
468.045	1967.29
468.417	1971.36
468.789	1942.43
469.161	1966.84
469.534	2026.05
469.906	2019.04
470.278	2063.56
470.65	2114.18
471.022	2121.19
471.394	2163.22
471.766	2191.47
472.138	2183.78
472.51	2233.95
472.882	2274.4
473.253	2297
473.625	2357.11
473.997	2420.39
474.369	2394.4
474.74	2455.42
475.112	2469.2
475.484	2525.92
475.855	2574.51
476.227	2579.71
476.598	2659.48
476.97	2689.31
477.341	2745.8
477.713	2727.27
478.084	2791.68
478.455	2862.86
478.827	2863.31
479.198	2972.24
479.569	3000.03
479.94	3061.28
480.311	3101.73
480.682	3156.87
481.053	3176.75
481.424	3226.02
481.795	3285.22
482.166	3345.56
482.537	3397.76
482.908	3469.63
483.279	3511.89
483.65	3554.37
484.021	3613.8
484.391	3682.05
484.762	3702.39
485.133	3744.65
485.503	3798.21
485.874	3894.25
486.244	3914.81
486.615	4001.36
486.985	4041.14
487.356	4127.69
487.726	4204.07
488.097	4282.03
488.467	4274.12
488.837	4402.26
489.207	4400.22
489.578	4476.38
489.948	4516.6
490.318	4595.47
490.688	4631.4
491.058	4700.55
491.428	4738.07
491.798	4855.35
492.168	4979.87
492.538	4937.16
492.908	5017.16
493.278	5082.69
493.648	5118.62
494.017	5183.48
494.387	5206.53
494.757	5248.11
495.126	5360.88
495.496	5397.49
495.866	5421.21
496.235	5463.02
496.605	5582.79
496.974	5600.19
497.344	5658.95
497.713	5724.48
498.082	5763.13
498.452	5802.9
498.821	5847.19
499.19	5859.85
499.559	5960.41
499.928	6012.84
500.298	6012.16
500.667	6144.36
501.036	6155.88
501.405	6226.62
501.774	6264.58
502.143	6345.71
502.512	6368.31
502.88	6469.32
503.249	6442.2
503.618	6573.27
503.987	6564.91
504.356	6602.43
504.724	6661.18
505.093	6701.86
505.462	6775.75
505.83	6825.47
506.199	6907.73
506.567	7060.94
506.936	7002.64
507.304	7138.46
507.672	7212.35
508.041	7240.37
508.409	7321.05
508.777	7382.97
509.145	7459.58
509.514	7458.67
509.882	7593.13
510.25	7617.99
510.618	7690.98
510.986	7728.27
511.354	7846.46
511.722	7923.75
512.09	7983.86
512.458	7993.35
512.826	8092.78
513.193	8140.46
513.561	8238.77
513.929	8311.53
514.297	8384.3
514.664	8477.63
515.032	8524.63
515.4	8571.87
515.767	8689.6
516.135	8732.99
516.502	8764.18
516.869	8891.4
517.237	9021.34
517.604	9002.59
517.972	9092.76
518.339	9161.23
518.706	9186.76
519.073	9311.05
519.44	9363.26
519.808	9450.71
520.175	9470.37
520.542	9619.75
520.909	9777.03
521.276	9798.5
521.643	9933.86
522.009	10055.44
522.376	10079.62
522.743	10142.45
523.11	10339.95
523.477	10437.35
523.843	10439.16
524.21	10608.2
524.577	10643.22
524.943	10720.06
525.31	10911.46
525.676	10932.03
526.043	11024.68
526.409	11200.04
526.776	11249.76
527.142	11419.47
527.508	11463.77
527.874	11580.83
528.241	11652.46
528.607	11739.69
528.973	11855.62
529.339	11870.08
529.705	12064.88
530.071	12204.99
530.437	12276.85
530.803	12353.91
531.169	12428.94
531.535	12489.95
531.901	12549.61
532.267	12667.58
532.632	12793.22
532.998	12865.09
533.364	12989.6
533.73	12997.29
534.095	13128.81
534.461	13228.01
534.826	13336.71
535.192	13363.15
535.557	13506.88
535.923	13556.14
536.288	13558.85
536.653	13776.25
537.019	13717.27
537.384	13821.44
537.749	13913.65
538.114	13970.82
538.479	14058.5
538.845	14091.72
539.21	14217.37
539.575	14397.25
539.94	14325.16
540.305	14480.64
540.67	14478.38
541.034	14580.07
541.399	14723.57
541.764	14742.1
542.129	14908.42
542.494	15048.53
542.858	14988.65
543.223	15062.54
543.587	15188.87
543.952	15299.37
544.316	15191.58
544.681	15336.66
545.045	15473.83
545.41	15582.98
545.774	15620.95
546.138	15651.68
546.503	15802.86
546.867	15768.29
547.231	15919.92
547.595	15982.74
547.959	16044.66
548.324	16149.52
548.688	16201.95
549.052	16344.99
549.416	16349.74
549.779	16413.92
550.143	16478.55
550.507	16657.3
550.871	16708.6
551.235	16865.21
551.599	16913.34
551.962	17079.66
552.326	17075.6
552.689	17165.31
553.053	17199.66
553.417	17231.75
553.78	17521.01
554.143	17446.66
554.507	17616.6
554.87	17699.08
555.234	17854.78
555.597	17757.39
555.96	17938.85
556.323	18067.89
556.686	18145.17
557.05	18248.9
557.413	18379.29
557.776	18347.65
558.139	18582.9
558.502	18583.35
558.865	18700.19
559.228	18836
559.59	18881.65
559.953	18995.32
560.316	19270.79
560.679	19309.21
561.041	19373.84
561.404	19493.16
561.767	19694.51
562.129	19679.82
562.492	19922.98
562.854	19914.17
563.217	20095.86
563.579	20095.18
563.941	20289.52
564.304	20356.41
564.666	20664.43
565.028	20655.84
565.39	20705.56
565.753	20841.15
566.115	20946.45
566.477	20992.78
566.839	21138.99
567.201	21304.86
567.563	21424.18
567.925	21522.71
568.287	21565.2
568.648	21792.53
569.01	21791.86
569.372	21985.98
569.734	21984.85
570.095	22138.74
570.457	22204.73
570.819	22351.62
571.18	22401.11
571.542	22483.14
571.903	22605.39
572.265	22787.08
572.626	22816.46
572.987	22834.54
573.349	23010.81
573.71	23077.47
574.071	23218.94
574.432	23267.52
574.794	23604.46
575.155	23499.16
575.516	23498.93
575.877	23603.11
576.238	23557.91
576.599	23821.41
576.96	23839.71
577.32	23936.21
577.681	24049.88
578.042	24016.88
578.403	24177.56
578.763	24128.07
579.124	24307.95
579.485	24430.21
579.845	24479.24
580.206	24635.85
580.566	24463.88
580.927	24649.86
581.287	24703.64
581.648	24679.92
582.008	24872.45
582.368	24767.82
582.728	24975.28
583.089	24909.29
583.449	24859.57
583.809	24958.55
584.169	25086.46
584.529	24971.89
584.889	25263.86
585.249	25119
585.609	25028.38
585.969	25313.35
586.329	25259.11
586.688	25437.64
587.048	25307.92
587.408	25348.6
587.768	25469.73
588.127	25441.93
588.487	25301.82
588.846	25714.01
589.206	25548.82
589.565	25577.29
589.925	25758.31
590.284	25735.93
590.643	25786.78
591.003	25838.76
591.362	25923.95
591.721	25860.68
592.08	25866.55
592.44	25988.81
592.799	26035.36
593.158	25893.67
593.517	26070.39
593.876	26154.23
594.235	26039.65
594.593	26171.85
594.952	26380.44
595.311	26173.44
595.67	26381.34
596.029	26507.21
596.387	26541.11
596.746	26632.86
597.104	26459.3
597.463	26474.22
597.822	26605.97
598.18	26535.46
598.538	26556.48
598.897	26845.51
599.255	26582.01
599.613	26984.49
599.972	26757.15
600.33	26862.91
600.688	26811.39
601.046	26928.67
601.404	27132.28
601.762	27085.05
602.12	27049.35
602.478	27205.95
602.836	27185.16
603.194	27141.55
603.552	27170.7
603.91	27152.62
604.268	27313.97
604.625	27225.84
604.983	27333.63
605.341	27150.13
605.698	27422.44
606.056	27498.37
606.413	27468.32
606.771	27556
607.128	27579.5
607.485	27583.12
607.843	27702.21
608.2	27745.15
608.557	27885.03
608.914	27778.14
609.272	27963.22
609.629	27999.15
609.986	28183.78
610.343	28002.99
610.7	28219.71
611.057	28145.81
611.414	28275.08
611.771	28221.29
612.127	28394.17
612.484	28468.07
612.841	28506.26
613.198	28405.47
613.554	28430.1
613.911	28603.88
614.267	28492.47
614.624	28709.19
614.98	28671.22
615.337	28812.01
615.693	28789.64
616.05	28852.01
616.406	28956.19
616.762	28858.11
617.118	28881.39
617.475	28926.13
617.831	28994.38
618.187	29080.03
618.543	29131.1
618.899	29399.11
619.255	29270.76
619.611	29176.52
619.967	29460.81
620.323	29303.75
620.678	29388.94
621.034	29274.37
621.39	29386.91
621.746	29326.8
622.101	29768.14
622.457	29456.29
622.812	29637.75
623.168	29506.68
623.523	29593.46
623.879	29819.44
624.234	29512.56
624.589	29650.63
624.945	29694.25
625.3	29652.44
625.655	29693.57
626.01	29884.75
626.365	29699.45
626.72	29656.96
627.075	29749.39
627.43	29659.22
627.785	29542.61
628.14	29794.13
628.495	29773.79
628.85	29797.07
629.205	29817.63
629.559	29946.67
629.914	29797.97
630.269	29867.12
630.623	29720.91
630.978	29622.16
631.332	29804.3
631.687	29941.92
632.041	29818.09
632.396	29792.55
632.75	29678.43
633.104	29771.31
633.459	29710.07
633.813	29664.19
634.167	29814.02
634.521	29724.53
634.875	29790.74
635.229	29658.99
635.583	29540.58
635.937	29653.57
636.291	29577.87
636.645	29611.54
636.999	29545.1
637.352	29615.83
637.706	29516.63
638.06	29512.78
638.413	29452.67
638.767	29399.57
639.121	29593.46
639.474	29385.1
639.828	29338.78
640.181	29464.2
640.534	29461.49
640.888	29407.02
641.241	29357.76
641.594	29313.92
641.947	29463.52
642.301	29373.35
642.654	29448.38
643.007	29390.07
643.36	29348.49
643.713	29348.27
644.066	29456.74
644.419	29143.75
644.771	29032.57
645.124	28770.43
645.477	28809.3
645.83	28645.46
646.182	28459.93
646.535	28401.63
646.888	28593.03
647.24	28348.52
647.593	28492.7
647.945	28458.12
648.298	28375.41
648.65	28330.22
649.002	28214.74
649.355	28352.59
649.707	28273.72
650.059	28556.42
650.411	28784.67
650.763	28844.33
651.115	29193.92
651.467	29020.59
651.819	28974.04
652.171	29112.12
652.523	29021.95
652.875	29069.41
653.227	28913.25
653.578	29105.11
653.93	29078.67
654.282	28931.33
654.633	28814.27
654.985	28805.91
655.337	28869.18
655.688	28976.75
656.039	29073.47
656.391	28868.28
656.742	28954.15
657.094	29010.65
657.445	29020.82
657.796	29040.71
658.147	28960.26
658.498	28865.12
658.849	29156.63
659.2	28878.45
659.551	28851.33
659.902	28980.14
660.253	28911.44
660.604	28934.95
660.955	28779.92
661.306	28958
661.656	29005.23
662.007	29023.08
662.358	28963.65
662.708	28954.15
663.059	28999.35
663.409	28796.42
663.76	29085.45
664.11	29108.95
664.461	29128.39
664.811	28951.22
665.161	28939.69
665.511	29056.3
665.862	28962.74
666.212	29090.2
666.562	29206.35
666.912	29043.42
667.262	28961.84
667.612	29069.86
667.962	28972.46
668.312	28994.6
668.662	29102.62
669.011	29021.27
669.361	28975.85
669.711	28872.57
670.06	29024.21
670.41	28950.31
670.76	28757.55
671.109	28966.58
671.459	28913.48
671.808	28952.35
672.157	28909.41
672.507	28767.27
672.856	28859.24
673.205	28806.81
673.554	28951.89
673.904	28796.64
674.253	28971.55
674.602	28948.73
674.951	28439.59
675.3	28368.63
675.649	28867.15
675.998	28790.54
676.346	28725.46
676.695	28879.81
677.044	28619.25
677.393	28777.66
677.741	28826.25
678.09	28702.41
678.438	28718.23
678.787	28758.9
679.135	28817.66
679.484	28626.7
679.832	28737.21
680.181	28473.71
680.529	28635.29
680.877	28518.23
681.225	28619.25
681.573	28659.47
681.922	28567.72
682.27	28507.39
682.618	28491.57
682.966	28407.5
683.314	28481.4
683.661	28319.59
684.009	28288.86
684.357	28249.77
684.705	28064.46
685.053	28136.1
685.4	28206.15
685.748	28085.25
686.095	28126.15
686.443	27927.51
686.79	27891.81
687.138	28019.04
687.485	28011.13
687.832	27936.1
688.18	27945.59
688.527	27773.17
688.874	27729.55
689.221	27713.06
689.568	27825.6
689.915	27666.96
690.262	27619.05
690.609	27501.99
690.956	27447.3
691.303	27430.58
691.65	27332.5
691.997	27338.83
692.344	27139.06
692.69	27181.32
693.037	27172.96
693.383	26997.37
693.73	27001.89
694.077	26937.48
694.423	26926.86
694.769	26858.16
695.116	26836.47
695.462	26697.26
695.808	26592.18
696.155	26766.64
696.501	26338.86
696.847	26566.42
697.193	26429.7
697.539	26531.17
697.885	26288.24
698.231	26220.44
698.577	26197.39
698.923	26088.47
699.269	26113.32
699.614	26007.56
699.96	25899.54
700.306	25963.5
700.651	25792.43
700.997	25694.13
701.342	25742.71
701.688	25634.69
702.033	25591.3
702.379	25582.72
702.724	25495.71
703.069	25480.57
703.415	25333.01
703.76	25271.54
704.105	25358.54
704.45	25267.7
704.795	25071.77
705.14	25039.68
705.485	25025.22
705.83	24959.91
706.175	24869.29
706.52	24887.59
706.865	24856.41
707.209	24827.03
707.554	24700.48
707.899	24810.53
708.243	24682.85
708.588	24568.28
708.932	24528.06
709.277	24403.99
709.621	24506.81
709.966	24297.33
710.31	24361.28
710.654	24226.37
710.998	24235.63
711.342	24212.36
711.687	24041.51
712.031	23995.19
712.375	23995.41
712.719	24042.19
713.063	24033.61
713.407	24113.15
713.75	23995.87
714.094	23973.04
714.438	23795.19
714.782	23935.08
715.125	23818.24
715.469	23862.31
715.812	23714.29
716.156	23592.04
716.499	23567.85
716.843	23660.96
717.186	23479.72
717.53	23618.25
717.873	23615.99
718.216	23558.59
718.559	23375.54
718.902	23320.4
719.246	23322.89
719.589	23335.09
719.932	23267.75
720.275	23127.41
720.617	23188.2
720.96	23157.24
721.303	23230.91
721.646	23181.42
721.989	23057.81
722.331	23137.36
722.674	23013.07
723.016	23087.19
723.359	23053.29
723.701	23092.16
724.044	22950.7
724.386	22808.55
724.729	22979.62
725.071	22919.06
725.413	22857.59
725.755	22848.55
726.097	22833.41
726.439	22724.49
726.782	22712.51
727.124	22821.89
727.465	22574.21
727.807	22678.16
728.149	22725.39
728.491	22635.22
728.833	22687.43
729.175	22572.17
729.516	22545.06
729.858	22494.89
730.199	22566.53
730.541	22500.76
730.882	22427.09
731.224	22494.44
731.565	22413.53
731.906	22453.99
732.248	22389.58
732.589	22354.78
732.93	22402.91
733.271	22353.88
733.612	22480.2
733.953	22404.27
734.294	22212.86
734.635	22318.4
734.976	22314.33
735.317	22151.85
735.658	22138.06
735.999	22190.26
736.339	22141.23
736.68	22224.16
737.021	22136.71
737.361	22065.07
737.702	22141.68
738.042	22161.79
738.383	22023.49
738.723	22040.89
739.063	22061.91
739.404	22099.64
739.744	21985.52
740.084	21936.71
740.424	22099.42
740.764	22098.06
741.104	22101.9
741.444	22008.57
741.784	21888.35
742.124	22024.84
742.464	21924.06
742.804	21965.64
743.143	21962.02
743.483	21966.32
743.823	21764.74
744.162	21767
744.502	21846.54
744.841	21837.96
745.181	21854.23
745.52	21711.41
745.86	21907.33
746.199	21794.79
746.538	21658.75
746.877	21821.23
747.216	21889.93
747.556	21689.49
747.895	21750.73
748.234	21729.26
748.573	21638.64
748.911	21696.72
749.25	21714.34
749.589	21693.78
749.928	21710.73
750.267	21714.34
750.605	21655.14
750.944	21487.23
751.283	21563.61
751.621	21488.14
751.96	21496.04
752.298	21619.88
752.636	21509.15
752.975	21418.31
753.313	21433.45
753.651	21431.64
753.989	21354.35
754.327	21444.29
754.666	21234.13
755.004	21368.59
755.342	21387.12
755.679	21419.89
756.017	21217.86
756.355	21315.48
756.693	21201.82
757.031	21292.66
757.368	21107.81
757.706	21090.18
758.044	21113.91
758.381	21143.74
758.719	21039.79
759.056	21172.21
759.394	21014.93
759.731	20932.67
760.068	20941.71
760.405	20842.5
760.743	20870.3
761.08	20849.06
761.417	20757.76
761.754	20706.01
762.091	20739.91
762.428	20623.07
762.765	20598.22
763.102	20567.71
763.438	20379.92
763.775	20473.47
764.112	20437.77
764.449	20483.42
764.785	20383.53
765.122	20362.06
765.458	20263.76
765.795	20152.58
766.131	20217.66
766.467	20144.67
766.804	20030.32
767.14	19970.66
767.476	20066.03
767.812	19913.49
768.148	19995.07
768.485	19802.53
768.821	19714.62
769.157	19686.6
769.492	19634.62
769.828	19647.05
770.164	19547.4
770.5	19520.5
770.836	19580.62
771.171	19348.76
771.507	19357.12
771.842	19258.36
772.178	19148.54
772.513	19151.02
772.849	19094.75
773.184	19090.23
773.519	19031.7
773.855	19019.95
774.19	18889.33
774.525	18805.72
774.86	18832.61
775.195	18681.88
775.53	18645.95
775.865	18577.25
776.2	18522.56
776.535	18337.03
776.87	18345.17
777.205	18379.97
777.539	18236.02
777.874	18379.06
778.209	18043.93
778.543	18081.22
778.878	18059.53
779.212	18038.96
779.547	17918.29
779.881	17894.78
780.215	17847.33
780.55	17845.07
780.884	17658.41
781.218	17721.45
781.552	17691.63
781.886	17583.38
782.22	17588.58
782.554	17489.37
782.888	17365.76
783.222	17241.69
783.556	17175.48
783.889	17151.53
784.223	16992.43
784.557	17001.47
784.89	17042.6
785.224	16860.23
785.557	16898.43
785.891	16955.37
786.224	16853.46
786.558	16835.38
786.891	16574.82
787.224	16554.48
787.557	16580.47
787.891	16563.29
788.224	16541.6
788.557	16475.39
788.89	16497.53
789.223	16475.61
789.556	16232.91
789.888	16218.67
790.221	16125.56
790.554	16083.08
790.887	16119.69
791.219	16121.72
791.552	16057.32
791.884	15890.32
792.217	15827.49
792.549	15842.63
792.882	15762.41
793.214	15595.18
793.546	15674.28
793.879	15624.33
794.211	15611
794.543	15629.31
794.875	15483.1
795.207	15472.93
795.539	15374.4
795.871	15445.36
796.203	15325.13
796.535	15303.21
796.867	15209.88
797.198	15188.87
797.53	15180.05
797.862	15014.18
798.193	15185.25
798.525	15021.86
798.856	15075.87
799.188	14901.19
799.519	14837.69
799.85	14783.45
800.182	14808.76
800.513	14814.19
800.844	14567.64
801.175	14670.69
801.506	14750.01
801.837	14577.58
802.168	14484.03
802.499	14511.6
802.83	14365.38
803.161	14414.42
803.491	14459.85
803.822	14402.22
804.153	14285.84
804.483	14185.73
804.814	14131.49
805.145	14194.99
805.475	14157.93
805.805	14103.7
806.136	14060.08
806.466	14092.62
806.796	13946.19
807.126	14023.25
807.457	13927.66
807.787	13901.22
808.117	13793.42
808.447	13785.74
808.777	13751.62
809.107	13795.46
809.436	13746.64
809.766	13642.92
810.096	13643.82
810.426	13612.86
810.755	13672.75
811.085	13548.91
811.414	13604.5
811.744	13489.25
812.073	13504.84
812.403	13459.19
812.732	13465.75
813.061	13382.59
813.39	13283.15
813.719	13253.32
814.049	13385.3
814.378	13338.29
814.707	13189.82
815.036	13168.35
815.365	13108.69
815.693	13020.34
816.022	13127.9
816.351	13050.39
816.68	13005.19
817.008	12973.56
817.337	13000.68
817.665	12873.45
817.994	12931.3
818.322	12973.78
818.651	12832.54
818.979	12824.63
819.307	12795.03
819.636	12737.63
819.964	12728.82
820.292	12739.89
820.62	12725.43
820.948	12682.72
821.276	12731.53
821.604	12723.39
821.932	12692.89
822.259	12668.71
822.587	12732.43
822.915	12729.72
823.243	12749.38
823.57	12673.68
823.898	12711.42
824.225	12596.62
824.553	12671.42
824.88	12623.74
825.207	12683.85
825.535	12700.12
825.862	12634.13
826.189	12651.53
826.516	12718.2
826.843	12669.16
827.17	12720.23
827.497	12674.58
827.824	12728.82
828.151	12677.29
828.478	12651.31
828.805	12687.01
829.131	12653.11
829.458	12709.38
829.785	12594.58
830.111	12606.11
830.438	12712.32
830.764	12637.97
831.09	12719.55
831.417	12603.17
831.743	12612.66
832.069	12600.46
832.395	12573.34
832.722	12659.44
833.048	12552.1
833.374	12650.85
833.7	12562.49
834.026	12608.82
834.351	12627.13
834.677	12564.98
835.003	12566.56
835.329	12498.32
835.654	12604.75
835.98	12503.06
836.306	12465.55
836.631	12421.26
836.956	12463.29
837.282	12575.6
837.607	12460.58
837.932	12408.83
838.258	12393.46
838.583	12384.19
838.908	12313.01
839.233	12367.02
839.558	12267.81
839.883	12171.77
840.208	12224.42
840.533	12258.1
840.858	12306.91
841.182	12242.73
841.507	12307.81
841.832	12209.28
842.156	12177.65
842.481	12165.67
842.805	12113.69
843.13	12091.77
843.454	12070.98
843.778	11980.36
844.103	11997.54
844.427	11905.56
844.751	11990.76
845.075	11912.34
845.399	11904.88
845.723	11806.36
846.047	11928.84
846.371	11701.27
846.695	11822.85
847.019	11622.18
847.343	11583.31
847.666	11535.85
847.99	11493.14
848.313	11428.74
848.637	11384.67
848.96	11483.65
849.284	11458.79
849.607	11296.77
849.931	11300.38
850.254	11235.07
850.577	11142.19
850.9	11068.3
851.223	11084.79
851.546	10944.01
851.869	11004.57
852.192	11076.66
852.515	10908.07
852.838	10937.68
853.161	10847.96
853.483	10803.67
853.806	10784.69
854.129	10794.18
854.451	10658.82
854.774	10628.53
855.096	10641.42
855.419	10597.35
855.741	10585.37
856.063	10538.14
856.385	10497.69
856.708	10467.86
857.03	10457.92
857.352	10476.67
857.674	10398.48
857.996	10380.18
858.318	10307.86
858.64	10306.96
858.961	10250.69
859.283	10256.57
859.605	10168.21
859.926	10154.87
860.248	10171.14
860.57	10172.05
860.891	10261.31
861.212	10116.01
861.534	10082.33
861.855	10034.43
862.176	10069.45
862.498	10090.24
862.819	10009.12
863.14	9982.9
863.461	9950.36
863.782	9935.67
864.103	9947.2
864.424	9892.06
864.745	9971.15
865.065	9844.83
865.386	9845.5
865.707	9879.85
866.027	9829.69
866.348	9756.92
866.668	9815.9
866.989	9796.92
867.309	9663.14
867.63	9750.14
867.95	9734.32
868.27	9664.04
868.59	9702.23
868.91	9686.64
869.23	9632.85
869.55	9642.12
869.87	9725.51
870.19	9665.17
870.51	9619.52
870.83	9638.5
871.15	9519.41
871.469	9603.93
871.789	9590.6
872.109	9560.77
872.428	9551.95
872.748	9547.88
873.067	9490.71
873.386	9620.2
873.706	9455.01
874.025	9432.86
874.344	9387.66
874.663	9469.47
874.982	9441.9
875.301	9477.83
875.62	9370.71
875.939	9389.02
876.258	9303.37
876.577	9387.44
876.896	9401.9
877.214	9318.96
877.533	9319.64
877.852	9321.22
878.17	9261.56
878.489	9261.11
878.807	9247.78
879.125	9230.38
879.444	9253.65
879.762	9191.51
880.08	9199.87
880.398	9133.88
880.716	9207.33
881.034	9096.37
881.352	9133.66
881.67	9070.61
881.988	9030.84
882.306	9117.39
882.624	9009.37
882.941	9095.47
883.259	8974.34
883.577	8981.12
883.894	8877.39
884.212	8986.32
884.529	8912.87
884.846	8911.74
885.164	8931.86
885.481	8859.32
885.798	8884.17
886.115	8794.91
886.432	8812.31
886.75	8853.89
887.067	8792.42
887.383	8758.75
887.7	8752.43
888.017	8709.49
888.334	8735.48
888.651	8679.43
888.967	8646.21
889.284	8620.9
889.6	8617.97
889.917	8625.87
890.233	8595.82
890.55	8539.78
890.866	8551.07
891.182	8515.37
891.498	8521.47
891.815	8390.85
892.131	8457.97
892.447	8396.05
892.763	8379.1
893.079	8302.72
893.395	8354.7
893.71	8319.89
894.026	8272.21
894.342	8336.84
894.657	8278.09
894.973	8213.46
895.289	8174.59
895.604	8197.19
895.92	8132.78
896.235	8108.15
896.55	8112.44
896.865	8118.32
897.181	8013.69
897.496	7982.73
897.811	7966.23
898.126	7959.68
898.441	7888.04
898.756	7901.15
899.071	7881.04
899.386	7836.97
899.7	7820.92
900.015	7812.11
900.33	7698.22
900.644	7672.23
900.959	7710.42
901.273	7667.48
901.588	7688.72
901.902	7592.68
902.216	7653.25
902.531	7523.08
902.845	7557.65
903.159	7525.79
903.473	7513.81
903.787	7426.36
904.101	7415.96
904.415	7410.09
904.729	7422.97
905.042	7381.39
905.356	7296.87
905.67	7298.9
905.984	7279.47
906.297	7265.46
906.611	7196.08
906.924	7174.39
907.237	7198.12
907.551	7161.96
907.864	7125.35
908.177	7155.63
908.491	7048.74
908.804	6975.52
909.117	6996.31
909.43	6994.51
909.743	6930.33
910.056	6917.45
910.368	6889.65
910.681	6880.61
910.994	6842.42
911.307	6818.69
911.619	6837.22
911.932	6799.71
912.244	6748.18
912.557	6766.71
912.869	6728.75
913.181	6655.53
913.494	6646.49
913.806	6643.78
914.118	6579.83
914.43	6558.81
914.742	6579.15
915.054	6534.18
915.366	6469.77
915.678	6452.6
915.99	6456.67
916.302	6353.84
916.613	6383.67
916.925	6323.34
917.236	6344.8
917.548	6263.45
917.859	6290.57
918.171	6206.5
918.482	6226.39
918.794	6247.41
919.105	6206.05
919.416	6148.2
919.727	6148.65
920.038	6139.16
920.349	6024.36
920.66	6057.81
920.971	6019.16
921.282	6047.41
921.593	5956.57
921.903	6008.99
922.214	5968.32
922.525	5936.68
922.835	5880.41
923.146	5815.78
923.456	5862.33
923.767	5792.96
924.077	5846.29
924.387	5759.96
924.697	5763.8
925.008	5689
925.318	5704.82
925.628	5688.33
925.938	5700.3
926.248	5585.5
926.558	5592.96
926.867	5613.52
927.177	5552.51
927.487	5529.46
927.796	5534.66
928.106	5541.21
928.416	5503.25
928.725	5499.86
929.034	5411.95
929.344	5397.03
929.653	5386.41
929.962	5353.87
930.271	5324.04
930.581	5281.1
930.89	5271.16
931.199	5235.46
931.508	5235
931.817	5252.86
932.125	5226.19
932.434	5232.97
932.743	5136.25
933.051	5145.74
933.36	5091.96
933.669	5019.19
933.977	5063.93
934.286	5052.41
934.594	4989.59
934.902	5012.86
935.21	4920.21
935.519	5011.96
935.827	4961.34
936.135	4933.32
936.443	4891.28
936.751	4860.32
937.059	4870.72
937.367	4816.71
937.674	4799.53
937.982	4776.03
938.29	4756.6
938.597	4745.98
938.905	4694
939.213	4722.02
939.52	4668.92
939.827	4672.08
940.135	4656.71
940.442	4652.65
940.749	4604.74
941.056	4606.32
941.363	4599.09
941.67	4611.07
941.977	4521.35
942.284	4523.16
942.591	4490.39
942.898	4497.62
943.205	4442.03
943.511	4433.67
943.818	4426.89
944.125	4452.43
944.431	4322.94
944.738	4358.64
945.044	4375.59
945.35	4339.21
945.657	4286.33
945.963	4314.35
946.269	4253.33
946.575	4283.16
946.881	4207.23
947.187	4279.32
947.493	4184.41
947.799	4203.17
948.105	4148.48
948.41	4157.74
948.716	4180.79
949.022	4141.47
949.327	4150.06
949.633	4073
949.938	4071.19
950.244	4054.02
950.549	4041.36
950.854	4024.41
951.16	3993.68
951.465	3975.15
951.77	3956.17
952.075	3961.14
952.38	3881.14
952.685	3951.42
952.99	3907.81
953.294	3849.5
953.599	3854.47
953.904	3851.99
954.209	3807.7
954.513	3821.93
954.818	3816.74
955.122	3810.18
955.426	3749.84
955.731	3764.76
956.035	3703.97
956.339	3733.57
956.643	3688.38
956.948	3697.87
957.252	3708.49
957.556	3709.17
957.86	3629.62
958.163	3624.65
958.467	3651.99
958.771	3577.87
959.075	3609.51
959.378	3560.02
959.682	3572.9
959.985	3537.65
960.289	3521.6
960.592	3502.17
960.896	3485.45
961.199	3473.02
961.502	3461.26
961.805	3433.92
962.108	3440.25
962.411	3427.37
962.714	3386.24
963.017	3402.51
963.32	3399.35
963.623	3373.81
963.926	3356.63
964.228	3330.19
964.531	3309.86
964.833	3315.05
965.136	3280.25
965.438	3261.27
965.741	3255.85
966.043	3262.63
966.345	3261.95
966.648	3237.99
966.95	3232.57
967.252	3157.32
967.554	3160.93
967.856	3139.69
968.158	3171.33
968.46	3158.9
968.761	3105.79
969.063	3148.5
969.365	3088.62
969.666	3114.83
969.968	3093.82
970.269	3061.05
970.571	3049.75
970.872	3047.72
971.174	3028.06
971.475	2987.15
971.776	2990.54
972.077	3012.69
972.378	3005.68
972.679	2975.4
972.98	2938.57
973.281	2966.14
973.582	2949.41
973.883	2902.86
974.183	2925.01
974.484	2852.24
974.785	2860.6
975.085	2844.56
975.386	2868.29
975.686	2816.99
975.986	2810.21
976.287	2824.9
976.587	2787.84
976.887	2790.55
977.187	2810.43
977.487	2782.41
977.787	2754.39
978.087	2744.67
978.387	2722.98
978.687	2742.19
978.987	2707.84
979.286	2700.38
979.586	2680.72
979.885	2699.48
980.185	2655.64
980.484	2659.93
980.784	2659.48
981.083	2653.6
981.382	2611.34
981.682	2626.03
981.981	2600.04
982.28	2570.21
982.579	2578.58
982.878	2575.86
983.177	2518.24
983.475	2520.5
983.774	2519.37
984.073	2526.15
984.372	2525.7
984.67	2478.92
984.969	2472.14
985.267	2470.1
985.566	2478.92
985.864	2440.73
986.162	2461.52
986.461	2445.92
986.759	2383.78
987.057	2392.37
987.355	2369.09
987.653	2381.29
987.951	2402.54
988.249	2375.64
988.547	2343.33
988.844	2307.4
989.142	2331.8
989.44	2324.8
989.737	2287.06
990.035	2294.52
990.332	2309.66
990.63	2262.43
990.927	2254.29
991.224	2256.55
991.521	2224.91
991.819	2253.61
992.116	2251.35
992.413	2221.75
992.71	2170.45
993.006	2204.35
993.303	2201.19
993.6	2167.29
993.897	2177.23
994.193	2167.51
994.49	2142.66
994.787	2151.24
995.083	2140.62
995.379	2083.9
995.676	2076.44
995.972	2103.11
996.268	2077.8
996.565	2115.54
996.861	2060.4
997.157	2074.41
997.453	2037.57
997.749	2054.52
998.044	2048.42
998.34	2045.93
998.636	1981.76
998.932	2001.42
999.227	1995.09
999.523	1992.83
999.818	1924.36
1000.114	1951.7
1000.409	1973.39
1000.704	1946.05
1001	1955.54
1001.295	1918.48
1001.59	1914.41
1001.885	1925.49
1002.18	1891.81
1002.475	1863.57
1002.77	1853.4
1003.065	1841.19
1003.359	1839.39
1003.654	1830.35
1003.949	1852.04
1004.243	1806.62
1004.538	1785.6
1004.832	1805.94
1005.127	1800.74
1005.421	1772.72
1005.715	1774.3
1006.009	1761.65
1006.304	1736.34
1006.598	1754.64
1006.892	1737.47
1007.186	1725.72
1007.48	1706.96
1007.773	1692.05
1008.067	1690.01
1008.361	1681.2
1008.655	1663.35
1008.948	1681.2
1009.242	1661.31
1009.535	1683.68
1009.829	1653.18
1010.122	1622.67
1010.415	1643.46
1010.708	1626.06
1011.001	1611.37
1011.295	1553.97
1011.588	1565.72
1011.881	1584.48
1012.173	1609.11
1012.466	1580.41
1012.759	1547.87
1013.052	1547.42
1013.344	1533.86
1013.637	1510.36
1013.93	1528.43
1014.222	1501.32
1014.514	1485.27
1014.807	1495.21
1015.099	1483.24
1015.391	1461.54
1015.683	1454.54
1015.976	1464.48
1016.268	1448.66
1016.56	1447.53
1016.851	1435.56
1017.143	1418.83
1017.435	1412.05
1017.727	1415.22
1018.018	1391.94
1018.31	1410.92
1018.602	1383.58
1018.893	1390.58
1019.185	1371.38
1019.476	1364.37
1019.767	1350.13
1020.058	1336.12
1020.35	1343.81
1020.641	1307.2
1020.932	1318.72
1021.223	1311.94
1021.514	1305.39
1021.804	1272.62
1022.095	1286.86
1022.386	1255
1022.677	1250.02
1022.967	1249.57
1023.258	1268.78
1023.548	1245.28
1023.839	1248.22
1024.129	1237.14
1024.419	1228.78
1024.709	1215.22
1025	1172.06
1025.29	1189.69
1025.58	1194.88
1025.87	1175
1026.16	1170.48
1026.449	1160.76
1026.739	1114.43
1027.029	1152.17
1027.319	1148.78
1027.608	1122.57
1027.898	1126.41
1028.187	1125.96
1028.477	1121.21
1028.766	1105.85
1029.055	1085.73
1029.344	1102.23
1029.634	1101.78
1029.923	1092.74
1030.212	1064.04
1030.501	1049.58
1030.79	1051.61
1031.078	1037.83
1031.367	1044.15
1031.656	1035.34
1031.945	1036.02
1032.233	1043.02
1032.522	1012.29
1032.81	1022.68
1033.099	987.66
1033.387	1012.74
1033.675	1011.84
1033.963	950.6
1034.251	1000.76
1034.54	962.12
1034.828	970.48
1035.116	944.95
1035.403	962.8
1035.691	946.98
1035.979	942.46
1036.267	958.05
1036.554	939.52
1036.842	920.09
1037.129	938.85
1037.417	947.43
1037.704	903.14
1037.992	912.18
1038.279	910.37
1038.566	891.61
1038.853	891.61
1039.14	891.61
