Data from cardboard_FLMS001491_025.txt Node
Date: Tue Feb 07 11:39:10 GMT 2017
User: dcchb
Spectrometer: FLMS00149
Trigger mode: 0
Integration Time (sec): 2.000000E-2
Scans to average: 10
Electric dark correction enabled: true
Nonlinearity correction enabled: false
Boxcar width: 0
XAxis mode: Wavelengths
Number of Pixels in Spectrum: 2048
>>>>>Begin Spectral Data<<<<<
341.393	-20.45
341.776	-20.45
342.16	-20.45
342.543	-85.31
342.927	-77.63
343.31	-55.93
343.693	-68.36
344.077	-75.37
344.46	-73.33
344.843	-52.09
345.226	-48.93
345.61	-18.19
345.993	-12.99
346.376	-8.25
346.759	12.99
347.142	20.23
347.525	30.39
347.908	46.21
348.291	80.11
348.674	115.59
349.057	107.91
349.44	131.18
349.823	158.07
350.206	164.18
350.588	174.12
350.971	184.51
351.354	201.92
351.737	222.25
352.119	238.3
352.502	248.47
352.884	277.62
353.267	245.76
353.65	281.69
354.032	265.19
354.414	290.27
354.797	305.42
355.179	289.6
355.562	314.68
355.944	312.42
356.326	326.43
356.709	327.79
357.091	299.77
357.473	311.07
357.855	332.08
358.238	343.83
358.62	313.33
359.002	328.47
359.384	333.21
359.766	315.13
360.148	328.69
360.53	331.63
360.912	323.95
361.294	303.83
361.676	307
362.057	310.16
362.439	310.16
362.821	316.49
363.203	304.29
363.584	306.32
363.966	288.69
364.348	302.93
364.729	315.13
365.111	295.47
365.493	318.07
365.874	305.42
366.256	298.86
366.637	307.45
367.019	290.05
367.4	283.27
367.781	300.22
368.163	302.25
368.544	304.74
368.925	273.55
369.306	272.65
369.688	291.4
370.069	294.79
370.45	299.31
370.831	285.08
371.212	285.98
371.593	309.48
371.974	278.07
372.355	284.4
372.736	291.86
373.117	297.51
373.498	293.21
373.879	300.67
374.26	284.4
374.641	282.14
375.021	285.76
375.402	316.26
375.783	311.52
376.163	295.47
376.544	301.35
376.925	310.61
377.305	305.87
377.686	321.46
378.066	303.38
378.447	303.61
378.827	298.18
379.208	318.52
379.588	313.78
379.968	301.12
380.349	328.69
380.729	322.36
381.109	314.91
381.489	312.65
381.87	335.47
382.25	313.78
382.63	326.21
383.01	303.38
383.39	335.7
383.77	317.39
384.15	311.29
384.53	319.2
384.91	307.22
385.29	325.3
385.67	294.57
386.049	335.92
386.429	317.62
386.809	327.56
387.189	335.02
387.568	339.09
387.948	332.31
388.328	324.17
388.707	330.95
389.087	347.9
389.466	349.93
389.846	342.7
390.225	327.56
390.605	350.39
390.984	329.82
391.363	344.74
391.743	337.73
392.122	335.92
392.501	347.22
392.881	352.65
393.26	358.07
393.639	313.1
394.018	366.21
394.397	350.39
394.776	345.64
395.155	341.12
395.534	342.48
395.913	318.3
396.292	342.7
396.671	349.26
397.05	347
397.429	346.32
397.808	329.37
398.186	361.01
398.565	363.27
398.944	362.36
399.323	357.17
399.701	377.28
400.08	372.76
400.458	357.17
400.837	354.91
401.215	373.21
401.594	376.37
401.972	377.05
402.351	347.9
402.729	355.58
403.107	357.84
403.486	362.59
403.864	369.82
404.242	388.8
404.62	380.67
404.999	376.83
405.377	378.86
405.755	390.84
406.133	392.65
406.511	379.09
406.889	396.03
407.267	414.34
407.645	407.33
408.023	392.65
408.401	410.72
408.779	386.77
409.156	411.4
409.534	415.7
409.912	409.14
410.29	432.42
410.667	404.85
411.045	422.47
411.422	411.85
411.8	430.84
412.178	430.84
412.555	423.6
412.933	434.68
413.31	416.37
413.687	422.47
414.065	435.36
414.442	433.77
414.819	431.29
415.197	429.03
415.574	432.42
415.951	421.8
416.328	431.29
416.705	439.65
417.082	457.5
417.46	440.78
417.837	449.14
418.214	462.93
418.591	477.39
418.967	456.37
419.344	456.15
419.721	469.25
420.098	463.38
420.475	463.38
420.852	458.63
421.228	468.8
421.605	462.7
421.982	482.81
422.358	465.64
422.735	476.48
423.111	496.37
423.488	488.91
423.864	474
424.241	495.24
424.617	483.94
424.994	527.33
425.37	503.83
425.746	506.99
426.123	529.59
426.499	480.33
426.875	491.63
427.251	533.66
427.627	532.3
428.003	502.92
428.379	522.59
428.756	523.26
429.132	540.66
429.507	541.79
429.883	539.76
430.259	546.54
430.635	536.37
431.011	546.54
431.387	555.35
431.763	541.57
432.138	555.58
432.514	559.19
432.89	550.83
433.265	575.69
433.641	577.5
434.016	577.95
434.392	598.74
434.767	593.77
435.143	609.59
435.518	612.3
435.894	606.88
436.269	596.93
436.644	590.38
437.02	603.71
437.395	594.45
437.77	633.77
438.145	617.95
438.52	624.05
438.895	649.81
439.271	632.64
439.646	646.42
440.021	658.63
440.395	655.24
440.77	640.1
441.145	662.24
441.52	653.66
441.895	659.08
442.27	659.3
442.645	670.6
443.019	668.34
443.394	681.9
443.769	669.7
444.143	707.67
444.518	675.12
444.892	684.39
445.267	674.22
445.641	682.58
446.016	681.9
446.39	711.96
446.764	683.94
447.139	694.33
447.513	678.97
447.887	695.24
448.262	711.96
448.636	711.73
449.01	726.65
449.384	733.88
449.758	714.67
450.132	752.41
450.506	746.76
450.88	729.13
451.254	757.61
451.628	737.49
452.002	761.9
452.376	768.68
452.75	782.69
453.123	795.57
453.497	797.15
453.871	817.72
454.244	787.89
454.618	804.61
454.992	814.33
455.365	804.61
455.739	859.07
456.112	849.58
456.486	820.2
456.859	837.61
457.232	866.53
457.606	844.84
457.979	824.05
458.352	879.86
458.725	871.95
459.099	886.64
459.472	886.87
459.845	872.41
460.218	929.81
460.591	911.28
460.964	920.54
461.337	914.89
461.71	957.15
462.083	961.9
462.456	975.68
462.829	962.35
463.201	977.71
463.574	985.17
463.947	977.71
464.32	1019.52
464.692	1002.57
465.065	995.34
465.438	1032.4
465.81	1023.36
466.183	1049.8
466.555	1073.98
466.928	1058.39
467.3	1090.71
467.672	1059.97
468.045	1134.32
468.417	1122.34
468.789	1119.41
469.161	1131.38
469.534	1162.79
469.906	1178.84
470.278	1154.43
470.65	1174.77
471.022	1200.08
471.394	1196.69
471.766	1213.41
472.138	1235.56
472.51	1275.56
472.882	1287.76
473.253	1298.38
473.625	1283.24
473.997	1311.94
474.369	1331.15
474.74	1346.29
475.112	1365.05
475.484	1355.56
475.855	1442.11
476.227	1414.99
476.598	1448.89
476.97	1469.9
477.341	1510.58
477.713	1522.78
478.084	1505.16
478.455	1551.94
478.827	1603.69
479.198	1594.42
479.569	1624.03
479.94	1631.26
480.311	1669.22
480.682	1702.22
481.053	1734.76
481.424	1736.34
481.795	1783.79
482.166	1760.07
482.537	1837.35
482.908	1836.9
483.279	1874.87
483.65	1874.64
484.021	1918.93
484.391	1942.21
484.762	1985.6
485.133	1989.67
485.503	2009.1
485.874	2065.6
486.244	2097.46
486.615	2096.33
486.985	2152.15
487.356	2181.3
487.726	2221.07
488.097	2207.29
488.467	2237.79
488.837	2281.86
489.207	2304.01
489.578	2351.24
489.948	2360.73
490.318	2398.92
490.688	2394.17
491.058	2457.45
491.428	2485.25
491.798	2527.96
492.168	2574.06
492.538	2566.15
492.908	2568.18
493.278	2651.34
493.648	2668.74
494.017	2697.22
494.387	2723.66
494.757	2721.62
495.126	2807.72
495.496	2794.62
495.866	2830.1
496.235	2845.01
496.605	2893.37
496.974	2892.69
497.344	2901.51
497.713	2939.02
498.082	2991.22
498.452	3011.79
498.821	3051.11
499.19	3048.85
499.559	3101.27
499.928	3124.78
500.298	3147.83
500.667	3164.55
501.036	3208.84
501.405	3191.22
501.774	3212.01
502.143	3248.84
502.512	3278.9
502.88	3339.01
503.249	3306.69
503.618	3365.22
503.987	3367.03
504.356	3388.5
504.724	3471.66
505.093	3453.13
505.462	3470.98
505.83	3532.9
506.199	3564.09
506.567	3608.83
506.936	3617.87
507.304	3620.36
507.672	3709.62
508.041	3661.26
508.409	3757.53
508.777	3737.64
509.145	3781.48
509.514	3784.19
509.882	3833.91
510.25	3867.13
510.618	3852.44
510.986	3938.77
511.354	3972.66
511.722	3972.66
512.09	4049.05
512.458	4044.98
512.826	4125.2
513.193	4124.3
513.561	4148.25
513.929	4163.17
514.297	4250.4
514.664	4181.92
515.032	4283.62
515.4	4338.08
515.767	4381.24
516.135	4381.69
516.502	4348.47
516.869	4429.15
517.237	4540.33
517.604	4538.98
517.972	4554.34
518.339	4596.6
518.706	4609.03
519.073	4696.26
519.44	4739.88
519.808	4792.53
520.175	4772.19
520.542	4870.72
520.909	4918.85
521.276	4907.55
521.643	5000.21
522.009	5009.02
522.376	5090.37
522.743	5102.35
523.11	5188.23
523.477	5181.67
523.843	5245.4
524.21	5308.67
524.577	5351.61
524.943	5362.01
525.31	5432.51
525.676	5503.7
526.043	5520.65
526.409	5536.24
526.776	5648.1
527.142	5660.3
527.508	5728.1
527.874	5717.25
528.241	5823.46
528.607	5878.83
528.973	5933.06
529.339	5978.71
529.705	5969.67
530.071	6039.73
530.437	6131.03
530.803	6171.93
531.169	6154.98
531.535	6220.29
531.901	6247.63
532.267	6291.47
532.632	6359.04
532.998	6408.31
533.364	6457.57
533.73	6486.27
534.095	6528.98
534.461	6551.81
534.826	6550
535.192	6657.79
535.557	6701.41
535.923	6664.12
536.288	6713.38
536.653	6847.39
537.019	6847.39
537.384	6873.15
537.749	6957.44
538.114	6984.11
538.479	6946.6
538.845	7060.72
539.21	7038.35
539.575	7114.5
539.94	7166.48
540.305	7195.63
540.67	7117.44
541.034	7258.68
541.399	7302.97
541.764	7359.47
542.129	7390.43
542.494	7394.27
542.858	7465
543.223	7465.45
543.587	7564.43
543.952	7537.54
544.316	7627.26
544.681	7593.81
545.045	7655.5
545.41	7749.06
545.774	7777.54
546.138	7824.99
546.503	7852.56
546.867	7876.97
547.231	7991.09
547.595	8040.58
547.959	8038.09
548.324	8013.24
548.688	8073.57
549.052	8122.16
549.416	8145.44
549.779	8187.47
550.143	8229.95
550.507	8306.11
550.871	8315.83
551.235	8294.36
551.599	8434.69
551.962	8487.57
552.326	8480.57
552.689	8581.36
553.053	8573.22
553.417	8617.29
553.78	8730.73
554.143	8751.75
554.507	8716.04
554.87	8803.27
555.234	8937.73
555.597	8920.78
555.96	8946.32
556.323	9015.7
556.686	8970.95
557.05	9085.3
557.413	9119.87
557.776	9092.08
558.139	9229.25
558.502	9243.26
558.865	9382.69
559.228	9434.44
559.59	9416.81
559.953	9496.13
560.316	9549.47
560.679	9534.78
561.041	9651.38
561.404	9772.96
561.767	9815
562.129	9804.83
562.492	9989.91
562.854	9894.09
563.217	10000.75
563.579	10079.17
563.941	10095.67
564.304	10205.95
564.666	10339.95
565.028	10271.48
565.39	10340.63
565.753	10360.29
566.115	10498.37
566.477	10481.42
566.839	10553.28
567.201	10637.35
567.563	10661.3
567.925	10777
568.287	10766.84
568.648	10800.96
569.01	10868.08
569.372	11054.29
569.734	11041.4
570.095	11068.3
570.457	11132.25
570.819	11159.82
571.18	11172.7
571.542	11210.21
571.903	11265.58
572.265	11360.04
572.626	11321.62
572.987	11455.41
573.349	11445.01
573.71	11457.21
574.071	11552.58
574.432	11598.45
574.794	11676.42
575.155	11772.01
575.516	11697.21
575.877	11713.03
576.238	11883.19
576.599	11839.12
576.96	11890.42
577.32	11985.56
577.681	11964.32
578.042	12070.08
578.403	12028.27
578.763	12112.11
579.124	12183.97
579.485	12204.54
579.845	12260.36
580.206	12269.17
580.566	12286.8
580.927	12298.32
581.287	12327.25
581.648	12362.5
582.008	12447.47
582.368	12405.66
582.728	12472.78
583.089	12461.71
583.449	12505.55
583.809	12577.64
584.169	12502.16
584.529	12507.58
584.889	12664.19
585.249	12633.45
585.609	12559.56
585.969	12663.73
586.329	12676.39
586.688	12736.73
587.048	12600.23
587.408	12663.51
587.768	12830.74
588.127	12826.44
588.487	12809.49
588.846	12903.95
589.206	12780.79
589.565	12778.99
589.925	12939.21
590.284	12870.28
590.643	12984.86
591.003	13005.42
591.362	12992.99
591.721	13035.48
592.08	12943.5
592.44	13140.56
592.799	13090.39
593.158	13036.15
593.517	13067.57
593.876	13098.75
594.235	13082.48
594.593	13155.25
594.952	13229.6
595.311	13178.07
595.67	13231.18
596.029	13286.09
596.387	13355.92
596.746	13289.48
597.104	13359.54
597.463	13287.9
597.822	13387.11
598.18	13387.11
598.538	13310.5
598.897	13453.77
599.255	13369.25
599.613	13538.97
599.972	13438.18
600.33	13490.38
600.688	13504.39
601.046	13566.99
601.404	13635.46
601.762	13599.3
602.12	13727.21
602.478	13679.98
602.836	13701
603.194	13626.87
603.552	13732.41
603.91	13663.71
604.268	13726.31
604.625	13783.03
604.983	13787.32
605.341	13736.25
605.698	13862.12
606.056	13915
606.413	13929.01
606.771	13918.84
607.128	13934.66
607.485	13958.62
607.843	14017.82
608.2	14070.03
608.557	14142.11
608.914	14123.36
609.272	14071.38
609.629	14102.12
609.986	14217.14
610.343	14178.27
610.7	14326.74
611.057	14253.52
611.414	14217.82
611.771	14296.69
612.127	14366.97
612.484	14309.57
612.841	14366.29
613.198	14362
613.554	14387.76
613.911	14496.91
614.267	14486.96
614.624	14502.33
614.98	14532.61
615.337	14665.04
615.693	14642.21
616.05	14605.38
616.406	14735.32
616.762	14664.13
617.118	14635.89
617.475	14727.86
617.831	14728.31
618.187	14825.49
618.543	14855.99
618.899	14889.21
619.255	14810.12
619.611	14729.67
619.967	14846.05
620.323	14959.49
620.678	14917.91
621.034	14868.65
621.39	14956.33
621.746	14828.42
622.101	15045.14
622.457	14919.49
622.812	14943.67
623.168	15033.16
623.523	15010.79
623.879	15105.03
624.234	15002.2
624.589	15042.43
624.945	15129.66
625.3	15186.15
625.655	15078.81
626.01	15157.23
626.365	15195.19
626.72	15125.37
627.075	15184.12
627.43	15159.49
627.785	15088.98
628.14	15157.23
628.495	15177.57
628.85	15125.37
629.205	15162.88
629.559	15214.4
629.914	15075.87
630.269	15196.1
630.623	15250.56
630.978	15149.55
631.332	15179.6
631.687	15265.02
632.041	15234.06
632.396	15243.33
632.75	15129.66
633.104	15119.94
633.459	15042.88
633.813	15121.75
634.167	15138.02
634.521	15127.17
634.875	15179.83
635.229	15290.33
635.583	15122.88
635.937	15027.51
636.291	15077
636.645	15046.5
636.999	15158.58
637.352	15117.91
637.706	15082.65
638.06	15128.3
638.413	15085.14
638.767	15076.1
639.121	15018.93
639.474	15019.61
639.828	15016.89
640.181	15075.2
640.534	15064.12
640.888	15073.16
641.241	14906.84
641.594	15055.99
641.947	15066.61
642.301	15070.9
642.654	15057.34
643.007	15093.28
643.36	15065.48
643.713	15081.98
644.066	15072.03
644.419	14999.72
644.771	14824.81
645.124	14747.3
645.477	14841.98
645.83	14705.94
646.182	14619.39
646.535	14606.28
646.888	14604.25
647.24	14573.06
647.593	14659.39
647.945	14648.32
648.298	14586.85
648.65	14525.38
649.002	14454.42
649.355	14611.48
649.707	14466.63
650.059	14617.81
650.411	14771.48
650.763	14839.72
651.115	15011.47
651.467	14967.4
651.819	14979.83
652.171	14919.04
652.523	14944.13
652.875	14915.88
653.227	14883.11
653.578	14960.4
653.93	14931.47
654.282	14847.63
654.633	14830.23
654.985	14877.46
655.337	14929.44
655.688	14897.35
656.039	15061.41
656.391	14824.13
656.742	14843.79
657.094	14904.13
657.445	14982.09
657.796	14930.79
658.147	14877.69
658.498	14869.78
658.849	14914.3
659.2	14905.48
659.551	14782.78
659.902	14943
660.253	14983.22
660.604	14929.89
660.955	14902.77
661.306	14949.55
661.656	14926.73
662.007	14939.83
662.358	14905.26
662.708	14962.88
663.059	14858.25
663.409	14805.6
663.76	14972.15
664.11	14946.84
664.461	14934.41
664.811	14964.92
665.161	14924.92
665.511	14935.31
665.862	14943
666.212	15050.56
666.562	15029.77
666.912	15001.3
667.262	14902.32
667.612	14875.65
667.962	14975.76
668.312	14915.43
668.662	14926.5
669.011	14976.89
669.361	15000.17
669.711	14891.7
670.06	14939.16
670.41	14951.81
670.76	14851.25
671.109	15090.79
671.459	14894.64
671.808	14866.84
672.157	15052.6
672.507	14874.98
672.856	14933.51
673.205	14869.1
673.554	15005.82
673.904	14947.74
674.253	14958.59
674.602	14962.66
674.951	14760.18
675.3	14765.6
675.649	14943.45
675.998	14886.73
676.346	14907.29
676.695	14953.39
677.044	14779.84
677.393	14899.38
677.741	14930.34
678.09	14867.29
678.438	14902.77
678.787	14912.26
679.135	14875.2
679.484	14850.8
679.832	14932.15
680.181	14777.13
680.529	14814.64
680.877	14823.9
681.225	14687.64
681.573	14919.95
681.922	14838.37
682.27	14739.61
682.618	14796.79
682.966	14789.1
683.314	14730.57
683.661	14778.26
684.009	14693.51
684.357	14608.32
684.705	14630.69
685.053	14698.48
685.4	14559.5
685.748	14567.87
686.095	14567.87
686.443	14536.45
686.79	14556.57
687.138	14505.27
687.485	14481.31
687.832	14564.93
688.18	14530.13
688.527	14388.89
688.874	14427.98
689.221	14364.71
689.568	14368.32
689.915	14337.14
690.262	14323.35
690.609	14332.17
690.956	14357.93
691.303	14243.58
691.65	14192.73
691.997	14232.06
692.344	14088.78
692.69	14158.61
693.037	14188.44
693.383	14042.91
693.73	14103.92
694.077	14057.82
694.423	13939.41
694.769	13957.26
695.116	13932.18
695.462	13940.99
695.808	13878.39
696.155	13896.24
696.501	13810.6
696.847	13843.14
697.193	13705.97
697.539	13800.65
697.885	13656.25
698.231	13701.67
698.577	13773.08
698.923	13697.83
699.269	13635.91
699.614	13507.55
699.96	13529.25
700.306	13592.98
700.651	13491.74
700.997	13443.83
701.342	13518.63
701.688	13471.62
702.033	13399.76
702.379	13405.41
702.724	13304.85
703.069	13375.58
703.415	13231.4
703.76	13246.32
704.105	13280.67
704.45	13223.49
704.795	13172.42
705.14	13067.57
705.485	13009.94
705.83	13009.49
706.175	13049.49
706.52	12997.06
706.865	12980.56
707.209	12975.59
707.554	13006.1
707.899	12994.35
708.243	12868.25
708.588	12915.71
708.932	12755.48
709.277	12840.45
709.621	12882.94
709.966	12679.1
710.31	12808.14
710.654	12652.89
710.998	12715.48
711.342	12724.3
711.687	12642.72
712.031	12661.93
712.375	12551.65
712.719	12615.37
713.063	12617.63
713.407	12573.34
713.75	12517.52
714.094	12529.05
714.438	12451.99
714.782	12515.04
715.125	12414.48
715.469	12436.4
715.812	12467.58
716.156	12338.55
716.499	12343.74
716.843	12404.31
717.186	12302.61
717.53	12400.92
717.873	12378.54
718.216	12320.02
718.559	12319.34
718.902	12195.5
719.246	12284.99
719.589	12251.54
719.932	12207.02
720.275	12256.06
720.617	12249.06
720.96	12101.26
721.303	12179.23
721.646	12191.66
721.989	12118.21
722.331	12123.18
722.674	12137.65
723.016	12059.91
723.359	12146.46
723.701	12099
724.044	12047.03
724.386	12008.61
724.729	12049.97
725.071	12069.85
725.413	12070.08
725.755	12007.48
726.097	12033.24
726.439	11915.05
726.782	11920.7
727.124	12009.51
727.465	11925.68
727.807	11986.01
728.149	11917.99
728.491	11892.46
728.833	11905.11
729.175	11910.99
729.516	11897.65
729.858	11827.82
730.199	11824.89
730.541	11828.73
730.882	11802.74
731.224	11904.88
731.565	11819.92
731.906	11802.97
732.248	11737.66
732.589	11747.15
732.93	11712.57
733.271	11660.15
733.612	11784.44
733.953	11728.39
734.294	11757.32
734.635	11710.99
734.976	11717.32
735.317	11670.31
735.658	11754.83
735.999	11680.71
736.339	11673.25
736.68	11743.08
737.021	11642.29
737.361	11662.86
737.702	11678
738.042	11675.74
738.383	11614.27
738.723	11719.8
739.063	11620.6
739.404	11646.36
739.744	11569.75
740.084	11519.13
740.424	11587.38
740.764	11577.21
741.104	11620.15
741.444	11545.35
741.784	11549.41
742.124	11574.95
742.464	11548.74
742.804	11592.58
743.143	11473.48
743.483	11501.51
743.823	11529.75
744.162	11507.83
744.502	11463.54
744.841	11450.43
745.181	11534.95
745.52	11459.02
745.86	11537.44
746.199	11495.86
746.538	11421.96
746.877	11482.97
747.216	11508.28
747.556	11394.16
747.895	11520.71
748.234	11361.17
748.573	11329.98
748.911	11341.51
749.25	11377.89
749.589	11360.04
749.928	11431.68
750.267	11437.1
750.605	11335.86
750.944	11361.62
751.283	11332.02
751.621	11297.22
751.96	11304
752.298	11292.47
752.636	11225.35
752.975	11260.61
753.313	11198.46
753.651	11258.12
753.989	11169.76
754.327	11165.92
754.666	11158.24
755.004	11160.05
755.342	11156.88
755.679	11261.29
756.017	11057.22
756.355	11146.03
756.693	11079.37
757.031	11099.48
757.368	11080.05
757.706	11072.59
758.044	11022.65
758.381	11079.82
758.719	10972.03
759.056	10995.53
759.394	10973.84
759.731	10880.73
760.068	10851.58
760.405	10912.59
760.743	10857.45
761.08	10898.36
761.417	10856.1
761.754	10798.7
762.091	10779.72
762.428	10727.06
762.765	10712.83
763.102	10729.1
763.438	10730.23
763.775	10655.88
764.112	10655.65
764.449	10655.2
764.785	10663.11
765.122	10568.2
765.458	10495.43
765.795	10500.18
766.131	10516.45
766.467	10457.92
766.804	10511.48
767.14	10408.2
767.476	10365.04
767.812	10370.46
768.148	10418.37
768.485	10360.52
768.821	10246.85
769.157	10249.11
769.492	10230.8
769.828	10220.86
770.164	10128.43
770.5	10136.12
770.836	10149.68
771.171	10061.54
771.507	10067.19
771.842	9985.61
772.178	10031.26
772.513	9896.35
772.849	9949.23
773.184	9864.71
773.519	9923.92
773.855	9879.4
774.19	9809.8
774.525	9767.54
774.86	9784.26
775.195	9803.02
775.53	9759.4
775.865	9604.15
776.2	9635.57
776.535	9541.56
776.87	9581.56
777.205	9539.75
777.539	9448.68
777.874	9468.34
778.209	9413.65
778.543	9446.87
778.878	9402.8
779.212	9393.09
779.547	9275.12
779.881	9316.25
780.215	9287.1
780.55	9291.17
780.884	9191.06
781.218	9222.92
781.552	9177.72
781.886	9168.46
782.22	9075.58
782.554	9105.64
782.888	9042.81
783.222	8998.29
783.556	8959.88
783.889	8936.6
784.223	8913.55
784.557	8843.5
784.89	8873.1
785.224	8843.72
785.557	8826.32
785.891	8823.61
786.224	8704.74
786.558	8756.04
786.891	8668.13
787.224	8671.07
787.557	8698.19
787.891	8633.56
788.224	8623.39
788.557	8574.58
788.89	8581.81
789.223	8597.63
789.556	8474.24
789.888	8541.36
790.221	8476.05
790.554	8448.03
790.887	8463.17
791.219	8362.15
791.552	8296.39
791.884	8326.22
792.217	8224.98
792.549	8272.89
792.882	8310.18
793.214	8173.46
793.546	8224.08
793.879	8181.14
794.211	8118.09
794.543	8201.48
794.875	8093.69
795.207	8102.5
795.539	8073.12
795.871	8027.92
796.203	7940.24
796.535	7966.68
796.867	7963.97
797.198	7927.59
797.53	7967.59
797.862	7890.3
798.193	7905.67
798.525	7889.85
798.856	7939.79
799.188	7731.66
799.519	7748.61
799.85	7665.22
800.182	7714.71
800.513	7734.37
800.844	7643.53
801.175	7707.93
801.506	7674.04
801.837	7612.79
802.168	7664.09
802.499	7585.45
802.83	7552.68
803.161	7538.9
803.491	7549.07
803.822	7573.25
804.153	7468.84
804.483	7442.4
804.814	7370.54
805.145	7418.9
805.475	7379.81
805.805	7416.64
806.136	7398.34
806.466	7353.37
806.796	7359.92
807.126	7318.79
807.457	7281.73
807.787	7324.21
808.117	7241.28
808.447	7236.31
808.777	7256.87
809.107	7230.88
809.436	7190.21
809.766	7146.37
810.096	7176.2
810.426	7129.19
810.755	7147.95
811.085	7117.67
811.414	7081.73
811.744	7013.94
812.073	7088.74
812.403	7061.62
812.732	7037.67
813.061	7046.93
813.39	7006.48
813.719	6973.49
814.049	7029.53
814.378	6928.52
814.707	6903.89
815.036	6946.6
815.365	6945.92
815.693	6879.48
816.022	6888.75
816.351	6809.65
816.68	6819.14
817.008	6822.08
817.337	6778.92
817.665	6724.68
817.994	6822.08
818.322	6730.33
818.651	6811.91
818.979	6700.05
819.307	6763.1
819.636	6727.62
819.964	6655.31
820.292	6750.22
820.62	6685.36
820.948	6681.75
821.276	6673.38
821.604	6747.05
821.932	6707.06
822.259	6730.33
822.587	6686.49
822.915	6674.06
823.243	6696.21
823.57	6685.59
823.898	6686.04
824.225	6681.97
824.553	6655.53
824.88	6612.59
825.207	6619.37
825.535	6643.55
825.862	6688.98
826.189	6655.08
826.516	6667.51
826.843	6682.42
827.17	6712.93
827.497	6722.2
827.824	6683.33
828.151	6744.34
828.478	6639.71
828.805	6687.39
829.131	6709.77
829.458	6658.24
829.785	6631.58
830.111	6658.24
830.438	6668.41
830.764	6725.13
831.09	6681.07
831.417	6675.19
831.743	6650.79
832.069	6657.57
832.395	6661.18
832.722	6689.65
833.048	6655.08
833.374	6693.04
833.7	6629.77
834.026	6565.36
834.351	6656.89
834.677	6618.47
835.003	6654.18
835.329	6639.94
835.654	6610.56
835.98	6571.92
836.306	6584.35
836.631	6576.44
836.956	6590.67
837.282	6604.91
837.607	6559.94
837.932	6569.21
838.258	6583.89
838.583	6573.73
838.908	6485.37
839.233	6540.28
839.558	6484.69
839.883	6472.49
840.208	6449.21
840.533	6457.34
840.858	6451.02
841.182	6457.8
841.507	6454.41
841.832	6413.28
842.156	6425.71
842.481	6423.45
842.805	6413.5
843.13	6388.42
843.454	6399.72
843.778	6339.83
844.103	6325.37
844.427	6356.56
844.751	6298.7
845.075	6289.21
845.399	6345.26
845.723	6220.51
846.047	6278.82
846.371	6231.36
846.695	6237.01
847.019	6161.31
847.343	6115.21
847.666	6160.4
847.99	6164.92
848.313	6107.3
848.637	6091.25
848.96	6047.86
849.284	6032.27
849.607	6009.45
849.931	6034.76
850.254	5978.26
850.577	5944.36
850.9	5897.59
851.223	5863.91
851.546	5840.86
851.869	5843.35
852.192	5855.1
852.515	5829.79
852.838	5802.22
853.161	5830.24
853.483	5758.38
853.806	5748.21
854.129	5748.89
854.451	5663.01
854.774	5646.97
855.096	5649
855.419	5637.93
855.741	5675.67
856.063	5594.32
856.385	5621.43
856.708	5577.14
857.03	5549.12
857.352	5565.16
857.674	5561.32
857.996	5524.04
858.318	5478.61
858.64	5522.45
858.961	5494.88
859.283	5464.38
859.605	5444.94
859.926	5430.25
860.248	5399.52
860.57	5451.04
860.891	5404.72
861.212	5387.77
861.534	5410.37
861.855	5372.85
862.176	5377.82
862.498	5310.71
862.819	5392.51
863.14	5358.39
863.461	5328.33
863.782	5308.67
864.103	5286.08
864.424	5283.14
864.745	5272.06
865.065	5301.22
865.386	5280.88
865.707	5241.33
866.027	5298.05
866.348	5267.77
866.668	5305.28
866.989	5230.48
867.309	5279.52
867.63	5262.35
867.95	5239.3
868.27	5170.82
868.59	5202.91
868.91	5172.86
869.23	5146.87
869.55	5163.37
869.87	5207.66
870.19	5136.93
870.51	5191.16
870.83	5145.29
871.15	5078.62
871.469	5173.08
871.789	5139.64
872.109	5117.27
872.428	5088.57
872.748	5131.5
873.067	5090.37
873.386	5136.02
873.706	5108.68
874.025	5092.86
874.344	5046.08
874.663	5069.58
874.982	5031.39
875.301	5026.42
875.62	5022.81
875.939	5024.84
876.258	5013.99
876.577	5010.6
876.896	5043.37
877.214	4971.96
877.533	4999.3
877.852	5002.24
878.17	4995.01
878.489	4999.08
878.807	4989.81
879.125	4945.97
879.444	4971.96
879.762	4935.35
880.08	4941
880.398	4951.62
880.716	4915.69
881.034	4916.14
881.352	4919.98
881.67	4902.58
881.988	4907.33
882.306	4931.51
882.624	4899.87
882.941	4889.48
883.259	4840.66
883.577	4862.58
883.894	4793.43
884.212	4839.99
884.529	4824.62
884.846	4797.5
885.164	4783.49
885.481	4813.55
885.798	4823.04
886.115	4736.26
886.432	4804.28
886.75	4756.15
887.067	4771.74
887.383	4745.52
887.7	4743.94
888.017	4681.8
888.334	4712.53
888.651	4699.88
888.967	4668.01
889.284	4669.37
889.6	4641.12
889.917	4629.14
890.233	4620.78
890.55	4611.07
890.866	4657.62
891.182	4603.38
891.498	4592.76
891.815	4575.13
892.131	4516.38
892.447	4531.97
892.763	4490.39
893.079	4574.91
893.395	4530.16
893.71	4536.26
894.026	4505.76
894.342	4472.54
894.657	4439.54
894.973	4430.5
895.289	4428.7
895.604	4475.93
895.92	4390.51
896.235	4410.39
896.55	4377.17
896.865	4354.12
897.181	4362.94
897.496	4324.07
897.811	4360.9
898.126	4347.12
898.441	4305.99
898.756	4291.07
899.071	4286.55
899.386	4279.32
899.7	4232.77
900.015	4197.06
900.33	4182.83
900.644	4167.69
900.959	4221.7
901.273	4192.09
901.588	4162.94
901.902	4149.16
902.216	4073.45
902.531	4132.43
902.845	4128.37
903.159	4089.95
903.473	4072.77
903.787	4101.7
904.101	4051.76
904.415	4084.98
904.729	4075.71
905.042	4016.5
905.356	4007.01
905.67	3974.25
905.984	3972.21
906.297	3990.29
906.611	3931.08
906.924	3941.93
907.237	3887.92
907.551	3908.48
907.864	3906.9
908.177	3887.02
908.491	3929.5
908.804	3864.42
909.117	3834.59
909.43	3820.13
909.743	3806.34
910.056	3772.67
910.368	3795.04
910.681	3765.21
910.994	3756.85
911.307	3728.6
911.619	3689.06
911.932	3734.03
912.244	3701.71
912.557	3707.59
912.869	3696.06
913.181	3632.79
913.494	3646.12
913.806	3628.27
914.118	3603.63
914.43	3624.65
914.742	3579.23
915.054	3575.39
915.366	3568.83
915.678	3550.08
915.99	3542.39
916.302	3521.6
916.613	3505.56
916.925	3499
917.236	3501.04
917.548	3507.14
917.859	3515.27
918.171	3484.54
918.482	3445.45
918.794	3406.58
919.105	3428.27
919.416	3390.53
919.727	3359.8
920.038	3388.05
920.349	3365.67
920.66	3377.88
920.971	3353.25
921.282	3324.77
921.593	3330.19
921.903	3309.4
922.214	3247.94
922.525	3285.9
922.835	3234.6
923.146	3230.31
923.456	3239.35
923.767	3202.51
924.077	3210.88
924.387	3220.37
924.697	3206.58
925.008	3164.78
925.318	3154.83
925.628	3148.05
925.938	3140.37
926.248	3127.71
926.558	3110.54
926.867	3113.93
927.177	3073.25
927.487	3085.46
927.796	3022.63
928.106	3033.71
928.416	3039.58
928.725	3070.54
929.034	3047.94
929.344	3017.21
929.653	3008.4
929.962	2971.56
930.271	2960.26
930.581	2939.92
930.89	2938.11
931.199	2901.51
931.508	2942.18
931.817	2913.26
932.125	2896.53
932.434	2881.85
932.743	2862.64
933.051	2842.75
933.36	2859.92
933.669	2816.31
933.977	2827.16
934.286	2787.38
934.594	2820.15
934.902	2795.97
935.21	2800.94
935.519	2775.41
935.827	2748.06
936.135	2775.63
936.443	2720.95
936.751	2673.72
937.059	2746.93
937.367	2706.48
937.674	2703.09
937.982	2686.37
938.29	2639.82
938.597	2702.64
938.905	2683.66
939.213	2664.9
939.52	2655.18
939.827	2658.35
940.135	2630.55
940.442	2607.5
940.749	2591.68
941.056	2594.85
941.363	2598.01
941.67	2602.3
941.977	2558.92
942.284	2547.16
942.591	2567.05
942.898	2529.09
943.205	2527.5
943.511	2522.98
943.818	2493.61
944.125	2468.07
944.431	2475.75
944.738	2493.38
945.044	2445.7
945.35	2461.29
945.657	2431.01
945.963	2395.98
946.269	2414.29
946.575	2473.04
946.881	2429.2
947.187	2399.6
947.493	2414.06
947.799	2396.21
948.105	2373.61
948.41	2331.8
948.716	2368.41
949.022	2321.41
949.327	2310.79
949.633	2317.11
949.938	2326.38
950.244	2343.55
950.549	2304.69
950.854	2280.73
951.16	2264.91
951.465	2279.83
951.77	2268.08
952.075	2218.59
952.38	2264.23
952.685	2264.69
952.99	2213.61
953.294	2221.3
953.599	2213.84
953.904	2210.68
954.209	2198.47
954.513	2191.92
954.818	2188.08
955.122	2158.02
955.426	2161.41
955.731	2144.24
956.035	2149.21
956.339	2147.85
956.643	2122.77
956.948	2130.23
957.252	2083.22
957.556	2100.17
957.86	2069.44
958.163	2111.92
958.467	2077.12
958.771	2109.44
959.075	2044.35
959.378	2059.72
959.682	2027.4
959.985	2050
960.289	2012.26
960.592	2023.56
960.896	2007.29
961.199	1999.61
961.502	2024.69
961.805	2008.2
962.108	1966.16
962.411	1973.62
962.714	1943.11
963.017	1941.53
963.32	1970.23
963.623	1927.52
963.926	1943.34
964.228	1907.63
964.531	1925.49
964.833	1912.83
965.136	1918.48
965.438	1867.18
965.741	1891.59
966.043	1888.42
966.345	1902.44
966.648	1869.44
966.95	1825.38
967.252	1856.79
967.554	1834.19
967.856	1866.96
968.158	1836.45
968.46	1834.87
968.761	1834.87
969.063	1799.16
969.365	1790.57
969.666	1783.57
969.968	1780.86
970.269	1791.7
970.571	1786.05
970.872	1755.1
971.174	1736.11
971.475	1784.47
971.776	1741.31
972.077	1741.31
972.378	1727.75
972.679	1733.85
972.98	1722.33
973.281	1726.4
973.582	1722.1
973.883	1720.52
974.183	1668.09
974.484	1664.48
974.785	1694.31
975.085	1669.67
975.386	1664.48
975.686	1669.22
975.986	1678.49
976.287	1684.59
976.587	1624.93
976.887	1643.46
977.187	1655.66
977.487	1624.7
977.787	1610.24
978.087	1612.73
978.387	1610.47
978.687	1590.58
978.987	1579.73
979.286	1581.54
979.586	1584.03
979.885	1562.33
980.185	1560.52
980.484	1562.78
980.784	1558.26
981.083	1591.94
981.382	1553.74
981.682	1536.34
981.981	1534.31
982.28	1516.46
982.579	1516.01
982.878	1523.69
983.177	1532.05
983.475	1508.77
983.774	1506.29
984.073	1505.16
984.372	1512.39
984.67	1471.03
984.969	1477.59
985.267	1460.87
985.566	1471.94
985.864	1450.7
986.162	1456.8
986.461	1417.48
986.759	1417.02
987.057	1426.29
987.355	1438.95
987.653	1421.54
987.951	1418.61
988.249	1433.75
988.547	1415.22
988.844	1372.73
989.142	1407.76
989.44	1377.7
989.737	1368.66
990.035	1383.81
990.332	1382.22
990.63	1372.28
990.927	1376.12
991.224	1359.4
991.521	1347.2
991.819	1336.8
992.116	1345.84
992.413	1342
992.71	1321.43
993.006	1330.25
993.303	1364.6
993.6	1320.76
993.897	1332.06
994.193	1321.89
994.49	1319.17
994.787	1306.29
995.083	1267.65
995.379	1281.89
995.676	1300.42
995.972	1276.69
996.268	1258.16
996.565	1270.36
996.861	1248.22
997.157	1269.46
997.453	1256.35
997.749	1227.2
998.044	1225.39
998.34	1247.76
998.636	1245.5
998.932	1232.62
999.227	1197.14
999.523	1224.49
999.818	1182.23
1000.114	1195.56
1000.409	1189.01
1000.704	1205.51
1001	1162.12
1001.295	1158.73
1001.59	1163.7
1001.885	1195.11
1002.18	1143.81
1002.475	1173.19
1002.77	1142.68
1003.065	1117.37
1003.359	1163.25
1003.654	1161.44
1003.949	1113.08
1004.243	1155.79
1004.538	1123.25
1004.832	1134.32
1005.127	1107.88
1005.421	1113.53
1005.715	1108.11
1006.009	1092.97
1006.304	1099.29
1006.598	1078.05
1006.892	1097.94
1007.186	1075.34
1007.48	1072.4
1007.773	1055.68
1008.067	1049.58
1008.361	1050.71
1008.655	1069.69
1008.948	1039.41
1009.242	1041.22
1009.535	1038.73
1009.829	1023.59
1010.122	1008
1010.415	1000.31
1010.708	1043.25
1011.001	1006.64
1011.295	991.5
1011.588	1016.81
1011.881	992.63
1012.173	989.24
1012.466	960.31
1012.759	1002.12
1013.052	991.73
1013.344	980.65
1013.637	963.03
1013.93	954.21
1014.222	934.33
1014.514	961.67
1014.807	957.15
1015.099	964.83
1015.391	940.2
1015.683	937.26
1015.976	953.76
1016.268	904.27
1016.56	926.64
1016.851	923.7
1017.143	907.66
1017.435	904.72
1017.727	913.54
1018.018	884.16
1018.31	902.91
1018.602	897.49
1018.893	911.05
1019.185	887.55
1019.476	881.9
1019.767	895.23
1020.058	879.64
1020.35	870.37
1020.641	848.45
1020.932	853.65
1021.223	837.15
1021.514	848.45
1021.804	859.75
1022.095	852.29
1022.386	834.44
1022.677	841.22
1022.967	851.62
1023.258	799.64
1023.548	822.24
1023.839	797.83
1024.129	815.46
1024.419	812.52
1024.709	791.28
1025	801.9
1025.29	755.8
1025.58	798.51
1025.87	793.76
1026.16	788.57
1026.449	792.86
1026.739	752.18
1027.029	759.87
1027.319	745.4
1027.608	760.32
1027.898	773.65
1028.187	747.66
1028.477	736.36
1028.766	737.49
1029.055	748.79
1029.344	738.17
1029.634	740.66
1029.923	721.68
1030.212	714.44
1030.501	702.69
1030.79	725.07
1031.078	716.03
1031.367	712.64
1031.656	710.15
1031.945	698.63
1032.233	706.31
1032.522	693.88
1032.81	680.32
1033.099	694.11
1033.387	700.66
1033.675	671.96
1033.963	693.65
1034.251	683.94
1034.54	674.22
1034.828	662.02
1035.116	652.98
1035.403	651.4
1035.691	677.84
1035.979	674.22
1036.267	653.88
1036.554	649.14
1036.842	651.62
1037.129	654.11
1037.417	629.7
1037.704	633.09
1037.992	649.36
1038.279	638.74
1038.566	635.35
1038.853	635.35
1039.14	635.35
