Data from cardboard_FLMS001491_056.txt Node
Date: Tue Feb 07 11:39:44 GMT 2017
User: dcchb
Spectrometer: FLMS00149
Trigger mode: 0
Integration Time (sec): 2.000000E-2
Scans to average: 10
Electric dark correction enabled: true
Nonlinearity correction enabled: false
Boxcar width: 0
XAxis mode: Wavelengths
Number of Pixels in Spectrum: 2048
>>>>>Begin Spectral Data<<<<<
341.393	-15.23
341.776	-15.23
342.16	-15.23
342.543	-65.17
342.927	-72.4
343.31	-69.91
343.693	-80.31
344.077	-59.29
344.46	-54.09
344.843	-55.45
345.226	-36.69
345.61	-33.98
345.993	-6.41
346.376	-0.54
346.759	10.08
347.142	25.45
347.525	39.46
347.908	55.06
348.291	71.55
348.674	84.21
349.057	110.87
349.44	114.49
349.823	148.16
350.206	155.84
350.588	169.18
350.971	204.2
351.354	226.8
351.737	234.03
352.119	232.68
352.502	245.11
352.884	265.9
353.267	294.37
353.65	281.26
354.032	286.46
354.414	304.54
354.797	298.89
355.179	315.84
355.562	292.79
355.944	333.92
356.326	337.99
356.709	326.46
357.091	328.72
357.473	295.95
357.855	304.31
358.238	316.29
358.62	318.1
359.002	331.43
359.384	331.43
359.766	314.71
360.148	324.43
360.53	331.88
360.912	319.91
361.294	343.41
361.676	310.87
362.057	329.17
362.439	316.29
362.821	323.07
363.203	320.58
363.584	312.9
363.966	312.9
364.348	303.64
364.729	304.77
365.111	315.84
365.493	326.23
365.874	315.16
366.256	306.12
366.637	301.38
367.019	306.57
367.4	322.84
367.781	297.31
368.163	314.94
368.544	309.51
368.925	304.31
369.306	307.7
369.688	303.41
370.069	306.8
370.45	317.2
370.831	296.63
371.212	322.39
371.593	324.2
371.974	291.88
372.355	316.29
372.736	304.54
373.117	303.86
373.498	298.66
373.879	313.35
374.26	295.27
374.641	288.72
375.021	289.4
375.402	297.99
375.783	287.14
376.163	301.15
376.544	331.21
376.925	298.66
377.305	305.9
377.686	300.25
378.066	300.92
378.447	311.77
378.827	344.09
379.208	322.39
379.588	295.5
379.968	307.7
380.349	308.61
380.729	319
381.109	322.62
381.489	328.49
381.87	328.72
382.25	319.91
382.63	314.71
383.01	321.49
383.39	316.07
383.77	331.88
384.15	325.33
384.53	332.34
384.91	328.04
385.29	331.66
385.67	319
386.049	336.18
386.429	331.43
386.809	351.77
387.189	323.3
387.568	334.37
387.948	344.09
388.328	337.53
388.707	356.97
389.087	336.4
389.466	340.02
389.846	338.66
390.225	349.28
390.605	342.28
390.984	339.34
391.363	366.23
391.743	334.37
392.122	371.66
392.501	347.02
392.881	347.7
393.26	347.48
393.639	372.11
394.018	366.01
394.397	352.22
394.776	358.32
395.155	351.09
395.534	346.57
395.913	395.84
396.292	391.54
396.671	361.94
397.05	378.89
397.429	361.26
397.808	364.65
398.186	372.79
398.565	374.14
398.944	381.6
399.323	394.93
399.701	383.63
400.08	367.36
400.458	371.43
400.837	398.1
401.215	384.09
401.594	403.07
401.972	394.93
402.351	408.04
402.729	384.99
403.107	425.21
403.486	410.07
403.864	414.37
404.242	414.14
404.62	411.2
404.999	403.29
405.377	415.27
405.755	399.23
406.133	386.12
406.511	404.88
406.889	424.76
407.267	432.9
407.645	418.21
408.023	413.24
408.401	425.21
408.779	437.64
409.156	445.33
409.534	446.23
409.912	427.25
410.29	425.44
410.667	441.71
411.045	441.26
411.422	462.95
411.8	455.95
412.178	419.11
412.555	469.06
412.933	471.77
413.31	463.63
413.687	497.53
414.065	464.99
414.442	466.12
414.819	458.89
415.197	454.14
415.574	475.83
415.951	490.75
416.328	472.67
416.705	491.88
417.082	489.17
417.46	485.55
417.837	492.11
418.214	490.52
418.591	505.89
418.967	504.53
419.344	519.45
419.721	493.69
420.098	517.87
420.475	554.25
420.852	522.84
421.228	527.13
421.605	525.1
421.982	515.83
422.358	541.6
422.735	531.88
423.111	535.49
423.488	552.9
423.864	538.21
424.241	532.78
424.617	559.22
424.994	552.67
425.37	540.01
425.746	563.52
426.123	555.38
426.499	563.29
426.875	559.67
427.251	592.44
427.627	566.91
428.003	594.02
428.379	595.15
428.756	558.77
429.132	606
429.507	608.26
429.883	619.56
430.259	627.24
430.635	603.97
431.011	621.14
431.387	624.98
431.763	639.22
432.138	623.85
432.514	632.44
432.89	635.6
433.265	636.06
433.641	639.22
434.016	642.61
434.392	674.93
434.767	663.85
435.143	656.17
435.518	697.52
435.894	719.67
436.269	701.14
436.644	707.47
437.02	713.79
437.395	742.49
437.77	703.4
438.145	703.17
438.52	721.48
438.895	733.91
439.271	723.06
439.646	743.62
440.021	728.71
440.395	732.78
440.77	727.58
441.145	745.43
441.52	770.74
441.895	763.96
442.27	742.95
442.645	754.02
443.019	776.84
443.394	778.88
443.769	777.52
444.143	760.12
444.518	784.98
444.892	794.24
445.267	787.47
445.641	809.84
446.016	801.93
446.39	818.88
446.764	816.62
447.139	797.63
447.513	800.57
447.887	820.91
448.262	830.18
448.636	853.68
449.01	832.89
449.384	842.6
449.758	843.06
450.132	843.73
450.506	866.33
450.88	873.34
451.254	864.07
451.628	891.19
452.002	892.77
452.376	889.61
452.75	922.83
453.123	885.54
453.497	917.86
453.871	949.27
454.244	955.6
454.618	945.43
454.992	936.61
455.365	971.19
455.739	992.43
456.112	988.82
456.486	965.99
456.859	1000.11
457.232	993.79
457.606	1013.67
457.979	1011.41
458.352	1045.99
458.725	1023.62
459.099	1013.9
459.472	1083.5
459.845	1053.22
460.218	1066.78
460.591	1069.27
460.964	1120.56
461.337	1118.76
461.71	1132.09
462.083	1120.79
462.456	1143.61
462.829	1145.87
463.201	1174.35
463.574	1171.41
463.947	1181.58
464.32	1222.03
464.692	1203.5
465.065	1226.32
465.438	1242.59
465.81	1237.85
466.183	1261.13
466.555	1274.91
466.928	1273.78
467.3	1295.7
467.672	1330.73
468.045	1338.19
468.417	1323.95
468.789	1353.55
469.161	1375.92
469.534	1388.58
469.906	1397.17
470.278	1437.17
470.65	1448.24
471.022	1477.39
471.394	1509.48
471.766	1485.98
472.138	1512.42
472.51	1544.73
472.882	1576.14
473.253	1578.86
473.625	1571.85
473.997	1596.48
474.369	1659.31
474.74	1642.36
475.112	1703.37
475.484	1694.33
475.855	1723.26
476.227	1732.75
476.598	1787.89
476.97	1814.1
477.341	1816.82
477.713	1869.47
478.084	1862.01
478.455	1890.94
478.827	1918.28
479.198	1989.92
479.569	1987.43
479.94	2044.61
480.311	2066.75
480.682	2111.27
481.053	2135.45
481.424	2190.82
481.795	2189.01
482.166	2234.21
482.537	2271.72
482.908	2306.07
483.279	2339.74
483.65	2371.83
484.021	2407.76
484.391	2435.33
484.762	2454.77
485.133	2490.02
485.503	2519.4
485.874	2590.58
486.244	2601.65
486.615	2638.72
486.985	2665.38
487.356	2691.14
487.726	2733.4
488.097	2793.06
488.467	2806.4
488.837	2893.17
489.207	2935.66
489.578	2970.23
489.948	2970.01
490.318	3038.93
490.688	3024.24
491.058	3117.35
491.428	3131.13
491.798	3188.98
492.168	3239.83
492.538	3284.35
492.908	3302.88
493.278	3348.75
493.648	3372.71
494.017	3452.48
494.387	3460.84
494.757	3467.62
495.126	3536.09
495.496	3539.03
495.866	3532.93
496.235	3637.33
496.605	3682.76
496.974	3680.72
497.344	3712.81
497.713	3763.43
498.082	3797.56
498.452	3829.42
498.821	3865.58
499.19	3881.62
499.559	3920.94
499.928	3965.01
500.298	3985.57
500.667	4038.45
501.036	4084.1
501.405	4079.13
501.774	4089.75
502.143	4183.99
502.512	4140.6
502.88	4256.3
503.249	4281.61
503.618	4292.91
503.987	4320.25
504.356	4369.74
504.724	4364.77
505.093	4411.32
505.462	4441.61
505.83	4501.04
506.199	4606.8
506.567	4627.36
506.936	4626.01
507.304	4699.68
507.672	4728.38
508.041	4790.07
508.409	4804.08
508.777	4833.91
509.145	4848.15
509.514	4931.09
509.882	4941.71
510.25	5001.14
510.618	5024.64
510.986	5050.18
511.354	5105.54
511.722	5192.32
512.09	5240.46
512.458	5260.12
512.826	5317.97
513.193	5349.38
513.561	5381.69
513.929	5408.59
514.297	5515.25
514.664	5536.27
515.032	5573.1
515.4	5647.22
515.767	5696.49
516.135	5750.5
516.502	5741.91
516.869	5850.16
517.237	5861.91
517.604	5873.43
517.972	5987.55
518.339	6013.32
518.706	6053.32
519.073	6137.38
519.44	6171.28
519.808	6275.23
520.175	6227.32
520.542	6334.89
520.909	6407.66
521.276	6455.56
521.643	6521.1
522.009	6558.84
522.376	6623.7
522.743	6695.56
523.11	6824.37
523.477	6903.46
523.843	6885.61
524.21	7013.06
524.577	7040.18
524.943	7107.75
525.31	7188.43
525.676	7256.9
526.043	7304.81
526.409	7337.8
526.776	7482.88
527.142	7519.72
527.508	7533.28
527.874	7627.51
528.241	7667.28
528.607	7780.73
528.973	7909.99
529.339	7819.6
529.705	7978.69
530.071	8011.91
530.437	8093.04
530.803	8173.49
531.169	8203.09
531.535	8276.53
531.901	8324.22
532.267	8404.21
532.632	8520.37
532.998	8556.53
533.364	8635.39
533.73	8657.31
534.095	8729.4
534.461	8819.57
534.826	8813.02
535.192	8840.36
535.557	8948.83
535.923	9039.9
536.288	9099.34
536.653	9125.1
537.019	9130.3
537.384	9217.53
537.749	9306.11
538.114	9325.77
538.479	9344.53
538.845	9367.13
539.21	9419.55
539.575	9470.17
539.94	9564.86
540.305	9593.11
540.67	9632.2
541.034	9717.4
541.399	9761.47
541.764	9892.31
542.129	9933.21
542.494	9931.86
542.858	9958.52
543.223	10037.17
543.587	10112.87
543.952	10153.55
544.316	10237.61
544.681	10310.83
545.045	10350.6
545.41	10419.98
545.774	10434.44
546.138	10505.4
546.503	10519.64
546.867	10608.68
547.231	10685.28
547.595	10804.83
547.959	10753.53
548.324	10855.45
548.688	10912.62
549.052	10852.51
549.416	10996.24
549.779	11083.47
550.143	11102
550.507	11199.39
550.871	11224.93
551.235	11276.23
551.599	11415.21
551.962	11370.01
552.326	11502.44
552.689	11596.22
553.053	11471.03
553.417	11578.82
553.78	11768.19
554.143	11795.76
554.507	11909.21
554.87	11921.86
555.234	12048.64
555.597	12001.18
555.96	12106.72
556.323	12167.28
556.686	12218.35
557.05	12362.3
557.413	12405.01
557.776	12562.97
558.139	12560.26
558.502	12640.49
558.865	12724.78
559.228	12829.86
559.59	12896.75
559.953	12927.26
560.316	13166.12
560.679	13037.31
561.041	13238.89
561.404	13311.43
561.767	13387.59
562.129	13407.02
562.492	13488.15
562.854	13556.85
563.217	13548.03
563.579	13678.65
563.941	13759.33
564.304	13894.24
564.666	13934.92
565.028	14000
565.39	14039.55
565.753	14176.72
566.115	14266.43
566.477	14340.56
566.839	14470.27
567.201	14597.05
567.563	14625.29
567.925	14669.59
568.287	14723.82
568.648	14829.58
569.01	14825.29
569.372	14983.48
569.734	14960.65
570.095	15063.25
570.457	15237.71
570.819	15234.77
571.18	15199.74
571.542	15395.67
571.903	15393.18
572.265	15425.27
572.626	15597.47
572.987	15659.16
573.349	15687.19
573.71	15780.97
574.071	15839.05
574.432	15884.47
574.794	15997.69
575.155	16072.26
575.516	16004.24
575.877	16183.22
576.238	16127.4
576.599	16319.71
576.96	16280.17
577.32	16417.56
577.681	16408.75
578.042	16534.17
578.403	16563.1
578.763	16635.86
579.124	16686.71
579.485	16740.27
579.845	16789.98
580.206	16820.04
580.566	16826.14
580.927	16883.99
581.287	16989.75
581.648	16899.13
582.008	17029.75
582.368	17004.21
582.728	17118.56
583.089	17046.92
583.449	17079.47
583.809	17138.9
584.169	17253.92
584.529	17165.34
584.889	17392
585.249	17257.99
585.609	17311.32
585.969	17377.76
586.329	17442.39
586.688	17479.68
587.048	17427.25
587.408	17406.24
587.768	17523.3
588.127	17506.12
588.487	17546.35
588.846	17736.17
589.206	17533.47
589.565	17643.75
589.925	17714.25
590.284	17686.91
590.643	17768.04
591.003	17761.48
591.362	17933.46
591.721	17828.37
592.08	17821.14
592.44	17966.67
592.799	17873.57
593.158	17921.93
593.517	17968.03
593.876	17997.63
594.235	18002.38
594.593	18011.19
594.952	18058.65
595.311	18084.19
595.67	18203.73
596.029	18225.88
596.387	18356.27
596.746	18340.45
597.104	18253.45
597.463	18257.97
597.822	18417.06
598.18	18357.85
598.538	18421.35
598.897	18497.51
599.255	18480.33
599.613	18593.78
599.972	18427.23
600.33	18568.92
600.688	18596.26
601.046	18612.99
601.404	18706.09
601.762	18759.65
602.12	18794.22
602.478	18861.79
602.836	18836.71
603.194	18816.37
603.552	18831.28
603.91	18763.04
604.268	18945.63
604.625	18843.26
604.983	18988.57
605.341	18930.94
605.698	19057.49
606.056	19105.18
606.413	19107.66
606.771	19100.66
607.128	19164.84
607.485	19255.91
607.843	19214.78
608.2	19333.87
608.557	19330.03
608.914	19318.96
609.272	19586.29
609.629	19579.06
609.986	19577.93
610.343	19547.88
610.7	19665.84
611.057	19618.16
611.414	19655.44
611.771	19669.68
612.127	19755.55
612.484	19670.81
612.841	19849.56
613.198	19858.83
613.554	19795.78
613.911	19943.57
614.267	19940.86
614.624	19955.1
614.98	20016.79
615.337	20249.55
615.693	20012.95
616.05	20062.89
616.406	20205.26
616.762	20149.89
617.118	20176.56
617.475	20235.99
617.831	20395.54
618.187	20410.9
618.543	20414.07
618.899	20458.81
619.255	20424.91
619.611	20461.3
619.967	20566.38
620.323	20556.44
620.678	20607.96
621.034	20492.03
621.39	20593.27
621.746	20592.14
622.101	20817.9
622.457	20558.47
622.812	20772.48
623.168	20785.13
623.523	20798.69
623.879	20826.71
624.234	20761.63
624.589	20816.32
624.945	20864.45
625.3	20870.1
625.655	20872.59
626.01	20875.75
626.365	20894.51
626.72	20902.64
627.075	20976.76
627.43	20945.35
627.785	20885.02
628.14	21042.75
628.495	20995.97
628.85	20990.1
629.205	20875.75
629.559	21016.09
629.914	20986.71
630.269	21047.27
630.623	20870.55
630.978	20826.49
631.332	21023.54
631.687	21087.5
632.041	20978.12
632.396	21145.8
632.75	21016.76
633.104	21057.21
633.459	21024.45
633.813	20980.83
634.167	20969.53
634.521	20987.84
634.875	21055.63
635.229	20967.05
635.583	20863.77
635.937	21016.99
636.291	20967.27
636.645	20957.56
636.999	20925.01
637.352	20996.88
637.706	20896.54
638.06	20934.96
638.413	20929.76
638.767	20876.2
639.121	20882.53
639.474	20690.67
639.828	20849.54
640.181	20859.03
640.534	20907.84
640.888	20809.99
641.241	20789.88
641.594	20777.22
641.947	20826.26
642.301	20819.93
642.654	20872.13
643.007	20808.86
643.36	20788.52
643.713	20824.23
644.066	20904.68
644.419	20611.35
644.771	20591.01
645.124	20391.7
645.477	20358.02
645.83	20268.99
646.182	20273.73
646.535	20227.86
646.888	20260.85
647.24	20117.13
647.593	20262.66
647.945	20123
648.298	20167.07
648.65	20061.76
649.002	20091.82
649.355	20108.09
649.707	20156.45
650.059	20244.81
650.411	20465.59
650.763	20619.94
651.115	20755.08
651.467	20592.14
651.819	20734.51
652.171	20597.11
652.523	20692.48
652.875	20729.54
653.227	20559.37
653.578	20803.89
653.93	20715.98
654.282	20611.58
654.633	20526.61
654.985	20668.75
655.337	20714.62
655.688	20589.88
656.039	20714.85
656.391	20524.57
656.742	20569.09
657.094	20626.27
657.445	20690.9
657.796	20593.27
658.147	20613.84
658.498	20620.84
658.849	20604.35
659.2	20697
659.551	20581.07
659.902	20702.65
660.253	20737.68
660.604	20680.28
660.955	20588.3
661.306	20669.65
661.656	20688.86
662.007	20660.16
662.358	20643.89
662.708	20714.4
663.059	20695.64
663.409	20561.41
663.76	20752.14
664.11	20754.62
664.461	20757.56
664.811	20746.71
665.161	20700.61
665.511	20686.83
665.862	20689.99
666.212	20673.04
666.562	20834.17
666.912	20767.96
667.262	20712.82
667.612	20724.34
667.962	20831.68
668.312	20810.22
668.662	20810.89
669.011	20632.59
669.361	20821.74
669.711	20757.11
670.06	20652.25
670.41	20650.22
670.76	20731.12
671.109	20808.86
671.459	20799.37
671.808	20681.86
672.157	20734.96
672.507	20637.34
672.856	20593.27
673.205	20704
673.554	20752.82
673.904	20732.7
674.253	20721.86
674.602	20755.53
674.951	20352.15
675.3	20334.52
675.649	20623.78
675.998	20709.43
676.346	20618.58
676.695	20594.63
677.044	20539.04
677.393	20653.61
677.741	20740.61
678.09	20543.1
678.438	20609.09
678.787	20600.5
679.135	20550.56
679.484	20503.56
679.832	20543.1
680.181	20450.45
680.529	20576.78
680.877	20478.02
681.225	20519.15
681.573	20577.45
681.922	20412.94
682.27	20461.07
682.618	20522.54
682.966	20271.25
683.314	20321.64
683.661	20365.48
684.009	20259.27
684.357	20273.28
684.705	20301.98
685.053	20263.34
685.4	20268.99
685.748	20276.67
686.095	20239.38
686.443	20148.31
686.79	20119.61
687.138	20093.4
687.485	20109.44
687.832	19974.98
688.18	20114.41
688.527	19978.82
688.874	19990.12
689.221	19957.81
689.568	19968.43
689.915	19857.92
690.262	19797.36
690.609	19876.91
690.956	19861.99
691.303	19818.6
691.65	19661.32
691.997	19756.91
692.344	19575.45
692.69	19575.22
693.037	19625.61
693.383	19412.96
693.73	19403.92
694.077	19304.04
694.423	19341.33
694.769	19347.43
695.116	19229.01
695.462	19248.45
695.808	19239.18
696.155	19311.72
696.501	19157.38
696.847	19099.07
697.193	18998.06
697.539	19034.89
697.885	19017.04
698.231	18908.34
698.577	18944.73
698.923	18852.53
699.269	18829.93
699.614	18704.96
699.96	18679.42
700.306	18652.53
700.651	18670.16
700.997	18516.94
701.342	18551.52
701.688	18589.71
702.033	18554
702.379	18465.19
702.724	18448.02
703.069	18390.84
703.415	18230.4
703.76	18359.88
704.105	18250.73
704.45	18328.7
704.795	18145.2
705.14	18087.8
705.485	18006.22
705.83	18057.29
706.175	18045.54
706.52	18058.88
706.865	17996.73
707.209	17953.34
707.554	17919.67
707.899	18020.23
708.243	17855.49
708.588	17859.78
708.932	17716.96
709.277	17695.95
709.621	17705.44
709.966	17616.4
710.31	17665.44
710.654	17480.81
710.998	17626.12
711.342	17532.34
711.687	17428.38
712.031	17494.6
712.375	17455.95
712.719	17510.87
713.063	17373.02
713.407	17474.71
713.75	17338.67
714.094	17415.05
714.438	17242.17
714.782	17295.05
715.125	17208.73
715.469	17352.91
715.812	17236.52
716.156	17158.79
716.499	17176.64
716.843	17175.28
717.186	17049.41
717.53	17082.4
717.873	17093.7
718.216	16995.4
718.559	16961.73
718.902	16950.88
719.246	16980.49
719.589	16884.67
719.932	16846.7
720.275	16846.48
720.617	16806.93
720.96	16758.34
721.303	16781.62
721.646	16806.93
721.989	16728.06
722.331	16798.57
722.674	16800.83
723.016	16788.85
723.359	16773.71
723.701	16730.32
724.044	16637.44
724.386	16642.19
724.729	16663.66
725.071	16642.19
725.413	16681.06
725.755	16625.01
726.097	16634.73
726.439	16552.93
726.782	16469.31
727.124	16564.45
727.465	16533.72
727.807	16528.75
728.149	16466.15
728.491	16458.69
728.833	16471.8
729.175	16357.23
729.516	16444.91
729.858	16393.16
730.199	16382.76
730.541	16343.44
730.882	16413.72
731.224	16431.35
731.565	16265.48
731.906	16261.86
732.248	16389.99
732.589	16348.41
732.93	16259.6
733.271	16289.66
733.612	16392.25
733.953	16256.66
734.294	16219.6
734.635	16187.96
734.976	16289.66
735.317	16112.94
735.658	16216.89
735.999	16276.32
736.339	16183.67
736.68	16232.03
737.021	16135.54
737.361	16045.37
737.702	16234.06
738.042	16080.4
738.383	16131.02
738.723	16159.94
739.063	16033.39
739.404	16162.43
739.744	16095.31
740.084	16038.82
740.424	16023.67
740.764	16020.06
741.104	16094.63
741.444	16018.48
741.784	16019.61
742.124	15981.19
742.464	16059.38
742.804	15912.94
743.143	15941.42
743.483	15900.97
743.823	15859.39
744.162	15870.68
744.502	15863
744.841	15854.19
745.181	15960.17
745.52	15877.69
745.86	15879.72
746.199	15855.54
746.538	15854.19
746.877	15857.13
747.216	15947.74
747.556	15837.46
747.895	15833.85
748.234	15758.6
748.573	15763.57
748.911	15701.65
749.25	15841.98
749.589	15742.55
749.928	15759.5
750.267	15773.74
750.605	15721.76
750.944	15643.35
751.283	15576.91
751.621	15689.45
751.96	15657.58
752.298	15690.35
752.636	15623.69
752.975	15623.01
753.313	15480.64
753.651	15571.94
753.989	15579.84
754.327	15479.06
754.666	15490.36
755.004	15537.36
755.342	15514.08
755.679	15554.76
756.017	15467.53
756.355	15566.96
756.693	15431.37
757.031	15405.61
757.368	15316.8
757.706	15288.33
758.044	15265.28
758.381	15302.79
758.719	15276.8
759.056	15277.71
759.394	15210.81
759.731	15208.33
760.068	15192.74
760.405	15113.19
760.743	14996.81
761.08	15145.73
761.417	15026.41
761.754	14988
762.091	14965.4
762.428	14936.25
762.765	14856.47
763.102	14856.93
763.438	14832.52
763.775	14802.46
764.112	14779.87
764.449	14789.81
764.785	14750.26
765.122	14626.88
765.458	14627.33
765.795	14610.38
766.131	14681.11
766.467	14573.09
766.804	14451.51
767.14	14390.95
767.476	14397.05
767.812	14404.73
768.148	14401.12
768.485	14356.83
768.821	14252.87
769.157	14280.67
769.492	14199.09
769.828	14165.42
770.164	14085.65
770.5	14088.36
770.836	14068.7
771.171	13937.63
771.507	13975.59
771.842	13801.59
772.178	13748.71
772.513	13841.36
772.849	13790.29
773.184	13717.07
773.519	13770.17
773.855	13622.83
774.19	13590.52
774.525	13533.8
774.86	13540.8
775.195	13440.47
775.53	13438.66
775.865	13416.74
776.2	13334.48
776.535	13263.3
776.87	13334.93
777.205	13265.1
777.539	13148.95
777.874	13230.08
778.209	13068.72
778.543	13014.71
778.878	13027.37
779.212	12979.23
779.547	12910.54
779.881	12899.69
780.215	12883.87
780.55	12854.94
780.884	12772.01
781.218	12795.96
781.552	12814.27
781.886	12707.15
782.22	12709.64
782.554	12553.03
782.888	12472.36
783.222	12462.86
783.556	12418.12
783.889	12393.04
784.223	12256.99
784.557	12266.26
784.89	12278.69
785.224	12219.48
785.557	12220.16
785.891	12211.35
786.224	12247.28
786.558	12150.33
786.891	12019.49
787.224	12053.38
787.557	12019.71
787.891	11986.72
788.224	11985.59
788.557	11919.6
788.89	11939.71
789.223	11915.99
789.556	11724.58
789.888	11727.29
790.221	11652.94
790.554	11588.54
790.887	11622.66
791.219	11614.53
791.552	11540.4
791.884	11527.52
792.217	11439.39
792.549	11438.03
792.882	11395.1
793.214	11357.13
793.546	11360.97
793.879	11307.64
794.211	11227.64
794.543	11255.89
794.875	11190.81
795.207	11281.88
795.539	11189.9
795.871	11115.56
796.203	11027.65
796.535	10955.33
796.867	11074.43
797.198	10936.8
797.53	11006.86
797.862	10858.61
798.193	10979.51
798.525	10906.52
798.856	10829.91
799.188	10735.45
799.519	10754.89
799.85	10695.68
800.182	10684.61
800.513	10648.9
800.844	10624.27
801.175	10702.91
801.506	10681.67
801.837	10636.02
802.168	10562.8
802.499	10492.07
802.83	10437.83
803.161	10396.48
803.491	10374.78
803.822	10390.38
804.153	10356.93
804.483	10363.71
804.814	10353.32
805.145	10322.81
805.475	10284.84
805.805	10233.09
806.136	10209.82
806.466	10189.25
806.796	10121.23
807.126	10145.86
807.457	10098.63
807.787	10141.57
808.117	10013.44
808.447	10027.22
808.777	10029.93
809.107	9957.39
809.436	10008.01
809.766	9929.15
810.096	9930.95
810.426	9865.19
810.755	9893.89
811.085	9827.68
811.414	9799.88
811.744	9752.43
812.073	9784.74
812.403	9748.36
812.732	9753.33
813.061	9690.73
813.39	9662.71
813.719	9631.75
814.049	9681.02
814.378	9620.91
814.707	9630.85
815.036	9617.06
815.365	9544.3
815.693	9474.24
816.022	9503.62
816.351	9483.28
816.68	9433.34
817.008	9447.12
817.337	9337.97
817.665	9418.65
817.994	9334.59
818.322	9421.59
818.651	9356.51
818.979	9333.23
819.307	9291.2
819.636	9295.26
819.964	9261.37
820.292	9274.47
820.62	9229.96
820.948	9221.59
821.276	9270.18
821.604	9238.99
821.932	9283.06
822.259	9240.8
822.587	9180.24
822.915	9206
823.243	9252.78
823.57	9206.23
823.898	9103.4
824.225	9164.19
824.553	9236.73
824.88	9175.72
825.207	9178.66
825.535	9190.86
825.862	9185.21
826.189	9151.99
826.516	9220.46
826.843	9234.47
827.17	9287.13
827.497	9213.01
827.824	9229.96
828.151	9238.77
828.478	9213.68
828.805	9235.15
829.131	9240.12
829.458	9198.09
829.785	9157.41
830.111	9229.5
830.438	9242.16
830.764	9230.41
831.09	9227.02
831.417	9158.32
831.743	9209.16
832.069	9195.38
832.395	9230.63
832.722	9212.78
833.048	9146.12
833.374	9180.01
833.7	9139.11
834.026	9212.55
834.351	9170.07
834.677	9101.6
835.003	9242.38
835.329	9135.27
835.654	9142.27
835.98	9085.33
836.306	9114.48
836.631	9055.95
836.956	9062.95
837.282	9137.3
837.607	9028.83
837.932	9018.89
838.258	9122.39
838.583	9019.34
838.908	8971.2
839.233	8969.4
839.558	8957.19
839.883	8982.05
840.208	8878.1
840.533	8881.26
840.858	8945.89
841.182	8870.87
841.507	8892.56
841.832	8848.72
842.156	8861.38
842.481	8834.26
842.805	8791.32
843.13	8761.27
843.454	8811.66
843.778	8753.81
844.103	8737.31
844.427	8756.3
844.751	8667.94
845.075	8670.42
845.399	8648.05
845.723	8650.76
846.047	8629.29
846.371	8533.02
846.695	8595.4
847.019	8539.58
847.343	8444.21
847.666	8452.8
847.99	8407.6
848.313	8412.58
848.637	8355.63
848.96	8366.02
849.284	8272.92
849.607	8274.73
849.931	8266.59
850.254	8214.84
850.577	8147.27
850.9	8086.71
851.223	8094.84
851.546	8034.51
851.869	8024.79
852.192	8079.02
852.515	7988.41
852.838	7937.11
853.161	8042.87
853.483	7978.01
853.806	7911.57
854.129	7900.72
854.451	7860.95
854.774	7811.69
855.096	7826.38
855.419	7764
855.741	7803.33
856.063	7735.53
856.385	7723.33
856.708	7669.54
857.03	7626.16
857.352	7658.92
857.674	7639.26
857.996	7581.41
858.318	7573.95
858.64	7560.85
858.961	7508.19
859.283	7510.45
859.605	7482.43
859.926	7465.26
860.248	7432.26
860.57	7380.29
860.891	7440.62
861.212	7451.92
861.534	7376.22
861.855	7341.87
862.176	7352.04
862.498	7349.78
862.819	7325.82
863.14	7378.48
863.461	7318.37
863.782	7284.47
864.103	7298.93
864.424	7280.18
864.745	7275.43
865.065	7172.38
865.386	7206.28
865.707	7211.48
866.027	7236.11
866.348	7168.54
866.668	7168.99
866.989	7169.22
867.309	7115.43
867.63	7204.02
867.95	7060.97
868.27	7058.26
868.59	7137.58
868.91	7116.56
869.23	7082.44
869.55	7091.71
869.87	7099.84
870.19	7087.64
870.51	7060.52
870.83	7065.04
871.15	7072.05
871.469	7006.28
871.789	7038.6
872.109	6990.24
872.428	6980.07
872.748	7022.56
873.067	7020.52
873.386	6943.01
873.706	6987.98
874.025	6912.05
874.344	6947.53
874.663	6896.01
874.982	6927.19
875.301	6915.89
875.62	6889.9
875.939	6839.28
876.258	6866.18
876.577	6871.6
876.896	6857.36
877.214	6861.66
877.533	6845.16
877.852	6840.64
878.17	6832.28
878.489	6880.86
878.807	6784.82
879.125	6760.19
879.444	6804.48
879.762	6793.86
880.08	6734.43
880.398	6709.12
880.716	6683.58
881.034	6711.83
881.352	6705.05
881.67	6707.54
881.988	6708.89
882.306	6651.72
882.624	6576.92
882.941	6650.59
883.259	6602.91
883.577	6599.97
883.894	6595.22
884.212	6585.73
884.529	6573.75
884.846	6526.52
885.164	6584.83
885.481	6505.28
885.798	6512.29
886.115	6504.6
886.432	6491.27
886.75	6510.25
887.067	6478.16
887.383	6397.26
887.7	6455.11
888.017	6396.81
888.334	6452.4
888.651	6337.15
888.967	6325.17
889.284	6374.21
889.6	6359.75
889.917	6340.77
890.233	6320.88
890.55	6287.89
890.866	6300.77
891.182	6267.55
891.498	6253.08
891.815	6211.05
892.131	6225.51
892.447	6209.47
892.763	6146.19
893.079	6158.4
893.395	6188.45
893.71	6129.47
894.026	6059.42
894.342	6126.99
894.657	6062.35
894.973	6059.19
895.289	6084.05
895.604	6056.48
895.92	5983.94
896.235	5980.55
896.55	5990.04
896.865	5942.36
897.181	5979.19
897.496	5937.61
897.811	5896.71
898.126	5917.73
898.441	5790.72
898.756	5857.84
899.071	5784.4
899.386	5807.22
899.7	5771.06
900.015	5779.65
900.33	5723.61
900.644	5726.54
900.959	5695.36
901.273	5682.7
901.588	5657.17
901.902	5621.01
902.216	5618.98
902.531	5580.11
902.845	5584.4
903.159	5550.73
903.473	5570.16
903.787	5529.04
904.101	5494.23
904.415	5474.35
904.729	5434.57
905.042	5464.86
905.356	5421.02
905.67	5383.05
905.984	5471.18
906.297	5371.98
906.611	5388.93
906.924	5347.12
907.237	5318.87
907.551	5287.46
907.864	5262.6
908.177	5306.89
908.491	5210.63
908.804	5244.52
909.117	5176.95
909.43	5193.45
909.743	5171.08
910.056	5175.6
910.368	5123.62
910.681	5061.48
910.994	5084.3
911.307	5034.59
911.619	5070.74
911.932	5033.68
912.244	4972.21
912.557	4983.51
912.869	4939.22
913.181	4954.36
913.494	4950.97
913.806	4916.4
914.118	4857.64
914.43	4904.65
914.742	4844.76
915.054	4853.57
915.366	4815.38
915.678	4805.89
915.99	4783.07
916.302	4768.38
916.613	4736.51
916.925	4748.04
917.236	4702.16
917.548	4648.38
917.859	4670.75
918.171	4719.57
918.482	4667.82
918.794	4638.66
919.105	4594.37
919.416	4583.52
919.727	4582.62
920.038	4561.6
920.349	4533.81
920.66	4497.42
920.971	4460.14
921.282	4456.75
921.593	4473.47
921.903	4435.73
922.214	4413.81
922.525	4410.87
922.835	4370.2
923.146	4338.11
923.456	4402.06
923.767	4319.8
924.077	4308.95
924.387	4302.4
924.697	4321.84
925.008	4295.4
925.318	4246.81
925.628	4277.99
925.938	4249.07
926.248	4182.86
926.558	4143.76
926.867	4164.78
927.177	4141.05
927.487	4129.07
927.796	4106.02
928.106	4082.52
928.416	4069.19
928.725	4047.04
929.034	4079.13
929.344	4068.96
929.653	4074.16
929.962	4004.33
930.271	3993.93
930.581	3934.73
930.89	3972.24
931.199	3922.98
931.508	3936.99
931.817	3909.19
932.125	3911.9
932.434	3901.96
932.743	3858.34
933.051	3881.4
933.36	3852.7
933.669	3802.75
933.977	3820.83
934.286	3781.96
934.594	3745.58
934.902	3716.43
935.21	3696.09
935.519	3710.1
935.827	3706.03
936.135	3690.21
936.443	3647.95
936.751	3642.76
937.059	3685.02
937.367	3654.06
937.674	3635.3
937.982	3630.33
938.29	3596.43
938.597	3595.75
938.905	3535.19
939.213	3529.77
939.52	3533.38
939.827	3545.13
940.135	3516.43
940.442	3472.14
940.749	3485.25
941.056	3527.05
941.363	3476.89
941.67	3440.5
941.977	3431.46
942.284	3406.38
942.591	3385.36
942.898	3355.08
943.205	3360.73
943.511	3379.49
943.818	3311.01
944.125	3317.34
944.431	3322.31
944.738	3332.03
945.044	3263.56
945.35	3292.94
945.657	3236.89
945.963	3220.62
946.269	3260.62
946.575	3185.59
946.881	3208.42
947.187	3235.54
947.493	3204.35
947.799	3190.79
948.105	3183.11
948.41	3186.95
948.716	3142.43
949.022	3155.31
949.327	3103.34
949.633	3079.83
949.938	3094.3
950.244	3054.98
950.549	3029.89
950.854	3032.38
951.16	3028.08
951.465	3008.65
951.77	3023.34
952.075	2993.96
952.38	2980.18
952.685	2960.06
952.99	2944.47
953.294	2947.18
953.599	2914.87
953.904	2897.01
954.209	2930.91
954.513	2914.87
954.818	2874.64
955.122	2898.82
955.426	2860.18
955.731	2847.3
956.035	2816.34
956.339	2836
956.643	2815.89
956.948	2832.61
957.252	2822.89
957.556	2759.84
957.86	2760.97
958.163	2755.32
958.467	2739.05
958.771	2764.14
959.075	2738.6
959.378	2695.21
959.682	2711.71
959.985	2713.74
960.289	2694.76
960.592	2661.31
960.896	2636.46
961.199	2665.83
961.502	2639.39
961.805	2614.76
962.108	2622.9
962.411	2605.04
962.714	2570.7
963.017	2580.64
963.32	2598.72
963.623	2585.38
963.926	2544.71
964.228	2518.95
964.531	2533.63
964.833	2569.79
965.136	2528.89
965.438	2486.86
965.741	2518.95
966.043	2490.47
966.345	2496.35
966.648	2468.78
966.95	2443.01
967.252	2433.3
967.554	2448.89
967.856	2410.47
968.158	2411.6
968.46	2413.64
968.761	2386.97
969.063	2397.37
969.365	2390.36
969.666	2384.03
969.968	2343.13
970.269	2332.51
970.571	2337.93
970.872	2314.88
971.174	2326.63
971.475	2319.4
971.776	2287.99
972.077	2240.76
972.378	2270.59
972.679	2296.13
972.98	2283.47
973.281	2255.9
973.582	2234.21
973.883	2238.5
974.183	2205.73
974.484	2197.15
974.785	2175.9
975.085	2190.37
975.386	2203.93
975.686	2131.38
975.986	2160.76
976.287	2150.82
976.587	2157.82
976.887	2141.55
977.187	2125.74
977.487	2124.15
977.787	2128.45
978.087	2117.6
978.387	2102.91
978.687	2072.86
978.987	2074.66
979.286	2087.77
979.586	2080.76
979.885	2041.44
980.185	2033.99
980.484	2039.18
980.784	2043.93
981.083	2017.26
981.382	1998.96
981.682	1998.28
981.981	1998.73
982.28	1986.3
982.579	1984.95
982.878	1957.83
983.177	1988.11
983.475	1966.87
983.774	1959.64
984.073	1938.4
984.372	1932.29
984.67	1928.23
984.969	1914.22
985.267	1913.31
985.566	1919.19
985.864	1927.55
986.162	1890.49
986.461	1874.22
986.759	1902.01
987.057	1879.87
987.355	1852.97
987.653	1855.91
987.951	1817.04
988.249	1851.39
988.547	1830.6
988.844	1802.13
989.142	1829.02
989.44	1813.2
989.737	1779.08
990.035	1790.83
990.332	1771.39
990.63	1780.43
990.927	1762.58
991.224	1778.85
991.521	1778.85
991.819	1723.03
992.116	1725.29
992.413	1740.43
992.71	1703.37
993.006	1718.74
993.303	1714.22
993.6	1702.92
993.897	1676.48
994.193	1676.03
994.49	1673.32
994.787	1650.95
995.083	1649.36
995.379	1653.43
995.676	1660.89
995.972	1638.74
996.268	1632.19
996.565	1600.78
996.861	1642.81
997.157	1624.05
997.453	1583.15
997.749	1600.33
998.044	1605.75
998.34	1608.01
998.636	1553.77
998.932	1541.34
999.227	1565.07
999.523	1550.61
999.818	1550.38
1000.114	1519.65
1000.409	1504.51
1000.704	1501.34
1001	1498.63
1001.295	1485.98
1001.59	1503.38
1001.885	1500.67
1002.18	1487.56
1002.475	1504.51
1002.77	1474.9
1003.065	1464.51
1003.359	1459.99
1003.654	1452.76
1003.949	1452.31
1004.243	1458.18
1004.538	1417.73
1004.832	1416.6
1005.127	1406.21
1005.421	1409.6
1005.715	1376.83
1006.009	1432.87
1006.304	1380.9
1006.598	1379.77
1006.892	1369.14
1007.186	1391.97
1007.48	1353.55
1007.773	1371.4
1008.067	1344.51
1008.361	1327.79
1008.655	1349.94
1008.948	1322.37
1009.242	1300.9
1009.535	1285.98
1009.829	1300.22
1010.122	1310.39
1010.415	1301.35
1010.708	1278.3
1011.001	1278.98
1011.295	1246.66
1011.588	1248.92
1011.881	1277.85
1012.173	1244.4
1012.466	1252.54
1012.759	1227.45
1013.052	1241.92
1013.344	1232.65
1013.637	1239.2
1013.93	1232.65
1014.222	1191.52
1014.514	1187.91
1014.807	1188.36
1015.099	1195.36
1015.391	1173.44
1015.683	1168.7
1015.976	1164.18
1016.268	1154.91
1016.56	1137.74
1016.851	1145.42
1017.143	1132.09
1017.435	1116.72
1017.727	1117.85
1018.018	1152.65
1018.31	1114.91
1018.602	1135.93
1018.893	1084.41
1019.185	1088.25
1019.476	1095.93
1019.767	1088.02
1020.058	1090.73
1020.35	1095.48
1020.641	1065.88
1020.932	1033.56
1021.223	1036.95
1021.514	1030.85
1021.804	1005.76
1022.095	1010.51
1022.386	1039.66
1022.677	1017.52
1022.967	1028.14
1023.258	1017.29
1023.548	1017.74
1023.839	1012.77
1024.129	981.36
1024.419	988.36
1024.709	988.59
1025	972.32
1025.29	956.95
1025.58	989.04
1025.87	934.58
1026.16	957.4
1026.449	955.82
1026.739	950.62
1027.029	926.67
1027.319	906.11
1027.608	932.32
1027.898	928.7
1028.187	908.82
1028.477	918.31
1028.766	903.85
1029.055	890.97
1029.344	898.2
1029.634	881.25
1029.923	889.38
1030.212	888.25
1030.501	858.65
1030.79	894.13
1031.078	845.09
1031.367	857.97
1031.656	851.87
1031.945	853.9
1032.233	838.31
1032.522	860.23
1032.81	834.24
1033.099	827.01
1033.387	844.86
1033.675	845.32
1033.963	802.61
1034.251	813
1034.54	817.29
1034.828	815.94
1035.116	774.36
1035.403	789.5
1035.691	788.14
1035.979	808.26
1036.267	786.34
1036.554	777.97
1036.842	776.17
1037.129	763.74
1037.417	752.89
1037.704	745.21
1037.992	763.74
1038.279	731.2
1038.566	776.84
1038.853	776.84
1039.14	776.84
