Data from cardboard_FLMS001491_042.txt Node
Date: Tue Feb 07 11:39:30 GMT 2017
User: dcchb
Spectrometer: FLMS00149
Trigger mode: 0
Integration Time (sec): 2.000000E-2
Scans to average: 10
Electric dark correction enabled: true
Nonlinearity correction enabled: false
Boxcar width: 0
XAxis mode: Wavelengths
Number of Pixels in Spectrum: 2048
>>>>>Begin Spectral Data<<<<<
341.393	-24.08
341.776	-24.08
342.16	-24.08
342.543	-76.74
342.927	-71.31
343.31	-74.48
343.693	-64.53
344.077	-65.44
344.46	-73.35
344.843	-60.46
345.226	-48.04
345.61	-27.25
345.993	-12.56
346.376	15.01
346.759	13.21
347.142	29.25
347.525	32.41
347.908	66.76
348.291	76.26
348.674	93.66
349.057	99.53
349.44	139.98
349.823	132.3
350.206	168.23
350.588	177.5
350.971	206.2
351.354	197.83
351.737	232.41
352.119	236.7
352.502	251.62
352.884	259.98
353.267	252.52
353.65	278.06
354.032	289.13
354.414	302.24
354.797	299.3
355.179	316.93
355.562	335.91
355.944	307.89
356.326	326.42
356.709	311.28
357.091	302.92
357.473	320.09
357.855	354.67
358.238	338.17
358.62	313.99
359.002	323.03
359.384	327.77
359.766	320.99
360.148	330.49
360.53	339.98
360.912	324.38
361.294	310.37
361.676	316.7
362.057	335.01
362.439	317.38
362.821	313.99
363.203	325.74
363.584	311.96
363.966	291.16
364.348	297.72
364.729	309.02
365.111	292.07
365.493	296.81
365.874	307.66
366.256	293.65
366.637	315.8
367.019	287.55
367.4	292.29
367.781	323.03
368.163	297.94
368.544	282.13
368.925	277.83
369.306	290.26
369.688	299.3
370.069	298.85
370.45	313.76
370.831	307.89
371.212	290.94
371.593	300.66
371.974	298.62
372.355	299.75
372.736	304.95
373.117	297.49
373.498	288.23
373.879	305.4
374.26	294.55
374.641	313.76
375.021	293.2
375.402	306.08
375.783	298.62
376.163	301.33
376.544	298.62
376.925	320.99
377.305	309.92
377.686	306.76
378.066	314.89
378.447	329.13
378.827	317.15
379.208	319.41
379.588	316.47
379.968	304.5
380.349	302.46
380.729	315.57
381.109	313.76
381.489	306.53
381.87	331.39
382.25	290.49
382.63	338.17
383.01	315.12
383.39	312.18
383.77	321.45
384.15	321.45
384.53	312.63
384.91	340.43
385.29	331.84
385.67	313.54
386.049	346.98
386.429	327.32
386.809	325.06
387.189	326.64
387.568	327.55
387.948	331.62
388.328	342.91
388.707	330.94
389.087	360.99
389.466	349.02
389.846	341.56
390.225	346.53
390.605	347.66
390.984	338.85
391.363	332.07
391.743	372.29
392.122	371.39
392.501	359.19
392.881	351.5
393.26	367.77
393.639	334.33
394.018	350.6
394.397	371.16
394.776	352.86
395.155	373.87
395.534	365.51
395.913	367.55
396.292	365.29
396.671	346.53
397.05	342.24
397.429	357.83
397.808	354.89
398.186	361.67
398.565	368.68
398.944	367.77
399.323	352.41
399.701	365.96
400.08	349.47
400.458	362.35
400.837	384.95
401.215	356.02
401.594	381.78
401.972	367.32
402.351	369.58
402.729	366.64
403.107	373.2
403.486	393.76
403.864	395.57
404.242	371.61
404.62	355.57
404.999	400.77
405.377	393.99
405.755	398.73
406.133	390.15
406.511	386.3
406.889	387.21
407.267	392.86
407.645	387.89
408.023	394.44
408.401	383.82
408.779	396.25
409.156	391.73
409.534	416.36
409.912	417.49
410.29	398.05
410.667	438.73
411.045	411.39
411.422	422.01
411.8	418.62
412.178	404.38
412.555	407.77
412.933	442.57
413.31	437.6
413.687	417.72
414.065	451.16
414.442	443.03
414.819	461.78
415.197	437.15
415.574	446.41
415.951	443.48
416.328	455
416.705	463.14
417.082	445.28
417.46	471.27
417.837	458.17
418.214	470.82
418.591	459.07
418.967	461.56
419.344	463.36
419.721	467.66
420.098	471.95
420.475	468.34
420.852	466.98
421.228	456.81
421.605	490.48
421.982	497.49
422.358	464.04
422.735	499.75
423.111	480.09
423.488	509.69
423.864	487.32
424.241	496.36
424.617	513.98
424.994	484.83
425.37	498.39
425.746	507.88
426.123	527.32
426.499	512.63
426.875	496.58
427.251	523.93
427.627	520.31
428.003	515.11
428.379	520.54
428.756	519.63
429.132	535.68
429.507	544.72
429.883	541.78
430.259	548.33
430.635	541.78
431.011	559.18
431.387	564.15
431.763	570.25
432.138	575.9
432.514	573.42
432.89	565.96
433.265	570.48
433.641	569.58
434.016	589.01
434.392	595.56
434.767	590.37
435.143	618.16
435.518	613.42
435.894	621.78
436.269	618.61
436.644	615.68
437.02	631.04
437.395	603.47
437.77	629.23
438.145	607.77
438.52	636.69
438.895	625.62
439.271	635.11
439.646	672.85
440.021	647.99
440.395	653.42
440.77	619.74
441.145	650.93
441.52	679.18
441.895	663.58
442.27	688.67
442.645	693.41
443.019	683.24
443.394	690.7
443.769	655.45
444.143	670.82
444.518	698.61
444.892	711.72
445.267	702.91
445.641	716.92
446.016	685.5
446.39	712.4
446.764	713.75
447.139	701.32
447.513	700.65
447.887	736.12
448.262	723.7
448.636	701.55
449.01	746.29
449.384	755.33
449.758	739.29
450.132	741.55
450.506	755.33
450.88	745.84
451.254	751.72
451.628	778.84
452.002	770.02
452.376	766.18
452.75	766.63
453.123	789.68
453.497	814.77
453.871	790.13
454.244	805.73
454.618	828.78
454.992	837.82
455.365	811.15
455.739	818.38
456.112	831.72
456.486	865.16
456.859	837.36
457.232	850.25
457.606	828.78
457.979	867.87
458.352	853.41
458.725	905.16
459.099	901.32
459.472	894.09
459.845	917.81
460.218	922.11
460.591	927.76
460.964	903.8
461.337	965.5
461.71	963.24
462.083	996.91
462.456	984.03
462.829	996
463.201	981.32
463.574	987.87
463.947	994.65
464.32	1020.19
464.692	1028.32
465.065	1023.57
465.438	1058.83
465.81	1062.22
466.183	1037.36
466.555	1041.65
466.928	1068.32
467.3	1096.34
467.672	1081.88
468.045	1085.04
468.417	1110.8
468.789	1123.23
469.161	1146.51
469.534	1176.79
469.906	1173.4
470.278	1193.97
470.65	1195.32
471.022	1216.34
471.394	1238.94
471.766	1218.15
472.138	1240.07
472.51	1280.29
472.882	1285.04
473.253	1310.12
473.625	1338.82
473.997	1348.54
474.369	1341.98
474.74	1352.15
475.112	1376.33
475.484	1389.44
475.855	1416.78
476.227	1416.78
476.598	1438.03
476.97	1497.01
477.341	1520.28
477.713	1531.58
478.084	1535.65
478.455	1582.66
478.827	1591.7
479.198	1625.14
479.569	1611.36
479.94	1667.85
480.311	1670.11
480.682	1697.68
481.053	1756.21
481.424	1754.4
481.795	1801.18
482.166	1812.93
482.537	1793.95
482.908	1860.39
483.279	1895.19
483.65	1892.7
484.021	1967.73
484.391	1979.26
484.762	2027.16
485.133	1980.16
485.503	2036.88
485.874	2057.67
486.244	2095.86
486.615	2129.53
486.985	2135.41
487.356	2211.34
487.726	2170.89
488.097	2281.17
488.467	2266.25
488.837	2281.39
489.207	2325.46
489.578	2340.83
489.948	2386.7
490.318	2395.97
490.688	2452.01
491.058	2476.64
491.428	2505.12
491.798	2517.55
492.168	2577.21
492.538	2578.79
492.908	2593.03
493.278	2654.94
493.648	2652.23
494.017	2696.98
494.387	2713.93
494.757	2757.31
495.126	2788.05
495.496	2802.74
495.866	2813.13
496.235	2853.81
496.605	2869.63
496.974	2848.39
497.344	2938.1
497.713	2934.03
498.082	2939
498.452	3037.08
498.821	3033.92
499.19	3023.97
499.559	3114.14
499.928	3121.15
500.298	3127.25
500.667	3168.6
501.036	3182.61
501.405	3214.25
501.774	3185.55
502.143	3263.97
502.512	3256.06
502.88	3289.96
503.249	3304.87
503.618	3343.29
503.987	3398.88
504.356	3411.53
504.724	3429.84
505.093	3427.58
505.462	3470.74
505.83	3515.49
506.199	3530.85
506.567	3591.64
506.936	3591.64
507.304	3644.97
507.672	3632.09
508.041	3665.31
508.409	3723.84
508.777	3760.9
509.145	3755.25
509.514	3783.5
509.882	3792.09
510.25	3837.51
510.618	3875.7
510.986	3884.52
511.354	3929.49
511.722	3999.32
512.09	4064.4
512.458	4082.03
512.826	4111.18
513.193	4100.33
513.561	4106.88
513.929	4205.64
514.297	4160.89
514.664	4211.97
515.032	4288.8
515.4	4350.27
515.767	4356.59
516.135	4399.31
516.502	4345.3
516.869	4490.15
517.237	4451.73
517.604	4486.53
517.972	4568.34
518.339	4634.33
518.706	4591.39
519.073	4629.58
519.44	4656.25
519.808	4748.9
520.175	4731.95
520.542	4870.93
520.909	4905.28
521.276	4891.72
521.643	4982.79
522.009	4960.65
522.376	5056.46
522.743	5092.39
523.11	5082.68
523.477	5186.63
523.843	5186.63
524.21	5259.62
524.577	5356.12
524.943	5370.35
525.31	5399.05
525.676	5471.59
526.043	5479.5
526.409	5546.85
526.776	5606.96
527.142	5598.6
527.508	5647.86
527.874	5723.34
528.241	5779.83
528.607	5820.74
528.973	5857.8
529.339	5913.62
529.705	5964.69
530.071	5957
530.437	6046.04
530.803	6065.93
531.169	6117.68
531.535	6199.48
531.901	6180.73
532.267	6276.54
532.632	6224.34
532.998	6286.49
533.364	6366.49
533.73	6363.77
534.095	6498.46
534.461	6446.26
534.826	6570.77
535.192	6580.72
535.557	6624.56
535.923	6652.58
536.288	6674.05
536.653	6747.94
537.019	6742.97
537.384	6734.61
537.749	6844.21
538.114	6894.83
538.479	6895.96
538.845	6955.62
539.21	6963.53
539.575	7006.02
539.94	7032
540.305	7096.41
540.67	7079.46
541.034	7142.28
541.399	7163.53
541.764	7264.09
542.129	7271.55
542.494	7257.31
542.858	7340.24
543.223	7388.61
543.587	7412.79
543.952	7413.92
544.316	7472.44
544.681	7472.67
545.045	7524.65
545.41	7609.16
545.774	7620.01
546.138	7611.88
546.503	7703.63
546.867	7713.34
547.231	7816.62
547.595	7803.74
547.959	7850.51
548.324	7893
548.688	7896.84
549.052	7961.7
549.416	8041.92
549.779	7992.66
550.143	8025.42
550.507	8092.54
550.871	8161.24
551.235	8141.58
551.599	8259.99
551.962	8258.19
552.326	8312.65
552.689	8400.33
553.053	8375.7
553.417	8425.64
553.78	8558.29
554.143	8534.34
554.507	8577.73
554.87	8609.59
555.234	8693.43
555.597	8641.68
555.96	8718.51
556.323	8779.3
556.686	8798.29
557.05	8846.19
557.413	8892.07
557.776	8938.39
558.139	9036.92
558.502	9114.66
558.865	9144.94
559.228	9240.76
559.59	9199.86
559.953	9255.45
560.316	9380.19
560.679	9338.61
561.041	9411.15
561.404	9483.01
561.767	9544.71
562.129	9581.54
562.492	9672.61
562.854	9667.64
563.217	9659.28
563.579	9772.95
563.941	9845.49
564.304	9916
564.666	9959.16
565.028	10047.29
565.39	10044.13
565.753	10134.3
566.115	10161.41
566.477	10216.78
566.839	10225.59
567.201	10336.32
567.563	10387.17
567.925	10449.09
568.287	10525.92
568.648	10510.78
569.01	10565.7
569.372	10646.15
569.734	10648.18
570.095	10757.56
570.457	10733.38
570.819	10874.16
571.18	10866.03
571.542	10942.41
571.903	10857.67
572.265	11042.75
572.626	11013.37
572.987	11048.85
573.349	11111.67
573.71	11171.78
574.071	11183.08
574.432	11260.59
574.794	11320.71
575.155	11383.98
575.516	11332.46
575.877	11432.11
576.238	11446.58
576.599	11527.93
576.96	11485.67
577.32	11590.08
577.681	11664.2
578.042	11621.04
578.403	11690.86
578.763	11702.16
579.124	11754.59
579.485	11742.16
579.845	11882.27
580.206	11882.05
580.566	11864.42
580.927	11994.13
581.287	11964.08
581.648	11964.98
582.008	11981.48
582.368	11986.22
582.728	12078.88
583.089	12115.94
583.449	12069.61
583.809	12151.19
584.169	12097.41
584.529	12159.33
584.889	12273.22
585.249	12233.45
585.609	12240.23
585.969	12215.37
586.329	12245.43
586.688	12281.13
587.048	12375.82
587.408	12359.55
587.768	12338.76
588.127	12345.31
588.487	12316.61
588.846	12507.34
589.206	12381.24
589.565	12433.67
589.925	12463.27
590.284	12464.63
590.643	12557.73
591.003	12520.9
591.362	12504.63
591.721	12593.44
592.08	12568.13
592.44	12633.89
592.799	12646.77
593.158	12663.04
593.517	12746.2
593.876	12726.32
594.235	12657.39
594.593	12694.45
594.952	12703.27
595.311	12688.13
595.67	12708.92
596.029	12792.98
596.387	12842.47
596.746	12856.48
597.104	12846.77
597.463	12791.4
597.822	12927.67
598.18	12849.48
598.538	12891.51
598.897	12938.97
599.255	12846.77
599.613	13040.89
599.972	12957.05
600.33	13024.16
600.688	13013.77
601.046	13003.37
601.404	13061.45
601.762	13061.22
602.12	13172.18
602.478	13172.18
602.836	13252.86
603.194	13124.05
603.552	13141.67
603.91	13154.1
604.268	13269.35
604.625	13200.66
604.983	13266.42
605.341	13205.4
605.698	13295.57
606.056	13372.18
606.413	13346.19
606.771	13454.43
607.128	13431.84
607.485	13351.16
607.843	13417.83
608.2	13441.55
608.557	13439.97
608.914	13451.5
609.272	13554.09
609.629	13599.06
609.986	13631.38
610.343	13557.03
610.7	13704.37
611.057	13598.39
611.414	13696.91
611.771	13751.15
612.127	13733.07
612.484	13679.29
612.841	13800.87
613.198	13792.28
613.554	13751.38
613.911	13849.9
614.267	13871.82
614.624	13843.8
614.98	13941.65
615.337	13990.92
615.693	13984.14
616.05	13951.37
616.406	14124.02
616.762	14010.58
617.118	14052.84
617.475	14056.45
617.831	14121.54
618.187	14215.32
618.543	14165.83
618.899	14261.19
619.255	14242.44
619.611	14261.42
619.967	14347.52
620.323	14274.3
620.678	14335.32
621.034	14304.13
621.39	14291.25
621.746	14283.11
622.101	14437.91
622.457	14265.94
622.812	14457.8
623.168	14456.67
623.523	14488.31
623.879	14545.71
624.234	14300.29
624.589	14481.07
624.945	14430.91
625.3	14533.95
625.655	14495.54
626.01	14462.54
626.365	14588.87
626.72	14560.85
627.075	14591.13
627.43	14590.45
627.785	14480.85
628.14	14485.59
628.495	14579.15
628.85	14507.97
629.205	14510.9
629.559	14652.82
629.914	14582.09
630.269	14557.68
630.623	14502.77
630.978	14525.37
631.332	14601.52
631.687	14650.56
632.041	14597.46
632.396	14633.16
632.75	14529.21
633.104	14596.1
633.459	14561.75
633.813	14565.37
634.167	14586.83
634.521	14496.89
634.875	14499.6
635.229	14589.55
635.583	14541.41
635.937	14522.65
636.291	14576.21
636.645	14531.02
636.999	14498.93
637.352	14506.16
637.706	14492.15
638.06	14507.74
638.413	14437.46
638.767	14522.65
639.121	14521.07
639.474	14433.39
639.828	14375.77
640.181	14455.99
640.534	14482.43
640.888	14456.44
641.241	14305.94
641.594	14408.99
641.947	14401.53
642.301	14374.41
642.654	14361.76
643.007	14391.36
643.36	14421.41
643.713	14431.13
644.066	14416.89
644.419	14321.3
644.771	14293.06
645.124	14203.79
645.477	14184.81
645.83	14066.17
646.182	13925.38
646.535	14011.93
646.888	13981.2
647.24	13845.38
647.593	14018.94
647.945	13940.75
648.298	13888.1
648.65	13921.99
649.002	13883.35
649.355	13999.73
649.707	13870.02
650.059	13981.2
650.411	14190.46
650.763	14086.06
651.115	14335.32
651.467	14309.78
651.819	14268.2
652.171	14276.79
652.523	14284.47
652.875	14288.08
653.227	14167.18
653.578	14362.43
653.93	14253.06
654.282	14176.45
654.633	14170.35
654.985	14262.55
655.337	14221.65
655.688	14171.93
656.039	14347.29
656.391	14117.24
656.742	14260.29
657.094	14197.92
657.445	14224.58
657.796	14268.65
658.147	14285.15
658.498	14250.8
658.849	14211.25
659.2	14244.92
659.551	14233.62
659.902	14259.61
660.253	14187.07
660.604	14242.21
660.955	14271.81
661.306	14270.46
661.656	14159.73
662.007	14280.85
662.358	14240.4
662.708	14248.99
663.059	14229.1
663.409	14209.44
663.76	14302.55
664.11	14235.43
664.461	14295.32
664.811	14322.43
665.161	14326.05
665.511	14303
665.862	14231.36
666.212	14299.61
666.562	14288.31
666.912	14303.68
667.262	14234.07
667.612	14317.24
667.962	14325.37
668.312	14281.98
668.662	14333.96
669.011	14313.85
669.361	14305.71
669.711	14293.73
670.06	14231.14
670.41	14352.72
670.76	14291.7
671.109	14321.08
671.459	14312.94
671.808	14277.92
672.157	14279.27
672.507	14306.84
672.856	14204.02
673.205	14290.12
673.554	14316.11
673.904	14261.42
674.253	14350.91
674.602	14271.14
674.951	14111.59
675.3	14030.24
675.649	14257.13
675.998	14275.66
676.346	14261.64
676.695	14253.74
677.044	14200.4
677.393	14191.14
677.741	14348.87
678.09	14251.7
678.438	14130.35
678.787	14295.99
679.135	14173.51
679.484	14192.27
679.832	14208.99
680.181	14134.42
680.529	14149.78
680.877	14120.63
681.225	14067.98
681.573	14268.42
681.922	14092.38
682.27	14087.86
682.618	14095.1
682.966	14124.47
683.314	14141.87
683.661	14015.78
684.009	14031.14
684.357	13976.68
684.705	13970.35
685.053	14015.32
685.4	13972.61
685.748	13968.09
686.095	13936.91
686.443	13914.99
686.79	13859.85
687.138	13941.65
687.485	13928.32
687.832	13860.07
688.18	13786.18
688.527	13860.98
688.874	13901.88
689.221	13770.58
689.568	13688.33
689.915	13770.81
690.262	13667.08
690.609	13708.89
690.956	13599.74
691.303	13654.43
691.65	13549.57
691.997	13595.22
692.344	13480.42
692.69	13566.52
693.037	13516.35
693.383	13390.26
693.73	13481.33
694.077	13408.56
694.423	13371.5
694.769	13427.54
695.116	13300.99
695.462	13373.76
695.808	13341.44
696.155	13310.71
696.501	13311.39
696.847	13249.02
697.193	13149.36
697.539	13157.49
697.885	13141.22
698.231	13046.99
698.577	13124.27
698.923	13066.2
699.269	13021.68
699.614	13044.05
699.96	13050.83
700.306	12901
700.651	12999.98
700.997	12902.36
701.342	12797.95
701.688	12890.61
702.033	12725.64
702.379	12816.26
702.724	12690.61
703.069	12842.02
703.415	12635.7
703.76	12693.1
704.105	12643.16
704.45	12656.94
704.795	12630.5
705.14	12510.5
705.485	12579.66
705.83	12489.26
706.175	12520
706.52	12504.85
706.865	12440.68
707.209	12482.48
707.554	12365.65
707.899	12441.13
708.243	12283.62
708.588	12304.41
708.932	12223.73
709.277	12268.02
709.621	12331.75
709.966	12120.91
710.31	12243.84
710.654	12119.1
710.998	12126.33
711.342	12181.47
711.687	12110.74
712.031	12102.15
712.375	12077.97
712.719	12132.21
713.063	12086.33
713.407	12088.37
713.75	11939.9
714.094	12042.72
714.438	11927.47
714.782	11934.47
715.125	11877.53
715.469	11987.81
715.812	11907.36
716.156	11901.25
716.499	11830.52
716.843	11800.01
717.186	11879.56
717.53	11913.46
717.873	11887.24
718.216	11793.69
718.559	11830.07
718.902	11709.85
719.246	11798.66
719.589	11771.99
719.932	11774.93
720.275	11688.83
720.617	11649.74
720.96	11641.15
721.303	11712.79
721.646	11666.68
721.989	11596.4
722.331	11652.45
722.674	11611.09
723.016	11648.61
723.359	11654.71
723.701	11674.82
724.044	11614.93
724.386	11505.33
724.729	11623.97
725.071	11541.49
725.413	11569.74
725.755	11546.69
726.097	11542.39
726.439	11511.21
726.782	11503.75
727.124	11546.01
727.465	11450.87
727.807	11503.75
728.149	11485.9
728.491	11395.28
728.833	11402.06
729.175	11389.63
729.516	11373.13
729.858	11402.74
730.199	11440.93
730.541	11367.94
730.882	11371.33
731.224	11368.61
731.565	11281.61
731.906	11347.6
732.248	11340.82
732.589	11297.43
732.93	11273.47
733.271	11341.04
733.612	11289.07
733.953	11313.7
734.294	11227.6
734.635	11298.56
734.976	11249.07
735.317	11180.6
735.658	11205.45
735.999	11180.14
736.339	11239.35
736.68	11247.49
737.021	11205.91
737.361	11183.53
737.702	11249.07
738.042	11175.4
738.383	11218.33
738.723	11219.46
739.063	11165.68
739.404	11167.71
739.744	11162.29
740.084	11090.65
740.424	11205.91
740.764	11146.47
741.104	11119.35
741.444	11138.11
741.784	11071.67
742.124	11067.6
742.464	11143.99
742.804	11076.19
743.143	10979.92
743.483	11101.73
743.823	11037.32
744.162	10978.57
744.502	11072.12
744.841	11085.46
745.181	11005.46
745.52	11030.77
745.86	11044.55
746.199	11038.45
746.538	11029.87
746.877	11020.6
747.216	11035.29
747.556	10948.29
747.895	10993.26
748.234	10981.73
748.573	10964.33
748.911	10867.38
749.25	10998.23
749.589	10895.18
749.928	10950.55
750.267	10941.96
750.605	10885.91
750.944	10831.9
751.283	10861.96
751.621	10894.05
751.96	10816.99
752.298	10917.78
752.636	10879.81
752.975	10802.07
753.313	10720.72
753.651	10856.99
753.989	10802.75
754.327	10822.19
754.666	10710.55
755.004	10774.05
755.342	10722.98
755.679	10731.12
756.017	10661.51
756.355	10685.02
756.693	10671.91
757.031	10719.59
757.368	10636.43
757.706	10673.26
758.044	10594.17
758.381	10676.43
758.719	10582.65
759.056	10550.1
759.394	10504.46
759.731	10512.36
760.068	10513.27
760.405	10450.67
760.743	10469.65
761.08	10446.83
761.417	10389.43
761.754	10435.08
762.091	10406.38
762.428	10374.06
762.765	10294.97
763.102	10348.3
763.438	10285.25
763.775	10264.46
764.112	10266.27
764.449	10239.83
764.785	10109.66
765.122	10132.94
765.458	10072.15
765.795	10148.53
766.131	10072.6
766.467	10052.26
766.804	10052.72
767.14	9959.16
767.476	9967.29
767.812	9944.47
768.148	9940.63
768.485	9854.08
768.821	9828.54
769.157	9924.36
769.492	9779.73
769.828	9782.21
770.164	9771.82
770.5	9671.71
770.836	9725.49
771.171	9690.69
771.507	9637.36
771.842	9570.02
772.178	9555.55
772.513	9576.57
772.849	9553.07
773.184	9520.53
773.519	9508.55
773.855	9533.18
774.19	9472.62
774.525	9423.35
774.86	9386.29
775.195	9438.95
775.53	9363.24
775.865	9295.67
776.2	9260.87
776.535	9264.26
776.87	9175.9
777.205	9184.04
777.539	9148.33
777.874	9158.5
778.209	9080.09
778.543	9099.07
778.878	9023.36
779.212	9048.22
779.547	8987.66
779.881	8969.35
780.215	8933.65
780.55	8911.95
780.884	8850.49
781.218	8848
781.552	8883.26
781.886	8762.81
782.22	8786.53
782.554	8755.12
782.888	8616.6
783.222	8651.62
783.556	8618.4
783.889	8567.78
784.223	8560.1
784.557	8514.45
784.89	8524.62
785.224	8550.38
785.557	8494.11
785.891	8434.91
786.224	8460.67
786.558	8454.57
786.891	8365.53
787.224	8359.65
787.557	8323.95
787.891	8357.39
788.224	8261.8
788.557	8315.81
788.89	8297.28
789.223	8258.64
789.556	8171.86
789.888	8165.76
790.221	8118.3
790.554	8104.74
790.887	8089.38
791.219	8067.46
791.552	8009.83
791.884	7945.43
792.217	7978.65
792.549	7915.82
792.882	7935.48
793.214	7856.16
793.546	7893.68
793.879	7876.95
794.211	7821.36
794.543	7799.67
794.875	7784.98
795.207	7726.22
795.539	7802.38
795.871	7767.35
796.203	7688.26
796.535	7680.57
796.867	7597.64
797.198	7617.75
797.53	7636.51
797.862	7615.27
798.193	7590.63
798.525	7559.67
798.856	7506.12
799.188	7470.64
799.519	7458.89
799.85	7389.96
800.182	7386.8
800.513	7431.09
800.844	7377.76
801.175	7391.54
801.506	7407.14
801.837	7359.23
802.168	7311.09
802.499	7242.85
802.83	7277.87
803.161	7269.29
803.491	7218.67
803.822	7269.06
804.153	7227.93
804.483	7166.24
804.814	7152
805.145	7161.27
805.475	7157.2
805.805	7123.3
806.136	7194.94
806.466	7079.69
806.796	7114.71
807.126	7018.45
807.457	7031.78
807.787	7022.74
808.117	6965.11
808.447	6961.27
808.777	6992.23
809.107	6952.01
809.436	6922.63
809.766	6921.95
810.096	6967.37
810.426	6902.52
810.755	6948.16
811.085	6879.92
811.414	6901.61
811.744	6825.46
812.073	6754.05
812.403	6830.65
812.732	6793.82
813.061	6775.97
813.39	6728.96
813.719	6694.16
814.049	6780.26
814.378	6734.39
814.707	6696.65
815.036	6732.58
815.365	6635.18
815.693	6559.7
816.022	6592.92
816.351	6578.68
816.68	6573.94
817.008	6594.73
817.337	6594.5
817.665	6555.41
817.994	6553.37
818.322	6482.64
818.651	6457.1
818.979	6525.13
819.307	6512.02
819.636	6483.32
819.964	6435.41
820.292	6474.96
820.62	6439.93
820.948	6425.69
821.276	6511.11
821.604	6414.62
821.932	6415.75
822.259	6461.4
822.587	6457.33
822.915	6439.93
823.243	6436.77
823.57	6418.24
823.898	6442.42
824.225	6395.18
824.553	6434.05
824.88	6380.72
825.207	6491.23
825.535	6408.52
825.862	6419.37
826.189	6441.96
826.516	6478.35
826.843	6458.91
827.17	6474.96
827.497	6468.86
827.824	6444
828.151	6439.25
828.478	6414.62
828.805	6466.14
829.131	6421.85
829.458	6464.34
829.785	6385.02
830.111	6387.28
830.438	6482.19
830.764	6425.69
831.09	6460.49
831.417	6404.68
831.743	6468.86
832.069	6433.38
832.395	6382.3
832.722	6449.65
833.048	6417.11
833.374	6440.83
833.7	6399.93
834.026	6373.26
834.351	6424.56
834.677	6385.24
835.003	6425.01
835.329	6390.67
835.654	6357.67
835.98	6369.87
836.306	6391.34
836.631	6335.53
836.956	6405.35
837.282	6353.83
837.607	6326.26
837.932	6339.14
838.258	6335.07
838.583	6286.49
838.908	6267.96
839.233	6301.63
839.558	6253.04
839.883	6253.04
840.208	6244.68
840.533	6245.36
840.858	6217.56
841.182	6240.16
841.507	6173.27
841.832	6199.26
842.156	6233.16
842.481	6244.68
842.805	6151.58
843.13	6139.37
843.454	6124.23
843.778	6140.73
844.103	6137.79
844.427	6141.63
844.751	6136.43
845.075	6117
845.399	6070
845.723	6055.31
846.047	6020.28
846.371	6010.56
846.695	6059.37
847.019	5977.57
847.343	5904.8
847.666	5864.58
847.99	5880.62
848.313	5918.36
848.637	5797.91
848.96	5807.4
849.284	5834.52
849.607	5780.06
849.931	5699.38
850.254	5796.56
850.577	5705.71
850.9	5674.3
851.223	5641.08
851.546	5594.53
851.869	5613.96
852.192	5631.82
852.515	5551.59
852.838	5538.94
853.161	5588.43
853.483	5571.93
853.806	5521.08
854.129	5557.01
854.451	5443.8
854.774	5465.04
855.096	5470.24
855.419	5451.48
855.741	5420.52
856.063	5441.09
856.385	5419.62
856.708	5339.17
857.03	5342.56
857.352	5350.69
857.674	5366.29
857.996	5309.34
858.318	5301.88
858.64	5301.43
858.961	5271.37
859.283	5318.83
859.605	5310.02
859.926	5253.52
860.248	5253.07
860.57	5204.71
860.891	5211.71
861.212	5185.5
861.534	5218.49
861.855	5224.14
862.176	5206.97
862.498	5189.79
862.819	5195.89
863.14	5184.6
863.461	5127.65
863.782	5102.11
864.103	5121.09
864.424	5109.12
864.745	5116.57
865.065	5122.68
865.386	5079.06
865.707	5057.59
866.027	5098.04
866.348	5119.06
866.668	5111.15
866.989	5058.5
867.309	5048.55
867.63	5060.98
867.95	5060.76
868.27	5021.89
868.59	5039.51
868.91	5003.36
869.23	4934.66
869.55	4965.39
869.87	4994.77
870.19	5002.45
870.51	5003.36
870.83	4975.34
871.15	4945.51
871.469	4946.18
871.789	4976.47
872.109	4930.14
872.428	4874.1
872.748	4912.51
873.067	4983.02
873.386	4905.73
873.706	4901.21
874.025	4917.48
874.344	4863.93
874.663	4898.28
874.982	4885.62
875.301	4858.05
875.62	4882.68
875.939	4838.62
876.258	4850.82
876.577	4832.29
876.896	4803.81
877.214	4849.46
877.533	4801.55
877.852	4804.27
878.17	4814.66
878.489	4805.85
878.807	4844.72
879.125	4745.06
879.444	4785.96
879.762	4731.73
880.08	4761.33
880.398	4718.84
880.716	4748.67
881.034	4672.29
881.352	4697.83
881.67	4756.13
881.988	4735.79
882.306	4677.26
882.624	4657.15
882.941	4692.63
883.259	4651.05
883.577	4616.93
883.894	4620.77
884.212	4644.27
884.529	4624.38
884.846	4619.41
885.164	4606.76
885.481	4589.81
885.798	4601.56
886.115	4555.23
886.432	4578.28
886.75	4571.96
887.067	4620.77
887.383	4537.38
887.7	4506.65
888.017	4556.59
888.334	4494.44
888.651	4557.72
888.967	4507.1
889.284	4481.79
889.6	4454.45
889.917	4390.04
890.233	4418.74
890.55	4394.33
890.866	4463.48
891.182	4442.69
891.498	4432.07
891.815	4384.84
892.131	4375.8
892.447	4386.42
892.763	4341.23
893.079	4309.82
893.395	4339.87
893.71	4358.85
894.026	4312.08
894.342	4295.58
894.657	4293.77
894.973	4291.74
895.289	4287.22
895.604	4251.06
895.92	4236.82
896.235	4225.75
896.55	4229.14
896.865	4230.72
897.181	4188.01
897.496	4208.12
897.811	4177.62
898.126	4157.05
898.441	4131.97
898.756	4133.1
899.071	4089.71
899.386	4122.25
899.7	4064.62
900.015	4028.69
900.33	4043.16
900.644	4053.55
900.959	4065.3
901.273	4062.14
901.588	4015.59
901.902	3992.99
902.216	3965.64
902.531	3961.12
902.845	3991.86
903.159	3924.29
903.473	3888.36
903.787	3924.52
904.101	3875.7
904.415	3878.41
904.729	3897.85
905.042	3850.85
905.356	3853.56
905.67	3792.54
905.984	3829.83
906.297	3814.24
906.611	3796.61
906.924	3807.68
907.237	3813.56
907.551	3784.86
907.864	3776.5
908.177	3738.98
908.491	3743.5
908.804	3705.54
909.117	3669.61
909.43	3670.51
909.743	3731.98
910.056	3642.49
910.368	3619.21
910.681	3635.94
910.994	3620.79
911.307	3593.45
911.619	3601.59
911.932	3553.23
912.244	3556.39
912.557	3554.58
912.869	3550.29
913.181	3517.52
913.494	3536.5
913.806	3520.68
914.118	3495.15
914.43	3498.54
914.742	3484.53
915.054	3476.84
915.366	3443.62
915.678	3465.09
915.99	3416.51
916.302	3386.22
916.613	3385.77
916.925	3368.37
917.236	3332.89
917.548	3325.66
917.859	3351.65
918.171	3314.59
918.482	3320.92
918.794	3291.31
919.105	3301.93
919.416	3277.07
919.727	3261.93
920.038	3277.53
920.349	3275.72
920.66	3237.98
920.971	3215.83
921.282	3252.22
921.593	3215.16
921.903	3162.5
922.214	3130.86
922.525	3143.75
922.835	3129.06
923.146	3127.47
923.456	3134.93
923.767	3119.11
924.077	3092.67
924.387	3076.4
924.697	3093.12
925.008	3059.45
925.318	3059.91
925.628	3048.15
925.938	2996.86
926.248	3007.25
926.558	2973.81
926.867	2972
927.177	2966.12
927.487	2981.94
927.796	2965.44
928.106	2939
928.416	2954.15
928.725	2870.76
929.034	2880.93
929.344	2882.06
929.653	2882.06
929.962	2870.98
930.271	2848.39
930.581	2819.23
930.89	2845.9
931.199	2832.57
931.508	2819.01
931.817	2729.52
932.125	2820.82
932.434	2813.13
932.743	2760.25
933.051	2750.31
933.36	2748.95
933.669	2715.28
933.977	2737.88
934.286	2719.35
934.594	2730.87
934.902	2660.59
935.21	2678.45
935.519	2696.07
935.827	2687.03
936.135	2668.5
936.443	2647.94
936.751	2637.09
937.059	2606.13
937.367	2632.57
937.674	2615.17
937.982	2604.1
938.29	2580.37
938.597	2581.27
938.905	2565.23
939.213	2601.39
939.52	2572.91
939.827	2522.74
940.135	2554.83
940.442	2546.47
940.749	2509.86
941.056	2498.56
941.363	2497.21
941.67	2494.27
941.977	2487.27
942.284	2454.05
942.591	2450.66
942.898	2442.75
943.205	2447.49
943.511	2405.01
943.818	2393.93
944.125	2417.89
944.431	2403.2
944.738	2403.2
945.044	2384.22
945.35	2361.39
945.657	2338.34
945.963	2348.96
946.269	2358.91
946.575	2364.1
946.881	2313.48
947.187	2271.68
947.493	2298.8
947.799	2321.39
948.105	2279.59
948.41	2295.18
948.716	2266.48
949.022	2266.25
949.327	2300.6
949.633	2202.53
949.938	2223.32
950.244	2248.85
950.549	2226.71
950.854	2226.03
951.16	2209.98
951.465	2196.2
951.77	2212.47
952.075	2197.1
952.38	2174.96
952.685	2165.24
952.99	2159.59
953.294	2157.1
953.599	2139.25
953.904	2126.37
954.209	2149.19
954.513	2101.29
954.818	2113.49
955.122	2070.33
955.426	2086.82
955.731	2052.02
956.035	2071.23
956.339	2093.15
956.643	2047.73
956.948	2048.86
957.252	2030.33
957.556	2045.92
957.86	2030.1
958.163	2025.36
958.467	1979.03
958.771	2004.57
959.075	1993.94
959.378	1980.61
959.682	1961.4
959.985	1977.9
960.289	1972.93
960.592	1939.48
960.896	1951.23
961.199	1939.26
961.502	1934.96
961.805	1917.79
962.108	1890.9
962.411	1905.36
962.714	1935.64
963.017	1908.07
963.32	1890.67
963.623	1891.57
963.926	1879.15
964.228	1886.83
964.531	1869.88
964.833	1857.9
965.136	1838.02
965.438	1860.39
965.741	1843.67
966.043	1833.72
966.345	1830.56
966.648	1783.55
966.95	1788.3
967.252	1774.06
967.554	1774.74
967.856	1800.73
968.158	1781.52
968.46	1801.41
968.761	1795.08
969.063	1749.21
969.365	1751.01
969.666	1754.85
969.968	1747.4
970.269	1731.13
970.571	1730
970.872	1721.64
971.174	1708.75
971.475	1689.32
971.776	1687.51
972.077	1720.51
972.378	1671.92
972.679	1680.51
972.98	1663.56
973.281	1651.81
973.582	1666.5
973.883	1651.35
974.183	1616.33
974.484	1640.28
974.785	1649.77
975.085	1629.21
975.386	1645.25
975.686	1614.97
975.986	1621.3
976.287	1616.55
976.587	1601.19
976.887	1606.61
977.187	1573.16
977.487	1599.38
977.787	1567.06
978.087	1583.11
978.387	1572.94
978.687	1567.74
978.987	1561.64
979.286	1518.7
979.586	1538.82
979.885	1518.7
980.185	1518.48
980.484	1523.9
980.784	1513.73
981.083	1489.1
981.382	1509.21
981.682	1495.2
981.981	1505.37
982.28	1495.88
982.579	1496.1
982.878	1443.68
983.177	1460.85
983.475	1453.17
983.774	1460.17
984.073	1461.53
984.372	1448.65
984.67	1420.85
984.969	1435.99
985.267	1436.9
985.566	1456.33
985.864	1403.68
986.162	1419.95
986.461	1405.03
986.759	1377.69
987.057	1388.31
987.355	1395.54
987.653	1420.4
987.951	1364.13
988.249	1384.7
988.547	1386.96
988.844	1380.4
989.142	1358.93
989.44	1357.35
989.737	1345.15
990.035	1370.23
990.332	1333.85
990.63	1321.65
990.927	1332.72
991.224	1306.51
991.521	1341.08
991.819	1339.05
992.116	1314.87
992.413	1256.56
992.71	1294.08
993.006	1301.31
993.303	1294.98
993.6	1259.5
993.897	1288.88
994.193	1304.92
994.49	1278.71
994.787	1291.59
995.083	1259.5
995.379	1270.8
995.676	1216.56
995.972	1235.77
996.268	1254.08
996.565	1234.19
996.861	1225.15
997.157	1231.48
997.453	1216.11
997.749	1228.09
998.044	1182.21
998.34	1184.47
998.636	1217.69
998.932	1169.11
999.227	1179.28
999.523	1188.54
999.818	1158.26
1000.114	1157.58
1000.409	1152.16
1000.704	1158.71
1001	1149.9
1001.295	1145.61
1001.59	1153.51
1001.885	1151.71
1002.18	1131.14
1002.475	1144.02
1002.77	1137.47
1003.065	1118.04
1003.359	1105.61
1003.654	1095.89
1003.949	1094.53
1004.243	1095.66
1004.538	1099.5
1004.832	1121.2
1005.127	1094.08
1005.421	1077.36
1005.715	1080.3
1006.009	1056.79
1006.304	1087.75
1006.598	1093.18
1006.892	1061.31
1007.186	1045.72
1007.48	1051.14
1007.773	1036.46
1008.067	1030.13
1008.361	1033.07
1008.655	1030.35
1008.948	1009.56
1009.242	1020.19
1009.535	1017.7
1009.829	1002.78
1010.122	987.42
1010.415	986.97
1010.708	1015.89
1011.001	973.41
1011.295	978.83
1011.588	984.93
1011.881	981.09
1012.173	969.11
1012.466	970.92
1012.759	958.49
1013.052	948.32
1013.344	954.88
1013.637	957.59
1013.93	952.16
1014.222	940.87
1014.514	945.61
1014.807	928.21
1015.099	903.58
1015.391	937.02
1015.683	933.41
1015.976	910.58
1016.268	908.32
1016.56	879.62
1016.851	887.99
1017.143	905.61
1017.435	881.66
1017.727	882.56
1018.018	893.18
1018.31	882.56
1018.602	899.51
1018.893	864.48
1019.185	878.49
1019.476	872.62
1019.767	856.12
1020.058	852.73
1020.35	852.05
1020.641	812.05
1020.932	827.65
1021.223	802.11
1021.514	816.8
1021.804	814.31
1022.095	827.2
1022.386	807.76
1022.677	833.52
1022.967	817.03
1023.258	796.24
1023.548	801.66
1023.839	780.64
1024.129	788.1
1024.419	782.9
1024.709	795.33
1025	765.28
1025.29	773.41
1025.58	747.88
1025.87	752.17
1026.16	757.59
1026.449	773.19
1026.739	759.85
1027.029	758.05
1027.319	745.39
1027.608	746.29
1027.898	738.61
1028.187	737.71
1028.477	722.34
1028.766	730.25
1029.055	717.37
1029.344	713.75
1029.634	734.99
1029.923	720.98
1030.212	701.55
1030.501	713.53
1030.79	697.93
1031.078	681.21
1031.367	716.46
1031.656	698.16
1031.945	707.65
1032.233	698.61
1032.522	689.57
1032.81	709.46
1033.099	687.76
1033.387	702.23
1033.675	675.79
1033.963	648.9
1034.251	670.14
1034.54	675.11
1034.828	666.52
1035.116	635.11
1035.403	658.84
1035.691	651.61
1035.979	664.94
1036.267	635.79
1036.554	648.44
1036.842	625.17
1037.129	651.16
1037.417	620.42
1037.704	625.62
1037.992	655
1038.279	634.66
1038.566	619.29
1038.853	619.29
1039.14	619.29
