Data from cardboard_FLMS001491_091.txt Node
Date: Tue Feb 07 11:40:25 GMT 2017
User: dcchb
Spectrometer: FLMS00149
Trigger mode: 0
Integration Time (sec): 2.000000E-2
Scans to average: 10
Electric dark correction enabled: true
Nonlinearity correction enabled: false
Boxcar width: 0
XAxis mode: Wavelengths
Number of Pixels in Spectrum: 2048
>>>>>Begin Spectral Data<<<<<
341.393	-11.74
341.776	-11.74
342.16	-11.74
342.543	-43.15
342.927	-58.97
343.31	-72.53
343.693	-74.56
344.077	-65.52
344.46	-71.17
344.843	-64.16
345.226	-35.47
345.61	-21.23
345.993	-7.67
346.376	0.69
346.759	20.58
347.142	15.83
347.525	34.59
347.908	72.1
348.291	92.22
348.674	79.11
349.057	97.19
349.44	123.63
349.823	143.97
350.206	163.17
350.588	181.48
350.971	218.77
351.354	208.6
351.737	212.21
352.119	235.04
352.502	274.36
352.884	282.27
353.267	295.37
353.65	296.96
354.032	297.86
354.414	317.97
354.797	324.75
355.179	310.51
355.562	320.23
355.944	330.17
356.326	324.3
356.709	334.24
357.091	341.7
357.473	334.92
357.855	330.4
358.238	337.18
358.62	341.02
359.002	340.57
359.384	329.5
359.766	342.6
360.148	341.93
360.53	348.25
360.912	331.76
361.294	353.68
361.676	331.76
362.057	332.89
362.439	320.91
362.821	336.95
363.203	330.4
363.584	325.66
363.966	341.02
364.348	328.37
364.729	343.51
365.111	317.97
365.493	316.39
365.874	321.36
366.256	306.9
366.637	314.36
367.019	304.19
367.4	318.65
367.781	312.55
368.163	320.91
368.544	311.64
368.925	291.08
369.306	331.53
369.688	320.23
370.069	325.88
370.45	295.6
370.831	294.7
371.212	304.19
371.593	316.39
371.974	297.86
372.355	322.94
372.736	318.2
373.117	314.58
373.498	336.95
373.879	325.43
374.26	315.71
374.641	323.17
375.021	304.64
375.402	322.94
375.783	333.79
376.163	315.71
376.544	332.43
376.925	331.76
377.305	334.47
377.686	332.66
378.066	319.78
378.447	340.12
378.827	327.69
379.208	321.81
379.588	335.15
379.968	335.15
380.349	318.88
380.729	320.91
381.109	349.16
381.489	350.51
381.87	325.66
382.25	342.83
382.63	327.69
383.01	362.04
383.39	358.2
383.77	350.06
384.15	360.68
384.53	341.7
384.91	353.23
385.29	385.99
385.67	346.67
386.049	346.67
386.429	359.33
386.809	348.48
387.189	373.11
387.568	363.39
387.948	363.62
388.328	349.38
388.707	359.33
389.087	356.16
389.466	390.29
389.846	355.94
390.225	367.91
390.605	367.24
390.984	367.91
391.363	380.57
391.743	382.6
392.122	395.94
392.501	383.05
392.881	360.68
393.26	382.6
393.639	382.6
394.018	378.99
394.397	371.53
394.776	370.85
395.155	398.42
395.534	388.25
395.913	403.85
396.292	368.82
396.671	382.83
397.05	382.15
397.429	418.08
397.808	398.65
398.186	398.2
398.565	383.96
398.944	401.13
399.323	404.07
399.701	399.33
400.08	411.53
400.458	408.82
400.837	403.17
401.215	409.95
401.594	398.2
401.972	446.78
402.351	411.3
402.729	421.7
403.107	434.58
403.486	436.39
403.864	427.35
404.242	443.17
404.62	443.84
404.999	457.63
405.377	452.21
405.755	427.35
406.133	451.75
406.511	456.5
406.889	473.67
407.267	466.44
407.645	474.35
408.023	477.97
408.401	476.61
408.779	477.74
409.156	470.51
409.534	462.37
409.912	480
410.29	488.59
410.667	483.39
411.045	484.75
411.422	492.88
411.8	485.88
412.178	488.59
412.555	515.48
412.933	512.54
413.31	507.35
413.687	538.98
414.065	539.21
414.442	527.68
414.819	550.51
415.197	534.24
415.574	536.5
415.951	531.98
416.328	521.58
416.705	550.51
417.082	555.03
417.46	569.04
417.837	552.77
418.214	548.93
418.591	572.43
418.967	571.3
419.344	559.1
419.721	585.31
420.098	591.19
420.475	594.8
420.852	581.02
421.228	602.26
421.605	577.17
421.982	601.81
422.358	604.52
422.735	610.39
423.111	592.09
423.488	602.71
423.864	627.79
424.241	626.66
424.617	618.08
424.994	655.59
425.37	623.5
425.746	636.61
426.123	649.71
426.499	653.56
426.875	644.06
427.251	663.73
427.627	666.66
428.003	639.09
428.379	665.08
428.756	675.93
429.132	724.06
429.507	700.11
429.883	707.11
430.259	702.59
430.635	737.85
431.011	720.9
431.387	693.78
431.763	731.52
432.138	752.08
432.514	781.46
432.89	756.83
433.265	758.41
433.641	778.98
434.016	804.29
434.392	799.77
434.767	795.02
435.143	805.42
435.518	816.04
435.894	796.15
436.269	821.91
436.644	818.3
437.02	849.71
437.395	831.86
437.77	830.73
438.145	871.63
438.52	831.63
438.895	861.01
439.271	856.49
439.646	881.8
440.021	888.8
440.395	896.04
440.77	859.88
441.145	892.42
441.52	916.37
441.895	906.66
442.27	931.29
442.645	910.72
443.019	928.35
443.394	940.55
443.769	924.06
444.143	908.92
444.518	958.18
444.892	951.63
445.267	945.53
445.641	953.44
446.016	947.33
446.39	974
446.764	970.84
447.139	976.94
447.513	992.53
447.887	966.99
448.262	1020.55
448.636	994.79
449.01	999.76
449.384	1023.04
449.758	1032.98
450.132	1047.22
450.506	1048.35
450.88	1049.48
451.254	1064.62
451.628	1062.13
452.002	1058.52
452.376	1069.59
452.75	1113.43
453.123	1089.48
453.497	1101.68
453.871	1122.24
454.244	1146.65
454.618	1147.33
454.992	1161.11
455.365	1138.97
455.739	1183.03
456.112	1203.6
456.486	1182.81
456.859	1196.59
457.232	1213.99
457.606	1220.32
457.979	1237.95
458.352	1254.44
458.725	1265.74
459.099	1284.95
459.472	1325.63
459.845	1311.62
460.218	1316.82
460.591	1347.55
460.964	1341.9
461.337	1339.64
461.71	1384.61
462.083	1416.93
462.456	1440.43
462.829	1412.63
463.201	1404.95
463.574	1411.73
463.947	1457.83
464.32	1484.04
464.692	1470.03
465.065	1491.73
465.438	1514.32
465.81	1542.8
466.183	1540.76
466.555	1597.26
466.928	1597.71
467.3	1593.42
467.672	1615.79
468.045	1687.2
468.417	1677.26
468.789	1660.08
469.161	1705.05
469.534	1706.64
469.906	1736.69
470.278	1749.35
470.65	1761.55
471.022	1820.76
471.394	1852.17
471.766	1878.83
472.138	1874.99
472.51	1910.7
472.882	1971.71
473.253	1982.56
473.625	1958.15
473.997	2007.87
474.369	2025.27
474.74	2073.63
475.112	2119.28
475.484	2142.78
475.855	2178.71
476.227	2181.43
476.598	2259.39
476.97	2232.5
477.341	2340.74
477.713	2348.2
478.084	2341.2
478.455	2414.64
478.827	2473.17
479.198	2528.08
479.569	2485.37
479.94	2596.56
480.311	2596.33
480.682	2652.15
481.053	2714.52
481.424	2747.74
481.795	2789.32
482.166	2831.35
482.537	2859.15
482.908	2931.46
483.279	2932.37
483.65	2989.54
484.021	3039.93
484.391	3114.51
484.762	3120.61
485.133	3184.79
485.503	3196.31
485.874	3288.52
486.244	3330.1
486.615	3398.79
486.985	3403.31
487.356	3456.19
487.726	3507.72
488.097	3527.83
488.467	3610.54
488.837	3674.72
489.207	3723.08
489.578	3810.76
489.948	3801.04
490.318	3871.55
490.688	3889.18
491.058	3937.99
491.428	4013.02
491.798	4071.77
492.168	4130.3
492.538	4158.32
492.908	4227.47
493.278	4287.81
493.648	4324.19
494.017	4388.15
494.387	4376.85
494.757	4441.25
495.126	4489.61
495.496	4499.1
495.866	4555.15
496.235	4658.42
496.605	4637.18
496.974	4693.68
497.344	4754.01
497.713	4824.97
498.082	4921.01
498.452	4898.42
498.821	4951.75
499.19	4949.26
499.559	5023.38
499.928	5048.24
500.298	5105.42
500.667	5172.76
501.036	5187.67
501.405	5250.05
501.774	5263.38
502.143	5330.04
502.512	5310.38
502.88	5414.34
503.249	5445.29
503.618	5486.42
503.987	5571.17
504.356	5612.97
504.724	5634.67
505.093	5650.49
505.462	5718.73
505.83	5792.4
506.199	5823.36
506.567	5919.41
506.936	5934.77
507.304	6026.07
507.672	6018.84
508.041	6086.63
508.409	6157.14
508.777	6266.06
509.145	6213.64
509.514	6268.1
509.882	6400.3
510.25	6391.48
510.618	6450.01
510.986	6482.78
511.354	6532.05
511.722	6595.55
512.09	6713.28
512.458	6696.56
512.826	6783.34
513.193	6813.39
513.561	6884.58
513.929	7007.06
514.297	7078.7
514.664	7093.39
515.032	7137.68
515.4	7272.59
515.767	7247.96
516.135	7318.92
516.502	7351.01
516.869	7503.77
517.237	7498.35
517.604	7595.75
517.972	7591.9
518.339	7707.38
518.706	7776.08
519.073	7841.62
519.44	7908.73
519.808	8004.1
520.175	8029.86
520.542	8180.36
520.909	8222.17
521.276	8240.25
521.643	8390.08
522.009	8477.76
522.376	8491.77
522.743	8596.17
523.11	8669.84
523.477	8752.55
523.843	8808.14
524.21	8975.82
524.577	9044.3
524.943	9074.35
525.31	9210.85
525.676	9290.17
526.043	9359.54
526.409	9444.29
526.776	9541.23
527.142	9605.19
527.508	9664.84
527.874	9792.75
528.241	9900.32
528.607	9931.28
528.973	10061.67
529.339	10053.99
529.705	10126.53
530.071	10329.69
530.437	10366.3
530.803	10441.55
531.169	10498.04
531.535	10502.11
531.901	10606.51
532.267	10641.32
532.632	10801.99
532.998	10895.32
533.364	10990.69
533.73	11015.09
534.095	11083.34
534.461	11142.32
534.826	11193.84
535.192	11302.32
535.557	11449.43
535.923	11546.83
536.288	11457.11
536.653	11637.67
537.019	11663.21
537.384	11665.02
537.749	11811
538.114	11898.68
538.479	11905.92
538.845	11960.6
539.21	11994.73
539.575	12122.18
539.94	12169.41
540.305	12272.91
540.67	12284.44
541.034	12416.64
541.399	12466.8
541.764	12571.89
542.129	12584.32
542.494	12677.65
542.858	12769.85
543.223	12789.28
543.587	12790.64
543.952	12897.98
544.316	13086.22
544.681	13003.06
545.045	13056.85
545.41	13230.17
545.774	13244.86
546.138	13279.89
546.503	13373.9
546.867	13321.92
547.231	13592.43
547.595	13571.18
547.959	13737.28
548.324	13676.49
548.688	13807.79
549.052	13834.45
549.416	13930.72
549.779	13939.76
550.143	14005.3
550.507	14052.53
550.871	14219.08
551.235	14194.44
551.599	14402.57
551.962	14414.1
552.326	14419.75
552.689	14602.34
553.053	14634.66
553.417	14755.33
553.78	14918.72
554.143	14852.96
554.507	15024.48
554.87	15041.88
555.234	15163.91
555.597	15132.72
555.96	15264.92
556.323	15353.51
556.686	15447.29
557.05	15588.53
557.413	15618.13
557.776	15653.16
558.139	15814.51
558.502	15901.97
558.865	15949.65
559.228	16079.59
559.59	16198.46
559.953	16231.45
560.316	16394.16
560.679	16450.43
561.041	16621.27
561.404	16743.98
561.767	16858.1
562.129	16746.92
562.492	17024.65
562.854	17061.71
563.217	17067.36
563.579	17188.26
563.941	17254.7
564.304	17396.62
564.666	17527.46
565.028	17607.46
565.39	17595.03
565.753	17900.56
566.115	17891.3
566.477	17957.73
566.839	17979.88
567.201	18232.76
567.563	18268.23
567.925	18427.55
568.287	18438.63
568.648	18456.03
569.01	18694.21
569.372	18744.15
569.734	18733.31
570.095	18862.57
570.457	19012.17
570.819	19138.04
571.18	19189.79
571.542	19270.69
571.903	19333.52
572.265	19506.85
572.626	19479.73
572.987	19514.08
573.349	19650.8
573.71	19852.15
574.071	19809.44
574.432	20041.97
574.794	20170.78
575.155	20178.92
575.516	20074.74
575.877	20176.66
576.238	20287.84
576.599	20395.86
576.96	20345.02
577.32	20427.27
577.681	20535.97
578.042	20637.66
578.403	20684.44
578.763	20808.05
579.124	20836.75
579.485	20923.08
579.845	21021.38
580.206	21049.4
580.566	21075.17
580.927	21167.37
581.287	21140.7
581.648	21203.75
582.008	21322.39
582.368	21238.33
582.728	21411.65
583.089	21372.11
583.449	21384.76
583.809	21521.93
584.169	21599.67
584.529	21549.28
584.889	21690.29
585.249	21643.74
585.609	21655.26
585.969	21855.26
586.329	21821.59
586.688	21862.72
587.048	21844.41
587.408	21950.4
587.768	21945.43
588.127	21944.3
588.487	21960.57
588.846	22186.78
589.206	22063.39
589.565	22078.53
589.925	22222.03
590.284	22165.53
590.643	22251.86
591.003	22332.31
591.362	22354
591.721	22440.33
592.08	22389.48
592.44	22506.32
592.799	22478.52
593.158	22656.59
593.517	22560.78
593.876	22650.04
594.235	22681
594.593	22671.28
594.952	22767.1
595.311	22693.43
595.67	22720.09
596.029	22965.51
596.387	22962.57
596.746	23003.03
597.104	22862.24
597.463	22953.31
597.822	23047.32
598.18	22961.44
598.538	23005.06
598.897	23185.62
599.255	22965.06
599.613	23329.8
599.972	23217.03
600.33	23222.23
600.688	23273.53
601.046	23426.52
601.404	23458.83
601.762	23479.17
602.12	23580.19
602.478	23567.3
602.836	23598.26
603.194	23643.23
603.552	23530.92
603.91	23492.5
604.268	23787.41
604.625	23671.93
604.983	23777.02
605.341	23703.8
605.698	23874.87
606.056	24031.02
606.413	23950.57
606.771	24067.86
607.128	24065.14
607.485	24026.5
607.843	24003.9
608.2	24160.06
608.557	24333.39
608.914	24233.05
609.272	24355.98
609.629	24430.33
609.986	24549.2
610.343	24501.29
610.7	24746.48
611.057	24531.8
611.414	24618.58
611.771	24673.49
612.127	24698.8
612.484	24743.09
612.841	24863.54
613.198	24837.55
613.554	24876.42
613.911	24982.18
614.267	24983.09
614.624	25098.34
614.98	25029.41
615.337	25204.55
615.693	25273.02
616.05	25040.03
616.406	25384.43
616.762	25222.18
617.118	25274.83
617.475	25349.4
617.831	25424.43
618.187	25452
618.543	25554.6
618.899	25606.57
619.255	25534.26
619.611	25625.56
619.967	25751.2
620.323	25654.93
620.678	25617.42
621.034	25761.82
621.39	25608.15
621.746	25695.16
622.101	25941.7
622.457	25739.68
622.812	25880.46
623.168	25908.26
623.523	25936.06
623.879	26162.04
624.234	25876.62
624.589	25996.62
624.945	25979.44
625.3	26077.97
625.655	25935.6
626.01	26070.52
626.365	26055.6
626.72	25934.93
627.075	26078.2
627.43	26155.03
627.785	25904.64
628.14	26148.25
628.495	26202.04
628.85	26191.42
629.205	26051.76
629.559	26226.44
629.914	26139.21
630.269	26090.4
630.623	25964.76
630.978	26038.43
631.332	26220.79
631.687	26303.28
632.041	26040.23
632.396	26147.35
632.75	26181.25
633.104	26139.89
633.459	26056.96
633.813	26147.12
634.167	26163.39
634.521	26148.93
634.875	26161.36
635.229	26179.44
635.583	25927.69
635.937	26105.32
636.291	26091.31
636.645	26039.1
636.999	25992.1
637.352	26066.9
637.706	25950.97
638.06	26049.5
638.413	26059.67
638.767	25979.67
639.121	25975.83
639.474	25871.65
639.828	25904.19
640.181	25921.14
640.534	25943.96
640.888	25961.82
641.241	25850.41
641.594	25902.16
641.947	25923.63
642.301	25752.11
642.654	25794.59
643.007	25948.71
643.36	25853.35
643.713	25711.65
644.066	26024.41
644.419	25706
644.771	25668.49
645.124	25435.96
645.477	25363.64
645.83	25148.96
646.182	25153.03
646.535	25098.56
646.888	25145.79
647.24	25093.82
647.593	25152.12
647.945	25114.16
648.298	25026.47
648.65	24972.46
649.002	24963.43
649.355	25035.29
649.707	24928.62
650.059	25124.78
650.411	25375.39
650.763	25438.44
651.115	25764.08
651.467	25610.64
651.819	25677.08
652.171	25639.79
652.523	25579.91
652.875	25628.94
653.227	25437.09
653.578	25714.14
653.93	25701.71
654.282	25489.51
654.633	25500.13
654.985	25680.92
655.337	25575.39
655.688	25668.27
656.039	25801.14
656.391	25354.83
656.742	25535.16
657.094	25461.94
657.445	25607.7
657.796	25581.04
658.147	25579.45
658.498	25635.27
658.849	25525.22
659.2	25554.6
659.551	25606.8
659.902	25662.39
660.253	25516.41
660.604	25609.28
660.955	25438.44
661.306	25604.99
661.656	25560.7
662.007	25586.01
662.358	25574.48
662.708	25452.68
663.059	25577.42
663.409	25476.18
663.76	25616.29
664.11	25684.99
664.461	25609.74
664.811	25665.33
665.161	25604.31
665.511	25715.04
665.862	25688.6
666.212	25743.74
666.562	25753.46
666.912	25633.46
667.262	25666.91
667.612	25658.1
667.962	25615.16
668.312	25683.41
668.662	25751.65
669.011	25672.79
669.361	25649.06
669.711	25611.54
670.06	25607.93
670.41	25642.96
670.76	25446.8
671.109	25696.51
671.459	25622.17
671.808	25571.55
672.157	25620.58
672.507	25607.02
672.856	25589.85
673.205	25582.84
673.554	25579.45
673.904	25493.58
674.253	25689.06
674.602	25504.2
674.951	25317.99
675.3	25096.08
675.649	25541.04
675.998	25584.88
676.346	25575.16
676.695	25696.97
677.044	25425.56
677.393	25529.06
677.741	25597.53
678.09	25472.34
678.438	25512.56
678.787	25557.99
679.135	25489.29
679.484	25347.82
679.832	25460.81
680.181	25309.63
680.529	25316.41
680.877	25348.95
681.225	25116.87
681.573	25445.9
681.922	25242.51
682.27	25344.43
682.618	25306.47
682.966	25185.57
683.314	25198.9
683.661	25179.01
684.009	25005.23
684.357	24998.45
684.705	24968.85
685.053	24988.96
685.4	25005.23
685.748	24885.24
686.095	24867.61
686.443	24845.91
686.79	24767.72
687.138	24802.07
687.485	24848.4
687.832	24663.32
688.18	24775.41
688.527	24595.98
688.874	24594.17
689.221	24604.56
689.568	24556.2
689.915	24449.09
690.262	24495.19
690.609	24322.31
690.956	24483.66
691.303	24337.68
691.65	24264.91
691.997	24257
692.344	24080.06
692.69	24064.24
693.037	24141.98
693.383	23818.37
693.73	24014.75
694.077	23844.36
694.423	23960.74
694.769	23850.46
695.116	23724.59
695.462	23727.07
695.808	23714.42
696.155	23799.61
696.501	23580.19
696.847	23559.85
697.193	23491.6
697.539	23540.86
697.885	23310.36
698.231	23283.02
698.577	23332.28
698.923	23241.44
699.269	23157.6
699.614	23036.24
699.96	23106.53
700.306	23125.96
700.651	23015
700.997	22875.12
701.342	22801.67
701.688	22924.61
702.033	22753.54
702.379	22674.22
702.724	22636.48
703.069	22710.6
703.415	22520.33
703.76	22553.32
704.105	22626.99
704.45	22537.5
704.795	22319.88
705.14	22274.91
705.485	22325.98
705.83	22198.75
706.175	22233.55
706.52	22111.98
706.865	22120.56
707.209	22154.69
707.554	22055.03
707.899	22067.46
708.243	21986.1
708.588	21963.96
708.932	21857.52
709.277	21824.75
709.621	21879.89
709.966	21728.03
710.31	21792.44
710.654	21610.97
710.998	21618.88
711.342	21653.91
711.687	21497.08
712.031	21511.54
712.375	21464.76
712.719	21474.03
713.063	21480.35
713.407	21454.59
713.75	21404.2
714.094	21370.3
714.438	21306.8
714.782	21285.78
715.125	21181.15
715.469	21287.14
715.812	21179.34
716.156	21096.86
716.499	21085.56
716.843	21174.82
717.186	21039.23
717.53	21103.19
717.873	21137.54
718.216	21009.41
718.559	20922.85
718.902	20840.6
719.246	20927.6
719.589	20762.41
719.932	20689.19
720.275	20739.13
720.617	20740.49
720.96	20789.52
721.303	20735.29
721.646	20694.16
721.989	20631.11
722.331	20720.15
722.674	20516.54
723.016	20671.11
723.359	20642.64
723.701	20640.83
724.044	20550.66
724.386	20387.05
724.729	20476.31
725.071	20369.87
725.413	20450.55
725.755	20499.14
726.097	20402.42
726.439	20289.42
726.782	20369.87
727.124	20342.76
727.465	20265.02
727.807	20313.83
728.149	20295.98
728.491	20217.11
728.833	20305.92
729.175	20166.72
729.516	20056.44
729.858	20184.34
730.199	20282.64
730.541	20101.18
730.882	20047.85
731.224	20171.01
731.565	19995.42
731.906	20140.05
732.248	20150.67
732.589	19982.54
732.93	19957.91
733.271	19983.67
733.612	19946.83
733.953	19976.89
734.294	19898.02
734.635	19901.19
734.976	20003.78
735.317	19813.5
735.658	19938.02
735.999	19835.65
736.339	19897.34
736.68	19862.32
737.021	19766.73
737.361	19760.17
737.702	19877.46
738.042	19741.19
738.383	19707.29
738.723	19795.88
739.063	19709.1
739.404	19753.85
739.744	19729.89
740.084	19647.86
740.424	19709.1
740.764	19597.69
741.104	19683.34
741.444	19648.99
741.784	19571.02
742.124	19601.98
742.464	19587.75
742.804	19541.42
743.143	19542.1
743.483	19657.58
743.823	19420.97
744.162	19468.88
744.502	19483.8
744.841	19399.73
745.181	19510.46
745.52	19471.59
745.86	19384.14
746.199	19524.02
746.538	19420.29
746.877	19365.61
747.216	19430.69
747.556	19392.95
747.895	19392.27
748.234	19278.15
748.573	19345.49
748.911	19325.83
749.25	19305.04
749.589	19292.84
749.928	19336.91
750.267	19390.69
750.605	19264.59
750.944	19338.26
751.283	19160.64
751.621	19273.86
751.96	19154.31
752.298	19149.12
752.636	19096.69
752.975	19113.41
753.313	19129.45
753.651	19133.3
753.989	19009.68
754.327	19036.58
754.666	18964.49
755.004	18939.63
755.342	19082.68
755.679	19107.31
756.017	18861.67
756.355	18907.77
756.693	18775.57
757.031	18905.28
757.368	18843.36
757.706	18764.27
758.044	18764.72
758.381	18815.56
758.719	18754.55
759.056	18785.96
759.394	18621.22
759.731	18536.48
760.068	18569.7
760.405	18500.32
760.743	18510.26
761.08	18489.7
761.417	18525.63
761.754	18439.3
762.091	18389.59
762.428	18331.06
762.765	18244.73
763.102	18268.69
763.438	18329.02
763.775	18098.75
764.112	18174.68
764.449	18147.33
764.785	18062.36
765.122	18057.17
765.458	17925.19
765.795	17844.97
766.131	17877.96
766.467	17851.07
766.804	17780.11
767.14	17725.2
767.476	17662.83
767.812	17657.85
768.148	17666.67
768.485	17695.59
768.821	17374.7
769.157	17400.46
769.492	17414.25
769.828	17419.67
770.164	17235.72
770.5	17312.55
770.836	17264.19
771.171	17174.93
771.507	17200.24
771.842	16973.35
772.178	16957.76
772.513	16950.75
772.849	16982.62
773.184	16847.25
773.519	16873.24
773.855	16752.34
774.19	16713.7
774.525	16679.58
774.86	16565
775.195	16641.38
775.53	16500.82
775.865	16371.56
776.2	16331.79
776.535	16323.43
776.87	16334.5
777.205	16177.22
777.539	16151
777.874	16186.93
778.209	15977.67
778.543	16005.47
778.878	15981.97
779.212	15940.39
779.547	15770.45
779.881	15836.66
780.215	15651.13
780.55	15797.56
780.884	15677.34
781.218	15624.01
781.552	15619.04
781.886	15591.92
782.22	15426.05
782.554	15390.57
782.888	15378.14
783.222	15279.84
783.556	15186.28
783.889	15253.85
784.223	15067.87
784.557	15177.69
784.89	15078.04
785.224	15056.79
785.557	14948.77
785.891	14883.46
786.224	14829.45
786.558	14929.34
786.891	14667.88
787.224	14659.52
787.557	14644.37
787.891	14574.32
788.224	14676.24
788.557	14623.58
788.89	14547.2
789.223	14514.21
789.556	14424.27
789.888	14422.69
790.221	14327.55
790.554	14227.44
790.887	14183.37
791.219	14158.96
791.552	14123.26
791.884	14071.28
792.217	14021.11
792.549	13961.23
792.882	13950.38
793.214	13839.65
793.546	13904.06
793.879	13745.42
794.211	13684.85
794.543	13776.15
794.875	13690.95
795.207	13707.9
795.539	13685.3
795.871	13598.53
796.203	13492.77
796.535	13453.67
796.867	13401.92
797.198	13361.47
797.53	13438.08
797.862	13374.13
798.193	13297.74
798.525	13272.66
798.856	13273.79
799.188	13113.12
799.519	13133
799.85	13052.33
800.182	13095.71
800.513	13021.59
800.844	12963.29
801.175	13013.91
801.506	12998.54
801.837	12864.53
802.168	12897.75
802.499	12826.12
802.83	12715.39
803.161	12790.19
803.491	12727.59
803.822	12709.74
804.153	12623.19
804.483	12629.29
804.814	12562.4
805.145	12616.18
805.475	12526.46
805.805	12548.16
806.136	12434.72
806.466	12424.09
806.796	12352.01
807.126	12320.37
807.457	12361.27
807.787	12324.21
808.117	12290.99
808.447	12232.23
808.777	12225.91
809.107	12218
809.436	12147.72
809.766	12120.37
810.096	12136.42
810.426	12081.73
810.755	12110.66
811.085	12024.1
811.414	11954.95
811.744	11861.85
812.073	11883.77
812.403	11870.89
812.732	11790.89
813.061	11775.52
813.39	11798.57
813.719	11807.16
814.049	11873.37
814.378	11773.04
814.707	11782.98
815.036	11760.61
815.365	11638.8
815.693	11479.03
816.022	11576.66
816.351	11545.47
816.68	11456.66
817.008	11507.96
817.337	11512.03
817.665	11444.01
817.994	11469.09
818.322	11415.76
818.651	11411.24
818.979	11371.47
819.307	11396.78
819.636	11235.2
819.964	11236.1
820.292	11263.9
820.62	11204.01
820.948	11235.2
821.276	11290.56
821.604	11202.43
821.932	11281.07
822.259	11213.28
822.587	11251.92
822.915	11206.05
823.243	11211.24
823.57	11265.71
823.898	11200.17
824.225	11244.69
824.553	11170.12
824.88	11222.54
825.207	11227.97
825.535	11115.88
825.862	11207.4
826.189	11179.16
826.516	11280.85
826.843	11278.36
827.17	11230
827.497	11215.31
827.824	11207.18
828.151	11244.24
828.478	11224.35
828.805	11266.16
829.131	11232.26
829.458	11192.71
829.785	11148.2
830.111	11211.24
830.438	11251.7
830.764	11179.83
831.09	11250.57
831.417	11200.85
831.743	11204.24
832.069	11229.55
832.395	11212.15
832.722	11204.92
833.048	11101.19
833.374	11189.55
833.7	11128.99
834.026	11135.77
834.351	11201.53
834.677	11153.39
835.003	11215.99
835.329	11096.22
835.654	11077.01
835.98	11084.02
836.306	11101.64
836.631	11053.51
836.956	11073.4
837.282	11053.28
837.607	10969.67
837.932	10902.55
838.258	11051.25
838.583	10905.04
838.908	10930.57
839.233	10919.05
839.558	10908.88
839.883	10838.15
840.208	10820.29
840.533	10866.85
840.858	10822.1
841.182	10883.8
841.507	10907.3
841.832	10763.35
842.156	10801.54
842.481	10818.03
842.805	10742.56
843.13	10671.15
843.454	10723.57
843.778	10617.81
844.103	10590.02
844.427	10666.63
844.751	10663.69
845.075	10600.64
845.399	10632.05
845.723	10503.01
846.047	10534.65
846.371	10472.06
846.695	10457.59
847.019	10339.18
847.343	10329.23
847.666	10316.35
847.99	10239.29
848.313	10221.67
848.637	10081.56
848.96	10209.69
849.284	10135.11
849.607	10070.26
849.931	10034.33
850.254	9960.88
850.577	9885.63
850.9	9883.37
851.223	9900.32
851.546	9801.56
851.869	9743.94
852.192	9785.97
852.515	9718.18
852.838	9663.04
853.161	9693.09
853.483	9603.15
853.806	9572.64
854.129	9536.03
854.451	9522.7
854.774	9525.19
855.096	9476.6
855.419	9415.59
855.741	9447.9
856.063	9424.4
856.385	9336.72
856.708	9339.66
857.03	9294.46
857.352	9282.93
857.674	9191.18
857.996	9278.19
858.318	9209.04
858.64	9182.82
858.961	9186.21
859.283	9163.39
859.605	9065.99
859.926	9097.85
860.248	9095.82
860.57	8991.87
860.891	9086.1
861.212	8965.65
861.534	8943.73
861.855	8977.63
862.176	8937.18
862.498	8964.07
862.819	8954.58
863.14	8892.89
863.461	8885.66
863.782	8902.38
864.103	8804.3
864.424	8778.77
864.745	8808.37
865.065	8805.43
865.386	8787.13
865.707	8766.34
866.027	8783.51
866.348	8774.7
866.668	8760.46
866.989	8716.17
867.309	8714.36
867.63	8645.44
867.95	8715.94
868.27	8649.5
868.59	8675.94
868.91	8607.47
869.23	8648.15
869.55	8590.75
869.87	8607.47
870.19	8545.55
870.51	8669.62
870.83	8579.22
871.15	8505.33
871.469	8569.28
871.789	8556.85
872.109	8516.4
872.428	8476.18
872.748	8498.1
873.067	8460.36
873.386	8442.28
873.706	8453.8
874.025	8445.22
874.344	8468.49
874.663	8443.18
874.982	8416.52
875.301	8352.34
875.62	8439.57
875.939	8373.81
876.258	8379.68
876.577	8297.2
876.896	8310.98
877.214	8320.93
877.533	8341.04
877.852	8256.07
878.17	8212.91
878.489	8243.19
878.807	8290.42
879.125	8255.16
879.444	8211.55
879.762	8217.43
880.08	8213.36
880.398	8158.67
880.716	8153.7
881.034	8105.11
881.352	8142.85
881.67	8100.59
881.988	8109.63
882.306	8113.93
882.624	8053.36
882.941	8041.38
883.259	8023.76
883.577	8008.62
883.894	8032.57
884.212	7983.31
884.529	7910.09
884.846	7942.4
885.164	7876.64
885.481	7898.56
885.798	7895.63
886.115	7801.84
886.432	7893.37
886.75	7828.96
887.067	7838.9
887.383	7824.22
887.7	7836.42
888.017	7781.05
888.334	7723.43
888.651	7737.66
888.967	7750.09
889.284	7671
889.6	7720.94
889.917	7654.28
890.233	7659.02
890.55	7608.18
890.866	7663.54
891.182	7579.02
891.498	7599.14
891.815	7541.96
892.131	7545.8
892.447	7458.35
892.763	7431.23
893.079	7442.08
893.395	7449.31
893.71	7414.96
894.026	7417.9
894.342	7378.58
894.657	7313.27
894.973	7314.85
895.289	7291.35
895.604	7319.6
895.92	7249.99
896.235	7130.9
896.55	7180.16
896.865	7204.12
897.181	7160.96
897.496	7138.36
897.811	7118.47
898.126	7099.26
898.441	7101.52
898.756	7037.34
899.071	7012.26
899.386	6998.25
899.7	6930.68
900.015	6896.1
900.33	6862.88
900.644	6874.18
900.959	6908.31
901.273	6842.77
901.588	6833.51
901.902	6731.36
902.216	6776.56
902.531	6772.94
902.845	6706.28
903.159	6664.92
903.473	6680.06
903.787	6654.75
904.101	6611.37
904.415	6642.55
904.729	6591.03
905.042	6589.22
905.356	6544.47
905.67	6525.94
905.984	6584.7
906.297	6530.46
906.611	6432.61
906.924	6437.58
907.237	6399.39
907.551	6395.55
907.864	6392.84
908.177	6379.51
908.491	6314.65
908.804	6314.42
909.117	6281.43
909.43	6239.62
909.743	6223.13
910.056	6213.41
910.368	6210.47
910.681	6149.68
910.994	6113.3
911.307	6073.3
911.619	6093.19
911.932	6115.33
912.244	6034.43
912.557	6019.06
912.869	5963.02
913.181	5958.5
913.494	5925.28
913.806	5897.26
914.118	5969.35
914.43	5831.5
914.742	5892.51
915.054	5870.82
915.366	5783.59
915.678	5713.76
915.99	5707.66
916.302	5680.99
916.613	5718.51
916.925	5673.99
917.236	5690.26
917.548	5670.37
917.859	5640.54
918.171	5602.58
918.482	5606.42
918.794	5564.16
919.105	5542.69
919.416	5509.25
919.727	5475.35
920.038	5453.2
920.349	5419.53
920.66	5422.7
920.971	5397.16
921.282	5409.14
921.593	5352.19
921.903	5283.72
922.214	5332.53
922.525	5241.46
922.835	5266.99
923.146	5233.1
923.456	5208.01
923.767	5244.62
924.077	5237.84
924.387	5182.25
924.697	5114.68
925.008	5133.66
925.318	5100.9
925.628	5090.73
925.938	5090.05
926.248	4982.71
926.558	5003.72
926.867	5013.44
927.177	4937.74
927.487	4915.14
927.796	4941.13
928.106	4894.57
928.416	4933.9
928.725	4912.2
929.034	4824.75
929.344	4843.95
929.653	4832.2
929.962	4809.61
930.271	4781.58
930.581	4740.23
930.89	4719.44
931.199	4668.14
931.508	4689.61
931.817	4694.13
932.125	4647.8
932.434	4661.36
932.743	4624.53
933.051	4616.39
933.36	4559.89
933.669	4566.22
933.977	4516.96
934.286	4546.11
934.594	4528.03
934.902	4510.63
935.21	4426.11
935.519	4447.13
935.827	4430.18
936.135	4406.9
936.443	4366.68
936.751	4374.59
937.059	4382.95
937.367	4343.4
937.674	4359.67
937.982	4327.81
938.29	4302.5
938.597	4311.09
938.905	4243.29
939.213	4236.74
939.52	4217.53
939.827	4255.27
940.135	4188.83
940.442	4159.23
940.749	4167.81
941.056	4211.43
941.363	4132.33
941.67	4103.64
941.977	4105.67
942.284	4034.03
942.591	4059.34
942.898	4047.37
943.205	4052.11
943.511	4019.57
943.818	3961.27
944.125	3982.73
944.431	3942.28
944.738	3945.45
945.044	3933.02
945.35	3950.64
945.657	3878.56
945.963	3866.58
946.269	3879.01
946.575	3858.9
946.881	3829.29
947.187	3799.46
947.493	3817.31
947.799	3769.63
948.105	3787.94
948.41	3734.83
948.716	3712.23
949.022	3686.7
949.327	3739.35
949.633	3676.08
949.938	3645.79
950.244	3702.74
950.549	3634.72
950.854	3600.82
951.16	3593.82
951.465	3634.49
951.77	3595.63
952.075	3565.57
952.38	3532.35
952.685	3540.49
952.99	3504.55
953.294	3495.52
953.599	3466.14
953.904	3451.9
954.209	3438.34
954.513	3439.7
954.818	3425.46
955.122	3415.52
955.426	3414.84
955.731	3349.3
956.035	3343.43
956.339	3340.72
956.643	3352.69
956.948	3297.33
957.252	3326.48
957.556	3291.68
957.86	3275.63
958.163	3272.7
958.467	3245.58
958.771	3249.19
959.075	3225.92
959.378	3229.99
959.682	3201.51
959.985	3189.08
960.289	3164.68
960.592	3184.56
960.896	3199.93
961.199	3175.07
961.502	3177.78
961.805	3135.3
962.108	3050.1
962.411	3062.98
962.714	3084.68
963.017	3054.17
963.32	3027.28
963.623	3053.72
963.926	3017.34
964.228	2982.76
964.531	2978.24
964.833	2943.44
965.136	2959.71
965.438	3010.1
965.741	2979.37
966.043	2949.09
966.345	2950.9
966.648	2938.24
966.95	2926.94
967.252	2892.14
967.554	2861.18
967.856	2867.51
968.158	2853.05
968.46	2816.44
968.761	2838.36
969.063	2799.26
969.365	2802.88
969.666	2807.85
969.968	2799.26
970.269	2733.5
970.571	2748.87
970.872	2763.78
971.174	2732.82
971.475	2705.93
971.776	2740.51
972.077	2697.34
972.378	2690.56
972.679	2683.79
972.98	2689.43
973.281	2684.01
973.582	2675.88
973.883	2654.63
974.183	2608.31
974.484	2645.82
974.785	2602.88
975.085	2603.56
975.386	2590.23
975.686	2563.79
975.986	2551.59
976.287	2547.29
976.587	2502.32
976.887	2527.86
977.187	2515.2
977.487	2520.17
977.787	2510.68
978.087	2472.04
978.387	2502.55
978.687	2488.54
978.987	2469.33
979.286	2431.59
979.586	2420.74
979.885	2411.7
980.185	2385.49
980.484	2441.76
980.784	2385.04
981.083	2390.01
981.382	2366.51
981.682	2366.51
981.981	2318.37
982.28	2379.16
982.579	2348.65
982.878	2361.76
983.177	2334.19
983.475	2346.62
983.774	2275.89
984.073	2291.03
984.372	2244.7
984.67	2267.53
984.969	2277.69
985.267	2291.71
985.566	2229.79
985.864	2216.23
986.162	2262.78
986.461	2212.39
986.759	2234.76
987.057	2176.68
987.355	2178.71
987.653	2170.58
987.951	2163.57
988.249	2127.64
988.547	2142.33
988.844	2110.92
989.142	2167.19
989.44	2124.03
989.737	2077.25
990.035	2057.81
990.332	2084.71
990.63	2073.18
990.927	2052.84
991.224	2081.32
991.521	2060.07
991.819	2040.41
992.116	2061.88
992.413	2053.97
992.71	2025.05
993.006	2007.64
993.303	1980.75
993.6	1980.53
993.897	1983.69
994.193	1983.46
994.49	1964.48
994.787	1976.69
995.083	1950.25
995.379	1970.13
995.676	1920.87
995.972	1902.79
996.268	1905.95
996.565	1880.42
996.861	1894.88
997.157	1880.87
997.453	1840.64
997.749	1857.14
998.044	1856.01
998.34	1868.89
998.636	1843.36
998.932	1818.27
999.227	1811.27
999.523	1812.17
999.818	1785.5
1000.114	1821.89
1000.409	1762.45
1000.704	1789.57
1001	1780.76
1001.295	1745.96
1001.59	1779.85
1001.885	1745.05
1002.18	1734.66
1002.475	1717.71
1002.77	1700.99
1003.065	1705.73
1003.359	1726.97
1003.654	1675
1003.949	1696.01
1004.243	1679.07
1004.538	1652.63
1004.832	1671.38
1005.127	1630.25
1005.421	1649.69
1005.715	1631.61
1006.009	1620.54
1006.304	1631.61
1006.598	1609.46
1006.892	1617.37
1007.186	1586.19
1007.48	1579.41
1007.773	1564.27
1008.067	1557.94
1008.361	1556.36
1008.655	1529.24
1008.948	1504.61
1009.242	1528.56
1009.535	1480.88
1009.829	1515.45
1010.122	1502.35
1010.415	1476.13
1010.708	1500.77
1011.001	1465.74
1011.295	1474.33
1011.588	1470.94
1011.881	1444.5
1012.173	1448.34
1012.466	1448.56
1012.759	1461.44
1013.052	1453.76
1013.344	1405.4
1013.637	1417.38
1013.93	1389.36
1014.222	1372.18
1014.514	1375.8
1014.807	1365.63
1015.099	1348.23
1015.391	1359.3
1015.683	1323.37
1015.976	1343.93
1016.268	1324.5
1016.56	1338.51
1016.851	1326.53
1017.143	1287.21
1017.435	1307.78
1017.727	1311.39
1018.018	1285.18
1018.31	1282.01
1018.602	1271.85
1018.893	1252.41
1019.185	1263.71
1019.476	1240.89
1019.767	1253.31
1020.058	1212.19
1020.35	1242.92
1020.641	1225.29
1020.932	1209.7
1021.223	1219.87
1021.514	1188.46
1021.804	1180.55
1022.095	1199.08
1022.386	1169.25
1022.677	1176.71
1022.967	1177.84
1023.258	1166.54
1023.548	1149.36
1023.839	1162.24
1024.129	1157.95
1024.419	1134
1024.709	1122.92
1025	1110.95
1025.29	1129.93
1025.58	1114.56
1025.87	1093.32
1026.16	1090.38
1026.449	1103.04
1026.739	1094.67
1027.029	1071.85
1027.319	1037.73
1027.608	1029.37
1027.898	1045.41
1028.187	1051.29
1028.477	1041.57
1028.766	1028.69
1029.055	1020.1
1029.344	1025.3
1029.634	1044.28
1029.923	987.11
1030.212	1021.91
1030.501	985.07
1030.79	979.2
1031.078	993.21
1031.367	965.19
1031.656	963.83
1031.945	966.77
1032.233	964.73
1032.522	983.94
1032.81	963.15
1033.099	949.82
1033.387	935.36
1033.675	903.95
1033.963	904.4
1034.251	908.92
1034.54	911.4
1034.828	887.9
1035.116	908.69
1035.403	883.83
1035.691	915.47
1035.979	909.37
1036.267	881.57
1036.554	865.08
1036.842	870.27
1037.129	867.34
1037.417	877.73
1037.704	862.14
1037.992	833.21
1038.279	828.92
1038.566	839.99
1038.853	839.99
1039.14	839.99
