Data from cardboard_FLMS001491_073.txt Node
Date: Tue Feb 07 11:40:06 GMT 2017
User: dcchb
Spectrometer: FLMS00149
Trigger mode: 0
Integration Time (sec): 2.000000E-2
Scans to average: 10
Electric dark correction enabled: true
Nonlinearity correction enabled: false
Boxcar width: 0
XAxis mode: Wavelengths
Number of Pixels in Spectrum: 2048
>>>>>Begin Spectral Data<<<<<
341.393	2.19
341.776	2.19
342.16	2.19
342.543	-61.31
342.927	-64.25
343.31	-72.84
343.693	-86.17
344.077	-75.32
344.46	-61.54
344.843	-35.32
345.226	-12.95
345.61	-38.26
345.993	-24.93
346.376	11.68
346.759	11.68
347.142	23.43
347.525	24.11
347.908	56.88
348.291	75.86
348.674	87.38
349.057	116.31
349.44	138.68
349.823	142.75
350.206	148.4
350.588	212.58
350.971	229.53
351.354	238.12
351.737	246.25
352.119	265.46
352.502	281.05
352.884	276.31
353.267	294.61
353.65	278.57
354.032	304.55
354.414	290.32
354.797	351.56
355.179	292.35
355.562	328.28
355.944	305.01
356.326	327.38
356.709	334.61
357.091	310.2
357.473	342.52
357.855	355.85
358.238	347.04
358.62	333.71
359.002	336.19
359.384	361.28
359.766	333.93
360.148	329.41
360.53	339.36
360.912	337.32
361.294	328.51
361.676	324.44
362.057	320.37
362.439	341.16
362.821	335.74
363.203	338.45
363.584	335.06
363.966	316.53
364.348	327.83
364.729	304.55
365.111	323.31
365.493	322.63
365.874	302.75
366.256	304.78
366.637	320.37
367.019	299.58
367.4	314.05
367.781	296.42
368.163	328.06
368.544	306.14
368.925	313.59
369.306	313.14
369.688	314.72
370.069	307.04
370.45	300.94
370.831	309.75
371.212	328.73
371.593	320.15
371.974	324.89
372.355	320.37
372.736	313.59
373.117	334.38
373.498	322.41
373.879	321.28
374.26	304.78
374.641	314.27
375.021	325.12
375.402	340.03
375.783	320.37
376.163	330.99
376.544	333.25
376.925	307.72
377.305	327.38
377.686	322.41
378.066	326.93
378.447	328.51
378.827	326.02
379.208	326.93
379.588	307.49
379.968	315.85
380.349	327.15
380.729	327.15
381.109	356.98
381.489	331.9
381.87	339.36
382.25	344.1
382.63	335.74
383.01	328.73
383.39	353.37
383.77	354.04
384.15	350.2
384.53	361.73
384.91	344.55
385.29	363.99
385.67	353.14
386.049	360.37
386.429	320.82
386.809	363.31
387.189	362.18
387.568	344.1
387.948	338.9
388.328	329.86
388.707	362.86
389.087	373.7
389.466	349.07
389.846	383.2
390.225	360.37
390.605	376.87
390.984	366.93
391.363	356.08
391.743	378.22
392.122	378.68
392.501	360.15
392.881	368.73
393.26	392.91
393.639	378.22
394.018	361.73
394.397	377.09
394.776	372.35
395.155	388.17
395.534	377.55
395.913	389.07
396.292	393.82
396.671	378.22
397.05	391.33
397.429	386.13
397.808	406.7
398.186	400.14
398.565	380.48
398.944	411.67
399.323	386.59
399.701	404.44
400.08	401.5
400.458	421.84
400.837	408.28
401.215	392.91
401.594	417.09
401.972	422.29
402.351	398.56
402.729	418.22
403.107	415.51
403.486	425.68
403.864	427.71
404.242	400.6
404.62	398.11
404.999	407.15
405.377	435.85
405.755	429.07
406.133	417.32
406.511	419.35
406.889	438.79
407.267	448.96
407.645	446.25
408.023	451.22
408.401	454.61
408.779	437.66
409.156	468.62
409.534	455.74
409.912	470.43
410.29	456.19
410.667	466.36
411.045	469.97
411.422	476.08
411.8	470.65
412.178	484.66
412.555	466.58
412.933	491.44
413.31	497.09
413.687	509.52
414.065	522.85
414.442	476.75
414.819	498.45
415.197	504.77
415.574	509.97
415.951	515.17
416.328	524.66
416.705	504.32
417.082	531.21
417.46	521.05
417.837	532.8
418.214	551.33
418.591	542.74
418.967	524.21
419.344	528.96
419.721	524.44
420.098	566.24
420.475	537.32
420.852	549.29
421.228	542.51
421.605	554.04
421.982	557.88
422.358	558.11
422.735	586.35
423.111	571.67
423.488	586.35
423.864	587.48
424.241	569.18
424.617	594.04
424.994	589.29
425.37	612.79
425.746	598.56
426.123	615.28
426.499	582.96
426.875	595.39
427.251	627.94
427.627	615.51
428.003	606.47
428.379	634.71
428.756	653.92
429.132	642.4
429.507	644.88
429.883	636.52
430.259	658.22
430.635	657.99
431.011	658.44
431.387	669.74
431.763	686.47
432.138	679.69
432.514	681.04
432.89	679.46
433.265	723.75
433.641	707.26
434.016	691.66
434.392	707.71
434.767	705.22
435.143	713.36
435.518	740.47
435.894	763.07
436.269	728.95
436.644	753.58
437.02	753.58
437.395	734.83
437.77	772.79
438.145	766.91
438.52	748.61
438.895	792.9
439.271	772.79
439.646	790.87
440.021	811.89
440.395	793.35
440.77	797.87
441.145	823.86
441.52	830.64
441.895	843.97
442.27	820.47
442.645	822.51
443.019	839.23
443.394	851.66
443.769	855.05
444.143	846.23
444.518	849.62
444.892	865.67
445.267	862.51
445.641	873.35
446.016	856.4
446.39	878.55
446.764	881.71
447.139	903.41
447.513	888.72
447.887	918.78
448.262	902.28
448.636	926.91
449.01	915.61
449.384	918.32
449.758	892.11
450.132	947.02
450.506	955.84
450.88	949.28
451.254	933.69
451.628	975.04
452.002	979.11
452.376	949.51
452.75	982.95
453.123	967.59
453.497	967.36
453.871	1011.43
454.244	1025.44
454.618	1036.29
454.992	1026.34
455.365	1043.74
455.739	1057.08
456.112	1080.35
456.486	1082.84
456.859	1099.56
457.232	1096.17
457.606	1092.33
457.979	1132.33
458.352	1104.99
458.725	1118.32
459.099	1118.09
459.472	1153.35
459.845	1151.09
460.218	1163.51
460.591	1204.19
460.964	1200.8
461.337	1208.49
461.71	1244.64
462.083	1250.29
462.456	1269.27
462.829	1254.13
463.201	1262.04
463.574	1309.27
463.947	1314.02
464.32	1344.53
464.692	1327.35
465.065	1358.76
465.438	1329.39
465.81	1334.81
466.183	1373
466.555	1395.15
466.928	1432.66
467.3	1425.43
467.672	1440.57
468.045	1488.7
468.417	1484.64
468.789	1480.12
469.161	1502.94
469.534	1544.3
469.906	1547.91
470.278	1552.43
470.65	1590.4
471.022	1591.07
471.394	1626.33
471.766	1646.89
472.138	1677.17
472.51	1695.7
472.882	1717.62
473.253	1757.4
473.625	1748.13
473.997	1790.62
474.369	1826.32
474.74	1836.72
475.112	1862.03
475.484	1882.14
475.855	1893.66
476.227	1911.97
476.598	1973.44
476.97	1967.34
477.341	2006.2
477.713	2063.83
478.084	2046.66
478.455	2106.09
478.827	2149.7
479.198	2183.83
479.569	2232.19
479.94	2251.4
480.311	2283.26
480.682	2312.64
481.053	2344.27
481.424	2386.76
481.795	2417.72
482.166	2469.47
482.537	2513.31
482.908	2554.21
483.279	2557.83
483.65	2634.89
484.021	2646.87
484.391	2657.94
484.762	2714.21
485.133	2754.43
485.503	2783.59
485.874	2848.89
486.244	2877.14
486.615	2934.32
486.985	2979.96
487.356	3023.58
487.726	3025.16
488.097	3145.38
488.467	3168.43
488.837	3174.31
489.207	3292.05
489.578	3321.2
489.948	3291.59
490.318	3331.14
490.688	3370.01
491.058	3445.94
491.428	3473.74
491.798	3497.01
492.168	3598.25
492.538	3631.02
492.908	3692.49
493.278	3729.32
493.648	3702.2
494.017	3818.36
494.387	3809.09
494.757	3843.9
495.126	3914.63
495.496	3929.54
495.866	3950.33
496.235	4000.95
496.605	4063.1
496.974	4072.36
497.344	4137.22
497.713	4181.29
498.082	4223.55
498.452	4251.12
498.821	4328.18
499.19	4285.01
499.559	4351
499.928	4380.15
500.298	4442.98
500.667	4497.66
501.036	4454.05
501.405	4538.34
501.774	4590.09
502.143	4640.26
502.512	4659.69
502.88	4734.27
503.249	4724.1
503.618	4773.14
503.987	4802.06
504.356	4859.69
504.724	4891.55
505.093	4898.11
505.462	4941.72
505.83	4984.66
506.199	5036.63
506.567	5106.91
506.936	5093.81
507.304	5161.6
507.672	5195.95
508.041	5261.49
508.409	5350.3
508.777	5361.6
509.145	5403.63
509.514	5428.26
509.882	5504.42
510.25	5544.42
510.618	5591.65
510.986	5632.55
511.354	5687.01
511.722	5758.65
512.09	5836.39
512.458	5833.22
512.826	5896.5
513.193	5931.98
513.561	5964.97
513.929	6064.63
514.297	6044.06
514.664	6204.06
515.032	6219.43
515.4	6269.14
515.767	6291.52
516.135	6377.39
516.502	6399.76
516.869	6472.98
517.237	6520.44
517.604	6553.88
517.972	6610.15
518.339	6672.3
518.706	6739.64
519.073	6810.6
519.44	6820.09
519.808	6947.09
520.175	6958.62
520.542	7127.88
520.909	7140.31
521.276	7101.66
521.643	7260.76
522.009	7285.39
522.376	7364.03
522.743	7421.88
523.11	7460.52
523.477	7530.35
523.843	7645.83
524.21	7797.69
524.577	7837.69
524.943	7933.73
525.31	7944.13
525.676	8059.15
526.043	8192.71
526.409	8155.87
526.776	8327.17
527.142	8331.01
527.508	8410.33
527.874	8531.91
528.241	8578.69
528.607	8653.04
528.973	8733.26
529.339	8712.02
529.705	8836.99
530.071	8911.56
530.437	9006.7
530.803	9083.98
531.169	9117.43
531.535	9107.26
531.901	9239.46
532.267	9294.37
532.632	9373.92
532.998	9491.88
533.364	9520.81
533.73	9495.95
534.095	9704.76
534.461	9699.56
534.826	9783.4
535.192	9821.82
535.557	9891.87
535.923	9964.64
536.288	10040.57
536.653	10114.24
537.019	10118.99
537.384	10173.45
537.749	10242.15
538.114	10327.34
538.479	10384.52
538.845	10420.9
539.21	10407.34
539.575	10532.99
539.94	10587.45
540.305	10631.97
540.67	10765.97
541.034	10792.41
541.399	10875.35
541.764	10907.89
542.129	10993.76
542.494	10946.08
542.858	11038.51
543.223	11136.59
543.587	11131.84
543.952	11215.68
544.316	11271.27
544.681	11309.24
545.045	11419.74
545.41	11462.9
545.774	11508.55
546.138	11545.61
546.503	11645.95
546.867	11735.21
547.231	11703.8
547.595	11834.65
547.959	11944.93
548.324	11953.74
548.688	11963.91
549.052	12083.23
549.416	12161.42
549.779	12100.18
550.143	12252.26
550.507	12335.88
550.871	12336.55
551.235	12445.93
551.599	12537.68
551.962	12552.59
552.326	12602.31
552.689	12689.77
553.053	12734.06
553.417	12822.87
553.78	13026.71
554.143	12926.14
554.507	13106.25
554.87	13139.47
555.234	13286.13
555.597	13201.84
555.96	13295.17
556.323	13351.67
556.686	13474.15
557.05	13617.88
557.413	13682.28
557.776	13704.88
558.139	13900.81
558.502	13796.4
558.865	13927.02
559.228	14045.66
559.59	14100.35
559.953	14166.11
560.316	14456.27
560.679	14365.65
561.041	14500.34
561.404	14605.42
561.767	14592.54
562.129	14622.6
562.492	14843.61
562.854	14906.2
563.217	14895.36
563.579	15029.14
563.941	15123.6
564.304	15186.65
564.666	15352.75
565.028	15342.58
565.39	15397.94
565.753	15510.03
566.115	15646.3
566.477	15703.92
566.839	15823.24
567.201	15931.71
567.563	15877.93
567.925	16119.51
568.287	16140.07
568.648	16162.44
569.01	16326.73
569.372	16338.71
569.734	16387.07
570.095	16552.71
570.457	16499.61
570.819	16635.65
571.18	16704.12
571.542	16790.45
571.903	16818.24
572.265	17008.3
572.626	17092.59
572.987	17045.36
573.349	17238.35
573.71	17179.82
574.071	17293.71
574.432	17372.35
574.794	17585.23
575.155	17439.92
575.516	17538.68
575.877	17702.06
576.238	17707.26
576.599	17797.88
576.96	17796.98
577.32	17867.03
577.681	17942.28
578.042	17942.73
578.403	18021.83
578.763	18072
579.124	18212.11
579.485	18271.99
579.845	18244.2
580.206	18365.77
580.566	18339.33
580.927	18386.34
581.287	18543.4
581.648	18427.24
582.008	18629.95
582.368	18524.19
582.728	18569.16
583.089	18621.81
583.449	18628.82
583.809	18687.8
584.169	18805.76
584.529	18783.62
584.889	18825.88
585.249	18758.76
585.609	18763.73
585.969	18999.2
586.329	18969.37
586.688	18875.14
587.048	18964.18
587.408	19071.52
587.768	19045.98
588.127	18988.13
588.487	19049.6
588.846	19273.09
589.206	19170.72
589.565	19158.3
589.925	19275.13
590.284	19288.91
590.643	19375.92
591.003	19268.8
591.362	19519.42
591.721	19414.11
592.08	19496.14
592.44	19487.78
592.799	19566.87
593.158	19432.86
593.517	19445.97
593.876	19513.09
594.235	19664.27
594.593	19558.29
594.952	19624.72
595.311	19628.57
595.67	19647.1
596.029	19869.92
596.387	19819.97
596.746	19860.65
597.104	19839.18
597.463	19870.14
597.822	20044.6
598.18	19864.72
598.538	19959.18
598.897	20028.1
599.255	19872.18
599.613	20266.97
599.972	20020.42
600.33	20152.85
600.688	20161.43
601.046	20248.21
601.404	20376.34
601.762	20217.48
602.12	20495.44
602.478	20485.27
602.836	20435.78
603.194	20334.54
603.552	20440.52
603.91	20388.09
604.268	20524.14
604.625	20487.98
604.983	20688.42
605.341	20459.73
605.698	20650.01
606.056	20714.86
606.413	20697.46
606.771	20765.49
607.128	20834.18
607.485	20683
607.843	20782.89
608.2	20896.33
608.557	20975.2
608.914	20856.1
609.272	21014.07
609.629	21117.34
609.986	21234.85
610.343	21114.18
610.7	21305.36
611.057	21158.92
611.414	21211.8
611.771	21176.77
612.127	21281.18
612.484	21393.49
612.841	21438.46
613.198	21245.02
613.554	21353.49
613.911	21592.58
614.267	21572.92
614.624	21547.39
614.98	21628.51
615.337	21712.58
615.693	21742.63
616.05	21762.97
616.406	21824.89
616.762	21785.8
617.118	21866.93
617.475	21809.53
617.831	21865.34
618.187	21985.79
618.543	21943.08
618.899	22021.27
619.255	22030.76
619.611	21960.93
619.967	22151.66
620.323	22201.61
620.678	22052
621.034	22094.94
621.39	22137.2
621.746	22100.37
622.101	22251.55
622.457	22148.27
622.812	22266.91
623.168	22450.19
623.523	22362.05
623.879	22504.65
624.234	22268.27
624.589	22321.6
624.945	22412.67
625.3	22408.61
625.655	22434.82
626.01	22362.96
626.365	22510.07
626.72	22551.43
627.075	22420.13
627.43	22409.28
627.785	22412.9
628.14	22483.63
628.495	22602.27
628.85	22508.26
629.205	22477.08
629.559	22566.34
629.914	22382.17
630.269	22496.06
630.623	22428.27
630.978	22418.32
631.332	22610.18
631.687	22582.16
632.041	22504.2
632.396	22553.91
632.75	22471.65
633.104	22529.51
633.459	22484.76
633.813	22439.34
634.167	22397.53
634.521	22508.49
634.875	22541.26
635.229	22428.94
635.583	22331.09
635.937	22470.75
636.291	22442.96
636.645	22396.4
636.999	22352.79
637.352	22359.12
637.706	22178.56
638.06	22351.66
638.413	22316.63
638.767	22263.07
639.121	22216.75
639.474	22184.66
639.828	22225.11
640.181	22233.92
640.534	22333.81
640.888	22165
641.241	22059.69
641.594	22148.05
641.947	22155.05
642.301	22143.53
642.654	22256.97
643.007	22184.2
643.36	22249.29
643.713	22221.04
644.066	22361.15
644.419	22218.1
644.771	21925.91
645.124	21894.04
645.477	21716.65
645.83	21659.92
646.182	21627.61
646.535	21522.75
646.888	21633.71
647.24	21424.68
647.593	21595.97
647.945	21579.25
648.298	21532.7
648.65	21451.34
649.002	21370.67
649.355	21661.51
649.707	21484.79
650.059	21652.69
650.411	21878
650.763	21906.7
651.115	22060.59
651.467	21979.46
651.819	22082.96
652.171	22075.96
652.523	22010.88
652.875	21877.32
653.227	21921.16
653.578	22109.18
653.93	22074.38
654.282	21936.75
654.633	21752.8
654.985	21858.11
655.337	21858.56
655.688	22081.61
656.039	22039.35
656.391	21899.69
656.742	21870.54
657.094	21855.4
657.445	21868.05
657.796	21894.72
658.147	21934.04
658.498	21957.77
658.849	21985.79
659.2	21974.04
659.551	21845
659.902	21976.07
660.253	22035.06
660.604	21946.24
660.955	21885.46
661.306	21927.49
661.656	21998.67
662.007	21941.5
662.358	22011.1
662.708	22044.55
663.059	21926.36
663.409	21791.45
663.76	22037.99
664.11	21981.95
664.461	22048.39
664.811	21957.09
665.161	21945.34
665.511	21988.05
665.862	22028.5
666.212	22047.71
666.562	22045
666.912	21886.36
667.262	22071.67
667.612	22079.8
667.962	22007.71
668.312	22011.78
668.662	22099.69
669.011	22148.27
669.361	22109.4
669.711	22070.08
670.06	22033.02
670.41	22042.74
670.76	21969.07
671.109	22087.71
671.459	22029.63
671.808	21967.94
672.157	22055.39
672.507	21984.21
672.856	21967.04
673.205	21963.19
673.554	22108.5
673.904	21919.35
674.253	22121.16
674.602	21952.8
674.951	21666.48
675.3	21577.89
675.649	21945.57
675.998	21960.48
676.346	21873.03
676.695	22030.76
677.044	21736.98
677.393	21998
677.741	21936.75
678.09	21881.39
678.438	21845.23
678.787	21851.33
679.135	21898.34
679.484	21823.99
679.832	21947.83
680.181	21684.33
680.529	21763.2
680.877	21746.48
681.225	21638
681.573	21820.37
681.922	21666.25
682.27	21673.48
682.618	21589.87
682.966	21592.36
683.314	21697.21
683.661	21633.26
684.009	21410.67
684.357	21436.65
684.705	21489.53
685.053	21542.87
685.4	21482.98
685.748	21438.46
686.095	21403.89
686.443	21421.51
686.79	21322.76
687.138	21259.26
687.485	21343.55
687.832	21249.54
688.18	21322.31
688.527	21215.19
688.874	21137.9
689.221	21165.02
689.568	21061.97
689.915	20977.46
690.262	21045.93
690.609	20803
690.956	20898.36
691.303	20944.24
691.65	20700.63
691.997	20828.31
692.344	20817.69
692.69	20712.15
693.037	20656.56
693.383	20617.47
693.73	20643
694.077	20471.48
694.423	20517.13
694.769	20453.85
695.116	20354.2
695.462	20373.86
695.808	20293.63
696.155	20242.33
696.501	20223.8
696.847	20222.45
697.193	20079.18
697.539	20206.63
697.885	20031.95
698.231	19876.69
698.577	20032.62
698.923	19973.42
699.269	19874.21
699.614	19831.05
699.96	19774.1
700.306	19759.41
700.651	19631.28
700.997	19637.15
701.342	19714.44
701.688	19612.07
702.033	19525.52
702.379	19534.78
702.724	19560.55
703.069	19462.24
703.415	19244.62
703.76	19269.93
704.105	19295.92
704.45	19259.08
704.795	19118.75
705.14	19092.99
705.485	19104.96
705.83	19018.86
706.175	19091.63
706.52	18941.8
706.865	18838.3
707.209	18990.39
707.554	18882.82
707.899	18893.67
708.243	18745.88
708.588	18797.85
708.932	18672.43
709.277	18686.9
709.621	18703.84
709.966	18506.56
710.31	18647.35
710.654	18361.71
710.998	18475.15
711.342	18522.15
711.687	18423.63
712.031	18416.85
712.375	18271.09
712.719	18398.77
713.063	18365.32
713.407	18376.62
713.75	18291.2
714.094	18255.04
714.438	18177.53
714.782	18162.84
715.125	18098.89
715.469	18201.03
715.812	18018.66
716.156	18037.2
716.499	18074.48
716.843	17994.03
717.186	17860.02
717.53	18090.53
717.873	18008.04
718.216	17937.76
718.559	17875.17
718.902	17740.71
719.246	17811.66
719.589	17813.02
719.932	17710.2
720.275	17697.77
720.617	17649.86
720.96	17709.75
721.303	17637.21
721.646	17733.93
721.989	17616.64
722.331	17686.02
722.674	17689.86
723.016	17606.02
723.359	17601.05
723.701	17576.87
724.044	17494.38
724.386	17458.45
724.729	17515.63
725.071	17466.14
725.413	17455.97
725.755	17509.75
726.097	17486.93
726.439	17298.46
726.782	17360.15
727.124	17471.56
727.465	17236.09
727.807	17402.18
728.149	17281.96
728.491	17214.17
728.833	17332.58
729.175	17276.99
729.516	17231.79
729.858	17267.5
730.199	17276.31
730.541	17183.66
730.882	17249.42
731.224	17200.16
731.565	17082.19
731.906	17168.74
732.248	17098.69
732.589	17148.86
732.93	17021.85
733.271	17107.95
733.612	17094.4
733.953	17138.46
734.294	17014.85
734.635	17035.64
734.976	17128.74
735.317	16974.62
735.658	16959.94
735.999	16988.41
736.339	16968.3
736.68	17008.97
737.021	16886.94
737.361	16954.74
737.702	16916.55
738.042	16808.08
738.383	16846.27
738.723	16994.74
739.063	16843.33
739.404	16877.68
739.744	16787.28
740.084	16804.46
740.424	16838.58
740.764	16797.68
741.104	16898.47
741.444	16759.04
741.784	16712.03
742.124	16769.88
742.464	16784.57
742.804	16725.14
743.143	16766.04
743.483	16749.77
743.823	16661.41
744.162	16608.76
744.502	16691.02
744.841	16572.37
745.181	16710.45
745.52	16579.38
745.86	16613.5
746.199	16584.58
746.538	16695.31
746.877	16591.58
747.216	16656.89
747.556	16582.77
747.895	16666.61
748.234	16651.47
748.573	16518.14
748.911	16539.38
749.25	16430.68
749.589	16464.58
749.928	16599.72
750.267	16501.87
750.605	16411.25
750.944	16485.15
751.283	16445.82
751.621	16424.58
751.96	16377.58
752.298	16290.35
752.636	16330.12
752.975	16334.64
753.313	16207.64
753.651	16410.8
753.989	16245.38
754.327	16242.67
754.666	16185.04
755.004	16296.68
755.342	16307.52
755.679	16212.16
756.017	16059.85
756.355	16161.31
756.693	16105.72
757.031	16157.7
757.368	16107.53
757.706	16005.38
758.044	16072.5
758.381	16040.64
758.719	15965.39
759.056	15963.35
759.394	15936.01
759.731	15879.51
760.068	15758.84
760.405	15780.53
760.743	15702.79
761.08	15719.74
761.417	15671.38
761.754	15707.09
762.091	15589.12
762.428	15730.59
762.765	15546.64
763.102	15513.42
763.438	15531.95
763.775	15431.84
764.112	15395.23
764.449	15520.43
764.785	15316.81
765.122	15384.61
765.458	15255.57
765.795	15211.51
766.131	15139.87
766.467	15152.53
766.804	15163.82
767.14	15046.54
767.476	15051.29
767.812	14962.93
768.148	15087.22
768.485	14891.74
768.821	14852.87
769.157	14939.2
769.492	14843.61
769.828	14817.84
770.164	14631.18
770.5	14602.94
770.836	14655.82
771.171	14535.82
771.507	14511.19
771.842	14416.27
772.178	14461.92
772.513	14370.17
772.849	14448.14
773.184	14337.86
773.519	14321.81
773.855	14275.49
774.19	14234.13
774.525	14157.75
774.86	14069.84
775.195	14166.79
775.53	14200.01
775.865	14053.12
776.2	13937.64
776.535	13903.74
776.87	13865.78
777.205	13832.33
777.539	13766.8
777.874	13882.05
778.209	13644.32
778.543	13614.26
778.878	13643.64
779.212	13561.83
779.547	13505.11
779.881	13500.82
780.215	13418.33
780.55	13412.91
780.884	13312.8
781.218	13350.31
781.552	13322.97
781.886	13288.39
782.22	13212.92
782.554	13116.65
782.888	13019.25
783.222	13038
783.556	12933.15
783.889	13023.32
784.223	12877.33
784.557	12887.05
784.89	12835.07
785.224	12792.59
785.557	12712.59
785.891	12711.01
786.224	12729.54
786.558	12668.97
786.891	12589.88
787.224	12591.01
787.557	12494.97
787.891	12486.61
788.224	12450
788.557	12460.62
788.89	12381.3
789.223	12418.81
789.556	12332.94
789.888	12279.83
790.221	12215.65
790.554	12160.74
790.887	12118.25
791.219	12091.14
791.552	12117.12
791.884	12027.41
792.217	12056.56
792.549	11945.38
792.882	11837.13
793.214	11847.75
793.546	11872.61
793.879	11780.86
794.211	11699.28
794.543	11795.78
794.875	11728.66
795.207	11720.75
795.539	11606.63
795.871	11646.4
796.203	11515.78
796.535	11545.61
796.867	11538.61
797.198	11528.21
797.53	11453.64
797.862	11389.23
798.193	11448.22
798.525	11347.43
798.856	11361.89
799.188	11272.63
799.519	11129.13
799.85	11170.03
800.182	11160.54
800.513	11131.16
800.844	11055.23
801.175	11123.7
801.506	11086.64
801.837	11010.94
802.168	11087.55
802.499	10961.9
802.83	10975.01
803.161	10897.5
803.491	10884.61
803.822	10845.52
804.153	10783.83
804.483	10785.18
804.814	10767.56
805.145	10735.92
805.475	10673.77
805.805	10680.55
806.136	10763.49
806.466	10637.84
806.796	10635.81
807.126	10552.42
807.457	10549.48
807.787	10576.83
808.117	10508.35
808.447	10437.17
808.777	10492.31
809.107	10494.79
809.436	10416.6
809.766	10444.63
810.096	10408.7
810.426	10329.15
810.755	10414.8
811.085	10297.51
811.414	10319.66
811.744	10212.77
812.073	10185.42
812.403	10226.33
812.732	10138.42
813.061	10209.38
813.39	10095.26
813.719	10097.29
814.049	10177.97
814.378	10141.81
814.707	9998.31
815.036	10076.95
815.365	10020.46
815.693	9937.75
816.022	9947.92
816.351	9931.65
816.68	9829.28
817.008	9902.04
817.337	9820.24
817.665	9766.45
817.994	9826.79
818.322	9790.63
818.651	9757.64
818.979	9733.68
819.307	9750.41
819.636	9740.24
819.964	9652.1
820.292	9657.75
820.62	9625.66
820.948	9668.15
821.276	9739.79
821.604	9637.87
821.932	9656.4
822.259	9695.49
822.587	9659.34
822.915	9664.08
823.243	9700.92
823.57	9612.33
823.898	9660.01
824.225	9577.98
824.553	9548.6
824.88	9636.06
825.207	9651.65
825.535	9700.01
825.862	9661.14
826.189	9634.25
826.516	9656.4
826.843	9692.78
827.17	9717.64
827.497	9691.2
827.824	9687.81
828.151	9690.52
828.478	9623.63
828.805	9712.44
829.131	9700.24
829.458	9667.7
829.785	9611.88
830.111	9677.64
830.438	9646.46
830.764	9633.8
831.09	9685.78
831.417	9601.71
831.743	9675.83
832.069	9685.78
832.395	9688.49
832.722	9699.34
833.048	9620.02
833.374	9660.24
833.7	9635.38
834.026	9594.03
834.351	9669.28
834.677	9581.37
835.003	9653.69
835.329	9651.88
835.654	9640.81
835.98	9498.89
836.306	9549.51
836.631	9533.24
836.956	9624.99
837.282	9573.24
837.607	9520.81
837.932	9475.84
838.258	9528.49
838.583	9479.68
838.908	9501.83
839.233	9486.46
839.558	9444.43
839.883	9415.95
840.208	9376.41
840.533	9384.99
840.858	9379.57
841.182	9446.46
841.507	9414.6
841.832	9320.36
842.156	9342.28
842.481	9361.49
842.805	9311.77
843.13	9233.58
843.454	9266.13
843.778	9199.46
844.103	9203.08
844.427	9126.92
844.751	9174.83
845.075	9153.36
845.399	9175.06
845.723	9058.9
846.047	9080.82
846.371	9055.74
846.695	9072.01
847.019	8927.38
847.343	8917.21
847.666	8867.94
847.99	8847.15
848.313	8883.54
848.637	8815.52
848.96	8776.42
849.284	8782.98
849.607	8749.98
849.931	8686.03
850.254	8628.4
850.577	8623.21
850.9	8502.76
851.223	8547.05
851.546	8554.05
851.869	8436.32
852.192	8518.8
852.515	8410.1
852.838	8390.67
853.161	8340.05
853.483	8333.5
853.806	8356.09
854.129	8302.08
854.451	8257.34
854.774	8188.64
855.096	8177.79
855.419	8185.02
855.741	8201.07
856.063	8080.17
856.385	8098.7
856.708	8106.61
857.03	8090.34
857.352	8018.02
857.674	8037.68
857.996	8014.63
858.318	7914.98
858.64	7974.18
858.961	7978.7
859.283	7917.01
859.605	7799.5
859.926	7900.96
860.248	7869.1
860.57	7786.39
860.891	7869.55
861.212	7751.82
861.534	7781.42
861.855	7812.61
862.176	7822.77
862.498	7755.88
862.819	7768.76
863.14	7718.82
863.461	7708.43
863.782	7635.66
864.103	7690.12
864.424	7615.55
864.745	7705.04
865.065	7610.58
865.386	7640.18
865.707	7608.32
866.027	7633.18
866.348	7662.55
866.668	7586.17
866.989	7514.08
867.309	7476.12
867.63	7562.44
867.95	7534.19
868.27	7526.06
868.59	7519.05
868.91	7478.38
869.23	7493.74
869.55	7441.54
869.87	7477.92
870.19	7455.78
870.51	7437.7
870.83	7516.57
871.15	7469.56
871.469	7378.27
871.789	7458.26
872.109	7458.04
872.428	7375.1
872.748	7352.73
873.067	7292.17
873.386	7430.24
873.706	7411.03
874.025	7312.28
874.344	7312.28
874.663	7286.97
874.982	7253.07
875.301	7298.72
875.62	7270.02
875.939	7282.45
876.258	7234.54
876.577	7207.42
876.896	7250.13
877.214	7213.53
877.533	7193.41
877.852	7196.12
878.17	7195.67
878.489	7154.54
878.807	7237.03
879.125	7169.01
879.444	7128.56
879.762	7177.14
880.08	7152.51
880.398	7098.73
880.716	7091.49
881.034	7083.13
881.352	7063.02
881.67	7006.75
881.988	7090.14
882.306	7058.05
882.624	6959.29
882.941	7034.55
883.259	6998.39
883.577	6932.18
883.894	6903.25
884.212	6874.32
884.529	6961.78
884.846	6911.84
885.164	6881.1
885.481	6925.62
885.798	6898.73
886.115	6830.26
886.432	6876.58
886.75	6850.82
887.067	6812.41
887.383	6831.61
887.7	6771.73
888.017	6769.02
888.334	6723.59
888.651	6752.75
888.967	6715.69
889.284	6693.76
889.6	6670.26
889.917	6663.93
890.233	6650.83
890.55	6616.03
890.866	6614.44
891.182	6610.38
891.498	6591.85
891.815	6537.38
892.131	6557.72
892.447	6525.18
892.763	6448.8
893.079	6540.77
893.395	6441.79
893.71	6518.4
894.026	6454
894.342	6472.98
894.657	6395.47
894.973	6383.72
895.289	6355.24
895.604	6334
895.92	6273.44
896.235	6324.51
896.55	6302.14
896.865	6321.57
897.181	6214.23
897.496	6270.72
897.811	6233.44
898.126	6199.09
898.441	6181.01
898.756	6202.25
899.071	6099.2
899.386	6125.87
899.7	6096.72
900.015	6064.85
900.33	5997.96
900.644	6000.45
900.959	6056.49
901.273	6005.42
901.588	5942.15
901.902	5945.99
902.216	5955.03
902.531	5882.94
902.845	5881.58
903.159	5828.7
903.473	5828.93
903.787	5813.56
904.101	5779.89
904.415	5829.38
904.729	5771.3
905.042	5734.47
905.356	5758.42
905.67	5761.36
905.984	5646.56
906.297	5678.2
906.611	5656.73
906.924	5659.67
907.237	5630.29
907.551	5628.48
907.864	5602.49
908.177	5552.33
908.491	5562.95
908.804	5536.96
909.117	5536.51
909.43	5432.78
909.743	5451.99
910.056	5420.8
910.368	5393.69
910.681	5406.79
910.994	5355.95
911.307	5367.25
911.619	5292.9
911.932	5306.46
912.244	5269.17
912.557	5242.5
912.869	5223.75
913.181	5232.33
913.494	5221.49
913.806	5148.04
914.118	5177.42
914.43	5145.56
914.742	5086.8
915.054	5066.46
915.366	5085.22
915.678	5038.67
915.99	5002.51
916.302	5006.13
916.613	4995.28
916.925	4999.35
917.236	4983.3
917.548	4968.61
917.859	4942.62
918.171	4930.87
918.482	4871.89
918.794	4908.73
919.105	4857.88
919.416	4844.1
919.727	4803.64
920.038	4801.61
920.349	4735.17
920.66	4765.45
920.971	4755.51
921.282	4720.03
921.593	4701.73
921.903	4683.2
922.214	4663.31
922.525	4663.31
922.835	4628.96
923.146	4579.92
923.456	4546.02
923.767	4542.41
924.077	4544.89
924.387	4546.02
924.697	4511.9
925.008	4513.93
925.318	4489.98
925.628	4485.91
925.938	4422.86
926.248	4422.41
926.558	4416.08
926.867	4374.96
927.177	4348.52
927.487	4339.7
927.796	4291.12
928.106	4318.46
928.416	4272.59
928.725	4280.27
929.034	4301.74
929.344	4282.98
929.653	4240.95
929.962	4237.56
930.271	4137.22
930.581	4199.14
930.89	4209.54
931.199	4122.98
931.508	4151.23
931.817	4129.09
932.125	4090.44
932.434	4044.57
932.743	4061.74
933.051	4090.67
933.36	4053.16
933.669	4003.21
933.977	3957.34
934.286	4005.47
934.594	4007.96
934.902	3930.22
935.21	3944.23
935.519	3915.08
935.827	3905.59
936.135	3885.7
936.443	3863.56
936.751	3847.29
937.059	3847.96
937.367	3866.49
937.674	3823.33
937.982	3825.37
938.29	3746.05
938.597	3762.77
938.905	3712.6
939.213	3674.64
939.52	3708.98
939.827	3710.57
940.135	3671.02
940.442	3661.3
940.749	3689.1
941.056	3638.7
941.363	3631.92
941.67	3619.04
941.977	3640.06
942.284	3582.21
942.591	3576.33
942.898	3555.54
943.205	3534.98
943.511	3513.28
943.818	3553.28
944.125	3455.21
944.431	3502.89
944.738	3467.18
945.044	3456.11
945.35	3446.84
945.657	3410.01
945.963	3423.34
946.269	3411.14
946.575	3408.65
946.881	3359.16
947.187	3344.02
947.493	3367.98
947.799	3363.91
948.105	3341.08
948.41	3261.09
948.716	3292.27
949.022	3280.07
949.327	3267.19
949.633	3229
949.938	3247.3
950.244	3220.18
950.549	3192.84
950.854	3178.6
951.16	3190.58
951.465	3177.25
951.77	3168.89
952.075	3143.12
952.38	3135.67
952.685	3148.77
952.99	3111.03
953.294	3085.27
953.599	3085.72
953.904	3063.35
954.209	3033.3
954.513	3031.26
954.818	3033.97
955.122	3021.77
955.426	3016.8
955.731	2981.32
956.035	2967.08
956.339	2987.2
956.643	2907.42
956.948	2886.41
957.252	2905.84
957.556	2904.49
957.86	2916.01
958.163	2897.03
958.467	2865.84
958.771	2871.04
959.075	2852.96
959.378	2854.54
959.682	2852.51
959.985	2826.52
960.289	2828.78
960.592	2807.99
960.896	2782.46
961.199	2789.01
961.502	2786.07
961.805	2760.08
962.108	2760.76
962.411	2733.87
962.714	2732.74
963.017	2694.55
963.32	2702.68
963.623	2695.9
963.926	2679.41
964.228	2621.78
964.531	2659.29
964.833	2638.05
965.136	2641.67
965.438	2606.41
965.741	2622.23
966.043	2604.38
966.345	2586.75
966.648	2568.45
966.95	2594.89
967.252	2541.33
967.554	2540.88
967.856	2556.92
968.158	2521.45
968.46	2538.17
968.761	2505.17
969.063	2485.29
969.365	2499.3
969.666	2469.92
969.968	2479.64
970.269	2482.12
970.571	2451.84
970.872	2442.13
971.174	2420.88
971.475	2422.01
971.776	2380.66
972.077	2386.08
972.378	2388.79
972.679	2372.75
972.98	2359.19
973.281	2342.24
973.582	2366.19
973.883	2381.34
974.183	2327.78
974.484	2358.51
974.785	2297.5
975.085	2301.56
975.386	2299.53
975.686	2292.98
975.986	2274.9
976.287	2276.71
976.587	2258.85
976.887	2260.89
977.187	2250.04
977.487	2230.15
977.787	2210.94
978.087	2213.43
978.387	2231.06
978.687	2203.49
978.987	2180.21
979.286	2171.17
979.586	2170.27
979.885	2143.83
980.185	2175.24
980.484	2147.44
980.784	2146.99
981.083	2121.68
981.382	2102.47
981.682	2132.98
981.981	2116.48
982.28	2073.77
982.579	2095.47
982.878	2078.97
983.177	2055.92
983.475	2076.48
983.774	2038.07
984.073	2097.5
984.372	2025.19
984.67	1998.29
984.969	2003.27
985.267	2012.53
985.566	2019.76
985.864	2007.11
986.162	1998.97
986.461	1975.47
986.759	1945.41
987.057	1947.9
987.355	1937.28
987.653	1925.3
987.951	1947.45
988.249	1944.51
988.547	1905.87
988.844	1913.1
989.142	1864.97
989.44	1891.63
989.737	1905.87
990.035	1836.49
990.332	1885.53
990.63	1815.25
990.927	1860.67
991.224	1833.33
991.521	1817.28
991.819	1780
992.116	1795.59
992.413	1823.61
992.71	1809.37
993.006	1806.66
993.303	1821.35
993.6	1770.5
993.897	1755.36
994.193	1743.16
994.49	1743.84
994.787	1749.71
995.083	1750.62
995.379	1742.93
995.676	1735.7
995.972	1705.65
996.268	1701.35
996.565	1699.09
996.861	1705.2
997.157	1678.98
997.453	1674.91
997.749	1666.78
998.044	1647.34
998.34	1665.87
998.636	1655.48
998.932	1658.42
999.227	1612.32
999.523	1645.54
999.818	1603.73
1000.114	1608.7
1000.409	1578.19
1000.704	1589.72
1001	1589.27
1001.295	1584.97
1001.59	1592.66
1001.885	1547.69
1002.18	1554.92
1002.475	1550.62
1002.77	1526.44
1003.065	1531.41
1003.359	1510.62
1003.654	1541.58
1003.949	1530.74
1004.243	1479.44
1004.538	1506.56
1004.832	1493.9
1005.127	1474.47
1005.421	1488.7
1005.715	1434.92
1006.009	1463.17
1006.304	1465.88
1006.598	1468.14
1006.892	1442.38
1007.186	1438.31
1007.48	1417.52
1007.773	1421.59
1008.067	1395.6
1008.361	1398.08
1008.655	1394.24
1008.948	1356.96
1009.242	1378.2
1009.535	1366
1009.829	1331.87
1010.122	1351.76
1010.415	1349.95
1010.708	1373.68
1011.001	1342.27
1011.295	1333.68
1011.588	1297.75
1011.881	1306.56
1012.173	1294.81
1012.466	1309.95
1012.759	1255.49
1013.052	1290.74
1013.344	1277.41
1013.637	1279.22
1013.93	1243.51
1014.222	1276.51
1014.514	1277.64
1014.807	1246.68
1015.099	1231.54
1015.391	1248.26
1015.683	1242.61
1015.976	1227.02
1016.268	1229.73
1016.56	1196.73
1016.851	1195.38
1017.143	1192.21
1017.435	1163.97
1017.727	1175.27
1018.018	1179.33
1018.31	1154.48
1018.602	1172.55
1018.893	1163.51
1019.185	1139.11
1019.476	1124.65
1019.767	1140.46
1020.058	1127.13
1020.35	1132.55
1020.641	1105.66
1020.932	1118.54
1021.223	1098.43
1021.514	1078.77
1021.804	1090.75
1022.095	1078.55
1022.386	1064.08
1022.677	1071.31
1022.967	1047.13
1023.258	1053.24
1023.548	1036.06
1023.839	1039.45
1024.129	1048.49
1024.419	1012.33
1024.709	1009.39
1025	1023.41
1025.29	1036.96
1025.58	991.32
1025.87	1001.26
1026.16	999
1026.449	995.61
1026.739	983.41
1027.029	971.43
1027.319	962.84
1027.608	973.01
1027.898	947.25
1028.187	944.54
1028.477	942.05
1028.766	941.37
1029.055	904.99
1029.344	940.47
1029.634	908.61
1029.923	928.04
1030.212	914.48
1030.501	930.07
1030.79	909.28
1031.078	899.79
1031.367	892.56
1031.656	915.16
1031.945	891.88
1032.233	881.49
1032.522	863.86
1032.81	867.7
1033.099	857.31
1033.387	872.9
1033.675	877.19
1033.963	881.04
1034.251	860.02
1034.54	860.92
1034.828	828.38
1035.116	851.21
1035.403	822.51
1035.691	832
1035.979	821.15
1036.267	807.82
1036.554	794.94
1036.842	801.72
1037.129	806.24
1037.417	813.92
1037.704	799.23
1037.992	798.33
1038.279	780.93
1038.566	768.72
1038.853	768.72
1039.14	768.72
