Data from cardboard_FLMS001491_097.txt Node
Date: Tue Feb 07 11:40:26 GMT 2017
User: dcchb
Spectrometer: FLMS00149
Trigger mode: 0
Integration Time (sec): 2.000000E-2
Scans to average: 10
Electric dark correction enabled: true
Nonlinearity correction enabled: false
Boxcar width: 0
XAxis mode: Wavelengths
Number of Pixels in Spectrum: 2048
>>>>>Begin Spectral Data<<<<<
341.393	-31.54
341.776	-31.54
342.16	-31.54
342.543	-64.98
342.927	-70.41
343.31	-83.51
343.693	-65.89
344.077	-79.67
344.46	-39.67
344.843	-47.13
345.226	-30.18
345.61	-45.32
345.993	-4.87
346.376	1.23
346.759	5.52
347.142	19.53
347.525	38.74
347.908	66.54
348.291	70.38
348.674	97.5
349.057	96.82
349.44	133.43
349.823	169.13
350.206	176.14
350.588	187.66
350.971	212.07
351.354	226.99
351.737	251.17
352.119	250.49
352.502	280.54
352.884	260.43
353.267	302.69
353.65	304.95
354.032	289.58
354.414	296.36
354.797	320.77
355.179	326.64
355.562	322.8
355.944	344.5
356.326	335.01
356.709	356.93
357.091	334.55
357.473	345.85
357.855	356.02
358.238	347.43
358.62	368.68
359.002	339.98
359.384	348.11
359.766	336.59
360.148	340.65
360.53	321.45
360.912	357.38
361.294	341.11
361.676	333.42
362.057	334.1
362.439	344.27
362.821	344.95
363.203	335.91
363.584	339.07
363.966	336.14
364.348	306.31
364.729	342.46
365.111	330.26
365.493	319.19
365.874	331.39
366.256	324.16
366.637	324.84
367.019	310.83
367.4	341.11
367.781	314.44
368.163	320.54
368.544	337.04
368.925	327.32
369.306	331.39
369.688	309.24
370.069	328.9
370.45	315.34
370.831	325.97
371.212	325.74
371.593	309.24
371.974	309.02
372.355	334.78
372.736	328.45
373.117	327.55
373.498	306.08
373.879	327.55
374.26	297.72
374.641	313.54
375.021	314.44
375.402	330.71
375.783	331.62
376.163	319.19
376.544	349.69
376.925	336.81
377.305	347.43
377.686	336.81
378.066	348.79
378.447	338.4
378.827	335.23
379.208	324.61
379.588	330.94
379.968	347.43
380.349	357.38
380.729	337.72
381.109	351.95
381.489	342.24
381.87	349.24
382.25	319.19
382.63	360.32
383.01	347.43
383.39	350.82
383.77	353.08
384.15	349.92
384.53	358.73
384.91	368
385.29	355.57
385.67	348.34
386.049	361.45
386.429	360.54
386.809	358.51
387.189	386.76
387.568	394.44
387.948	378.62
388.328	366.64
388.707	386.3
389.087	363.03
389.466	353.08
389.846	393.99
390.225	353.31
390.605	389.02
390.984	387.89
391.363	401.44
391.743	377.94
392.122	391.05
392.501	379.98
392.881	401.67
393.26	388.79
393.639	363.25
394.018	374.78
394.397	394.89
394.776	410.03
395.155	402.12
395.534	401.44
395.913	405.51
396.292	408
396.671	406.19
397.05	401.9
397.429	393.53
397.808	410.03
398.186	410.48
398.565	420.65
398.944	407.09
399.323	432.86
399.701	410.26
400.08	423.82
400.458	418.62
400.837	420.65
401.215	408.45
401.594	429.01
401.972	433.53
402.351	430.14
402.729	424.72
403.107	425.17
403.486	456.81
403.864	438.28
404.242	435.34
404.62	458.39
404.999	444.61
405.377	443.93
405.755	461.56
406.133	445.06
406.511	480.09
406.889	449.35
407.267	468.11
407.645	460.43
408.023	477.83
408.401	449.8
408.779	482.12
409.156	488.67
409.534	467.88
409.912	479.63
410.29	483.93
410.667	513.53
411.045	492.52
411.422	516.47
411.8	510.37
412.178	524.38
412.555	512.85
412.933	514.66
413.31	527.99
413.687	512.63
414.065	550.14
414.442	558.28
414.819	526.19
415.197	530.71
415.574	538.84
415.951	562.57
416.328	561.89
416.705	547.66
417.082	561.89
417.46	547.88
417.837	567.32
418.214	554.89
418.591	587.88
418.967	568.67
419.344	598.28
419.721	572.29
420.098	602.57
420.475	584.26
420.852	570.93
421.228	579.29
421.605	587.65
421.982	603.25
422.358	619.52
422.735	603.92
423.111	615.22
423.488	607.99
423.864	629.23
424.241	624.49
424.617	617.48
424.994	623.13
425.37	637.6
425.746	641.89
426.123	623.59
426.499	662
426.875	643.02
427.251	659.52
427.627	678.95
428.003	680.53
428.379	681.66
428.756	696.58
429.132	716.92
429.507	696.35
429.883	683.7
430.259	707.2
430.635	727.76
431.011	721.89
431.387	739.29
431.763	741.55
432.138	734.09
432.514	751.04
432.89	751.72
433.265	782.23
433.641	785.16
434.016	757.14
434.392	771.15
434.767	788.33
435.143	784.49
435.518	812.96
435.894	804.82
436.269	817.25
436.644	839.4
437.02	811.83
437.395	846.4
437.77	873.07
438.145	854.09
438.52	854.54
438.895	850.47
439.271	864.48
439.646	894.54
440.021	896.57
440.395	880.53
440.77	885.5
441.145	906.97
441.52	940.87
441.895	900.64
442.27	930.24
442.645	901.09
443.019	938.38
443.394	940.41
443.769	947.64
444.143	923.69
444.518	954.42
444.892	941.32
445.267	954.88
445.641	951.71
446.016	970.69
446.39	985.16
446.764	989.9
447.139	977.25
447.513	1001.65
447.887	997.36
448.262	1000.3
448.636	1002.78
449.01	1020.19
449.384	1007.53
449.758	1027.19
450.132	1045.27
450.506	1053.86
450.88	1051.82
451.254	1096.34
451.628	1051.6
452.002	1070.35
452.376	1109.45
452.75	1094.31
453.123	1079.84
453.497	1139.5
453.871	1103.8
454.244	1120.07
454.618	1138.6
454.992	1142.89
455.365	1175.89
455.739	1205.26
456.112	1200.29
456.486	1194.64
456.859	1240.97
457.232	1195.77
457.606	1197.36
457.979	1228.99
458.352	1249.56
458.725	1287.52
459.099	1263.57
459.472	1308.09
459.845	1325.26
460.218	1322.55
460.591	1334.3
460.964	1347.18
461.337	1374.53
461.71	1376.56
462.083	1418.82
462.456	1431.02
462.829	1397.12
463.201	1411.36
463.574	1408.2
463.947	1480.06
464.32	1500.62
464.692	1494.07
465.065	1534.52
465.438	1520.96
465.81	1551.24
466.183	1584.46
466.555	1586.5
466.928	1590.34
467.3	1602.09
467.672	1632.37
468.045	1665.82
468.417	1656.78
468.789	1680.51
469.161	1733.61
469.534	1718.02
469.906	1732.71
470.278	1760.73
470.65	1793.5
471.022	1824.91
471.394	1868.75
471.766	1853.84
472.138	1880.05
472.51	1937.45
472.882	1961.18
473.253	1972.7
473.625	1979.26
473.997	2002.53
474.369	2040.5
474.74	2080.5
475.112	2096.09
475.484	2121.63
475.855	2190.1
476.227	2187.16
476.598	2238.23
476.97	2293.6
477.341	2284.33
477.713	2362.3
478.084	2343.31
478.455	2421.28
478.827	2469.19
479.198	2477.77
479.569	2525.23
479.94	2582.4
480.311	2586.7
480.682	2654.49
481.053	2660.59
481.424	2753.92
481.795	2765.45
482.166	2849.52
482.537	2870.53
482.908	2917.99
483.279	2977.2
483.65	3013.13
484.021	3062.84
484.391	3117.08
484.762	3151.2
485.133	3154.82
485.503	3185.1
485.874	3262.61
486.244	3319.33
486.615	3378.54
486.985	3396.39
487.356	3452.44
487.726	3564.3
488.097	3580.34
488.467	3619.89
488.837	3646.1
489.207	3729.27
489.578	3789.38
489.948	3775.59
490.318	3851.75
490.688	3857.17
491.058	3919.77
491.428	4003.38
491.798	4008.36
492.168	4123.61
492.538	4188.69
492.908	4230.27
493.278	4259.2
493.648	4225.75
494.017	4378.97
494.387	4393.66
494.757	4425.29
495.126	4498.96
495.496	4499.64
495.866	4588
496.235	4650.37
496.605	4701.67
496.974	4738.05
497.344	4769.01
497.713	4791.39
498.082	4864.83
498.452	4917.94
498.821	4959.97
499.19	4977.14
499.559	5035.67
499.928	5098.04
500.298	5104.15
500.667	5161.55
501.036	5191.37
501.405	5254.65
501.774	5231.15
502.143	5332.84
502.512	5363.35
502.88	5428.88
503.249	5432.05
503.618	5514.76
503.987	5538.48
504.356	5664.58
504.724	5729.67
505.093	5656.45
505.462	5682.89
505.83	5800.4
506.199	5808.53
506.567	5869.55
506.936	5966.5
507.304	6020.05
507.672	6075.19
508.041	6097.79
508.409	6201.97
508.777	6212.59
509.145	6267.28
509.514	6257.11
509.882	6320.38
510.25	6376.43
510.618	6496.43
510.986	6530.77
511.354	6590.89
511.722	6629.08
512.09	6686.7
512.458	6690.77
512.826	6794.72
513.193	6864.55
513.561	6869.3
513.929	6952.01
514.297	7051.44
514.664	7149.29
515.032	7173.47
515.4	7250.98
515.767	7281.26
516.135	7328.04
516.502	7313.13
516.869	7484.65
517.237	7543.86
517.604	7558.32
517.972	7657.52
518.339	7774.13
518.706	7791.76
519.073	7816.62
519.44	7860.91
519.808	7964.41
520.175	7967.35
520.542	8140.45
520.909	8222.03
521.276	8206.66
521.643	8360.56
522.009	8474
522.376	8518.07
522.743	8602.58
523.11	8643.04
523.477	8805.52
523.843	8844.61
524.21	8965.29
524.577	9045.51
524.943	9153.3
525.31	9099.29
525.676	9239.4
526.043	9339.29
526.409	9366.86
526.776	9567.08
527.142	9551.03
527.508	9653.63
527.874	9739.5
528.241	9868.99
528.607	9923.23
528.973	10011.59
529.339	10030.34
529.705	10201.86
530.071	10288.87
530.437	10358.7
530.803	10438.92
531.169	10478.02
531.535	10553.49
531.901	10566.83
532.267	10668.74
532.632	10809.31
532.998	10915.97
533.364	10995.74
533.73	10962.97
534.095	11099.24
534.461	11159.58
534.826	11180.37
535.192	11356.41
535.557	11434.15
535.923	11427.37
536.288	11549.4
536.653	11600.47
537.019	11642.73
537.384	11691.54
537.749	11811.99
538.114	11817.42
538.479	11890.18
538.845	11933.57
539.21	11926.34
539.575	12107.35
539.94	12187.8
540.305	12238.42
540.67	12271.41
541.034	12427.12
541.399	12398.64
541.764	12556.6
542.129	12581.69
542.494	12607.9
542.858	12726.54
543.223	12745.53
543.587	12929.25
543.952	12833.89
544.316	12945.75
544.681	13026.65
545.045	13031.39
545.41	13216.25
545.774	13239.07
546.138	13260.09
546.503	13367.66
546.867	13388.67
547.231	13557.26
547.595	13596.8
547.959	13581.89
548.324	13627.99
548.688	13777.36
549.052	13900.52
549.416	13937.59
549.779	14017.81
550.143	14033.63
550.507	14197.24
550.871	14217.13
551.235	14271.59
551.599	14368.53
551.962	14441.08
552.326	14538.93
552.689	14700.96
553.053	14523.56
553.417	14735.3
553.78	14843.55
554.143	14899.59
554.507	15002.64
554.87	15014.39
555.234	15233.37
555.597	15180.26
555.96	15261.39
556.323	15363.54
556.686	15400.15
557.05	15571.67
557.413	15627.26
557.776	15686.47
558.139	15777.99
558.502	15908.61
558.865	15976.18
559.228	16119.68
559.59	16200.8
559.953	16227.24
560.316	16397.18
560.679	16479.89
561.041	16552.66
561.404	16731.18
561.767	16833.33
562.129	16735.03
562.492	16994.68
562.854	16956.49
563.217	17076.49
563.579	17149.03
563.941	17299.31
564.304	17430.6
564.666	17523.48
565.028	17593.08
565.39	17711.95
565.753	17788.33
566.115	17849.8
566.477	17986.74
566.839	18011.83
567.201	18205.27
567.563	18319.39
567.925	18405.72
568.287	18396.9
568.648	18492.95
569.01	18615.65
569.372	18775.65
569.734	18749.89
570.095	18863.56
570.457	19059.48
570.819	19127.05
571.18	18997.34
571.542	19263.55
571.903	19283.43
572.265	19328.63
572.626	19417.22
572.987	19592.35
573.349	19663.54
573.71	19758.68
574.071	19905.56
574.432	19927.26
574.794	20027.82
575.155	20053.13
575.516	20079.12
575.877	20171.55
576.238	20276.18
576.599	20441.6
576.96	20443.18
577.32	20493.12
577.681	20610.86
578.042	20684.07
578.403	20740.8
578.763	20735.15
579.124	20922.03
579.485	20879.32
579.845	21097.85
580.206	21046.33
580.566	21125.87
580.927	21116.15
581.287	21192.31
581.648	21113.44
582.008	21197.73
582.368	21354.79
582.728	21304.17
583.089	21365.19
583.449	21420.55
583.809	21551.17
584.169	21508.01
584.529	21469.82
584.889	21769.02
585.249	21755.01
585.609	21544.62
585.969	21789.36
586.329	21860.77
586.688	21894.21
587.048	21903.03
587.408	21823.93
587.768	21856.47
588.127	21925.4
588.487	21887.21
588.846	22140.76
589.206	22038.39
589.565	22055.79
589.925	22216.69
590.284	22224.37
590.643	22172.62
591.003	22333.75
591.362	22434.99
591.721	22349.12
592.08	22465.04
592.44	22602.44
592.799	22427.98
593.158	22380.75
593.517	22592.73
593.876	22632.27
594.235	22566.29
594.593	22663.23
594.952	22721.08
595.311	22603.12
595.67	22736.45
596.029	22870.23
596.387	23008.76
596.746	22986.16
597.104	22891.7
597.463	22891.7
597.822	23015.09
598.18	23007.18
598.538	22968.76
598.897	23137.12
599.255	22955.88
599.613	23371.46
599.972	23196.55
600.33	23278.36
600.688	23295.98
601.046	23337.11
601.404	23388.64
601.762	23430.9
602.12	23516.09
602.478	23477.9
602.836	23707.72
603.194	23499.82
603.552	23597.22
603.91	23571.46
604.268	23815.29
604.625	23686.48
604.983	23846.93
605.341	23748.18
605.698	23858
606.056	23974.84
606.413	24000.6
606.771	23932.58
607.128	24145.68
607.485	23998.56
607.843	23975.29
608.2	24099.13
608.557	24264.77
608.914	24193.36
609.272	24364.2
609.629	24406.01
609.986	24570.75
610.343	24410.08
610.7	24632.9
611.057	24628.15
611.414	24488.04
611.771	24668.6
612.127	24756.51
612.484	24724.19
612.841	24684.42
613.198	24730.07
613.554	24731.88
613.911	24973
614.267	25008.03
614.624	24949.95
614.98	24955.83
615.337	25092.55
615.693	25093.9
616.05	25149.27
616.406	25371.18
616.762	25234.46
617.118	25213.67
617.475	25283.28
617.831	25318.3
618.187	25388.58
618.543	25454.34
618.899	25641.01
619.255	25544.51
619.611	25562.82
619.967	25659.09
620.323	25788.12
620.678	25702.93
621.034	25598.3
621.39	25636.03
621.746	25638.97
622.101	26026.99
622.457	25798.97
622.812	25874.67
623.168	25895.92
623.523	25972.07
623.879	26003.03
624.234	25782.25
624.589	25999.42
624.945	26090.03
625.3	26025.4
625.655	26072.41
626.01	25996.7
626.365	26049.81
626.72	26079.41
627.075	26055.01
627.43	26037.38
627.785	26033.76
628.14	26087.1
628.495	26132.29
628.85	26117.6
629.205	26062.01
629.559	26271.27
629.914	26156.93
630.269	26141.56
630.623	26002.35
630.978	26011.62
631.332	26103.37
631.687	26343.81
632.041	26147.89
632.396	26159.19
632.75	26124.84
633.104	26143.14
633.459	26129.81
633.813	26072.41
634.167	26082.58
634.521	26093.65
634.875	26145.4
635.229	26024.5
635.583	26090.71
635.937	25974.11
636.291	25967.33
636.645	26068.79
636.999	26052.52
637.352	26129.36
637.706	25985.4
638.06	26088.9
638.413	25951.05
638.767	25866.76
639.121	25859.08
639.474	25800.78
639.828	25922.81
640.181	25840.55
640.534	25912.86
640.888	25873.09
641.241	25768.46
641.594	25890.94
641.947	26006.65
642.301	25843.94
642.654	25841.45
643.007	25953.09
643.36	25809.82
643.713	25780.21
644.066	25946.31
644.419	25771.4
644.771	25578.86
645.124	25347.45
645.477	25383.61
645.83	25197.85
646.182	25186.1
646.535	25036.5
646.888	25179.32
647.24	24990.85
647.593	25216.61
647.945	25081.93
648.298	25083.73
648.65	25082.83
649.002	24988.14
649.355	25062.26
649.707	25110.63
650.059	25134.35
650.411	25494.34
650.763	25571.18
651.115	25802.58
651.467	25651.18
651.819	25717.39
652.171	25630.16
652.523	25601.46
652.875	25633.32
653.227	25458.86
653.578	25638.29
653.93	25531.18
654.282	25516.72
654.633	25548.35
654.985	25570.05
655.337	25549.03
655.688	25636.26
656.039	25707.22
656.391	25320.56
656.742	25505.64
657.094	25558.52
657.445	25512.42
657.796	25657.96
658.147	25600.78
658.498	25561.46
658.849	25577.05
659.2	25462.48
659.551	25451.41
659.902	25582.93
660.253	25541.57
660.604	25553.78
660.955	25355.36
661.306	25603.72
661.656	25566.88
662.007	25573.21
662.358	25601.69
662.708	25533.44
663.059	25552.2
663.409	25416.61
663.76	25695.92
664.11	25721.68
664.461	25671.29
664.811	25606.21
665.161	25713.1
665.511	25591.74
665.862	25558.97
666.212	25792.19
666.562	25680.33
666.912	25683.49
667.262	25600.56
667.612	25685.75
667.962	25688.91
668.312	25563.04
668.662	25694.56
669.011	25611.4
669.361	25604.4
669.711	25488.69
670.06	25536.38
670.41	25611.18
670.76	25583.38
671.109	25611.4
671.459	25594.68
671.808	25514
672.157	25701.34
672.507	25528.24
672.856	25477.4
673.205	25608.01
673.554	25560.33
673.904	25548.35
674.253	25595.36
674.602	25503.84
674.951	25215.26
675.3	25169.61
675.649	25493.67
675.998	25514.46
676.346	25465.87
676.695	25621.8
677.044	25340.22
677.393	25513.78
677.741	25457.51
678.09	25462.93
678.438	25417.06
678.787	25464.29
679.135	25492.99
679.484	25309.49
679.832	25393.78
680.181	25333.67
680.529	25356.72
680.877	25275.59
681.225	25266.33
681.573	25360.79
681.922	25207.12
682.27	25204.86
682.618	25281.69
682.966	25115.82
683.314	25221.81
683.661	25092.77
684.009	25071.76
684.357	24964.19
684.705	25015.71
685.053	25039.89
685.4	24941.14
685.748	24871.99
686.095	24872.67
686.443	24757.87
686.79	24798.32
687.138	24747.02
687.485	24819.33
687.832	24669.05
688.18	24712.9
688.527	24624.31
688.874	24535.95
689.221	24508.38
689.568	24474.71
689.915	24492.11
690.262	24578.44
690.609	24419.34
690.956	24334.15
691.303	24325.33
691.65	24170.99
691.997	24240.37
692.344	24155.62
692.69	24099.58
693.037	24163.98
693.383	23942.97
693.73	23972.35
694.077	23800.83
694.423	23878.79
694.769	23804.22
695.116	23853.93
695.462	23749.53
695.808	23672.02
696.155	23696.42
696.501	23424.34
696.847	23610.55
697.193	23366.26
697.539	23421.86
697.885	23303.44
698.231	23312.25
698.577	23223.22
698.923	23312.48
699.269	23175.31
699.614	23125.59
699.96	23084.92
700.306	23193.61
700.651	22967.63
700.997	22974.18
701.342	22929.44
701.688	22826.84
702.033	22851.48
702.379	22845.15
702.724	22664.59
703.069	22719.05
703.415	22489.68
703.76	22441.77
704.105	22528.55
704.45	22545.04
704.795	22399.74
705.14	22331.49
705.485	22262.79
705.83	22212.62
706.175	22140.31
706.52	22141.44
706.865	22076.81
707.209	22041.55
707.554	21989.35
707.899	21909.81
708.243	21883.59
708.588	21904.61
708.932	21748.91
709.277	21842.46
709.621	21865.96
709.966	21647.21
710.31	21785.74
710.654	21550.72
710.998	21629.13
711.342	21647.89
711.687	21553.2
712.031	21447.44
712.375	21364.51
712.719	21469.36
713.063	21443.38
713.407	21523.15
713.75	21433.66
714.094	21395.92
714.438	21245.87
714.782	21303.72
715.125	21236.83
715.469	21221.46
715.812	21212.42
716.156	21128.36
716.499	21173.33
716.843	21146.21
717.186	21027.57
717.53	21146.21
717.873	21076.38
718.216	21074.12
718.559	20919.32
718.902	20843.84
719.246	20869.38
719.589	20795.03
719.932	20619.67
720.275	20766.78
720.617	20759.33
720.96	20692.89
721.303	20688.37
721.646	20742.15
721.989	20581.48
722.331	20748.71
722.674	20587.58
723.016	20603.85
723.359	20563.63
723.701	20596.62
724.044	20453.57
724.386	20421.48
724.729	20562.72
725.071	20424.42
725.413	20473.91
725.755	20407.25
726.097	20447.02
726.439	20257.87
726.782	20320.47
727.124	20413.12
727.465	20202.51
727.807	20233.69
728.149	20264.88
728.491	20211.54
728.833	20233.01
729.175	20198.44
729.516	20215.39
729.858	20095.62
730.199	20205.67
730.541	20230.3
730.882	20084.32
731.224	20164.99
731.565	20045.45
731.906	20078.89
732.248	20075.96
732.589	20031.44
732.93	19907.82
733.271	19934.94
733.612	19972.91
733.953	20037.09
734.294	19827.83
734.635	19849.97
734.976	19946.92
735.317	19890.65
735.658	19875.73
735.999	19862.18
736.339	19750.77
736.68	19951.21
737.021	19833.93
737.361	19766.81
737.702	19753.7
738.042	19788.51
738.383	19831.44
738.723	19726.13
739.063	19680.94
739.404	19764.55
739.744	19701.28
740.084	19699.02
740.424	19597.1
740.764	19619.92
741.104	19720.48
741.444	19590.54
741.784	19462.64
742.124	19558.45
742.464	19646.36
742.804	19533.14
743.143	19552.13
743.483	19520.72
743.823	19589.41
744.162	19537.21
744.502	19552.81
744.841	19447.95
745.181	19540.83
745.52	19471
745.86	19493.82
746.199	19402.53
746.538	19410.21
746.877	19404.33
747.216	19478.46
747.556	19483.88
747.895	19437.55
748.234	19250.21
748.573	19322.3
748.911	19346.26
749.25	19323.88
749.589	19264.9
749.928	19369.31
750.267	19388.52
750.605	19304.45
750.944	19214.06
751.283	19222.87
751.621	19212.7
751.96	19169.31
752.298	19119.14
752.636	19100.16
752.975	19057.68
753.313	19021.29
753.651	19201.85
753.989	19061.52
754.327	19062.65
754.666	18951.01
755.004	18980.39
755.342	19023.1
755.679	19022.88
756.017	18889.77
756.355	18921.64
756.693	18890.9
757.031	18837.12
757.368	18805.93
757.706	18832.6
758.044	18774.97
758.381	18778.59
758.719	18780.85
759.056	18804.58
759.394	18694.75
759.731	18569.78
760.068	18695.65
760.405	18517.13
760.743	18432.83
761.08	18475.55
761.417	18377.24
761.754	18369.56
762.091	18340.41
762.428	18288.21
762.765	18183.35
763.102	18372.5
763.438	18239.39
763.775	18167.98
764.112	18126.18
764.449	18126.85
764.785	18035.33
765.122	17950.81
765.458	17948.78
765.795	17931.6
766.131	17981.77
766.467	17766.19
766.804	17709.24
767.14	17777.26
767.476	17693.64
767.812	17536.36
768.148	17657.04
768.485	17568
768.821	17468.79
769.157	17473.54
769.492	17435.57
769.828	17402.13
770.164	17245.3
770.5	17252.07
770.836	17248.91
771.171	17184.28
771.507	17103.38
771.842	16940.22
772.178	17016.83
772.513	17059.54
772.849	16854.34
773.184	16968.47
773.519	17014.11
773.855	16785.65
774.19	16644.63
774.525	16624.07
774.86	16668.36
775.195	16591.08
775.53	16485.54
775.865	16440.8
776.2	16267.47
776.535	16307.47
776.87	16367.58
777.205	16170.75
777.539	16133.01
777.874	16109.51
778.209	16002.84
778.543	16010.98
778.878	15849.17
779.212	15915.61
779.547	15899.57
779.881	15813.02
780.215	15770.08
780.55	15722.17
780.884	15733.24
781.218	15686.47
781.552	15651.44
781.886	15494.83
782.22	15494.15
782.554	15387.04
782.888	15288.06
783.222	15271.34
783.556	15136.42
783.889	15182.07
784.223	15122.41
784.557	15025.24
784.89	15085.8
785.224	14943.89
785.557	14926.94
785.891	14900.5
786.224	14848.97
786.558	14832.25
786.891	14668.41
787.224	14674.06
787.557	14666.83
787.891	14644.46
788.224	14602.88
788.557	14544.35
788.89	14537.8
789.223	14444.69
789.556	14353.85
789.888	14362.21
790.221	14342.09
790.554	14247.86
790.887	14237.24
791.219	14074.53
791.552	14129.67
791.884	14046.28
792.217	14057.13
792.549	14018.71
792.882	13933.97
793.214	13908.89
793.546	13865.95
793.879	13800.64
794.211	13705.73
794.543	13782.79
794.875	13696.01
795.207	13774.65
795.539	13696.24
795.871	13697.37
796.203	13608.33
796.535	13488.11
796.867	13453.08
797.198	13437.71
797.53	13409.46
797.862	13297.6
798.193	13380.31
798.525	13263.48
798.856	13305.74
799.188	13083.37
799.519	13071.17
799.85	13016.03
800.182	13044.05
800.513	12974.67
800.844	12991.4
801.175	13047.44
801.506	12952.75
801.837	12970.15
802.168	12912.98
802.499	12842.93
802.83	12732.65
803.161	12747.33
803.491	12779.88
803.822	12683.83
804.153	12652.2
804.483	12555.47
804.814	12590.05
805.145	12575.59
805.475	12533.55
805.805	12530.39
806.136	12468.92
806.466	12468.92
806.796	12428.47
807.126	12294.92
807.457	12327.01
807.787	12258.53
808.117	12252.21
808.447	12245.43
808.777	12291.08
809.107	12251.08
809.436	12092.66
809.766	12101.48
810.096	12130.18
810.426	11993.68
810.755	12084.53
811.085	11982.16
811.414	11970.63
811.744	11868.94
812.073	11890.63
812.403	11925.44
812.732	11847.24
813.061	11866.91
813.39	11757.98
813.719	11703.75
814.049	11779
814.378	11730.41
814.707	11713.24
815.036	11663.52
815.365	11618.1
815.693	11564.31
816.022	11550.08
816.351	11559.79
816.68	11376.52
817.008	11522.28
817.337	11441.38
817.665	11446.13
817.994	11443.19
818.322	11442.74
818.651	11342.17
818.979	11323.64
819.307	11360.03
819.636	11277.54
819.964	11238.22
820.292	11308.5
820.62	11278.67
820.948	11219.46
821.276	11215.4
821.604	11241.84
821.932	11259.46
822.259	11258.33
822.587	11250.65
822.915	11151.67
823.243	11197.54
823.57	11131.56
823.898	11198.67
824.225	11194.15
824.553	11178.56
824.88	11244.1
825.207	11194.83
825.535	11202.97
825.862	11210.2
826.189	11172.91
826.516	11181.73
826.843	11279.35
827.17	11273.93
827.497	11260.82
827.824	11187.38
828.151	11257.43
828.478	11182.63
828.805	11237.54
829.131	11221.27
829.458	11201.16
829.785	11117.77
830.111	11215.4
830.438	11252.46
830.764	11175.17
831.09	11238.67
831.417	11175.17
831.743	11176.3
832.069	11172.46
832.395	11135.4
832.722	11205.68
833.048	11107.15
833.374	11119.58
833.7	11075.06
834.026	11157.77
834.351	11124.1
834.677	11067.83
835.003	11142.63
835.329	11141.27
835.654	11089.52
835.98	11070.99
836.306	11057.89
836.631	11030.32
836.956	11070.54
837.282	11079.13
837.607	11019.7
837.932	10998.23
838.258	11017.44
838.583	10976.08
838.908	10927.04
839.233	10852.92
839.558	10930.43
839.883	10837.78
840.208	10891.34
840.533	10883.43
840.858	10807.05
841.182	10892.47
841.507	10853.6
841.832	10783.09
842.156	10733.6
842.481	10748.74
842.805	10748.74
843.13	10747.61
843.454	10657.67
843.778	10642.98
844.103	10646.15
844.427	10552.14
844.751	10615.19
845.075	10545.36
845.399	10571.35
845.723	10464.68
846.047	10521.63
846.371	10409.32
846.695	10483.44
847.019	10339.49
847.343	10305.82
847.666	10228.98
847.99	10234.86
848.313	10133.39
848.637	10104.24
848.96	10215.88
849.284	10121.19
849.607	10111.47
849.931	10045.03
850.254	9933.85
850.577	9933.17
850.9	9850.24
851.223	9835.55
851.546	9815.66
851.869	9728.88
852.192	9764.81
852.515	9666.51
852.838	9705.61
853.161	9685.04
853.483	9636.23
853.806	9566.63
854.129	9544.71
854.451	9534.31
854.774	9531.15
855.096	9444.14
855.419	9401.66
855.741	9433.07
856.063	9410.47
856.385	9348.55
856.708	9347.2
857.03	9259.06
857.352	9249.8
857.674	9238.05
857.996	9160.08
858.318	9202.79
858.64	9163.7
858.961	9139.52
859.283	9135.45
859.605	9166.41
859.926	9091.61
860.248	9036.02
860.57	9065.62
860.891	9047.32
861.212	8978.17
861.534	8963.25
861.855	8939.75
862.176	8997.15
862.498	8924.84
862.819	8897.49
863.14	8870.15
863.461	8895.01
863.782	8855.91
864.103	8839.19
864.424	8816.82
864.745	8815.01
865.065	8813.43
865.386	8733.43
865.707	8739.53
866.027	8768.91
866.348	8718.97
866.668	8810.26
866.989	8720.32
867.309	8615.92
867.63	8662.92
867.95	8697.27
868.27	8556.71
868.59	8572.75
868.91	8669.7
869.23	8646.65
869.55	8572.53
869.87	8672.64
870.19	8628.57
870.51	8609.59
870.83	8583.83
871.15	8466.99
871.469	8550.83
871.789	8540.67
872.109	8531.85
872.428	8474.68
872.748	8487.11
873.067	8517.16
873.386	8528.69
873.706	8479.65
874.025	8436.71
874.344	8397.17
874.663	8429.71
874.982	8444.62
875.301	8414.34
875.62	8334.12
875.939	8319.88
876.258	8337.05
876.577	8305.19
876.896	8298.86
877.214	8254.35
877.533	8330.73
877.852	8297.06
878.17	8320.56
878.489	8314.46
878.807	8217.06
879.125	8187.68
879.444	8253.67
879.762	8130.73
880.08	8207.11
880.398	8153.78
880.716	8114.46
881.034	8107.91
881.352	8190.17
881.67	8068.36
881.988	8110.39
882.306	8152.2
882.624	8077.4
882.941	8030.62
883.259	7992.21
883.577	8032.43
883.894	8018.19
884.212	7983.17
884.529	7902.04
884.846	7915.37
885.164	7968.48
885.481	7879.21
885.798	7920.79
886.115	7805.54
886.432	7883.96
886.75	7837.63
887.067	7870.63
887.383	7780.23
887.7	7855.26
888.017	7774.13
888.334	7747.92
888.651	7751.76
888.967	7715.38
889.284	7718.77
889.6	7660.01
889.917	7606
890.233	7650.07
890.55	7576.62
890.866	7652.55
891.182	7589.05
891.498	7526.45
891.815	7573.91
892.131	7497.53
892.447	7409.4
892.763	7497.75
893.079	7474.48
893.395	7465.44
893.71	7402.39
894.026	7407.81
894.342	7397.64
894.657	7380.24
894.973	7354.71
895.289	7322.17
895.604	7354.03
895.92	7297.53
896.235	7217.76
896.55	7222.96
896.865	7157.88
897.181	7164.2
897.496	7133.24
897.811	7091.89
898.126	7104.54
898.441	7056.64
898.756	7085.56
899.071	7096.64
899.386	7045.79
899.7	6947.49
900.015	6939.58
900.33	6878.56
900.644	6891.67
900.959	6901.84
901.273	6823.87
901.588	6811.67
901.902	6835.4
902.216	6764.21
902.531	6817.09
902.845	6763.54
903.159	6708.62
903.473	6725.8
903.787	6648.51
904.101	6632.01
904.415	6614.84
904.729	6604.67
905.042	6569.42
905.356	6536.2
905.67	6520.61
905.984	6552.02
906.297	6530.55
906.611	6454.39
906.924	6497.78
907.237	6446.48
907.551	6398.8
907.864	6365.81
908.177	6328.52
908.491	6262.53
908.804	6306.37
909.117	6301.85
909.43	6276.09
909.743	6215.08
910.056	6231.8
910.368	6155.87
910.681	6165.13
910.994	6084.68
911.307	6076.55
911.619	6069.54
911.932	6104.12
912.244	6023.9
912.557	6064.12
912.869	5979.38
913.181	5969.43
913.494	5934.63
913.806	5922.66
914.118	5878.36
914.43	5866.16
914.742	5826.84
915.054	5759.5
915.366	5833.39
915.678	5780.96
915.99	5709.78
916.302	5725.6
916.613	5700.74
916.925	5691.25
917.236	5698.03
917.548	5641.31
917.859	5696.45
918.171	5580.29
918.482	5575.32
918.794	5575.55
919.105	5523.8
919.416	5491.48
919.727	5502.78
920.038	5486.73
920.349	5405.38
920.66	5408.09
920.971	5407.19
921.282	5353.86
921.593	5355.89
921.903	5321.54
922.214	5303.24
922.525	5298.26
922.835	5252.39
923.146	5226.4
923.456	5250.81
923.767	5171.49
924.077	5197.7
924.387	5197.48
924.697	5165.39
925.008	5140.98
925.318	5072.96
925.628	5121.09
925.938	5091.94
926.248	5062.34
926.558	5050.36
926.867	5031.38
927.177	5025.73
927.487	4976.47
927.796	4932.85
928.106	4926.07
928.416	4898.73
928.725	4888.33
929.034	4889.91
929.344	4832.74
929.653	4800.42
929.962	4803.59
930.271	4786.41
930.581	4758.84
930.89	4742.35
931.199	4686.98
931.508	4685.4
931.817	4718.39
932.125	4650.15
932.434	4695.12
932.743	4645.63
933.051	4595.46
933.36	4579.19
933.669	4568.57
933.977	4532.86
934.286	4553.88
934.594	4527.89
934.902	4490.15
935.21	4446.99
935.519	4473.88
935.827	4412.19
936.135	4417.61
936.443	4388.91
936.751	4366.99
937.059	4382.58
937.367	4362.02
937.674	4365.86
937.982	4323.15
938.29	4288.57
938.597	4304.17
938.905	4279.99
939.213	4225.75
939.52	4218.75
939.827	4244.51
940.135	4216.26
940.442	4214.9
940.749	4115.47
941.056	4136.94
941.363	4147.79
941.67	4063.95
941.977	4068.92
942.284	4074.34
942.591	4088.35
942.898	4050.16
943.205	3989.6
943.511	3981.01
943.818	4022.82
944.125	3949.15
944.431	3969.94
944.738	3981.69
945.044	3905.76
945.35	3886.32
945.657	3882.26
945.963	3854.46
946.269	3865.31
946.575	3845.2
946.881	3848.13
947.187	3828.02
947.493	3785.54
947.799	3777.4
948.105	3754.8
948.41	3730.17
948.716	3722.71
949.022	3731.75
949.327	3760.9
949.633	3668.48
949.938	3683.84
950.244	3673.9
950.549	3615.15
950.854	3660.34
951.16	3592.55
951.465	3599.1
951.77	3563.4
952.075	3584.64
952.38	3581.02
952.685	3546.9
952.99	3509.84
953.294	3504.19
953.599	3453.12
953.904	3483.62
954.209	3426
954.513	3436.62
954.818	3407.92
955.122	3425.32
955.426	3399.78
955.731	3402.04
956.035	3381.25
956.339	3336.96
956.643	3342.38
956.948	3344.42
957.252	3307.58
957.556	3284.08
957.86	3298.09
958.163	3295.61
958.467	3270.3
958.771	3248.15
959.075	3248.83
959.378	3239.56
959.682	3258.54
959.985	3200.47
960.289	3209.73
960.592	3165.21
960.896	3140.36
961.199	3154.59
961.502	3184.42
961.805	3152.78
962.108	3070.07
962.411	3112.33
962.714	3083.63
963.017	3062.17
963.32	3025.1
963.623	3067.81
963.926	3075.27
964.228	3002.05
964.531	3003.18
964.833	2948.04
965.136	3021.26
965.438	2952.56
965.741	2945.33
966.043	2974.03
966.345	2908.95
966.648	2932
966.95	2960.02
967.252	2905.56
967.554	2870.53
967.856	2852.45
968.158	2887.03
968.46	2835.5
968.761	2819.46
969.063	2836.86
969.365	2814.94
969.666	2812.91
969.968	2774.26
970.269	2753.47
970.571	2782.85
970.872	2774.26
971.174	2741.72
971.475	2719.8
971.776	2734.72
972.077	2709.63
972.378	2701.95
972.679	2668.73
972.98	2694.04
973.281	2650.65
973.582	2636.41
973.883	2636.64
974.183	2613.82
974.484	2609.75
974.785	2593.48
975.085	2599.58
975.386	2600.26
975.686	2619.24
975.986	2558.9
976.287	2577.43
976.587	2551.22
976.887	2514.38
977.187	2527.26
977.487	2506.25
977.787	2512.12
978.087	2470.32
978.387	2486.14
978.687	2488.17
978.987	2466.25
979.286	2444.78
979.586	2459.47
979.885	2427.38
980.185	2415.18
980.484	2405.01
980.784	2384.44
981.083	2388.74
981.382	2416.08
981.682	2379.02
981.981	2346.7
982.28	2363.88
982.579	2320.49
982.878	2300.38
983.177	2330.66
983.475	2340.15
983.774	2308.74
984.073	2300.38
984.372	2309.19
984.67	2294.28
984.969	2306.25
985.267	2263.09
985.566	2241.85
985.864	2224.45
986.162	2213.6
986.461	2192.13
986.759	2194.17
987.057	2186.48
987.355	2178.57
987.653	2165.69
987.951	2140.38
988.249	2136.54
988.547	2136.09
988.844	2150.78
989.142	2130.44
989.44	2135.41
989.737	2086.6
990.035	2126.37
990.332	2084.79
990.63	2118.91
990.927	2087.5
991.224	2060.16
991.521	2061.51
991.819	2027.62
992.116	2040.27
992.413	2033.04
992.71	2026.94
993.006	2004.11
993.303	2024.9
993.6	1975.19
993.897	2005.47
994.193	1975.64
994.49	1995.53
994.787	1958.92
995.083	1938.35
995.379	1953.49
995.676	1921.18
995.972	1941.06
996.268	1894.74
996.565	1864.91
996.861	1924.12
997.157	1859.71
997.453	1875.3
997.749	1871.91
998.044	1845.93
998.34	1875.08
998.636	1821.52
998.932	1824.68
999.227	1820.84
999.523	1845.02
999.818	1810.22
1000.114	1800.96
1000.409	1793.95
1000.704	1786.72
1001	1781.29
1001.295	1746.04
1001.59	1743.1
1001.885	1755.98
1002.18	1712.82
1002.475	1719.83
1002.77	1727.06
1003.065	1688.87
1003.359	1673.95
1003.654	1713.27
1003.949	1681.41
1004.243	1668.08
1004.538	1629.66
1004.832	1650.9
1005.127	1659.94
1005.421	1658.36
1005.715	1627.63
1006.009	1642.54
1006.304	1628.98
1006.598	1607.29
1006.892	1598.7
1007.186	1571.13
1007.48	1604.35
1007.773	1563.9
1008.067	1573.16
1008.361	1579.72
1008.655	1509.44
1008.948	1550.57
1009.242	1528.19
1009.535	1516.44
1009.829	1518.03
1010.122	1489.55
1010.415	1474.18
1010.708	1487.07
1011.001	1497.46
1011.295	1470.12
1011.588	1467.63
1011.881	1443.9
1012.173	1469.21
1012.466	1433.96
1012.759	1441.87
1013.052	1430.12
1013.344	1435.09
1013.637	1412.94
1013.93	1412.72
1014.222	1412.94
1014.514	1397.35
1014.807	1385.6
1015.099	1368.88
1015.391	1356.9
1015.683	1384.02
1015.976	1355.77
1016.268	1324.36
1016.56	1348.99
1016.851	1333.62
1017.143	1341.31
1017.435	1297.47
1017.727	1321.19
1018.018	1293.17
1018.31	1275.77
1018.602	1281.87
1018.893	1275.32
1019.185	1264.47
1019.476	1264.92
1019.767	1268.54
1020.058	1214.53
1020.35	1223.34
1020.641	1224.93
1020.932	1229.67
1021.223	1219.5
1021.514	1187.19
1021.804	1188.54
1022.095	1175.44
1022.386	1166.62
1022.677	1171.59
1022.967	1144.25
1023.258	1138.6
1023.548	1135.66
1023.839	1139.05
1024.129	1150.13
1024.419	1133.85
1024.709	1123.23
1025	1135.44
1025.29	1102.22
1025.58	1096.57
1025.87	1091.82
1026.16	1101.99
1026.449	1061.54
1026.739	1066.29
1027.029	1093.18
1027.319	1049.79
1027.608	1075.1
1027.898	1038.94
1028.187	1049.56
1028.477	1029.45
1028.766	1042.11
1029.055	1056.57
1029.344	1030.58
1029.634	1006.63
1029.923	999.62
1030.212	1002.33
1030.501	980.64
1030.79	989.45
1031.078	993.97
1031.367	988.32
1031.656	976.8
1031.945	960.98
1032.233	952.16
1032.522	952.62
1032.81	949.9
1033.099	932.73
1033.387	936.35
1033.675	923.01
1033.963	926.85
1034.251	933.41
1034.54	900.64
1034.828	911.71
1035.116	930.7
1035.403	903.8
1035.691	892.96
1035.979	870.81
1036.267	895.44
1036.554	869.45
1036.842	882.11
1037.129	868.1
1037.417	854.54
1037.704	840.75
1037.992	861.09
1038.279	829.91
1038.566	833.98
1038.853	833.98
1039.14	833.98
