Data from cardboard_FLMS001491_052.txt Node
Date: Tue Feb 07 11:39:43 GMT 2017
User: dcchb
Spectrometer: FLMS00149
Trigger mode: 0
Integration Time (sec): 2.000000E-2
Scans to average: 10
Electric dark correction enabled: true
Nonlinearity correction enabled: false
Boxcar width: 0
XAxis mode: Wavelengths
Number of Pixels in Spectrum: 2048
>>>>>Begin Spectral Data<<<<<
341.393	-22.33
341.776	-22.33
342.16	-22.33
342.543	-62.33
342.927	-74.53
343.31	-72.72
343.693	-58.71
344.077	-68.88
344.46	-64.14
344.843	-51.71
345.226	-31.6
345.61	-40.86
345.993	-1.77
346.376	-12.16
346.759	2.53
347.142	35.52
347.525	40.72
347.908	71.23
348.291	67.39
348.674	82.07
349.057	103.09
349.44	119.36
349.823	136.08
350.206	145.12
350.588	169.98
350.971	202.75
351.354	186.48
351.737	230.09
352.119	218.34
352.502	235.29
352.884	268.06
353.267	266.93
353.65	268.74
354.032	288.17
354.414	299.02
354.797	297.44
355.179	320.49
355.562	323.88
355.944	308.28
356.326	335.85
356.709	336.98
357.091	316.19
357.473	337.89
357.855	315.06
358.238	332.46
358.62	329.07
359.002	317.77
359.384	326.59
359.766	346.93
360.148	324.55
360.53	324.78
360.912	312.8
361.294	342.18
361.676	327.49
362.057	299.7
362.439	328.85
362.821	302.41
363.203	298.11
363.584	310.77
363.966	307.83
364.348	299.24
364.729	307.38
365.111	320.49
365.493	326.14
365.874	314.38
366.256	288.62
366.637	292.46
367.019	308.51
367.4	291.56
367.781	297.44
368.163	314.84
368.544	287.94
368.925	308.73
369.306	288.17
369.688	332.24
370.069	291.11
370.45	288.85
370.831	292.24
371.212	311.67
371.593	281.84
371.974	290.2
372.355	307.38
372.736	312.12
373.117	311.22
373.498	311.45
373.879	300.37
374.26	301.28
374.641	310.32
375.021	283.65
375.402	320.49
375.783	320.71
376.163	290.66
376.544	311.9
376.925	306.47
377.305	309.19
377.686	314.16
378.066	317.77
378.447	321.39
378.827	322.52
379.208	340.6
379.588	313.48
379.968	313.48
380.349	305.8
380.729	314.38
381.109	321.39
381.489	321.62
381.87	319.58
382.25	324.55
382.63	335.4
383.01	333.37
383.39	326.36
383.77	339.69
384.15	331.79
384.53	336.98
384.91	340.37
385.29	325.68
385.67	328.17
386.049	329.98
386.429	334.95
386.809	332.24
387.189	336.08
387.568	335.17
387.948	327.04
388.328	358.45
388.707	329.98
389.087	348.96
389.466	349.19
389.846	367.49
390.225	342.41
390.605	357.1
390.984	356.87
391.363	350.09
391.743	349.41
392.122	355.51
392.501	368.62
392.881	353.25
393.26	384.44
393.639	370.43
394.018	351.45
394.397	334.04
394.776	357.32
395.155	369.3
395.534	381.28
395.913	365.91
396.292	367.26
396.671	384.89
397.05	361.84
397.429	361.39
397.808	357.32
398.186	377.43
398.565	363.2
398.944	360.48
399.323	364.55
399.701	389.18
400.08	376.98
400.458	376.53
400.837	390.09
401.215	382.18
401.594	395.96
401.972	385.57
402.351	414.04
402.729	393.03
403.107	386.02
403.486	400.71
403.864	388.96
404.242	389.64
404.62	388.05
404.999	400.94
405.377	386.47
405.755	404.55
406.133	417.66
406.511	407.04
406.889	410.43
407.267	420.37
407.645	416.53
408.023	450.43
408.401	416.08
408.779	427.83
409.156	442.52
409.534	449.97
409.912	456.53
410.29	427.6
410.667	426.02
411.045	434.61
411.422	469.18
411.8	452.69
412.178	438.9
412.555	456.53
412.933	451.1
413.31	468.5
413.687	434.38
414.065	445.45
414.442	473.7
414.819	480.71
415.197	476.41
415.574	470.09
415.951	490.88
416.328	478.45
416.705	469.86
417.082	475.96
417.46	498.33
417.837	507.15
418.214	494.72
418.591	489.07
418.967	505.34
419.344	513.25
419.721	525.68
420.098	514.38
420.475	512.35
420.852	520.25
421.228	507.37
421.605	505.11
421.982	523.42
422.358	513.25
422.735	529.97
423.111	564.32
423.488	555.73
423.864	557.77
424.241	544.43
424.617	540.37
424.994	553.47
425.37	562.74
425.746	544.66
426.123	581.5
426.499	531.33
426.875	546.24
427.251	544.21
427.627	569.07
428.003	577.65
428.379	588.5
428.756	575.39
429.132	589.41
429.507	587.82
429.883	587.6
430.259	622.4
430.635	597.54
431.011	609.74
431.387	616.75
431.763	644.55
432.138	604.55
432.514	654.94
432.89	660.82
433.265	655.62
433.641	654.71
434.016	659.69
434.392	649.52
434.767	670.08
435.143	640.25
435.518	666.92
435.894	675.05
436.269	675.96
436.644	663.53
437.02	702.4
437.395	696.07
437.77	707.14
438.145	724.09
438.52	693.81
438.895	715.73
439.271	711.44
439.646	720.7
440.021	735.84
440.395	732.45
440.77	744.66
441.145	732.68
441.52	752.56
441.895	764.99
442.27	777.65
442.645	764.99
443.019	772
443.394	780.59
443.769	785.33
444.143	765.67
444.518	814.03
444.892	786.69
445.267	787.59
445.641	787.59
446.016	796.18
446.39	824.88
446.764	805.9
447.139	804.54
447.513	825.78
447.887	828.72
448.262	834.6
448.636	810.19
449.01	831.66
449.384	836.18
449.758	856.74
450.132	858.32
450.506	866.69
450.88	878.44
451.254	850.87
451.628	882.96
452.002	894.93
452.376	894.48
452.75	905.33
453.123	888.61
453.497	912.33
453.871	910.53
454.244	946.01
454.618	924.09
454.992	943.52
455.365	943.97
455.739	959.57
456.112	969.28
456.486	970.64
456.859	995.5
457.232	988.72
457.606	980.58
457.979	1020.13
458.352	1041.82
458.725	1040.69
459.099	1034.14
459.472	1084.99
459.845	1072.1
460.218	1081.82
460.591	1079.56
460.964	1093.12
461.337	1111.88
461.71	1130.18
462.083	1138.32
462.456	1165.66
462.829	1128.6
463.201	1184.19
463.574	1146.9
463.947	1185.32
464.32	1196.4
464.692	1191.42
465.065	1207.92
465.438	1228.03
465.81	1241.59
466.183	1263.06
466.555	1302.38
466.928	1256.96
467.3	1290.86
467.672	1310.97
468.045	1330.4
468.417	1331.31
468.789	1347.35
469.161	1365.66
469.534	1370.63
469.906	1415.6
470.278	1426.9
470.65	1456.28
471.022	1455.15
471.394	1489.95
471.766	1485.43
472.138	1494.47
472.51	1548.02
472.882	1581.7
473.253	1590.51
473.625	1618.53
473.997	1603.62
474.369	1605.88
474.74	1645.87
475.112	1704.86
475.484	1686.1
475.855	1727
476.227	1749.37
476.598	1754.35
476.97	1801.35
477.341	1823.27
477.713	1862.59
478.084	1872.08
478.455	1927.9
478.827	1930.16
479.198	1979.43
479.569	1964.06
479.94	2035.02
480.311	2064.62
480.682	2127.22
481.053	2145.52
481.424	2157.5
481.795	2188.91
482.166	2207.22
482.537	2260.77
482.908	2319.76
483.279	2314.56
483.65	2365.86
484.021	2398.85
484.391	2421
484.762	2448.79
485.133	2508.68
485.503	2529.92
485.874	2542.12
486.244	2599.97
486.615	2660.99
486.985	2711.16
487.356	2729.69
487.726	2736.69
488.097	2798.61
488.467	2767.65
488.837	2883.13
489.207	2890.59
489.578	2956.12
489.948	2951.6
490.318	3022.56
490.688	3071.83
491.058	3078.61
491.428	3125.61
491.798	3171.26
492.168	3227.98
492.538	3267.53
492.908	3296
493.278	3352.27
493.648	3354.08
494.017	3413.51
494.387	3438.6
494.757	3472.04
495.126	3494.19
495.496	3547.97
495.866	3553.17
496.235	3576.22
496.605	3604.02
496.974	3676.78
497.344	3712.26
497.713	3743.22
498.082	3775.54
498.452	3788.42
498.821	3847.62
499.19	3886.04
499.559	3942.54
499.928	3983.21
500.298	4004.68
500.667	4026.15
501.036	4053.27
501.405	4098.47
501.774	4117.22
502.143	4110.67
502.512	4185.24
502.88	4271.12
503.249	4255.52
503.618	4285.58
503.987	4335.52
504.356	4356.31
504.724	4377.33
505.093	4410.55
505.462	4494.84
505.83	4521.51
506.199	4532.58
506.567	4580.03
506.936	4635.85
507.304	4673.59
507.672	4696.87
508.041	4754.72
508.409	4820.48
508.777	4827.03
509.145	4874.04
509.514	4930.76
509.882	4962.85
510.25	5007.37
510.618	5060.25
510.986	5046.92
511.354	5121.04
511.722	5203.97
512.09	5246.68
512.458	5250.53
512.826	5281.71
513.193	5344.53
513.561	5366.45
513.929	5428.6
514.297	5481.93
514.664	5577.07
515.032	5578.65
515.4	5660.01
515.767	5642.15
516.135	5725.54
516.502	5674.47
516.869	5862.04
517.237	5848.02
517.604	5890.51
517.972	5972.99
518.339	5997.62
518.706	6029.94
519.073	6060.9
519.44	6125.76
519.808	6223.61
520.175	6244.4
520.542	6353.1
520.909	6381.8
521.276	6437.61
521.643	6512.64
522.009	6560.77
522.376	6593.32
522.743	6685.52
523.11	6730.26
523.477	6833.76
523.843	6939.52
524.21	6962.12
524.577	6988.33
524.943	7070.82
525.31	7186.75
525.676	7287.08
526.043	7284.6
526.409	7372.5
526.776	7507.87
527.142	7510.58
527.508	7546.74
527.874	7636.68
528.241	7689.78
528.607	7722.78
528.973	7871.02
529.339	7868.08
529.705	8003.9
530.071	8053.16
530.437	8041.64
530.803	8123.9
531.169	8273.27
531.535	8203.67
531.901	8327.06
532.267	8372.7
532.632	8471.23
532.998	8528.41
533.364	8574.73
533.73	8605.47
534.095	8660.15
534.461	8786.25
534.826	8842.52
535.192	8832.8
535.557	8985.34
535.923	9001.39
536.288	9058.11
536.653	9147.6
537.019	9099.69
537.384	9224.88
537.749	9264.43
538.114	9296.52
538.479	9321.38
538.845	9395.28
539.21	9392.34
539.575	9535.84
539.94	9635.72
540.305	9611.54
540.67	9665.78
541.034	9740.58
541.399	9766.57
541.764	9779.67
542.129	9906
542.494	9931.53
542.858	10014.02
543.223	10068.93
543.587	10168.14
543.952	10121.13
544.316	10211.07
544.681	10285.42
545.045	10314.57
545.41	10377.62
545.774	10430.73
546.138	10459.2
546.503	10554.57
546.867	10617.84
547.231	10700.78
547.595	10771.96
547.959	10769.02
548.324	10765.41
548.688	10846.99
549.052	10901.45
549.416	11022.13
549.779	11056.02
550.143	11130.15
550.507	11194.78
550.871	11277.71
551.235	11264.6
551.599	11315.23
551.962	11423.02
552.326	11489.68
552.689	11543.02
553.053	11540.98
553.417	11562.9
553.78	11735.55
554.143	11861.88
554.507	11849.45
554.87	11890.8
555.234	12060.97
555.597	12043.12
555.96	12143.23
556.323	12273.62
556.686	12261.87
557.05	12333.28
557.413	12371.69
557.776	12378.7
558.139	12569.2
558.502	12558.36
558.865	12723.1
559.228	12767.39
559.59	12884
559.953	12875.41
560.316	13100.26
560.679	13105.23
561.041	13176.65
561.404	13288.73
561.767	13379.13
562.129	13409.86
562.492	13554.49
562.854	13518.56
563.217	13563.3
563.579	13646.01
563.941	13772.11
564.304	13848.94
564.666	14029.5
565.028	14003.06
565.39	14090.52
565.753	14167.58
566.115	14253.23
566.477	14348.14
566.839	14363.05
567.201	14570.28
567.563	14570.73
567.925	14767.11
568.287	14634.01
568.648	14769.15
569.01	14895.24
569.372	15039.65
569.734	14963.72
570.095	15088.01
570.457	15209.59
570.819	15218.85
571.18	15226.99
571.542	15388.79
571.903	15406.64
572.265	15454.55
572.626	15579.97
572.987	15593.76
573.349	15680.31
573.71	15851.15
574.071	15862.9
574.432	15906.52
574.794	16020.19
575.155	16050.92
575.516	16031.03
575.877	16170.01
576.238	16112.16
576.599	16225.6
576.96	16264.7
577.32	16380.4
577.681	16466.73
578.042	16501.53
578.403	16552.83
578.763	16623.56
579.124	16631.7
579.485	16674.63
579.845	16837.79
580.206	16788.53
580.566	16833.05
580.927	16813.61
581.287	16927.28
581.648	16898.13
582.008	17049.31
582.368	17048.41
582.728	17096.09
583.089	17040.05
583.449	17173.15
583.809	17187.61
584.169	17214.73
584.529	17216.54
584.889	17406.82
585.249	17212.47
585.609	17220.15
585.969	17425.57
586.329	17392.81
586.688	17411.11
587.048	17413.37
587.408	17483.2
587.768	17521.84
588.127	17532.69
588.487	17501.28
588.846	17689.75
589.206	17580.15
589.565	17645.23
589.925	17704.21
590.284	17689.52
590.643	17740.59
591.003	17850.65
591.362	17847.26
591.721	17847.48
592.08	17871.89
592.44	17990.98
592.799	17927.71
593.158	17925.45
593.517	17873.02
593.876	18018.33
594.235	18014.94
594.593	18093.35
594.952	18136.97
595.311	18068.27
595.67	18062.84
596.029	18268.94
596.387	18332.22
596.746	18251.09
597.104	18294.7
597.463	18328.37
597.822	18451.08
598.18	18300.58
598.538	18400.91
598.897	18560.01
599.255	18295.15
599.613	18629.38
599.972	18531.53
600.33	18506.67
600.688	18555.26
601.046	18774.92
601.404	18599.78
601.762	18658.31
602.12	18978.98
602.478	18722.94
602.836	18886.1
603.194	18819.43
603.552	18807.01
603.91	18796.84
604.268	18985.31
604.625	18920.9
604.983	19058.07
605.341	18918.19
605.698	19034.8
606.056	19062.59
606.413	19158.18
606.771	19125.87
607.128	19221.68
607.485	19149.6
607.843	19178.75
608.2	19337.39
608.557	19396.14
608.914	19347.1
609.272	19360.44
609.629	19421.45
609.986	19429.36
610.343	19365.63
610.7	19592.75
611.057	19589.13
611.414	19566.53
611.771	19654.44
612.127	19747.32
612.484	19676.36
612.841	19847.2
613.198	19752.52
613.554	19873.87
613.911	19990.03
614.267	19913.64
614.624	19992.96
614.98	20053.3
615.337	20122
615.693	20111.15
616.05	20160.87
616.406	20251.49
616.762	20157.03
617.118	20222.34
617.475	20292.39
617.831	20329.45
618.187	20344.14
618.543	20302.79
618.899	20473.4
619.255	20394.76
619.611	20523.57
619.967	20653.06
620.323	20550.91
620.678	20563.34
621.034	20508.2
621.39	20546.39
621.746	20501.2
622.101	20809.66
622.457	20713.4
622.812	20752.49
623.168	20748.42
623.523	20760.4
623.879	20835.65
624.234	20711.59
624.589	20910
624.945	20820.29
625.3	20896.44
625.655	20823.22
626.01	20941.64
626.365	20974.86
626.72	20876.56
627.075	20879.49
627.43	20933.5
627.785	20797.01
628.14	20872.94
628.495	20978.93
628.85	20929.44
629.205	20950.9
629.559	20985.93
629.914	21004.24
630.269	21038.36
630.623	20961.75
630.978	20963.78
631.332	21097.34
631.687	21011.92
632.041	20994.07
632.396	21015.99
632.75	20986.61
633.104	20985.71
633.459	20983.9
633.813	20982.32
634.167	20891.92
634.521	21008.76
634.875	20925.82
635.229	20957.01
635.583	20855.54
635.937	21000.85
636.291	20901.87
636.645	20856.9
636.999	20852.15
637.352	20917.23
637.706	20824.13
638.06	20896.44
638.413	20843.56
638.767	20805.15
639.121	20910
639.474	20785.48
639.828	20795.88
640.181	20834.75
640.534	20913.84
640.888	20873.84
641.241	20722.66
641.594	20822.77
641.947	20853.05
642.301	20773.73
642.654	20899.83
643.007	20770.57
643.36	20775.99
643.713	20741.19
644.066	20818.93
644.419	20655.77
644.771	20554.98
645.124	20436.57
645.477	20395.21
645.83	20330.36
646.182	20341.65
646.535	20258.49
646.888	20254.43
647.24	20119.97
647.593	20270.92
647.945	20162
648.298	20147.76
648.65	19999.74
649.002	20081.32
649.355	20213.52
649.707	20107.54
650.059	20226.86
650.411	20493.74
650.763	20433.63
651.115	20799.5
651.467	20663.91
651.819	20701.42
652.171	20597.47
652.523	20681.08
652.875	20678.82
653.227	20590.01
653.578	20624.13
653.93	20613.74
654.282	20603.12
654.633	20509.79
654.985	20653.28
655.337	20641.99
655.688	20630.69
656.039	20690.8
656.391	20434.31
656.742	20661.42
657.094	20651.48
657.445	20606.73
657.796	20540.07
658.147	20518.82
658.498	20626.17
658.849	20678.82
659.2	20542.55
659.551	20642.89
659.902	20675.2
660.253	20687.86
660.604	20756.56
660.955	20521.31
661.306	20640.86
661.656	20634.08
662.007	20689.67
662.358	20661.65
662.708	20702.55
663.059	20730.34
663.409	20520.41
663.76	20701.42
664.11	20759.04
664.461	20740.29
664.811	20720.4
665.161	20846.73
665.511	20712.49
665.862	20715.2
666.212	20786.84
666.562	20793.17
666.912	20794.75
667.262	20838.82
667.612	20698.26
667.962	20724.7
668.312	20688.09
668.662	20738.71
669.011	20778.71
669.361	20725.37
669.711	20680.85
670.06	20698.26
670.41	20722.89
670.76	20688.31
671.109	20737.8
671.459	20632.04
671.808	20780.74
672.157	20792.94
672.507	20482.22
672.856	20695.54
673.205	20692.15
673.554	20632.49
673.904	20703.45
674.253	20781.64
674.602	20704.13
674.951	20367.87
675.3	20338.49
675.649	20626.84
675.998	20621.2
676.346	20662.78
676.695	20698.48
677.044	20616.22
677.393	20652.61
677.741	20693.28
678.09	20602.21
678.438	20634.3
678.787	20727.86
679.135	20611.03
679.484	20594.53
679.832	20539.62
680.181	20449.45
680.529	20530.8
680.877	20521.99
681.225	20433.63
681.573	20628.88
681.922	20518.37
682.27	20331.03
682.618	20462.1
682.966	20383.91
683.314	20449.67
683.661	20393.4
684.009	20254.65
684.357	20330.58
684.705	20244.93
685.053	20295.33
685.4	20270.92
685.748	20074.54
686.095	20300.3
686.443	20025.05
686.79	20099.17
687.138	20144.6
687.485	20185.5
687.832	19985.28
688.18	20091.72
688.527	19964.72
688.874	19912.29
689.221	19964.72
689.568	19910.48
689.915	19953.87
690.262	19905.96
690.609	19906.64
690.956	19763.82
691.303	19723.82
691.65	19603.14
691.997	19728.56
692.344	19532.86
692.69	19568.79
693.037	19670.03
693.383	19501.45
693.73	19532.18
694.077	19319.76
694.423	19453.32
694.769	19330.83
695.116	19329.25
695.462	19220.33
695.808	19242.47
696.155	19303.72
696.501	19178.52
696.847	19148.47
697.193	18959.09
697.539	19122.25
697.885	18990.28
698.231	18891.07
698.577	18904.18
698.923	18854.24
699.269	18805.2
699.614	18785.09
699.96	18666.44
700.306	18721.36
700.651	18633.9
700.997	18614.92
701.342	18562.72
701.688	18562.27
702.033	18460.35
702.379	18469.39
702.724	18414.02
703.069	18501.93
703.415	18235.27
703.76	18353.68
704.105	18306.23
704.45	18293.35
704.795	18133.12
705.14	18094.71
705.485	18027.59
705.83	18029.17
706.175	18086.57
706.52	18037.99
706.865	17975.61
707.209	17942.4
707.554	17915.28
707.899	17926.58
708.243	17776.52
708.588	17813.36
708.932	17666.47
709.277	17722.74
709.621	17743.76
709.966	17662.63
710.31	17605.46
710.654	17515.06
710.998	17605
711.342	17687.94
711.687	17621.27
712.031	17444.33
712.375	17343.32
712.719	17433.26
713.063	17412.01
713.407	17472.58
713.75	17343.32
714.094	17381.28
714.438	17330.89
714.782	17412.01
715.125	17207.5
715.469	17271.23
715.812	17169.31
716.156	17067.39
716.499	17152.81
716.843	17115.52
717.186	16929.77
717.53	17146.94
717.873	17070.55
718.216	17081.18
718.559	16976.55
718.902	16940.39
719.246	16997.11
719.589	16888.41
719.932	16838.7
720.275	16822.2
720.617	16890.22
720.96	16836.21
721.303	16799.6
721.646	16850.67
721.989	16712.6
722.331	16834.85
722.674	16751.47
723.016	16669.43
723.359	16749.43
723.701	16774.29
724.044	16706.95
724.386	16650.45
724.729	16699.04
725.071	16629.66
725.413	16635.31
725.755	16629.66
726.097	16561.87
726.439	16533.84
726.782	16567.29
727.124	16563.22
727.465	16503.56
727.807	16562.77
728.149	16456.56
728.491	16439.61
728.833	16525.26
729.175	16442.77
729.516	16516.9
729.858	16447.52
730.199	16403.45
730.541	16435.99
730.882	16327.3
731.224	16411.59
731.565	16343.57
731.906	16319.61
732.248	16355.09
732.589	16216.57
732.93	16217.24
733.271	16188.77
733.612	16324.13
733.953	16286.39
734.294	16221.54
734.635	16186.28
734.976	16245.04
735.317	16161.88
735.658	16128.43
735.999	16257.47
736.339	16170.01
736.68	16196.45
737.021	16088.21
737.361	16079.62
737.702	16148.77
738.042	16171.82
738.383	16160.97
738.723	16085.95
739.063	16033.75
739.404	16081.88
739.744	16033.07
740.084	15949
740.424	16010.69
740.764	16062.44
741.104	16072.39
741.444	15918.27
741.784	15926.18
742.124	15995.55
742.464	15942
742.804	15886.63
743.143	15938.15
743.483	15963.69
743.823	15843.69
744.162	15917.14
744.502	15924.37
744.841	15883.92
745.181	15984.03
745.52	15855.9
745.86	15790.36
746.199	15847.31
746.538	15864.71
746.877	15897.93
747.216	15790.81
747.556	15827.65
747.895	15818.16
748.234	15792.62
748.573	15786.29
748.911	15781.1
749.25	15740.42
749.589	15665.62
749.928	15743.13
750.267	15797.37
750.605	15732.51
750.944	15676.47
751.283	15641.66
751.621	15718.27
751.96	15609.12
752.298	15607.32
752.636	15661.55
752.975	15473.76
753.313	15536.36
753.651	15648.67
753.989	15537.49
754.327	15478.51
754.666	15440.09
755.004	15449.13
755.342	15513.53
755.679	15503.82
756.017	15421.78
756.355	15435.12
756.693	15370.71
757.031	15379.52
757.368	15337.94
757.706	15328.45
758.044	15211.39
758.381	15366.64
758.719	15232.86
759.056	15320.54
759.394	15277.83
759.731	15153.09
760.068	15165.97
760.405	15014.56
760.743	15045.97
761.08	15088.23
761.417	14955.58
761.754	14982.25
762.091	14986.99
762.428	14982.93
762.765	14911.06
763.102	14922.59
763.438	14877.17
763.775	14749.26
764.112	14791.29
764.449	14808.01
764.785	14722.82
765.122	14655.7
765.458	14605.31
765.795	14610.51
766.131	14661.58
766.467	14573.9
766.804	14480.79
767.14	14428.82
767.476	14467.01
767.812	14384.97
768.148	14314.24
768.485	14305.2
768.821	14235.37
769.157	14221.14
769.492	14239.67
769.828	14126
770.164	14037.41
770.5	14045.55
770.836	14045.77
771.171	13973.91
771.507	13929.39
771.842	13839.23
772.178	13826.8
772.513	13907.93
772.849	13823.18
773.184	13689.4
773.519	13726.69
773.855	13709.74
774.19	13542.29
774.525	13555.39
774.86	13536.18
775.195	13496.64
775.53	13392.91
775.865	13448.28
776.2	13311.78
776.535	13224.1
776.87	13151.79
777.205	13269.3
777.539	13141.62
777.874	13174.61
778.209	13093.26
778.543	13050.77
778.878	12978.23
779.212	12967.39
779.547	12911.12
779.881	12969.42
780.215	12822.08
780.55	12894.17
780.884	12755.87
781.218	12811.46
781.552	12746.15
781.886	12683.55
782.22	12604.46
782.554	12549.77
782.888	12485.82
783.222	12384.58
783.556	12445.82
783.889	12384.58
784.223	12350.45
784.557	12281.75
784.89	12328.98
785.224	12187.07
785.557	12217.8
785.891	12160.63
786.224	12114.75
786.558	12134.64
786.891	12045.38
787.224	12008.09
787.557	11921.76
787.891	11940.29
788.224	11943.91
788.557	11893.74
788.89	11944.36
789.223	11866.4
789.556	11798.15
789.888	11786.17
790.221	11683.58
790.554	11585.05
790.887	11576.24
791.219	11506.18
791.552	11574.2
791.884	11491.72
792.217	11404.04
792.549	11444.49
792.882	11361.78
793.214	11346.86
793.546	11364.72
793.879	11338.5
794.211	11174.89
794.543	11237.71
794.875	11177.6
795.207	11188.67
795.539	11169.47
795.871	11152.74
796.203	11064.16
796.535	11014.22
796.867	10996.14
797.198	10962.92
797.53	11042.69
797.862	10849.7
798.193	10893.99
798.525	10821.68
798.856	10942.58
799.188	10796.59
799.519	10745.52
799.85	10695.81
800.182	10681.12
800.513	10727.67
800.844	10606.09
801.175	10682.93
801.506	10625.98
801.837	10578.3
802.168	10582.36
802.499	10508.47
802.83	10386.66
803.161	10428.24
803.491	10407.68
803.822	10434.8
804.153	10356.61
804.483	10305.76
804.814	10282.71
805.145	10195.03
805.475	10214.69
805.805	10188.25
806.136	10214.69
806.466	10226.89
806.796	10187.57
807.126	10077.07
807.457	10033
807.787	10116.61
808.117	10040.23
808.447	10004.75
808.777	10057.18
809.107	9964.75
809.436	10006.33
809.766	10013.34
810.096	9935.6
810.426	9901.7
810.755	9885.43
811.085	9860.35
811.414	9873.46
811.744	9753.23
812.073	9823.74
812.403	9786.68
812.732	9684.99
813.061	9694.7
813.39	9611.32
813.719	9662.61
814.049	9644.31
814.378	9603.18
814.707	9628.72
815.036	9570.41
815.365	9589.17
815.693	9420.13
816.022	9506.46
816.351	9430.3
816.68	9402.96
817.008	9462.84
817.337	9355.5
817.665	9404.77
817.994	9443.86
818.322	9404.31
818.651	9398.44
818.979	9272.34
819.307	9254.94
819.636	9318.22
819.964	9261.27
820.292	9359.12
820.62	9274.83
820.948	9190.99
821.276	9238.44
821.604	9227.82
821.932	9267.6
822.259	9276.86
822.587	9235.96
822.915	9214.49
823.243	9224.43
823.57	9210.42
823.898	9204.32
824.225	9212.23
824.553	9218.11
824.88	9225.11
825.207	9262.17
825.535	9224.66
825.862	9267.14
826.189	9211.78
826.516	9287.26
826.843	9313.47
827.17	9218.11
827.497	9281.38
827.824	9202.06
828.151	9200.03
828.478	9182.63
828.805	9261.72
829.131	9195.05
829.458	9218.78
829.785	9181.72
830.111	9190.08
830.438	9219.69
830.764	9209.52
831.09	9263.3
831.417	9218.78
831.743	9181.72
832.069	9189.86
832.395	9194.15
832.722	9192.8
833.048	9200.25
833.374	9219.01
833.7	9125
834.026	9152.57
834.351	9218.33
834.677	9131.1
835.003	9196.41
835.329	9117.99
835.654	9056.75
835.98	9056.53
836.306	9080.48
836.631	9049.75
836.956	9109.41
837.282	9100.37
837.607	9087.26
837.932	9053.14
838.258	9016.75
838.583	8962.52
838.908	8952.8
839.233	8935.17
839.558	8979.02
839.883	8939.24
840.208	8908.73
840.533	8912.8
840.858	8924.55
841.182	8892.24
841.507	8901.28
841.832	8856.98
842.156	8876.65
842.481	8860.83
842.805	8775.63
843.13	8803.65
843.454	8824.22
843.778	8740.38
844.103	8824.67
844.427	8693.15
844.751	8702.64
845.075	8652.24
845.399	8664.67
845.723	8558.01
846.047	8650.21
846.371	8566.37
846.695	8543.32
847.019	8541.74
847.343	8480.5
847.666	8386.04
847.99	8426.71
848.313	8354.85
848.637	8348.98
848.96	8298.81
849.284	8378.35
849.607	8278.92
849.931	8266.94
850.254	8164.12
850.577	8201.41
850.9	8132.26
851.223	8151.92
851.546	8034.63
851.869	8048.87
852.192	8057.91
852.515	8004.35
852.838	7936.1
853.161	7980.17
853.483	7891.13
853.806	7896.11
854.129	7910.34
854.451	7847.52
854.774	7856.56
855.096	7803
855.419	7749.9
855.741	7729.1
856.063	7708.77
856.385	7727.75
856.708	7627.41
857.03	7601.42
857.352	7631.93
857.674	7630.35
857.996	7560.97
858.318	7554.65
858.64	7515.32
858.961	7473.97
859.283	7528.43
859.605	7475.55
859.926	7450.47
860.248	7481.88
860.57	7462.22
860.891	7427.87
861.212	7399.85
861.534	7447.3
861.855	7357.82
862.176	7368.21
862.498	7326.86
862.819	7328.21
863.14	7300.42
863.461	7303.81
863.782	7332.73
864.103	7308.55
864.424	7236.46
864.745	7220.87
865.065	7232.62
865.386	7246.86
865.707	7173.41
866.027	7219.51
866.348	7243.24
866.668	7207.08
866.989	7110.36
867.309	7114.88
867.63	7107.88
867.95	7144.26
868.27	7102
868.59	7123.02
868.91	7044.38
869.23	7131.15
869.55	7055.45
869.87	7079.86
870.19	7075.56
870.51	7013.64
870.83	7099.06
871.15	6980.2
871.469	6989.24
871.789	7020.2
872.109	7047.54
872.428	6989.69
872.748	7063.81
873.067	6970.25
873.386	6991.5
873.706	7011.61
874.025	6980.88
874.344	6901.1
874.663	6938.39
874.982	6920.09
875.301	6888.22
875.62	6900.88
875.939	6930.48
876.258	6835.34
876.577	6852.07
876.896	6903.14
877.214	6788.11
877.533	6808.68
877.852	6862.01
878.17	6804.38
878.489	6849.58
878.807	6798.28
879.125	6796.25
879.444	6783.59
879.762	6737.72
880.08	6774.1
880.398	6686.42
880.716	6700.21
881.034	6713.76
881.352	6682.8
881.67	6663.82
881.988	6702.01
882.306	6618.4
882.624	6641.68
882.941	6631.28
883.259	6600.09
883.577	6607.33
883.894	6539.76
884.212	6673.09
884.529	6576.14
884.846	6511.51
885.164	6569.81
885.481	6524.84
885.798	6533.66
886.115	6449.59
886.432	6490.72
886.75	6483.49
887.067	6506.54
887.383	6471.28
887.7	6424.73
888.017	6415.92
888.334	6413.43
888.651	6428.12
888.967	6419.76
889.284	6363.04
889.6	6345.64
889.917	6312.42
890.233	6337.73
890.55	6274.23
890.866	6216.15
891.182	6244.17
891.498	6274.23
891.815	6210.27
892.131	6189.48
892.447	6178.64
892.763	6153.55
893.079	6165.3
893.395	6108.58
893.71	6170.73
894.026	6107
894.342	6122.37
894.657	6051.41
894.973	6085.08
895.289	6043.73
895.604	5995.59
895.92	5998.3
896.235	5979.32
896.55	6020
896.865	5906.55
897.181	5940.68
897.496	5927.12
897.811	5895.93
898.126	5865.65
898.441	5848.02
898.756	5876.5
899.071	5780.68
899.386	5839.66
899.7	5777.74
900.015	5772.77
900.33	5723.73
900.644	5716.95
900.959	5707.01
901.273	5687.35
901.588	5695.26
901.902	5612.32
902.216	5580.91
902.531	5558.99
902.845	5568.26
903.159	5532.33
903.473	5522.61
903.787	5540.24
904.101	5485.77
904.415	5467.7
904.729	5494.81
905.042	5410.97
905.356	5384.76
905.67	5443.06
905.984	5418.2
906.297	5379.11
906.611	5304.99
906.924	5326.68
907.237	5334.37
907.551	5348.38
907.864	5320.81
908.177	5294.59
908.491	5232.9
908.804	5265.67
909.117	5208.27
909.43	5195.61
909.743	5108.83
910.056	5179.34
910.368	5121.04
910.681	5129.4
910.994	5103.64
911.307	5045.11
911.619	5020.25
911.932	5054.6
912.244	4999.01
912.557	4961.95
912.869	4961.27
913.181	4975.05
913.494	4991.78
913.806	4913.59
914.118	4916.07
914.43	4884.43
914.742	4875.39
915.054	4815.73
915.366	4846.24
915.678	4848.73
915.99	4802.18
916.302	4787.49
916.613	4727.6
916.925	4731.22
917.236	4680.6
917.548	4678.56
917.859	4669.98
918.171	4676.53
918.482	4674.5
918.794	4610.32
919.105	4603.31
919.416	4622.75
919.727	4556.08
920.038	4587.49
920.349	4505.23
920.66	4526.7
920.971	4507.27
921.282	4459.81
921.593	4453.48
921.903	4447.84
922.214	4431.79
922.525	4427.95
922.835	4398.12
923.146	4397.67
923.456	4363.77
923.767	4335.3
924.077	4344.11
924.387	4271.79
924.697	4247.39
925.008	4262.98
925.318	4229.99
925.628	4235.86
925.938	4238.57
926.248	4179.14
926.558	4186.6
926.867	4202.87
927.177	4163.1
927.487	4134.17
927.796	4117.67
928.106	4085.13
928.416	4063.66
928.725	4073.38
929.034	4031.57
929.344	4067.96
929.653	4050.56
929.962	3979.82
930.271	3950.67
930.581	3966.94
930.89	3983.44
931.199	3897.57
931.508	3954.06
931.817	3936.89
932.125	3864.57
932.434	3888.53
932.743	3882.43
933.051	3852.82
933.36	3859.38
933.669	3801.52
933.977	3813.05
934.286	3779.83
934.594	3777.8
934.902	3720.85
935.21	3728.76
935.519	3706.61
935.827	3707.29
936.135	3668.42
936.443	3678.82
936.751	3660.74
937.059	3682.43
937.367	3619.83
937.674	3649.21
937.982	3616.9
938.29	3644.92
938.597	3597.69
938.905	3527.63
939.213	3579.61
939.52	3512.04
939.827	3527.18
940.135	3500.74
940.442	3476.11
940.749	3501.87
941.056	3472.95
941.363	3449.67
941.67	3425.04
941.977	3441.76
942.284	3386.85
942.591	3406.51
942.898	3366.96
943.205	3320.86
943.511	3378.48
943.818	3383.46
944.125	3305.94
944.431	3279.73
944.738	3291.26
945.044	3303.23
945.35	3292.61
945.657	3289.22
945.963	3240.86
946.269	3255.32
946.575	3237.47
946.881	3215.55
947.187	3170.35
947.493	3168.32
947.799	3230.47
948.105	3135.55
948.41	3149.34
948.716	3161.99
949.022	3105.5
949.327	3114.08
949.633	3048.78
949.938	3092.84
950.244	3073.41
950.549	3023.01
950.854	3034.99
951.16	3042.45
951.465	3051.71
951.77	3011.04
952.075	3000.42
952.38	2993.18
952.685	2979.85
952.99	2956.57
953.294	2972.85
953.599	2899.85
953.904	2934.65
954.209	2917.48
954.513	2859.18
954.818	2932.39
955.122	2870.48
955.426	2889.68
955.731	2840.87
956.035	2841.55
956.339	2819.18
956.643	2807.65
956.948	2805.39
957.252	2777.82
957.556	2766.52
957.86	2732.4
958.163	2743.25
958.467	2733.98
958.771	2738.95
959.075	2715.68
959.378	2699.63
959.682	2687.43
959.985	2677.94
960.289	2674.32
960.592	2679.97
960.896	2651.95
961.199	2636.81
961.502	2639.97
961.805	2612.86
962.108	2587.77
962.411	2613.53
962.714	2591.61
963.017	2585.74
963.32	2587.32
963.623	2567.21
963.926	2596.36
964.228	2559.98
964.531	2514.1
964.833	2538.96
965.136	2507.1
965.438	2519.07
965.741	2495.8
966.043	2512.52
966.345	2496.25
966.648	2482.01
966.95	2444.72
967.252	2429.13
967.554	2444.05
967.856	2430.71
968.158	2409.24
968.46	2382.13
968.761	2357.27
969.063	2374.44
969.365	2360.21
969.666	2358.62
969.968	2309.59
970.269	2337.16
970.571	2336.03
970.872	2287.67
971.174	2300.77
971.475	2296.93
971.776	2291.96
972.077	2288.34
972.378	2268.23
972.679	2270.27
972.98	2281.79
973.281	2254.67
973.582	2225.52
973.883	2220.32
974.183	2225.07
974.484	2210.61
974.785	2210.15
975.085	2188.91
975.386	2184.17
975.686	2152.3
975.986	2165.18
976.287	2156.37
976.587	2162.02
976.887	2136.03
977.187	2136.03
977.487	2129.03
977.787	2147.56
978.087	2086.54
978.387	2092.87
978.687	2140.33
978.987	2061.68
979.286	2081.8
979.586	2050.84
979.885	2042.02
980.185	2022.14
980.484	2020.33
980.784	2044.96
981.083	2020.78
981.382	2019.65
981.682	1985.53
981.981	1973.1
982.28	2010.84
982.579	1987.11
982.878	1959.09
983.177	1987.11
983.475	1988.92
983.774	1957.51
984.073	1954.34
984.372	1938.3
984.67	1936.04
984.969	1917.28
985.267	1929.94
985.566	1914.57
985.864	1903.5
986.162	1877.96
986.461	1894
986.759	1881.57
987.057	1828.92
987.355	1854.68
987.653	1844.97
987.951	1845.19
988.249	1809.03
988.547	1817.62
988.844	1806.32
989.142	1799.54
989.44	1791.63
989.737	1769.26
990.035	1810.62
990.332	1765.65
990.63	1758.41
990.927	1732.88
991.224	1762.93
991.521	1736.04
991.819	1709.15
992.116	1745.31
992.413	1726.78
992.71	1716.16
993.006	1711.86
993.303	1698.3
993.6	1686.1
993.897	1642.49
994.193	1665.99
994.49	1703.05
994.787	1653.78
995.083	1640.45
995.379	1642.49
995.676	1646.1
995.972	1614.24
996.268	1642.03
996.565	1625.54
996.861	1586.67
997.157	1632.99
997.453	1612.66
997.749	1602.26
998.044	1571.3
998.34	1587.12
998.636	1593.22
998.932	1574.46
999.227	1567.68
999.523	1565.65
999.818	1542.6
1000.114	1541.47
1000.409	1507.12
1000.704	1531.98
1001	1515.26
1001.295	1483.85
1001.59	1491.3
1001.885	1494.24
1002.18	1477.07
1002.475	1488.82
1002.77	1462.15
1003.065	1445.65
1003.359	1454.02
1003.654	1434.58
1003.949	1457.41
1004.243	1433
1004.538	1414.92
1004.832	1411.3
1005.127	1418.31
1005.421	1401.59
1005.715	1356.39
1006.009	1358.65
1006.304	1388.25
1006.598	1391.64
1006.892	1362.04
1007.186	1401.81
1007.48	1380.8
1007.773	1357.97
1008.067	1330.18
1008.361	1336.28
1008.655	1336.5
1008.948	1309.61
1009.242	1297.18
1009.535	1307.35
1009.829	1296.73
1010.122	1308.03
1010.415	1262.83
1010.708	1254.02
1011.001	1265.32
1011.295	1265.09
1011.588	1253.57
1011.881	1258.09
1012.173	1236.85
1012.466	1226.68
1012.759	1247.69
1013.052	1236.17
1013.344	1182.16
1013.637	1211.76
1013.93	1211.76
1014.222	1193.68
1014.514	1194.36
1014.807	1206.56
1015.099	1184.42
1015.391	1177.64
1015.683	1181.25
1015.976	1154.14
1016.268	1167.7
1016.56	1131.31
1016.851	1159.11
1017.143	1142.84
1017.435	1133.35
1017.727	1115.95
1018.018	1129.96
1018.31	1103.74
1018.602	1095.38
1018.893	1110.3
1019.185	1104.19
1019.476	1107.58
1019.767	1067.36
1020.058	1075.04
1020.35	1059.45
1020.641	1081.82
1020.932	1074.59
1021.223	1041.14
1021.514	1042.95
1021.804	1057.64
1022.095	1038.21
1022.386	1042.27
1022.677	1022.39
1022.967	1017.64
1023.258	1019.22
1023.548	988.49
1023.839	978.32
1024.129	1003.63
1024.419	980.13
1024.709	982.84
1025	956.18
1025.29	971.54
1025.58	967.25
1025.87	944.65
1026.16	930.19
1026.449	984.65
1026.739	917.76
1027.029	937.87
1027.319	921.15
1027.608	927.7
1027.898	919.79
1028.187	914.59
1028.477	913.69
1028.766	888.83
1029.055	910.3
1029.344	896.97
1029.634	873.24
1029.923	899.91
1030.212	878.21
1030.501	873.47
1030.79	855.39
1031.078	848.38
1031.367	870.98
1031.656	891.32
1031.945	854.03
1032.233	846.35
1032.522	824.65
1032.81	845.44
1033.099	821.04
1033.387	827.14
1033.675	816.07
1033.963	815.39
1034.251	794.6
1034.54	799.8
1034.828	786.01
1035.116	788.04
1035.403	796.18
1035.691	786.46
1035.979	799.8
1036.267	792.79
1036.554	755.95
1036.842	776.29
1037.129	770.87
1037.417	731.77
1037.704	741.49
1037.992	743.75
1038.279	753.69
1038.566	724.77
1038.853	724.77
1039.14	724.77
