Data from cardboard_FLMS001491_087.txt Node
Date: Tue Feb 07 11:40:16 GMT 2017
User: dcchb
Spectrometer: FLMS00149
Trigger mode: 0
Integration Time (sec): 2.000000E-2
Scans to average: 10
Electric dark correction enabled: true
Nonlinearity correction enabled: false
Boxcar width: 0
XAxis mode: Wavelengths
Number of Pixels in Spectrum: 2048
>>>>>Begin Spectral Data<<<<<
341.393	-26.67
341.776	-26.67
342.16	-26.67
342.543	-53.78
342.927	-83.84
343.31	-68.25
343.693	-65.31
344.077	-88.36
344.46	-59.21
344.843	-55.82
345.226	-33.22
345.61	-51.75
345.993	-9.94
346.376	-15.14
346.759	9.72
347.142	28.93
347.525	60.11
347.908	75.25
348.291	70.51
348.674	94.23
349.057	108.25
349.44	122.71
349.823	149.37
350.206	175.59
350.588	189.15
350.971	217.85
351.354	220.11
351.737	208.36
352.119	223.04
352.502	263.95
352.884	269.37
353.267	277.05
353.65	278.41
354.032	284.51
354.414	284.06
354.797	301.01
355.179	321.35
355.562	332.19
355.944	317.51
356.326	329.48
356.709	346.66
357.091	337.39
357.473	358.41
357.855	335.13
358.238	348.47
358.62	335.81
359.002	339.43
359.384	352.76
359.766	348.24
360.148	340.1
360.53	332.42
360.912	329.93
361.294	352.53
361.676	307.11
362.057	338.97
362.439	346.43
362.821	308.92
363.203	308.24
363.584	324.74
363.966	302.14
364.348	329.26
364.729	321.35
365.111	319.99
365.493	327.22
365.874	317.28
366.256	317.51
366.637	304.85
367.019	300.11
367.4	329.71
367.781	303.49
368.163	310.27
368.544	319.31
368.925	322.25
369.306	307.56
369.688	323.38
370.069	299.65
370.45	299.2
370.831	298.98
371.212	297.39
371.593	324.51
371.974	337.62
372.355	312.76
372.736	319.31
373.117	332.42
373.498	301.24
373.879	312.99
374.26	335.81
374.641	310.27
375.021	309.37
375.402	326.77
375.783	323.16
376.163	305.98
376.544	345.98
376.925	334
377.305	329.26
377.686	330.84
378.066	324.06
378.447	331.29
378.827	334.68
379.208	366.09
379.588	326.77
379.968	340.33
380.349	339.2
380.729	328.58
381.109	338.3
381.489	342.82
381.87	355.02
382.25	338.97
382.63	358.18
383.01	337.17
383.39	346.66
383.77	345.75
384.15	335.58
384.53	345.98
384.91	354.57
385.29	356.15
385.67	365.87
386.049	370.84
386.429	367
386.809	379.88
387.189	355.92
387.568	351.18
387.948	352.08
388.328	363.61
388.707	380.33
389.087	398.63
389.466	378.07
389.846	375.58
390.225	387.11
390.605	385.3
390.984	383.72
391.363	385.3
391.743	376.94
392.122	403.83
392.501	363.61
392.881	403.38
393.26	388.01
393.639	398.86
394.018	362.48
394.397	398.63
394.776	411.74
395.155	411.74
395.534	416.26
395.913	419.88
396.292	420.1
396.671	409.03
397.05	419.65
397.429	423.04
397.808	426.66
398.186	414.68
398.565	416.03
398.944	440.21
399.323	442.02
399.701	451.06
400.08	454.45
400.458	429.14
400.837	431.63
401.215	434.56
401.594	446.09
401.972	453.32
402.351	444.51
402.729	435.02
403.107	448.58
403.486	444.28
403.864	465.07
404.242	450.16
404.62	460.78
404.999	465.52
405.377	470.27
405.755	464.85
406.133	478.18
406.511	482.7
406.889	508.69
407.267	475.02
407.645	488.8
408.023	497.39
408.401	501.91
408.779	506.43
409.156	493.09
409.534	524.73
409.912	506.43
410.29	520.21
410.667	531.51
411.045	527.22
411.422	523.6
411.8	522.7
412.178	544.84
412.555	544.84
412.933	532.19
413.31	550.04
413.687	543.49
414.065	583.49
414.442	568.12
414.819	588.23
415.197	569.93
415.574	578.97
415.951	586.88
416.328	582.13
416.705	562.92
417.082	593.43
417.46	605.86
417.837	611.74
418.214	633.2
418.591	607.44
418.967	639.53
419.344	624.16
419.721	628.46
420.098	642.02
420.475	639.98
420.852	615.13
421.228	663.94
421.605	638.85
421.982	642.69
422.358	621.23
422.735	658.51
423.111	679.76
423.488	660.32
423.864	692.86
424.241	684.73
424.617	672.98
424.994	704.39
425.37	716.59
425.746	700.77
426.123	729.02
426.499	731.73
426.875	742.81
427.251	717.95
427.627	729.02
428.003	749.13
428.379	773.09
428.756	756.14
429.132	787.55
429.507	781.67
429.883	774.89
430.259	781
430.635	778.51
431.011	821.9
431.387	803.14
431.763	806.53
432.138	830.26
432.514	860.99
432.89	850.15
433.265	841.33
433.641	847.66
434.016	835.01
434.392	863.48
434.767	892.86
435.143	897.15
435.518	904.61
435.894	906.19
436.269	903.93
436.644	946.87
437.02	926.98
437.395	950.03
437.77	934.66
438.145	962.46
438.52	938.05
438.895	976.7
439.271	976.7
439.646	990.26
440.021	1003.82
440.395	1003.59
440.77	997.49
441.145	991.84
441.52	1016.7
441.895	1038.39
442.27	1018.96
442.645	1030.03
443.019	1039.07
443.394	1050.14
443.769	1049.46
444.143	1086.3
444.518	1064.38
444.892	1059.63
445.267	1084.27
445.641	1103.7
446.016	1077.94
446.39	1147.77
446.764	1123.81
447.139	1114.1
447.513	1131.04
447.887	1106.19
448.262	1149.8
448.636	1121.55
449.01	1158.84
449.384	1149.12
449.758	1158.84
450.132	1174.43
450.506	1179.18
450.88	1214.66
451.254	1198.84
451.628	1208.56
452.002	1222.11
452.376	1234.09
452.75	1243.58
453.123	1238.16
453.497	1283.81
453.871	1256.46
454.244	1292.85
454.618	1318.61
454.992	1324.94
455.365	1301.66
455.739	1363.13
456.112	1342.34
456.486	1366.29
456.859	1412.84
457.232	1430.24
457.606	1404.48
457.979	1414.43
458.352	1446.97
458.725	1475.89
459.099	1485.84
459.472	1524.48
459.845	1543.91
460.218	1503.46
460.591	1556.57
460.964	1554.99
461.337	1573.07
461.71	1594.53
462.083	1628.66
462.456	1622.56
462.829	1618.49
463.201	1650.8
463.574	1682.44
463.947	1715.44
464.32	1740.29
464.692	1756.34
465.065	1731.93
465.438	1791.37
465.81	1782.78
466.183	1804.47
466.555	1884.24
466.928	1839.5
467.3	1893.28
467.672	1873.17
468.045	1939.16
468.417	1970.12
468.789	1950.23
469.161	1969.89
469.534	2014.86
469.906	2020.74
470.278	2053.28
470.65	2074.75
471.022	2131.47
471.394	2165.82
471.766	2155.65
472.138	2171.47
472.51	2274.29
472.882	2326.49
473.253	2317
473.625	2345.7
473.997	2368.07
474.369	2440.39
474.74	2433.16
475.112	2477.45
475.484	2524
475.855	2548.86
476.227	2592.7
476.598	2614.62
476.97	2627.05
477.341	2743.88
477.713	2765.58
478.084	2754.28
478.455	2849.87
478.827	2878.79
479.198	2927.83
479.569	2987.04
479.94	3067.04
480.311	3094.38
480.682	3158.34
481.053	3199.01
481.424	3235.62
481.795	3293.02
482.166	3352.68
482.537	3367.14
482.908	3436.52
483.279	3499.12
483.65	3569.17
484.021	3624.31
484.391	3657.76
484.762	3679.23
485.133	3758.09
485.503	3797.64
485.874	3892.33
486.244	3921.03
486.615	3990.63
486.985	4048.03
487.356	4143.62
487.726	4194.01
488.097	4251.87
488.467	4257.29
488.837	4408.02
489.207	4402.6
489.578	4482.37
489.948	4502.03
490.318	4657.5
490.688	4650.27
491.058	4698.41
491.428	4762.36
491.798	4784.96
492.168	4952.41
492.538	4951.28
492.908	5022.92
493.278	5074.67
493.648	5133.65
494.017	5192.41
494.387	5244.38
494.757	5287.09
495.126	5342.01
495.496	5367.77
495.866	5402.8
496.235	5550.59
496.605	5547.65
496.974	5614.09
497.344	5657.93
497.713	5721.43
498.082	5790.13
498.452	5824.48
498.821	5887.53
499.19	5878.04
499.559	5998.49
499.928	6025.15
500.298	6088.43
500.667	6135.88
501.036	6173.17
501.405	6217.01
501.774	6281.64
502.143	6346.5
502.512	6368.87
502.88	6449.77
503.249	6457.68
503.618	6548.08
503.987	6572.93
504.356	6591.24
504.724	6716.21
505.093	6706.04
505.462	6733.61
505.83	6786.04
506.199	6884.56
506.567	7016.54
506.936	7077.55
507.304	7143.99
507.672	7137.44
508.041	7278.68
508.409	7288.62
508.777	7363.42
509.145	7439.13
509.514	7383.53
509.882	7522.29
510.25	7586.47
510.618	7668.95
510.986	7775.61
511.354	7792.34
511.722	7897.42
512.09	7955.72
512.458	7980.58
512.826	8070.75
513.193	8166.34
513.561	8238.43
513.929	8301.48
514.297	8360.01
514.664	8454.47
515.032	8489.27
515.4	8602.71
515.767	8668.92
516.135	8777.17
516.502	8683.61
516.869	8885.19
517.237	8912.31
517.604	8923.16
517.972	9074.34
518.339	9188.91
518.706	9215.8
519.073	9256.48
519.44	9401.56
519.808	9457.15
520.175	9507.77
520.542	9674.55
520.909	9681.33
521.276	9820.31
521.643	9949.79
522.009	9964.26
522.376	10093.52
522.743	10181.43
523.11	10235.89
523.477	10378.03
523.843	10499.38
524.21	10666.84
524.577	10683.56
524.943	10818.02
525.31	10897.34
525.676	10984.57
526.043	11074.29
526.409	11169.42
526.776	11315.63
527.142	11399.02
527.508	11555.18
527.874	11634.95
528.241	11641.28
528.607	11752.46
528.973	11908.84
529.339	11913.59
529.705	12043.07
530.071	12135.27
530.437	12248.04
530.803	12314.48
531.169	12472.89
531.535	12474.02
531.901	12603.74
532.267	12692.77
532.632	12781.13
532.998	12904.52
533.364	12951.07
533.73	13107.45
534.095	13126.43
534.461	13202.82
534.826	13320.55
535.192	13431.74
535.557	13523.03
535.923	13469.25
536.288	13618.62
536.653	13791.95
537.019	13743.82
537.384	13840.77
537.749	13826.98
538.114	13936.36
538.479	14013.19
538.845	14144.03
539.21	14127.09
539.575	14280.75
539.94	14353.52
540.305	14440.98
540.67	14535.89
541.034	14628.99
541.399	14654.76
541.764	14764.81
542.129	14835.77
542.494	14936.1
542.858	14948.08
543.223	15081.41
543.587	15214.29
543.952	15191.92
544.316	15283.44
544.681	15254.29
545.045	15407.73
545.41	15530.67
545.774	15609.31
546.138	15702.19
546.503	15711.45
546.867	15720.49
547.231	15966.13
547.595	15999.13
547.959	16098.79
548.324	16134.94
548.688	16176.98
549.052	16320.7
549.416	16380.13
549.779	16488.38
550.143	16478.89
550.507	16748.71
550.871	16723.4
551.235	16678.66
551.599	16964.75
551.962	16943.06
552.326	17088.36
552.689	17196.16
553.053	17150.51
553.417	17256.5
553.78	17545.08
554.143	17456.04
554.507	17538.97
554.87	17779.87
555.234	17802.02
555.597	17802.24
555.96	17885.63
556.323	18063.93
556.686	18061.67
557.05	18285.17
557.413	18347.77
557.776	18437.48
558.139	18517.48
558.502	18633.86
558.865	18725.84
559.228	18855.55
559.59	18947.75
559.953	19046.28
560.316	19233.62
560.679	19348.64
561.041	19458.02
561.404	19523.55
561.767	19705.24
562.129	19696.66
562.492	19954.28
562.854	19896.2
563.217	20061.62
563.579	20124.89
563.941	20333.93
564.304	20332.35
564.666	20525.11
565.028	20598.33
565.39	20692.79
565.753	20883.29
566.115	20942.27
566.477	21042.16
566.839	21161.03
567.201	21275.82
567.563	21494.8
567.925	21565.53
568.287	21645.31
568.648	21667.68
569.01	21854.79
569.372	22082.36
569.734	22022.47
570.095	22256.14
570.457	22228.12
570.819	22328.68
571.18	22429.01
571.542	22545.62
571.903	22637.82
572.265	22681.44
572.626	22849.79
572.987	22778.61
573.349	23038.72
573.71	23126.4
574.071	23285.72
574.432	23304.7
574.794	23529.1
575.155	23514.86
575.516	23494.75
575.877	23710.11
576.238	23690
576.599	23828.75
576.96	23832.14
577.32	23824.91
577.681	23962.31
578.042	24156.65
578.403	24096.77
578.763	24208.85
579.124	24228.29
579.485	24278.46
579.845	24459.47
580.206	24390.09
580.566	24479.81
580.927	24624.66
581.287	24704.66
581.648	24554.83
582.008	24852.23
582.368	24776.98
582.728	24930.87
583.089	24913.7
583.449	24974.94
583.809	24967.25
584.169	25069.4
584.529	25042.96
584.889	25354.36
585.249	25116.4
585.609	25154.37
585.969	25291.09
586.329	25266.45
586.688	25284.08
587.048	25423.74
587.408	25364.76
587.768	25426
588.127	25401.37
588.487	25427.81
588.846	25631.64
589.206	25540.57
589.565	25490.86
589.925	25725.2
590.284	25683.84
590.643	25721.81
591.003	25952.76
591.362	25974.46
591.721	25760.9
592.08	25965.19
592.44	25960.67
592.799	25969.71
593.158	25979.88
593.517	26006.77
593.876	26119.09
594.235	26015.59
594.593	26165.64
594.952	26211.51
595.311	26303.72
595.67	26407.89
596.029	26540.55
596.387	26536.48
596.746	26560.66
597.104	26364.05
597.463	26552.75
597.822	26525.4
598.18	26527.21
598.538	26482.47
598.897	26634.1
599.255	26498.29
599.613	26940.08
599.972	26808.11
600.33	26920.65
600.688	26820.54
601.046	26968.56
601.404	27070.02
601.762	26971.27
602.12	27152.28
602.478	27124.94
602.836	27162.45
603.194	27131.72
603.552	27197.93
603.91	27081.77
604.268	27267.53
604.625	27224.14
604.983	27404.7
605.341	27190.25
605.698	27506.17
606.056	27482.67
606.413	27509.56
606.771	27574.64
607.128	27702.32
607.485	27557.02
607.843	27699.16
608.2	27791.59
608.557	27822.77
608.914	27940.06
609.272	27984.12
609.629	28016.66
609.986	28135.98
610.343	28030.22
610.7	28222.53
611.057	28262.53
611.414	28272.02
611.771	28302.76
612.127	28341.18
612.484	28399.25
612.841	28379.59
613.198	28378.01
613.554	28446.71
613.911	28700.94
614.267	28564.9
614.624	28605.58
614.98	28622.07
615.337	28778.9
615.693	28770.09
616.05	28808.51
616.406	29006.69
616.762	28868.85
617.118	28906.81
617.475	28955.17
617.831	29113.13
618.187	29076.75
618.543	29145.67
618.899	29384.54
619.255	29191.55
619.611	29218.89
619.967	29359.23
620.323	29452.56
620.678	29300.92
621.034	29371.66
621.39	29400.36
621.746	29366.91
622.101	29652.33
622.457	29508.6
622.812	29563.29
623.168	29552.9
623.523	29627.24
623.879	29717.86
624.234	29469.06
624.589	29607.58
624.945	29627.47
625.3	29707.24
625.655	29642.38
626.01	29694.59
626.365	29789.27
626.72	29739.11
627.075	29740.23
627.43	29661.59
627.785	29697.3
628.14	29888.25
628.495	29780.23
628.85	29806.45
629.205	29824.98
629.559	29935.94
629.914	29634.02
630.269	29697.52
630.623	29722.83
630.978	29675.15
631.332	29743.62
631.687	29864.07
632.041	29669.95
632.396	29872.43
632.75	29639.45
633.104	29737.52
633.459	29870.85
633.813	29722.83
634.167	29712.89
634.521	29691.42
634.875	29740.69
635.229	29719.67
635.583	29543.4
635.937	29544.76
636.291	29526.68
636.645	29758.54
636.999	29597.87
637.352	29661.37
637.706	29502.73
638.06	29472.67
638.413	29537.98
638.767	29479.45
639.121	29516.51
639.474	29378.44
639.828	29410.98
640.181	29417.53
640.534	29398.55
640.888	29365.33
641.241	29392.45
641.594	29335.5
641.947	29387.93
642.301	29293.69
642.654	29428.6
643.007	29445.55
643.36	29408.72
643.713	29285.78
644.066	29367.82
644.419	29263.86
644.771	29056.64
645.124	28844.89
645.477	28704.78
645.83	28560.6
646.182	28429.08
646.535	28554.05
646.888	28435.86
647.24	28324.68
647.593	28536.42
647.945	28455.75
648.298	28420.27
648.65	28283.1
649.002	28196.09
649.355	28409.87
649.707	28249.65
650.059	28441.96
650.411	28833.59
650.763	28800.37
651.115	29248.27
651.467	29054.15
651.819	28948.84
652.171	28971.67
652.523	28965.11
652.875	28925.34
653.227	28915.4
653.578	29198.1
653.93	28980.48
654.282	28864.1
654.633	28862.97
654.985	28808.28
655.337	28985.45
655.688	28903.19
656.039	29093.7
656.391	28821.62
656.742	28838.34
657.094	28942.06
657.445	29002.63
657.796	28864.78
658.147	28877.21
658.498	29006.47
658.849	28981.38
659.2	29018.45
659.551	28800.37
659.902	29042.4
660.253	28837.66
660.604	29034.26
660.955	28788.17
661.306	29001.95
661.656	28875.17
662.007	28831.56
662.358	29000.14
662.708	28924.89
663.059	28841.95
663.409	28848.51
663.76	28944.55
664.11	28931.89
664.461	29062.06
664.811	29097.77
665.161	28876.3
665.511	28892.57
665.862	28937.32
666.212	29182.74
666.562	29027.49
666.912	28975.74
667.262	28842.63
667.612	28927.15
667.962	28994.49
668.312	28879.92
668.662	29146.58
669.011	29000.59
669.361	28923.99
669.711	29031.1
670.06	28965.11
670.41	28876.08
670.76	28938
671.109	29126.24
671.459	28902.06
671.808	28855.29
672.157	28986.58
672.507	28858.9
672.856	28774.38
673.205	28923.53
673.554	28964.21
673.904	28754.05
674.253	29081.5
674.602	28952.01
674.951	28454.17
675.3	28330.55
675.649	28734.84
675.998	28730.32
676.346	28821.16
676.695	28883.53
677.044	28635.86
677.393	28860.03
677.741	28695.97
678.09	28765.8
678.438	28692.58
678.787	28656.2
679.135	28611.45
679.484	28581.4
679.832	28797.43
680.181	28621.85
680.529	28655.97
680.877	28435.18
681.225	28517.67
681.573	28729.19
681.922	28517.44
682.27	28441.74
682.618	28438.35
682.966	28445.58
683.314	28340.27
683.661	28271.35
684.009	28200.61
684.357	28228.86
684.705	28243.33
685.053	28168.75
685.4	28093.72
685.748	28020.28
686.095	27982.32
686.443	27951.81
686.79	27899.61
687.138	27955.88
687.485	27857.57
687.832	27944.58
688.18	27930.57
688.527	27867.52
688.874	27715.66
689.221	27626.39
689.568	27669.33
689.915	27621.87
690.262	27655.54
690.609	27492.16
690.956	27418.71
691.303	27425.49
691.65	27413.06
691.997	27362.22
692.344	27126.52
692.69	27235.22
693.037	27091.72
693.383	27145.73
693.73	27110.02
694.077	26998.16
694.423	26849.46
694.769	26787.32
695.116	26689.24
695.462	26828.9
695.808	26719.3
696.155	26674.1
696.501	26416.25
696.847	26561.56
697.193	26399.98
697.539	26484.95
697.885	26266.2
698.231	26161.57
698.577	26211.51
698.923	26100.56
699.269	26058.52
699.614	25890.39
699.96	25923.16
700.306	25932.2
700.651	25897.4
700.997	25784.41
701.342	25754.8
701.688	25720.91
702.033	25559.78
702.379	25640
702.724	25444.53
703.069	25563.4
703.415	25210.86
703.76	25197.3
704.105	25383.29
704.45	25316.4
704.795	25138.55
705.14	25044.77
705.485	25043.64
705.83	24945.11
706.175	24948.5
706.52	24894.03
706.865	24767.71
707.209	24859.69
707.554	24663.98
707.899	24682.97
708.243	24530.65
708.588	24716.64
708.932	24509.41
709.277	24408.62
709.621	24524.55
709.966	24276.88
710.31	24361.17
710.654	24165.69
710.998	24224.22
711.342	24092.02
711.687	24188.06
712.031	24116.65
712.375	24144
712.719	24124.11
713.063	23958.01
713.407	24060.84
713.75	23934.74
714.094	23979.93
714.438	23829.2
714.782	23972.93
715.125	23746.27
715.469	23831.01
715.812	23632.82
716.156	23652.49
716.499	23560.96
716.843	23666.72
717.186	23548.31
717.53	23624.92
717.873	23551.47
718.216	23558.7
718.559	23433.28
718.902	23297.24
719.246	23392.15
719.589	23319.61
719.932	23141.09
720.275	23196
720.617	23183.57
720.96	23186.73
721.303	23132.05
721.646	23134.53
721.989	23065.83
722.331	23212.27
722.674	23203.01
723.016	23093.18
723.359	23083.01
723.701	23017.47
724.044	22996.23
724.386	22935.89
724.729	23038.72
725.071	22946.52
725.413	22895.67
725.755	22922.34
726.097	22852.73
726.439	22728.67
726.782	22776.12
727.124	22865.16
727.465	22776.12
727.807	22653.87
728.149	22611.38
728.491	22632.17
728.833	22598.5
729.175	22553.76
729.516	22443.93
729.858	22535.23
730.199	22543.36
730.541	22510.37
730.882	22481.67
731.224	22539.29
731.565	22348.56
731.906	22310.15
732.248	22422.01
732.589	22289.13
732.93	22253.43
733.271	22464.27
733.612	22406.87
733.953	22455.68
734.294	22285.74
734.635	22314.22
734.976	22478.51
735.317	22114.45
735.658	22224.27
735.999	22206.65
736.339	22111.73
736.68	22298.4
737.021	22040.78
737.361	22050.04
737.702	22156.71
738.042	22076.26
738.383	22062.02
738.723	22106.99
739.063	22101.11
739.404	22152.86
739.744	22008.23
740.084	22042.13
740.424	22107.22
740.764	22016.82
741.104	22106.31
741.444	22034.45
741.784	21882.36
742.124	21965.52
742.464	22012.75
742.804	21876.03
743.143	21829.48
743.483	21934.11
743.823	21719.2
744.162	21678.07
744.502	21831.29
744.841	21747.9
745.181	21894.34
745.52	21790.84
745.86	21794
746.199	21753.55
746.538	21728.69
746.877	21789.71
747.216	21780.9
747.556	21720.33
747.895	21730.05
748.234	21742.25
748.573	21643.72
748.911	21670.39
749.25	21728.47
749.589	21573.44
749.928	21645.98
750.267	21710.62
750.605	21637.85
750.944	21628.81
751.283	21537.51
751.621	21600.79
751.96	21520.11
752.298	21429.27
752.636	21517.4
752.975	21450.06
753.313	21390.62
753.651	21459.55
753.989	21417.52
754.327	21394.47
754.666	21258.42
755.004	21340.23
755.342	21362.15
755.679	21361.92
756.017	21158.09
756.355	21242.38
756.693	21216.84
757.031	21284.64
757.368	21106.34
757.706	21063.17
758.044	21094.81
758.381	21086
758.719	21095.04
759.056	21035.38
759.394	20975.04
759.731	20783.41
760.068	20939.34
760.405	20873.12
760.743	20812.33
761.08	20783.18
761.417	20737.99
761.754	20707.03
762.091	20640.36
762.428	20641.27
762.765	20540.7
763.102	20586.13
763.438	20578.89
763.775	20442.4
764.112	20456.86
764.449	20382.29
764.785	20437.43
765.122	20324.44
765.458	20166.7
765.795	20226.81
766.131	20162.41
766.467	20166.48
766.804	20078.34
767.14	19990.66
767.476	19991.56
767.812	19859.14
768.148	19888.74
768.485	19687.39
768.821	19794.73
769.157	19666.83
769.492	19599.94
769.828	19661.86
770.164	19515.87
770.5	19436.78
770.836	19544.8
771.171	19398.13
771.507	19315.2
771.842	19199.95
772.178	19223.9
772.513	19122.66
772.849	19081.53
773.184	19088.31
773.519	19083.57
773.855	18883.35
774.19	18939.39
774.525	18921.99
774.86	18810.35
775.195	18666.63
775.53	18712.5
775.865	18655.33
776.2	18422.34
776.535	18343.92
776.87	18460.76
777.205	18305.51
777.539	18250.82
777.874	18352.06
778.209	18173.53
778.543	18108.68
778.878	18012.63
779.212	18050.6
779.547	17910.26
779.881	18037.49
780.215	17790.72
780.55	17796.59
780.884	17714.56
781.218	17732.19
781.552	17679.31
781.886	17644.51
782.22	17509.37
782.554	17461.46
782.888	17268.47
783.222	17208.14
783.556	17284.29
783.889	17241.81
784.223	17123.39
784.557	17074.58
784.89	17195.48
785.224	16971.08
785.557	16956.39
785.891	16821.48
786.224	16781.48
786.558	16802.27
786.891	16603.41
787.224	16536.97
787.557	16524.76
787.891	16510.53
788.224	16488.83
788.557	16504.65
788.89	16435.5
789.223	16427.14
789.556	16242.28
789.888	16230.99
790.221	16188.05
790.554	16043.19
790.887	16100.82
791.219	16034.38
791.552	16068.96
791.884	15905.57
792.217	15900.37
792.549	15920.03
792.882	15703.32
793.214	15675.75
793.546	15729.08
793.879	15652.02
794.211	15565.47
794.543	15534.96
794.875	15492.93
795.207	15529.31
795.539	15424.91
795.871	15317.79
796.203	15272.37
796.535	15225.59
796.867	15205.7
797.198	15101.75
797.53	15127.29
797.862	15050.68
798.193	15135.87
798.525	15007.06
798.856	15061.75
799.188	14889.1
799.519	14778.59
799.85	14681.87
800.182	14740.63
800.513	14730.46
800.844	14608.66
801.175	14740.18
801.506	14781.53
801.837	14600.97
802.168	14602.55
802.499	14462.9
802.83	14385.84
803.161	14459.05
803.491	14423.35
803.822	14333.18
804.153	14305.16
804.483	14178.38
804.814	14144.03
805.145	14274.43
805.475	14107.43
805.805	14104.04
806.136	14081.66
806.466	14032.17
806.796	14032.85
807.126	13941.55
807.457	13954.21
807.787	13908.11
808.117	13897.04
808.447	13770.94
808.777	13808
809.107	13742.46
809.436	13677.15
809.766	13763.71
810.096	13634.9
810.426	13679.41
810.755	13664.95
811.085	13584.05
811.414	13560.1
811.744	13436.48
812.073	13420.44
812.403	13401.68
812.732	13323.94
813.061	13429.03
813.39	13318.75
813.719	13289.82
814.049	13320.55
814.378	13271.97
814.707	13223.83
815.036	13202.82
815.365	13077.4
815.693	13081.46
816.022	13058.87
816.351	13034.23
816.68	12891.64
817.008	13001.24
817.337	12884.63
817.665	12884.63
817.994	12976.16
818.322	12869.49
818.651	12852.09
818.979	12787.23
819.307	12833.56
819.636	12794.92
819.964	12671.76
820.292	12768.03
820.62	12709.04
820.948	12697.29
821.276	12714.24
821.604	12633.57
821.932	12734.13
822.259	12823.84
822.587	12710.85
822.915	12599.89
823.243	12671.08
823.57	12652.1
823.898	12658.65
824.225	12548.14
824.553	12646
824.88	12652.1
825.207	12622.27
825.535	12621.36
825.862	12641.02
826.189	12678.99
826.516	12721.7
826.843	12730.29
827.17	12724.86
827.497	12792.88
827.824	12606.22
828.151	12714.02
828.478	12705.65
828.805	12711.08
829.131	12622.27
829.458	12638.09
829.785	12625.66
830.111	12603.06
830.438	12721.02
830.764	12670.4
831.09	12658.65
831.417	12618.88
831.743	12666.11
832.069	12563.51
832.395	12616.17
832.722	12669.27
833.048	12573.45
833.374	12581.14
833.7	12555.6
834.026	12643.96
834.351	12630.4
834.677	12541.37
835.003	12637.18
835.329	12579.56
835.654	12507.69
835.98	12452.55
836.306	12467.47
836.631	12522.83
836.956	12436.28
837.282	12447.81
837.607	12383.63
837.932	12415.04
838.258	12436.28
838.583	12405.55
838.908	12402.61
839.233	12300.92
839.558	12309.73
839.883	12266.8
840.208	12269.06
840.533	12276.97
840.858	12285.55
841.182	12213.01
841.507	12312.9
841.832	12182.5
842.156	12096.41
842.481	12170.75
842.805	12043.3
843.13	12060.93
843.454	12060.7
843.778	12064.54
844.103	12058.89
844.427	12008.5
844.751	11975.28
845.075	11974.37
845.399	11879.69
845.723	11826.36
846.047	11850.76
846.371	11728.73
846.695	11731.67
847.019	11664.55
847.343	11660.94
847.666	11608.06
847.99	11530.77
848.313	11505.23
848.637	11397.89
848.96	11450.55
849.284	11427.95
849.607	11348.18
849.931	11260.27
850.254	11178.24
850.577	11128.07
850.9	11079.93
851.223	11045.81
851.546	11054.4
851.869	10937.79
852.192	11046.04
852.515	10907.28
852.838	10821.64
853.161	10854.63
853.483	10744.58
853.806	10766.95
854.129	10793.84
854.451	10724.69
854.774	10680.62
855.096	10651.02
855.419	10594.3
855.741	10552.94
856.063	10500.29
856.385	10498.71
856.708	10481.53
857.03	10465.26
857.352	10504.81
857.674	10353.17
857.996	10377.13
858.318	10270.01
858.64	10394.75
858.961	10221.88
859.283	10225.95
859.605	10222.33
859.926	10222.1
860.248	10174.87
860.57	10217.58
860.891	10152.05
861.212	10077.25
861.534	10114.99
861.855	10063.92
862.176	10023.69
862.498	10020.3
862.819	10002.22
863.14	10026.18
863.461	9952.51
863.782	9942.79
864.103	9965.61
864.424	9855.79
864.745	9922.9
865.065	9897.14
865.386	9816.01
865.707	9854.2
866.027	9773.98
866.348	9833.19
866.668	9886.97
866.989	9760.42
867.309	9739.86
867.63	9671.38
867.95	9703.7
868.27	9694.21
868.59	9716.35
868.91	9669.35
869.23	9685.85
869.55	9653.31
869.87	9698.95
870.19	9609.92
870.51	9705.06
870.83	9603.14
871.15	9548.68
871.469	9573.08
871.789	9639.52
872.109	9590.93
872.428	9543.25
872.748	9554.1
873.067	9522.69
873.386	9578.51
873.706	9465.29
874.025	9437.49
874.344	9458.96
874.663	9441.11
874.982	9447.21
875.301	9455.12
875.62	9448.57
875.939	9389.13
876.258	9388.45
876.577	9386.19
876.896	9341
877.214	9343.94
877.533	9335.57
877.852	9280.21
878.17	9309.81
878.489	9181.68
878.807	9232.07
879.125	9207.22
879.444	9243.6
879.762	9144.17
880.08	9201.57
880.398	9136.93
880.716	9138.52
881.034	9092.42
881.352	9104.62
881.67	9027.79
881.988	9079.31
882.306	9110.95
882.624	9101
882.941	9011.51
883.259	9081.12
883.577	8992.76
883.894	8961.8
884.212	8908.92
884.529	8893.78
884.846	8894
885.164	8884.51
885.481	8827.56
885.798	8871.41
886.115	8870.73
886.432	8814.68
886.75	8783.27
887.067	8824.4
887.383	8767.68
887.7	8776.04
888.017	8724.06
888.334	8682.48
888.651	8700.79
888.967	8652.43
889.284	8627.57
889.6	8611.3
889.917	8560.68
890.233	8590.06
890.55	8552.32
890.866	8528.14
891.182	8483.84
891.498	8488.82
891.815	8429.16
892.131	8445.43
892.447	8337.18
892.763	8360.46
893.079	8317.3
893.395	8349.38
893.71	8314.36
894.026	8338.54
894.342	8320.69
894.657	8237.52
894.973	8227.13
895.289	8211.08
895.604	8201.14
895.92	8127.47
896.235	8027.59
896.55	8093.35
896.865	8020.58
897.181	8042.73
897.496	8026.68
897.811	8003.86
898.126	7982.16
898.441	7927.25
898.756	7951.43
899.071	7833.92
899.386	7865.33
899.7	7780.59
900.015	7740.59
900.33	7711.44
900.644	7749.4
900.959	7739.46
901.273	7687.26
901.588	7668.05
901.902	7633.92
902.216	7626.69
902.531	7585.11
902.845	7588.28
903.159	7451.56
903.473	7455.85
903.787	7468.5
904.101	7397.09
904.415	7395.74
904.729	7330.43
905.042	7394.16
905.356	7344.89
905.67	7318.68
905.984	7289.3
906.297	7289.75
906.611	7189.42
906.924	7195.07
907.237	7159.81
907.551	7132.92
907.864	7152.58
908.177	7091.11
908.491	7064.67
908.804	7094.28
909.117	7041.17
909.43	6952.81
909.743	6867.62
910.056	6965.47
910.368	6918.24
910.681	6833.27
910.994	6879.59
911.307	6780.39
911.619	6792.36
911.932	6752.59
912.244	6758.47
912.557	6680.05
912.869	6627.62
913.181	6673.72
913.494	6694.06
913.806	6589.43
914.118	6576.32
914.43	6522.77
914.742	6520.05
915.054	6439.6
915.366	6504.24
915.678	6424.69
915.99	6439.38
916.302	6381.98
916.613	6386.05
916.925	6365.71
917.236	6327.29
917.548	6293.17
917.859	6318.03
918.171	6265.15
918.482	6253.62
918.794	6235.32
919.105	6206.62
919.416	6175.88
919.727	6105.38
920.038	6118.94
920.349	6064.02
920.66	6014.08
920.971	6088.2
921.282	6011.59
921.593	6019.95
921.903	5919.17
922.214	5919.84
922.525	5979.05
922.835	5901.09
923.146	5844.14
923.456	5774.54
923.767	5757.59
924.077	5766.63
924.387	5757.36
924.697	5758.27
925.008	5717.59
925.318	5688.21
925.628	5668.1
925.938	5647.99
926.248	5621.1
926.558	5596.46
926.867	5572.73
927.177	5558.05
927.487	5493.19
927.796	5450.25
928.106	5475.56
928.416	5466.07
928.725	5471.95
929.034	5452.06
929.344	5449.12
929.653	5422.23
929.962	5293.65
930.271	5317.15
930.581	5261.1
930.89	5301.78
931.199	5251.84
931.508	5229.92
931.817	5189.69
932.125	5215.23
932.434	5185.63
932.743	5126.19
933.051	5135.91
933.36	5132.75
933.669	5068.57
933.977	5050.04
934.286	5024.73
934.594	5019.98
934.902	4968.23
935.21	4980.21
935.519	4946.31
935.827	4927.33
936.135	4867.44
936.443	4865.41
936.751	4884.17
937.059	4867.22
937.367	4834
937.674	4836.93
937.982	4825.41
938.29	4813.88
938.597	4732.08
938.905	4723.04
939.213	4681.91
939.52	4624.29
939.827	4657.73
940.135	4660.67
940.442	4625.64
940.749	4613.21
941.056	4608.24
941.363	4555.13
941.67	4523.27
941.977	4514.46
942.284	4475.81
942.591	4500.9
942.898	4420.9
943.205	4469.04
943.511	4458.41
943.818	4447.57
944.125	4395.59
944.431	4406.89
944.738	4369.83
945.044	4332.32
945.35	4335.71
945.657	4321.92
945.963	4293.67
946.269	4267.23
946.575	4320.56
946.881	4228.14
947.187	4226.33
947.493	4180.46
947.799	4179.33
948.105	4178.87
948.41	4156.27
948.716	4143.85
949.022	4133
949.327	4099.55
949.633	4060.91
949.938	4063.62
950.244	4093.9
950.549	4032.44
950.854	3983.85
951.16	4030.18
951.465	3990.86
951.77	3952.89
952.075	3924.19
952.38	3914.47
952.685	3914.25
952.99	3868.15
953.294	3898.65
953.599	3871.08
953.904	3849.62
954.209	3842.61
954.513	3810.07
954.818	3790.63
955.122	3781.37
955.426	3772.33
955.731	3712.22
956.035	3704.54
956.339	3722.61
956.643	3700.47
956.948	3678.32
957.252	3636.06
957.556	3684.65
957.86	3653.69
958.163	3652.79
958.467	3633.12
958.771	3594.71
959.075	3593.58
959.378	3558.1
959.682	3532.56
959.985	3540.7
960.289	3544.99
960.592	3509.51
960.896	3533.47
961.199	3471.55
961.502	3480.81
961.805	3441.49
962.108	3419.8
962.411	3438.33
962.714	3447.59
963.017	3352.68
963.32	3377.54
963.623	3341.38
963.926	3324.88
964.228	3316.52
964.531	3339.8
964.833	3316.97
965.136	3273.59
965.438	3261.16
965.741	3247.37
966.043	3241.95
966.345	3185.68
966.648	3222.06
966.95	3213.93
967.252	3184.55
967.554	3166.92
967.856	3182.06
968.158	3112.46
968.46	3124.66
968.761	3129.18
969.063	3129.41
969.365	3135.06
969.666	3083.99
969.968	3066.81
970.269	3037.21
970.571	3036.98
970.872	3056.19
971.174	3050.09
971.475	3022.97
971.776	2986.14
972.077	2980.26
972.378	3011.45
972.679	3002.86
972.98	2951.33
973.281	2921.96
973.582	2898.91
973.883	2900.94
974.183	2899.36
974.484	2898.23
974.785	2884.67
975.085	2884.67
975.386	2848.74
975.686	2842.64
975.986	2817.1
976.287	2844.67
976.587	2815.07
976.887	2775.75
977.187	2757.89
977.487	2768.06
977.787	2743.2
978.087	2777.78
978.387	2739.36
978.687	2717.89
978.987	2689.87
979.286	2691.45
979.586	2701.85
979.885	2634.06
980.185	2670.66
980.484	2642.42
980.784	2656.2
981.083	2632.02
981.382	2619.14
981.682	2618.01
981.981	2593.15
982.28	2590.21
982.579	2538.01
982.878	2542.76
983.177	2567.62
983.475	2546.6
983.774	2523.32
984.073	2502.08
984.372	2518.35
984.67	2459.14
984.969	2505.47
985.267	2486.71
985.566	2470.67
985.864	2460.95
986.162	2429.09
986.461	2420.95
986.759	2436.55
987.057	2390.22
987.355	2400.39
987.653	2390.67
987.951	2368.53
988.249	2373.04
988.547	2342.99
988.844	2363.78
989.142	2330.79
989.44	2322.42
989.737	2314.52
990.035	2274.29
990.332	2313.16
990.63	2296.89
990.927	2276.78
991.224	2238.59
991.521	2243.33
991.819	2256.21
992.116	2260.96
992.413	2202.65
992.71	2205.82
993.006	2200.17
993.303	2164.01
993.6	2168.53
993.897	2180.96
994.193	2158.81
994.49	2134.63
994.787	2138.47
995.083	2109.55
995.379	2124.46
995.676	2108.19
995.972	2092.83
996.268	2081.3
996.565	2079.49
996.861	2077.46
997.157	2052.38
997.453	2062.09
997.749	2032.04
998.044	2015.09
998.34	2010.12
998.636	2015.09
998.932	1995.43
999.227	2006.95
999.523	1974.41
999.818	2004.69
1000.114	1957.69
1000.409	1941.87
1000.704	1934.64
1001	1931.25
1001.295	1955.65
1001.59	1900.06
1001.885	1890.8
1002.18	1907.75
1002.475	1889.67
1002.77	1886.28
1003.065	1849.67
1003.359	1874.3
1003.654	1840.4
1003.949	1840.18
1004.243	1814.42
1004.538	1806.73
1004.832	1792.95
1005.127	1801.76
1005.421	1804.92
1005.715	1770.35
1006.009	1759.5
1006.304	1756.56
1006.598	1736
1006.892	1746.39
1007.186	1726.06
1007.48	1733.97
1007.773	1694.64
1008.067	1679.73
1008.361	1672.95
1008.655	1679.05
1008.948	1675.89
1009.242	1646.06
1009.535	1639.96
1009.829	1623.91
1010.122	1618.71
1010.415	1607.64
1010.708	1618.71
1011.001	1630.01
1011.295	1564.93
1011.588	1565.16
1011.881	1541.2
1012.173	1561.54
1012.466	1568.55
1012.759	1538.04
1013.052	1537.13
1013.344	1545.27
1013.637	1513.41
1013.93	1504.37
1014.222	1501.2
1014.514	1502.56
1014.807	1485.61
1015.099	1489
1015.391	1479.96
1015.683	1478.15
1015.976	1465.5
1016.268	1447.19
1016.56	1438.38
1016.851	1432.5
1017.143	1432.05
1017.435	1408.78
1017.727	1408.55
1018.018	1419.85
1018.31	1397.25
1018.602	1376.91
1018.893	1362.9
1019.185	1320.19
1019.476	1349.12
1019.767	1333.07
1020.058	1338.04
1020.35	1327.2
1020.641	1318.16
1020.932	1286.75
1021.223	1301.89
1021.514	1309.8
1021.804	1264.6
1022.095	1268.44
1022.386	1263.7
1022.677	1282.45
1022.967	1259.18
1023.258	1262.79
1023.548	1250.36
1023.839	1244.49
1024.129	1237.93
1024.419	1209.46
1024.709	1215.56
1025	1206.75
1025.29	1189.12
1025.58	1173.53
1025.87	1183.02
1026.16	1174.21
1026.449	1153.19
1026.739	1159.07
1027.029	1151.16
1027.319	1145.51
1027.608	1130.82
1027.898	1122.46
1028.187	1104.6
1028.477	1129.01
1028.766	1110.48
1029.055	1122.91
1029.344	1079.97
1029.634	1073.87
1029.923	1067.99
1030.212	1073.64
1030.501	1068.45
1030.79	1063.25
1031.078	1067.99
1031.367	1029.13
1031.656	1035
1031.945	1025.96
1032.233	1018.05
1032.522	1026.87
1032.81	989.35
1033.099	1013.76
1033.387	1005.17
1033.675	991.16
1033.963	1003.59
1034.251	965.62
1034.54	963.82
1034.828	966.75
1035.116	972.4
1035.403	969.69
1035.691	942.57
1035.979	968.11
1036.267	968.34
1036.554	933.31
1036.842	914.78
1037.129	915.46
1037.417	898.28
1037.704	937.83
1037.992	884.27
1038.279	918.39
1038.566	894.67
1038.853	894.67
1039.14	894.67
