Data from cardboard_FLMS001491_044.txt Node
Date: Tue Feb 07 11:39:30 GMT 2017
User: dcchb
Spectrometer: FLMS00149
Trigger mode: 0
Integration Time (sec): 2.000000E-2
Scans to average: 10
Electric dark correction enabled: true
Nonlinearity correction enabled: false
Boxcar width: 0
XAxis mode: Wavelengths
Number of Pixels in Spectrum: 2048
>>>>>Begin Spectral Data<<<<<
341.393	-13.43
341.776	-13.43
342.16	-13.43
342.543	-59.08
342.927	-77.38
343.31	-86.42
343.693	-56.37
344.077	-59.98
344.46	-53.43
344.843	-78.29
345.226	-55.46
345.61	-25.18
345.993	-3.94
346.376	-15.47
346.759	28.6
347.142	31.09
347.525	41.03
347.908	52.78
348.291	76.28
348.674	103.85
349.057	100.92
349.44	140.01
349.823	151.99
350.206	168.71
350.588	189.73
350.971	212.1
351.354	225.66
351.737	215.26
352.119	244.64
352.502	248.48
352.884	248.26
353.267	278.76
353.65	275.83
354.032	279.67
354.414	280.12
354.797	302.27
355.179	300.68
355.562	295.94
355.944	317.86
356.326	323.06
356.709	293.9
357.091	302.49
357.473	316.73
357.855	330.06
358.238	304.07
358.62	323.28
359.002	317.41
359.384	326.45
359.766	322.38
360.148	329.38
360.53	307.01
360.912	329.38
361.294	298.88
361.676	321.25
362.057	317.18
362.439	323.06
362.821	326.9
363.203	311.76
363.584	315.83
363.966	297.52
364.348	312.66
364.729	316.28
365.111	298.65
365.493	312.89
365.874	307.01
366.256	289.84
366.637	297.75
367.019	288.26
367.4	295.26
367.781	296.39
368.163	302.04
368.544	287.8
368.925	294.81
369.306	303.62
369.688	280.12
370.069	290.97
370.45	304.3
370.831	317.63
371.212	294.58
371.593	289.39
371.974	302.94
372.355	311.53
372.736	310.18
373.117	294.36
373.498	314.92
373.879	300.01
374.26	310.4
374.641	314.47
375.021	292.32
375.402	309.05
375.783	307.92
376.163	304.3
376.544	287.8
376.925	303.17
377.305	309.5
377.686	316.28
378.066	294.36
378.447	309.5
378.827	304.07
379.208	300.23
379.588	298.42
379.968	311.08
380.349	317.18
380.729	298.2
381.109	301.59
381.489	293
381.87	321.7
382.25	310.4
382.63	295.49
383.01	317.41
383.39	320.12
383.77	320.57
384.15	316.28
384.53	288.26
384.91	326.45
385.29	326.67
385.67	325.32
386.049	314.24
386.429	323.96
386.809	324.19
387.189	314.7
387.568	340.91
387.948	332.55
388.328	347.46
388.707	316.28
389.087	314.02
389.466	334.13
389.846	345.65
390.225	337.75
390.605	337.07
390.984	326.67
391.363	337.07
391.743	348.82
392.122	328.93
392.501	330.74
392.881	361.93
393.26	340.46
393.639	356.28
394.018	339.55
394.397	361.25
394.776	339.1
395.155	357.86
395.534	347.69
395.913	350.63
396.292	338.42
396.671	358.76
397.05	345.65
397.429	353.11
397.808	375.03
398.186	352.66
398.565	353.34
398.944	347.01
399.323	340.01
399.701	361.47
400.08	363.51
400.458	355.82
400.837	371.64
401.215	354.47
401.594	365.54
401.972	384.52
402.351	369.16
402.729	381.59
403.107	401.02
403.486	380
403.864	377.52
404.242	379.55
404.62	354.02
404.999	369.61
405.377	394.24
405.755	384.52
406.133	400.57
406.511	382.72
406.889	402.6
407.267	387.46
407.645	402.83
408.023	401.47
408.401	394.47
408.779	420
409.156	408.93
409.534	405.09
409.912	395.82
410.29	382.72
410.667	410.29
411.045	414.81
411.422	413.45
411.8	388.37
412.178	424.52
412.555	401.25
412.933	422.04
413.31	431.08
413.687	425.2
414.065	454.13
414.442	428.36
414.819	439.66
415.197	453
415.574	426.78
415.951	440.57
416.328	428.36
416.705	450.96
417.082	426.78
417.46	449.61
417.837	474.01
418.214	448.25
418.591	449.38
418.967	477.18
419.344	462.49
419.721	480.11
420.098	469.49
420.475	481.24
420.852	463.84
421.228	453.22
421.605	478.53
421.982	474.24
422.358	489.15
422.735	501.36
423.111	486.89
423.488	475.82
423.864	480.34
424.241	504.52
424.617	500.68
424.994	507.01
425.37	516.5
425.746	490.96
426.123	483.28
426.499	500.68
426.875	511.98
427.251	520.79
427.627	507.01
428.003	532.99
428.379	514.01
428.756	536.84
429.132	547.91
429.507	550.17
429.883	527.12
430.259	537.51
430.635	564.41
431.011	528.7
431.387	551.53
431.763	553.56
432.138	578.42
432.514	561.02
432.89	561.02
433.265	575.93
433.641	561.69
434.016	589.26
434.392	593.33
434.767	577.74
435.143	595.14
435.518	611.64
435.894	606.66
436.269	610.96
436.644	619.32
437.02	608.02
437.395	632.88
437.77	635.14
438.145	642.14
438.52	651.41
438.895	651.18
439.271	624.52
439.646	658.64
440.021	665.42
440.395	655.48
440.77	664.97
441.145	646.66
441.52	699.54
441.895	648.92
442.27	672.43
442.645	661.58
443.019	665.65
443.394	676.72
443.769	704.06
444.143	672.65
444.518	692.54
444.892	695.25
445.267	678.53
445.641	681.92
446.016	688.02
446.39	700.45
446.764	683.05
447.139	693.67
447.513	709.71
447.887	732.31
448.262	731.63
448.636	706.78
449.01	716.94
449.384	754.68
449.758	743.84
450.132	727.11
450.506	726.44
450.88	764.4
451.254	742.25
451.628	774.57
452.002	773.89
452.376	790.39
452.75	772.08
453.123	794
453.497	775.7
453.871	784.06
454.244	796.04
454.618	813.44
454.992	794
455.365	837.39
455.739	831.97
456.112	851.63
456.486	852.99
456.859	867.67
457.232	870.16
457.606	876.04
457.979	861.57
458.352	902.93
458.725	893.44
459.099	883.04
459.472	900.67
459.845	936.83
460.218	912.65
460.591	916.94
460.964	916.94
461.337	950.38
461.71	959.42
462.083	953.55
462.456	963.49
462.829	956.26
463.201	984.06
463.574	980.67
463.947	980.44
464.32	997.39
464.692	1045.3
465.065	1012.98
465.438	1042.81
465.81	1032.87
466.183	1066.09
466.555	1051.17
466.928	1085.07
467.3	1083.71
467.672	1101.57
468.045	1124.17
468.417	1113.09
468.789	1117.39
469.161	1127.78
469.534	1142.47
469.906	1145.41
470.278	1217.72
470.65	1196.48
471.022	1200.1
471.394	1212.52
471.766	1213.65
472.138	1253.2
472.51	1273.99
472.882	1277.38
473.253	1277.38
473.625	1313.76
473.997	1321.45
474.369	1378.85
474.74	1364.84
475.112	1367.55
475.484	1397.15
475.855	1412.75
476.227	1402.8
476.598	1478.96
476.97	1445.51
477.341	1502.01
477.713	1505.62
478.084	1525.96
478.455	1559.41
478.827	1565.51
479.198	1634.43
479.569	1629.24
479.94	1668.78
480.311	1657.26
480.682	1682.34
481.053	1751.04
481.424	1754.88
481.795	1794.43
482.166	1803.24
482.537	1809.12
482.908	1830.14
483.279	1854.54
483.65	1866.07
484.021	1936.8
484.391	1965.27
484.762	2004.14
485.133	1978.15
485.503	2030.13
485.874	2052.5
486.244	2102.67
486.615	2135.21
486.985	2162.56
487.356	2165.04
487.726	2223.57
488.097	2250.24
488.467	2257.02
488.837	2296.34
489.207	2305.15
489.578	2377.01
489.948	2360.29
490.318	2401.65
490.688	2424.92
491.058	2447.97
491.428	2495.65
491.798	2525.26
492.168	2571.81
492.538	2579.04
492.908	2621.3
493.278	2618.59
493.648	2631.7
494.017	2703.33
494.387	2708.08
494.757	2746.5
495.126	2751.02
495.496	2792.82
495.866	2807.06
496.235	2812.26
496.605	2821.97
496.974	2883.67
497.344	2938.58
497.713	2941.29
498.082	3002.31
498.452	3006.83
498.821	3030.56
499.19	3043.66
499.559	3096.54
499.928	3091.57
500.298	3106.49
500.667	3127.05
501.036	3170.89
501.405	3196.65
501.774	3202.98
502.143	3201.17
502.512	3265.58
502.88	3283.66
503.249	3291.57
503.618	3382.41
503.987	3351.45
504.356	3411.34
504.724	3375.18
505.093	3447.49
505.462	3451.11
505.83	3483.43
506.199	3530.66
506.567	3565.23
506.936	3599.81
507.304	3635.51
507.672	3653.59
508.041	3690.43
508.409	3725.23
508.777	3772.01
509.145	3782.4
509.514	3820.82
509.882	3800.71
510.25	3851.33
510.618	3828.05
510.986	3917.99
511.354	3929.06
511.722	3963.64
512.09	4065.56
512.458	4067.36
512.826	4065.1
513.193	4118.66
513.561	4159.11
513.929	4143.07
514.297	4219.68
514.664	4260.13
515.032	4296.29
515.4	4327.7
515.767	4357.3
516.135	4402.05
516.502	4378.54
516.869	4449.73
517.237	4463.06
517.604	4461.25
517.972	4540.8
518.339	4567.92
518.706	4631.87
519.073	4641.14
519.44	4668.03
519.808	4767.01
520.175	4747.35
520.542	4864.18
520.909	4865.76
521.276	4902.37
521.643	4939.66
522.009	5015.36
522.376	5042.48
522.743	5070.95
523.11	5112.76
523.477	5210.84
523.843	5223.94
524.21	5272.3
524.577	5344.85
524.943	5322.25
525.31	5392.08
525.676	5474.79
526.043	5459.64
526.409	5490.15
526.776	5555.46
527.142	5628.91
527.508	5616.48
527.874	5708.9
528.241	5775.79
528.607	5854.89
528.973	5866.41
529.339	5882.01
529.705	5944.38
530.071	5988.67
530.437	6028.9
530.803	6068.89
531.169	6148.89
531.535	6124.03
531.901	6203.13
532.267	6248.1
532.632	6327.42
532.998	6282.67
533.364	6381.43
533.73	6414.65
534.095	6465.49
534.461	6470.92
534.826	6535.32
535.192	6583.68
535.557	6594.08
535.923	6602.67
536.288	6689.22
536.653	6702.1
537.019	6720.18
537.384	6763.34
537.749	6808.08
538.114	6832.72
538.479	6877.23
538.845	6891.92
539.21	6930.34
539.575	7013.05
539.94	7067.51
540.305	7061.86
540.67	7081.52
541.034	7124.46
541.399	7145.25
541.764	7219.82
542.129	7297.79
542.494	7251.91
542.858	7304.34
543.223	7328.97
543.587	7394.06
543.952	7392.48
544.316	7469.54
544.681	7436.32
545.045	7463.89
545.41	7604.45
545.774	7567.16
546.138	7633.37
546.503	7685.8
546.867	7639.47
547.231	7768.06
547.595	7742.07
547.959	7861.84
548.324	7800.6
548.688	7931.44
549.052	7985.45
549.416	7896.19
549.779	7988.17
550.143	8061.16
550.507	8090.31
550.871	8155.84
551.235	8173.47
551.599	8218.44
551.962	8257.09
552.326	8285.56
552.689	8338.66
553.053	8331.66
553.417	8420.92
553.78	8523.07
554.143	8562.61
554.507	8564.87
554.87	8601.93
555.234	8676.51
555.597	8674.02
555.96	8645.78
556.323	8828.37
556.686	8880.35
557.05	8913.57
557.413	8924.41
557.776	8923.06
558.139	9039.21
558.502	9066.33
558.865	9130.28
559.228	9167.57
559.59	9199.21
559.953	9251.86
560.316	9354.46
560.679	9297.96
561.041	9455.7
561.404	9484.4
561.767	9572.76
562.129	9581.34
562.492	9776.37
562.854	9665.18
563.217	9675.8
563.579	9734.33
563.941	9868.79
564.304	9893.65
564.666	9903.82
565.028	9936.36
565.39	10026.76
565.753	10131.16
566.115	10163.48
566.477	10227.65
566.839	10258.16
567.201	10316.69
567.563	10388.55
567.925	10439.63
568.287	10482.34
568.648	10482.79
569.01	10589.23
569.372	10709.22
569.734	10690.02
570.095	10718.04
570.457	10728.88
570.819	10782.44
571.18	10854.08
571.542	10945.38
571.903	10899.05
572.265	11015.43
572.626	10985.15
572.987	11099.72
573.349	11103.34
573.71	11234.18
574.071	11120.96
574.432	11322.54
574.794	11325.48
575.155	11381.07
575.516	11376.55
575.877	11309.89
576.238	11454.97
576.599	11489.32
576.96	11564.57
577.32	11599.82
577.681	11718.92
578.042	11681.18
578.403	11702.19
578.763	11757.78
579.124	11740.84
579.485	11843.88
579.845	11874.62
580.206	11827.61
580.566	11874.17
580.927	11839.36
581.287	12038.91
581.648	11974.05
582.008	11989.42
582.368	11976.76
582.728	12038.68
583.089	12065.12
583.449	12092.24
583.809	12100.37
584.169	12170.43
584.529	12122.97
584.889	12244.1
585.249	12173.59
585.609	12182.41
585.969	12235.29
586.329	12326.81
586.688	12331.55
587.048	12290.88
587.408	12369.75
587.768	12340.37
588.127	12362.29
588.487	12353.25
588.846	12456.3
589.206	12343.53
589.565	12389.41
589.925	12533.58
590.284	12485
590.643	12479.8
591.003	12606.58
591.362	12585.78
591.721	12571.32
592.08	12530.87
592.44	12635.73
592.799	12736.06
593.158	12600.47
593.517	12630.98
593.876	12683.86
594.235	12663.75
594.593	12665.1
594.952	12685.44
595.311	12759.57
595.67	12784.65
596.029	12834.14
596.387	12827.59
596.746	12782.84
597.104	12866
597.463	12811.54
597.822	12940.8
598.18	12801.6
598.538	12943.52
598.897	12939.22
599.255	12845.89
599.613	13062.16
599.972	12941.48
600.33	13017.86
600.688	12909.84
601.046	13076.39
601.404	13076.62
601.762	13048.6
602.12	13158.65
602.478	13155.26
602.836	13140.35
603.194	13082.72
603.552	13180.57
603.91	13172.21
604.268	13140.35
604.625	13195.26
604.983	13223.06
605.341	13245.65
605.698	13341.92
606.056	13363.62
606.413	13307.35
606.771	13429.6
607.128	13438.42
607.485	13350.96
607.843	13402.26
608.2	13423.28
608.557	13493.56
608.914	13458.08
609.272	13529.71
609.629	13588.92
609.986	13698.75
610.343	13545.08
610.7	13678.86
611.057	13696.49
611.414	13637.73
611.771	13675.47
612.127	13743.27
612.484	13762.7
612.841	13835.02
613.198	13788.24
613.554	13800.67
613.911	13801.8
614.267	13863.49
614.624	13816.26
614.98	13994.11
615.337	13928.57
615.693	13995.01
616.05	13995.47
616.406	14005.86
616.762	14002.24
617.118	14079.98
617.475	14016.03
617.831	14092.64
618.187	14188.68
618.543	14203.14
618.899	14271.84
619.255	14250.6
619.611	14255.8
619.967	14368.79
620.323	14236.81
620.678	14218.51
621.034	14287.44
621.39	14403.36
621.746	14279.75
622.101	14418.96
622.457	14378.73
622.812	14437.04
623.168	14340.54
623.523	14510.71
623.879	14565.62
624.234	14469.35
624.589	14472.51
624.945	14472.97
625.3	14469.13
625.655	14535.79
626.01	14519.29
626.365	14506.41
626.72	14472.74
627.075	14536.69
627.43	14601.1
627.785	14602.91
628.14	14519.75
628.495	14645.39
628.85	14497.37
629.205	14521.55
629.559	14631.83
629.914	14599.52
630.269	14603.81
630.623	14548.9
630.978	14536.47
631.332	14590.48
631.687	14642.23
632.041	14510.48
632.396	14613.3
632.75	14493.76
633.104	14622.34
633.459	14595.45
633.813	14512.97
634.167	14578.05
634.521	14535.56
634.875	14604.71
635.229	14530.14
635.583	14555.22
635.937	14418.05
636.291	14464.83
636.645	14479.52
636.999	14462.12
637.352	14560.2
637.706	14482.46
638.06	14519.52
638.413	14451.5
638.767	14428.45
639.121	14512.97
639.474	14395.45
639.828	14398.62
640.181	14433.87
640.534	14497.6
640.888	14420.76
641.241	14313.65
641.594	14419.41
641.947	14418.73
642.301	14424.83
642.654	14293.54
643.007	14449.92
643.36	14404.04
643.713	14352.74
644.066	14432.06
644.419	14291.95
644.771	14284.27
645.124	14143.94
645.477	14141.9
645.83	14024.17
646.182	13961.12
646.535	13920.89
646.888	13974.67
647.24	13870.95
647.593	13985.75
647.945	13964.96
648.298	13949.14
648.65	13913.43
649.002	13925.64
649.355	13978.97
649.707	13858.52
650.059	13933.77
650.411	14136.03
650.763	14163.82
651.115	14277.27
651.467	14276.81
651.819	14242.69
652.171	14225.74
652.523	14313.65
652.875	14290.6
653.227	14179.19
653.578	14310.03
653.93	14222.8
654.282	14182.35
654.633	14133.31
654.985	14246.31
655.337	14213.76
655.688	14282.92
656.039	14294.89
656.391	14229.81
656.742	14268.23
657.094	14191.39
657.445	14289.24
657.796	14196.82
658.147	14263.03
658.498	14240.88
658.849	14290.37
659.2	14235.46
659.551	14235.46
659.902	14295.8
660.253	14250.37
660.604	14253.31
660.955	14232.52
661.306	14267.77
661.656	14256.02
662.007	14237.49
662.358	14208.57
662.708	14155.69
663.059	14270.26
663.409	14170.15
663.76	14231.84
664.11	14298.28
664.461	14282.01
664.811	14338.28
665.161	14273.42
665.511	14262.35
665.862	14211.5
666.212	14354.1
666.562	14251.5
666.912	14390.71
667.262	14316.13
667.612	14230.26
667.962	14277.72
668.312	14195.23
668.662	14292.18
669.011	14312.29
669.361	14256.02
669.711	14310.71
670.06	14260.54
670.41	14249.7
670.76	14366.98
671.109	14251.05
671.459	14229.58
671.808	14242.01
672.157	14370.6
672.507	14166.76
672.856	14242.92
673.205	14216.02
673.554	14300.09
673.904	14206.99
674.253	14381.67
674.602	14302.8
674.951	14043.6
675.3	14032.3
675.649	14331.5
675.998	14184.84
676.346	14202.24
676.695	14255.8
677.044	14169.02
677.393	14201.34
677.741	14238.17
678.09	14190.49
678.438	14155.46
678.787	14244.72
679.135	14189.36
679.484	14135.12
679.832	14228.23
680.181	14114.11
680.529	14198.62
680.877	14157.04
681.225	14171.51
681.573	14201.56
681.922	14079.53
682.27	14044.5
682.618	14135.57
682.966	14014.22
683.314	14090.83
683.661	14095.35
684.009	14039.53
684.357	13982.81
684.705	13956.82
685.053	13970.83
685.4	13984.84
685.748	13899.65
686.095	13880.21
686.443	13857.16
686.79	13888.8
687.138	13969.03
687.485	13956.6
687.832	13854.45
688.18	13869.37
688.527	13724.74
688.874	13808.58
689.221	13783.49
689.568	13754.57
689.915	13724.96
690.262	13745.3
690.609	13684.51
690.956	13651.07
691.303	13597.96
691.65	13546.44
691.997	13580.34
692.344	13442.71
692.69	13529.26
693.037	13509.6
693.383	13372.2
693.73	13443.62
694.077	13427.34
694.423	13438.42
694.769	13277.29
695.116	13305.99
695.462	13343.05
695.808	13296.73
696.155	13324.52
696.501	13262.38
696.847	13211.98
697.193	13113.45
697.539	13266.67
697.885	13074.81
698.231	13127.47
698.577	13035.49
698.923	13102.16
699.269	12995.72
699.614	12913.91
699.96	12906.23
700.306	12928.15
700.651	12953.68
700.997	12887.02
701.342	12918.43
701.688	12906.91
702.033	12868.72
702.379	12843.63
702.724	12792.33
703.069	12796.63
703.415	12722.96
703.76	12617.65
704.105	12717.76
704.45	12675.73
704.795	12620.81
705.14	12522.96
705.485	12548.72
705.83	12464.43
706.175	12544.66
706.52	12438.9
706.865	12489.52
707.209	12515.96
707.554	12366.13
707.899	12456.97
708.243	12289.52
708.588	12332.23
708.932	12235.06
709.277	12227.38
709.621	12286.58
709.966	12178.11
710.31	12264.89
710.654	12282.06
710.998	12141.28
711.342	12177.66
711.687	12072.8
712.031	12089.53
712.375	12019.7
712.719	12061.73
713.063	12051.79
713.407	12214.95
713.75	12031.45
714.094	12088.4
714.438	12030.32
714.782	12019.47
715.125	11920.27
715.469	11914.39
715.812	11975.41
716.156	11848.4
716.499	11890.89
716.843	11837.78
717.186	11897.67
717.53	11830.78
717.873	11864.22
718.216	11829.87
718.559	11745.58
718.902	11653.61
719.246	11783.77
719.589	11805.69
719.932	11743.77
720.275	11720.27
720.617	11682.76
720.96	11656.77
721.303	11664
721.646	11693.83
721.989	11630.78
722.331	11713.49
722.674	11592.14
723.016	11608.18
723.359	11634.85
723.701	11573.16
724.044	11562.31
724.386	11538.58
724.729	11633.72
725.071	11567.73
725.413	11586.94
725.755	11475.53
726.097	11480.28
726.439	11499.03
726.782	11508.07
727.124	11527.96
727.465	11451.8
727.807	11478.92
728.149	11424.01
728.491	11393.95
728.833	11486.6
729.175	11397.57
729.516	11341.07
729.858	11395.76
730.199	11423.56
730.541	11330
730.882	11385.59
731.224	11356.66
731.565	11279.15
731.906	11315.08
732.248	11361.64
732.589	11273.95
732.93	11218.82
733.271	11221.53
733.612	11312.15
733.953	11308.08
734.294	11230.11
734.635	11108.76
734.976	11304.91
735.317	11266.95
735.658	11183.56
735.999	11224.24
736.339	11202.54
736.68	11246.16
737.021	11199.83
737.361	11152.83
737.702	11235.76
738.042	11221.3
738.383	11106.5
738.723	11203
739.063	11176.1
739.404	11204.8
739.744	11212.04
740.084	11089.33
740.424	11150.12
740.764	11102.66
741.104	11160.74
741.444	11102.89
741.784	11112.6
742.124	11110.8
742.464	11068.31
742.804	11065.37
743.143	11029.67
743.483	10998.48
743.823	11066.28
744.162	10994.87
744.502	11065.6
744.841	11056.56
745.181	11128.42
745.52	10981.31
745.86	11103.34
746.199	11054.98
746.538	10980.18
746.877	11058.59
747.216	11031.25
747.556	10972.49
747.895	11025.83
748.234	10986.5
748.573	10931.37
748.911	10979.05
749.25	10953.06
749.589	10941.08
749.928	10942.44
750.267	10951.93
750.605	10945.6
750.944	10941.53
751.283	10872.16
751.621	10878.94
751.96	10773.86
752.298	10815.89
752.636	10802.33
752.975	10780.63
753.313	10743.57
753.651	10797.36
753.989	10846.17
754.327	10784.48
754.666	10730.92
755.004	10782.22
755.342	10753.97
755.679	10674.65
756.017	10627.64
756.355	10721.43
756.693	10656.57
757.031	10675.33
757.368	10666.97
757.706	10586.74
758.044	10603.24
758.381	10602.33
758.719	10509
759.056	10615.22
759.394	10517.36
759.731	10523.92
760.068	10498.61
760.405	10459.51
760.743	10452.73
761.08	10416.12
761.417	10385.39
761.754	10345.39
762.091	10309.46
762.428	10351.72
762.765	10236.02
763.102	10312.4
763.438	10261.1
763.775	10219.52
764.112	10271.95
764.449	10231.95
764.785	10231.95
765.122	10137.94
765.458	10099.07
765.795	10141.33
766.131	10096.13
766.467	10026.3
766.804	9992.18
767.14	10004.38
767.476	9975.91
767.812	9934.78
768.148	9938.62
768.485	9897.49
768.821	9872.41
769.157	9806.2
769.492	9784.28
769.828	9784.95
770.164	9728.23
770.5	9728.91
770.836	9771.4
771.171	9703.15
771.507	9693.21
771.842	9557.62
772.178	9620.44
772.513	9595.58
772.849	9554.68
773.184	9471.29
773.519	9521.46
773.855	9443.04
774.19	9500.44
774.525	9408.69
774.86	9436.49
775.195	9437.62
775.53	9334.8
775.865	9325.76
776.2	9231.07
776.535	9247.34
776.87	9238.53
777.205	9170.28
777.539	9177.51
777.874	9169.83
778.209	9090.96
778.543	9133.22
778.878	9008.7
779.212	9053
779.547	8930.97
779.881	8988.82
780.215	8919.89
780.55	8957.18
780.884	8887.13
781.218	8910.63
781.552	8820.91
781.886	8800.12
782.22	8755.38
782.554	8718.54
782.888	8669.5
783.222	8653.91
783.556	8610.52
783.889	8588.15
784.223	8583.86
784.557	8611.65
784.89	8523.07
785.224	8481.71
785.557	8420.92
785.891	8456.4
786.224	8420.47
786.558	8424.76
786.891	8332.79
787.224	8268.84
787.557	8390.19
787.891	8296.41
788.224	8319
788.557	8233.81
788.89	8246.01
789.223	8222.51
789.556	8171.89
789.888	8187.71
790.221	8147.71
790.554	8047.6
790.887	8102.51
791.219	8069.07
791.552	8097.54
791.884	7929.18
792.217	8010.76
792.549	7994.04
792.882	7874.27
793.214	7874.04
793.546	7813.48
793.879	7820.26
794.211	7754.73
794.543	7827.49
794.875	7811.67
795.207	7789.98
795.539	7760.83
795.871	7789.3
796.203	7688.74
796.535	7618.68
796.867	7669.98
797.198	7644.67
797.53	7612.81
797.862	7585.46
798.193	7555.41
798.525	7537.56
798.856	7568.06
799.188	7492.13
799.519	7379.37
799.85	7413.72
800.182	7437.45
800.513	7424.34
800.844	7381.85
801.175	7419.82
801.506	7406.94
801.837	7367.62
802.168	7365.81
802.499	7303.44
802.83	7250.78
803.161	7245.36
803.491	7273.16
803.822	7237.22
804.153	7219.37
804.483	7136.89
804.814	7110.9
805.145	7103.67
805.475	7177.11
805.805	7128.75
806.136	7093.95
806.466	7106.83
806.796	7119.94
807.126	7028.87
807.457	7051.24
807.787	7062.77
808.117	6990.9
808.447	6978.02
808.777	6971.47
809.107	6935.31
809.436	6943.9
809.766	6935.09
810.096	6911.81
810.426	6848.08
810.755	6908.42
811.085	6855.09
811.414	6870.68
811.744	6798.37
812.073	6784.81
812.403	6847.4
812.732	6796.78
813.061	6714.3
813.39	6734.64
813.719	6721.98
814.049	6754.98
814.378	6754.3
814.707	6727.63
815.036	6670.91
815.365	6587.52
815.693	6613.74
816.022	6572.61
816.351	6564.47
816.68	6559.28
817.008	6623.46
817.337	6555.43
817.665	6501.65
817.994	6534.64
818.322	6504.14
818.651	6508.43
818.979	6445.83
819.307	6493.74
819.636	6458.04
819.964	6444.48
820.292	6442.44
820.62	6432.27
820.948	6420.98
821.276	6431.14
821.604	6435.44
821.932	6409.22
822.259	6466.85
822.587	6428.88
822.915	6411.26
823.243	6476.57
823.57	6362.45
823.898	6420.52
824.225	6433.63
824.553	6448.77
824.88	6409.22
825.207	6481.99
825.535	6398.83
825.862	6427.53
826.189	6364.03
826.516	6398.15
826.843	6465.27
827.17	6474.99
827.497	6443.12
827.824	6428.43
828.151	6477.7
828.478	6416.23
828.805	6420.75
829.131	6413.97
829.458	6428.43
829.785	6397.47
830.111	6425.95
830.438	6427.3
830.764	6396.8
831.09	6437.7
831.417	6402.22
831.743	6441.99
832.069	6413.97
832.395	6414.87
832.722	6377.13
833.048	6451.26
833.374	6411.71
833.7	6346.4
834.026	6415.1
834.351	6392.05
834.677	6392.95
835.003	6359.51
835.329	6358.83
835.654	6397.02
835.98	6359.73
836.306	6316.8
836.631	6334.42
836.956	6309.34
837.282	6358.6
837.607	6338.72
837.932	6336.91
838.258	6295.1
838.583	6307.98
838.908	6283.8
839.233	6329.68
839.558	6263.92
839.883	6262.34
840.208	6185.05
840.533	6179.85
840.858	6258.04
841.182	6218.72
841.507	6217.14
841.832	6202
842.156	6159.97
842.481	6206.29
842.805	6145.95
843.13	6157.03
843.454	6072.28
843.778	6125.84
844.103	6082
844.427	6079.74
844.751	6131.72
845.075	6081.78
845.399	6073.41
845.723	6043.36
846.047	5988.9
846.371	5964.94
846.695	6006.52
847.019	5979.4
847.343	5918.62
847.666	5905.06
847.99	5920.2
848.313	5832.97
848.637	5766.53
848.96	5851.27
849.284	5776.25
849.607	5830.93
849.931	5764.95
850.254	5759.75
850.577	5646.76
850.9	5648.57
851.223	5667.77
851.546	5620.09
851.869	5548.91
852.192	5573.54
852.515	5573.31
852.838	5521.56
853.161	5587.55
853.483	5542.13
853.806	5490.38
854.129	5539.42
854.451	5500.77
854.774	5448.35
855.096	5450.38
855.419	5419.87
855.741	5381
856.063	5417.16
856.385	5406.31
856.708	5340.33
857.03	5380.78
857.352	5397.73
857.674	5372.87
857.996	5302.81
858.318	5301.91
858.64	5262.81
858.961	5288.35
859.283	5270.72
859.605	5292.87
859.926	5242.7
860.248	5242.48
860.57	5195.92
860.891	5211.74
861.212	5222.81
861.534	5226.88
861.855	5159.77
862.176	5180.56
862.498	5187.79
862.819	5180.1
863.14	5159.99
863.461	5168.8
863.782	5122.7
864.103	5103.04
864.424	5152.53
864.745	5143.49
865.065	5079.99
865.386	5088.81
865.707	5062.82
866.027	5066.21
866.348	5063.5
866.668	5080.9
866.989	5068.02
867.309	5019.43
867.63	5012.65
867.95	4967.45
868.27	4999.54
868.59	5017.62
868.91	4972.2
869.23	5007.68
869.55	4990.5
869.87	5013.78
870.19	4969.71
870.51	4947.79
870.83	4979.88
871.15	4924.74
871.469	4973.56
871.789	4961.8
872.109	4983.05
872.428	4901.69
872.748	4868.47
873.067	4898.3
873.386	4925.2
873.706	4932.88
874.025	4869.15
874.344	4819.21
874.663	4898.53
874.982	4856.72
875.301	4894.01
875.62	4876.38
875.939	4872.99
876.258	4875.93
876.577	4828.93
876.896	4827.57
877.214	4795.03
877.533	4804.75
877.852	4807.68
878.17	4774.46
878.489	4807.23
878.807	4783.28
879.125	4796.39
879.444	4788.7
879.762	4747.35
880.08	4767.23
880.398	4746.22
880.716	4701.25
881.034	4740.57
881.352	4727.01
881.67	4733.56
881.988	4703.51
882.306	4651.08
882.624	4724.52
882.941	4652.21
883.259	4648.59
883.577	4654.47
883.894	4640.23
884.212	4674.35
884.529	4640.23
884.846	4631.42
885.164	4641.59
885.481	4567.92
885.798	4614.7
886.115	4550.29
886.432	4537.41
886.75	4560.23
887.067	4615.37
887.383	4541.93
887.7	4565.88
888.017	4488.14
888.334	4541.7
888.651	4496.96
888.967	4517.97
889.284	4476.85
889.6	4475.94
889.917	4414.25
890.233	4436.85
890.55	4413.12
890.866	4413.8
891.182	4424.87
891.498	4387.13
891.815	4390.75
892.131	4419.67
892.447	4395.94
892.763	4343.97
893.079	4373.8
893.395	4321.14
893.71	4318.43
894.026	4300.13
894.342	4341.26
894.657	4288.6
894.973	4282.73
895.289	4258.77
895.604	4270.52
895.92	4191.66
896.235	4202.28
896.55	4178.32
896.865	4231.2
897.181	4178.77
897.496	4198.43
897.811	4172.22
898.126	4146.68
898.441	4078.89
898.756	4133.8
899.071	4097.42
899.386	4106.01
899.7	4112.79
900.015	4095.61
900.33	4033.24
900.644	4017.87
900.959	4022.62
901.273	3997.54
901.588	4030.76
901.902	3983.07
902.216	3931.1
902.531	3976.07
902.845	3963.64
903.159	3937.2
903.473	3926.35
903.787	3889.52
904.101	3886.58
904.415	3913.02
904.729	3825.34
905.042	3826.02
905.356	3865.11
905.67	3839.12
905.984	3820.59
906.297	3800.25
906.611	3754.38
906.924	3801.16
907.237	3827.37
907.551	3746.02
907.864	3783.3
908.177	3743.76
908.491	3738.56
908.804	3722.29
909.117	3727.94
909.43	3669.64
909.743	3670.09
910.056	3678.45
910.368	3633.93
910.681	3607.72
910.994	3641.61
911.307	3602.52
911.619	3564.33
911.932	3585.12
912.244	3551.67
912.557	3542.86
912.869	3506.02
913.181	3541.05
913.494	3500.83
913.806	3468.96
914.118	3492.01
914.43	3468.74
914.742	3459.7
915.054	3440.49
915.366	3446.59
915.678	3431.9
915.99	3418.34
916.302	3385.12
916.613	3376.99
916.925	3396.87
917.236	3344.22
917.548	3346.03
917.859	3336.31
918.171	3329.53
918.482	3278.68
918.794	3325.69
919.105	3264.9
919.416	3249.08
919.727	3246.14
920.038	3246.37
920.349	3260.15
920.66	3167.05
920.971	3238.23
921.282	3201.85
921.593	3146.03
921.903	3152.13
922.214	3125.02
922.525	3140.16
922.835	3097.45
923.146	3124.56
923.456	3111.23
923.767	3090.89
924.077	3045.24
924.387	3078.69
924.697	3073.49
925.008	3057
925.318	3082.08
925.628	3072.36
925.938	3010.22
926.248	2998.69
926.558	2977.22
926.867	3015.19
927.177	2984.68
927.487	2935.64
927.796	2941.97
928.106	2961.41
928.416	2915.08
928.725	2913.27
929.034	2885.02
929.344	2920.28
929.653	2887.28
929.962	2868.3
930.271	2857
930.581	2864.01
930.89	2871.69
931.199	2809.09
931.508	2808.41
931.817	2814.06
932.125	2801.18
932.434	2768.19
932.743	2770.45
933.051	2745.59
933.36	2733.39
933.669	2716.44
933.977	2684.35
934.286	2706.04
934.594	2690.68
934.902	2730.68
935.21	2684.12
935.519	2683.22
935.827	2640.06
936.135	2652.03
936.443	2654.29
936.751	2633.28
937.059	2655.42
937.367	2610
937.674	2625.37
937.982	2594.86
938.29	2604.35
938.597	2582.88
938.905	2530
939.213	2570.46
939.52	2531.81
939.827	2533.85
940.135	2532.04
940.442	2505.15
940.749	2515.99
941.056	2523.22
941.363	2493.17
941.67	2441.87
941.977	2462.21
942.284	2440.06
942.591	2420.63
942.898	2430.35
943.205	2434.87
943.511	2424.92
943.818	2427.86
944.125	2395.09
944.431	2375.43
944.738	2341.31
945.044	2404.81
945.35	2357.58
945.657	2330.24
945.963	2342.66
946.269	2343.57
946.575	2335.66
946.881	2330.46
947.187	2302.44
947.493	2329.78
947.799	2275.55
948.105	2313.96
948.41	2289.33
948.716	2254.53
949.022	2271.03
949.327	2258.6
949.633	2219.05
949.938	2205.94
950.244	2222.67
950.549	2216.34
950.854	2172.73
951.16	2157.58
951.465	2205.49
951.77	2165.27
952.075	2176.57
952.38	2164.82
952.685	2170.69
952.99	2135.66
953.294	2134.76
953.599	2128.43
953.904	2083.24
954.209	2123.46
954.513	2086.63
954.818	2097.93
955.122	2071.26
955.426	2055.44
955.731	2093.18
956.035	2051.15
956.339	2046.85
956.643	2044.37
956.948	2042.79
957.252	2026.74
957.556	2016.12
957.86	2059.28
958.163	2030.81
958.467	2005.27
958.771	2005.5
959.075	1972.96
959.378	1993.75
959.682	1962.34
959.985	1974.54
960.289	1975.89
960.592	1956.23
960.896	1954.43
961.199	1937.48
961.502	1924.82
961.805	1935.22
962.108	1923.24
962.411	1909
962.714	1913.52
963.017	1919.17
963.32	1875.78
963.623	1887.31
963.926	1883.69
964.228	1889.12
964.531	1846.63
964.833	1873.07
965.136	1843.69
965.438	1834.2
965.741	1836.01
966.043	1824.03
966.345	1866.52
966.648	1784.26
966.95	1817.25
967.252	1795.11
967.554	1777.03
967.856	1786.29
968.158	1766.63
968.46	1765.73
968.761	1772.51
969.063	1773.64
969.365	1771.83
969.666	1725.28
969.968	1706.97
970.269	1712.17
970.571	1742.23
970.872	1714.66
971.174	1682.34
971.475	1719.18
971.776	1710.59
972.077	1686.18
972.378	1667.88
972.679	1681.66
972.98	1694.77
973.281	1679.4
973.582	1665.17
973.883	1663.36
974.183	1636.24
974.484	1644.15
974.785	1600.99
975.085	1622.68
975.386	1626.07
975.686	1613.42
975.986	1585.85
976.287	1578.62
976.587	1619.75
976.887	1582.91
977.187	1584.04
977.487	1561.67
977.787	1587.88
978.087	1562.57
978.387	1567.09
978.687	1568.22
978.987	1548.79
979.286	1524.61
979.586	1533.19
979.885	1521.67
980.185	1504.04
980.484	1510.82
980.784	1520.31
981.083	1516.7
981.382	1508.34
981.682	1500.65
981.981	1471.27
982.28	1501.78
982.579	1484.16
982.878	1466.3
983.177	1436.93
983.475	1449.35
983.774	1450.94
984.073	1430.82
984.372	1450.48
984.67	1430.82
984.969	1464.5
985.267	1442.58
985.566	1431.73
985.864	1398.96
986.162	1390.6
986.461	1403.93
986.759	1401.45
987.057	1396.02
987.355	1362.8
987.653	1390.83
987.951	1397.38
988.249	1392.86
988.547	1357.61
988.844	1356.25
989.142	1358.96
989.44	1348.34
989.737	1342.69
990.035	1345.18
990.332	1323.93
990.63	1335.91
990.927	1326.87
991.224	1299.75
991.521	1289.36
991.819	1296.14
992.116	1313.54
992.413	1313.09
992.71	1297.27
993.006	1279.42
993.303	1303.82
993.6	1285.52
993.897	1290.94
994.193	1277.16
994.49	1258.85
994.787	1283.48
995.083	1266.76
995.379	1245.74
995.676	1237.61
995.972	1251.85
996.268	1228.57
996.565	1206.2
996.861	1216.37
997.157	1210.94
997.453	1210.72
997.749	1187.67
998.044	1173.43
998.34	1174.79
998.636	1203.03
998.932	1183.15
999.227	1171.4
999.523	1178.18
999.818	1186.31
1000.114	1158.97
1000.409	1162.81
1000.704	1126.88
1001	1145.41
1001.295	1152.87
1001.59	1151.74
1001.885	1129.59
1002.18	1131.17
1002.475	1139.08
1002.77	1112.87
1003.065	1099.99
1003.359	1094.11
1003.654	1099.76
1003.949	1109.7
1004.243	1091.85
1004.538	1099.76
1004.832	1082.36
1005.127	1077.16
1005.421	1079.65
1005.715	1068.35
1006.009	1062.7
1006.304	1078.97
1006.598	1066.99
1006.892	1059.53
1007.186	1047.11
1007.48	1023.83
1007.773	1039.65
1008.067	1011.17
1008.361	1025.18
1008.655	1024.73
1008.948	1041
1009.242	998.97
1009.535	1002.59
1009.829	976.6
1010.122	1000.78
1010.415	989.25
1010.708	980.89
1011.001	981.34
1011.295	1001.91
1011.588	973.43
1011.881	957.62
1012.173	975.02
1012.466	986.32
1012.759	949.03
1013.052	958.29
1013.344	951.51
1013.637	959.42
1013.93	933.66
1014.222	939.76
1014.514	934.11
1014.807	942.93
1015.099	902.25
1015.391	922.14
1015.683	919.42
1015.976	904.06
1016.268	892.98
1016.56	910.84
1016.851	896.6
1017.143	882.14
1017.435	885.98
1017.727	875.58
1018.018	882.59
1018.31	879.43
1018.602	869.48
1018.893	882.14
1019.185	867.45
1019.476	844.85
1019.767	846.21
1020.058	868.8
1020.35	854.57
1020.641	834.91
1020.932	824.51
1021.223	821.12
1021.514	821.8
1021.804	833.33
1022.095	810.5
1022.386	810.5
1022.677	824.29
1022.967	803.27
1023.258	789.48
1023.548	785.19
1023.839	777.96
1024.129	811.18
1024.419	769.37
1024.709	789.03
1025	780.9
1025.29	777.06
1025.58	782.71
1025.87	751.07
1026.16	742.93
1026.449	756.27
1026.739	761.91
1027.029	746.77
1027.319	740.45
1027.608	744.97
1027.898	724.63
1028.187	724.85
1028.477	723.95
1028.766	737.28
1029.055	706.55
1029.344	697.96
1029.634	712.2
1029.923	750.62
1030.212	731.86
1030.501	727.34
1030.79	713.33
1031.078	705.87
1031.367	671.75
1031.656	689.83
1031.945	696.61
1032.233	672.2
1032.522	691.86
1032.81	661.58
1033.099	656.38
1033.387	677.4
1033.675	687.57
1033.963	661.13
1034.251	665.42
1034.54	656.16
1034.828	652.99
1035.116	645.53
1035.403	641.69
1035.691	619.09
1035.979	633.56
1036.267	640.79
1036.554	633.78
1036.842	644.86
1037.129	633.56
1037.417	645.76
1037.704	633.33
1037.992	614.8
1038.279	607.34
1038.566	631.97
1038.853	631.97
1039.14	631.97
