Data from cardboard_FLMS001491_037.txt Node
Date: Tue Feb 07 11:39:21 GMT 2017
User: dcchb
Spectrometer: FLMS00149
Trigger mode: 0
Integration Time (sec): 2.000000E-2
Scans to average: 10
Electric dark correction enabled: true
Nonlinearity correction enabled: false
Boxcar width: 0
XAxis mode: Wavelengths
Number of Pixels in Spectrum: 2048
>>>>>Begin Spectral Data<<<<<
341.393	-6.48
341.776	-6.48
342.16	-6.48
342.543	-50.1
342.927	-59.14
343.31	-92.13
343.693	-75.41
344.077	-67.95
344.46	-70.66
344.843	-47.84
345.226	-24.34
345.61	-21.85
345.993	4.82
346.376	1.88
346.759	9.34
347.142	18.83
347.525	37.58
347.908	66.28
348.291	71.48
348.674	80.29
349.057	109.67
349.44	121.2
349.823	137.02
350.206	152.16
350.588	189.67
350.971	216.56
351.354	237.58
351.737	219.95
352.119	251.14
352.502	254.53
352.884	241.87
353.267	272.38
353.65	297.46
354.032	281.42
354.414	291.14
354.797	313.96
355.179	315.32
355.562	313.06
355.944	315.32
356.326	354.64
356.709	333.62
357.091	309.67
357.473	328.88
357.855	306.28
358.238	325.94
358.62	330.68
359.002	336.33
359.384	343.34
359.766	337.46
360.148	331.14
360.53	336.78
360.912	322.77
361.294	325.94
361.676	319.38
362.057	332.49
362.439	322.77
362.821	332.27
363.203	309.22
363.584	325.71
363.966	287.52
364.348	301.76
364.729	305.83
365.111	312.83
365.493	312.83
365.874	299.95
366.256	307.41
366.637	324.81
367.019	303.11
367.4	309.67
367.781	306.05
368.163	291.36
368.544	310.12
368.925	302.44
369.306	302.89
369.688	322.77
370.069	339.5
370.45	312.38
370.831	304.47
371.212	310.57
371.593	317.35
371.974	302.89
372.355	281.87
372.736	320.51
373.117	315.77
373.498	315.77
373.879	327.75
374.26	317.12
374.641	308.54
375.021	319.16
375.402	313.96
375.783	305.83
376.163	305.6
376.544	329.33
376.925	333.4
377.305	310.34
377.686	313.73
378.066	308.99
378.447	313.06
378.827	307.63
379.208	338.59
379.588	313.51
379.968	296.79
380.349	315.99
380.729	313.28
381.109	328.88
381.489	325.49
381.87	320.29
382.25	342.89
382.63	323.9
383.01	339.27
383.39	333.85
383.77	332.94
384.15	348.76
384.53	340.63
384.91	351.93
385.29	347.41
385.67	326.84
386.049	331.36
386.429	341.53
386.809	324.36
387.189	348.08
387.568	347.18
387.948	362.32
388.328	343.34
388.707	346.95
389.087	335.88
389.466	375.43
389.846	361.87
390.225	377.01
390.605	345.6
390.984	362.55
391.363	365.03
391.743	377.24
392.122	366.39
392.501	367.74
392.881	392.6
393.26	371.81
393.639	365.48
394.018	381.98
394.397	392.38
394.776	373.62
395.155	379.27
395.534	408.42
395.913	369.33
396.292	373.17
396.671	387.86
397.05	370.68
397.429	354.86
397.808	374.98
398.186	395.77
398.565	373.62
398.944	388.99
399.323	381.98
399.701	391.02
400.08	394.86
400.458	384.69
400.837	398.03
401.215	390.34
401.594	398.03
401.972	407.07
402.351	381.98
402.729	409.55
403.107	417.46
403.486	416.56
403.864	395.54
404.242	413.17
404.62	415.43
404.999	417.23
405.377	421.53
405.755	424.92
406.133	425.37
406.511	428.08
406.889	425.37
407.267	427.86
407.645	442.54
408.023	440.29
408.401	447.74
408.779	452.71
409.156	438.48
409.534	458.14
409.912	430.79
410.29	435.99
410.667	449.32
411.045	457.01
411.422	467.18
411.8	451.13
412.178	485.71
412.555	466.5
412.933	459.72
413.31	482.09
413.687	483.67
414.065	480.74
414.442	484.8
414.819	502.2
415.197	466.73
415.574	482.77
415.951	491.58
416.328	505.59
416.705	500.17
417.082	515.31
417.46	491.58
417.837	493.84
418.214	508.08
418.591	501.3
418.967	494.07
419.344	515.99
419.721	515.54
420.098	542.66
420.475	527.51
420.852	532.03
421.228	529.1
421.605	545.82
421.982	548.98
422.358	536.55
422.735	548.53
423.111	562.54
423.488	562.99
423.864	551.47
424.241	589.89
424.617	559.83
424.994	550.11
425.37	580.39
425.746	551.69
426.123	589.21
426.499	598.25
426.875	600.28
427.251	614.29
427.627	631.47
428.003	628.3
428.379	597.12
428.756	601.64
429.132	595.76
429.507	632.14
429.883	628.75
430.259	632.82
430.635	644.12
431.011	663.78
431.387	655.65
431.763	658.13
432.138	667.17
432.514	656.78
432.89	665.14
433.265	687.74
433.641	675.53
434.016	704.91
434.392	705.59
434.767	699.26
435.143	711.01
435.518	734.06
435.894	715.98
436.269	702.2
436.644	731.12
437.02	744.23
437.395	754.18
437.77	740.39
438.145	757.79
438.52	755.98
438.895	774.29
439.271	752.59
439.646	778.36
440.021	779.03
440.395	793.27
440.77	751.24
441.145	779.71
441.52	795.08
441.895	815.87
442.27	803.89
442.645	814.51
443.019	833.04
443.394	814.51
443.769	826.49
444.143	833.72
444.518	839.37
444.892	819.48
445.267	827.17
445.641	858.58
446.016	859.71
446.39	866.71
446.764	852.7
447.139	851.8
447.513	882.31
447.887	866.49
448.262	859.26
448.636	854.06
449.01	910.56
449.384	888.18
449.758	873.04
450.132	899.71
450.506	890.89
450.88	908.3
451.254	925.47
451.628	935.64
452.002	930.22
452.376	960.05
452.75	935.87
453.123	960.05
453.497	968.63
453.871	964.11
454.244	1008.18
454.618	1004.79
454.992	1005.92
455.365	1024.68
455.739	1041.85
456.112	1035.07
456.486	1052.7
456.859	1070.32
457.232	1072.58
457.606	1046.14
457.979	1053.83
458.352	1095.41
458.725	1095.41
459.099	1110.78
459.472	1149.64
459.845	1132.02
460.218	1148.97
460.591	1159.81
460.964	1155.29
461.337	1215.18
461.71	1226.93
462.083	1205.91
462.456	1210.43
462.829	1210.66
463.201	1211.79
463.574	1233.94
463.947	1249.08
464.32	1282.75
464.692	1299.25
465.065	1293.82
465.438	1333.14
465.81	1331.56
466.183	1355.52
466.555	1355.52
466.928	1350.77
467.3	1392.8
467.672	1387.38
468.045	1389.64
468.417	1416.08
468.789	1447.72
469.161	1449.98
469.534	1484.78
469.906	1484.78
470.278	1517.54
470.65	1548.05
471.022	1567.26
471.394	1560.93
471.766	1605.23
472.138	1616.53
472.51	1632.8
472.882	1653.81
473.253	1667.6
473.625	1675.96
473.997	1708.05
474.369	1741.49
474.74	1751.44
475.112	1785.33
475.484	1815.62
475.855	1841.83
476.227	1859.23
476.598	1915.5
476.97	1888.83
477.341	1959.34
477.713	1994.82
478.084	1978.1
478.455	2061.03
478.827	2033.24
479.198	2108.94
479.569	2130.86
479.94	2204.76
480.311	2167.92
480.682	2204.98
481.053	2299.67
481.424	2323.85
481.795	2355.26
482.166	2379.44
482.537	2407.69
482.908	2449.05
483.279	2485.2
483.65	2541.7
484.021	2532.66
484.391	2591.64
484.762	2642.94
485.133	2686.78
485.503	2701.92
485.874	2749.38
486.244	2800.45
486.615	2838.64
486.985	2853.55
487.356	2919.77
487.726	2934.68
488.097	3054.45
488.467	3048.58
488.837	3067.79
489.207	3129.25
489.578	3130.16
489.948	3164.73
490.318	3256.93
490.688	3272.3
491.058	3328.8
491.428	3335.35
491.798	3434.1
492.168	3465.06
492.538	3478.4
492.908	3547.32
493.278	3566.76
493.648	3597.04
494.017	3623.93
494.387	3665.51
494.757	3697.6
495.126	3781.21
495.496	3777.37
495.866	3800.65
496.235	3887.43
496.605	3933.75
496.974	3934.88
497.344	3960.19
497.713	4018.95
498.082	4057.37
498.452	4112.96
498.821	4139.62
499.19	4134.43
499.559	4190.24
499.928	4234.31
500.298	4275.66
500.667	4302.33
501.036	4331.26
501.405	4412.38
501.774	4420.29
502.143	4441.99
502.512	4490.35
502.88	4556.33
503.249	4530.8
503.618	4598.37
503.987	4557.92
504.356	4687.63
504.724	4673.17
505.093	4745.03
505.462	4787.06
505.83	4800.4
506.199	4886.04
506.567	4886.04
506.936	4958.81
507.304	4992.93
507.672	4995.87
508.041	5036.77
508.409	5083.33
508.777	5123.78
509.145	5205.36
509.514	5188.18
509.882	5280.16
510.25	5337.11
510.618	5335.52
510.986	5375.07
511.354	5445.8
511.722	5507.04
512.09	5586.82
512.458	5583.43
512.826	5678.57
513.193	5675.18
513.561	5692.35
513.929	5829.52
514.297	5843.31
514.664	5904.32
515.032	5952
515.4	6055.96
515.767	6095.05
516.135	6138.67
516.502	6119.91
516.869	6210.75
517.237	6292.56
517.604	6294.82
517.972	6404.2
518.339	6465.89
518.706	6483.29
519.073	6546.57
519.44	6561.71
519.808	6650.74
520.175	6653.91
520.542	6757.41
520.909	6836.95
521.276	6865.88
521.643	6956.05
522.009	7067.68
522.376	7102.03
522.743	7123.73
523.11	7193.78
523.477	7297.05
523.843	7345.19
524.21	7501.12
524.577	7526.2
524.943	7673.77
525.31	7697.5
525.676	7783.14
526.043	7840.99
526.409	7860.2
526.776	7998.73
527.142	8005.06
527.508	8115.34
527.874	8157.6
528.241	8218.16
528.607	8278.05
528.973	8362.56
529.339	8383.8
529.705	8535.89
530.071	8633.52
530.437	8679.16
530.803	8809.1
531.169	8761.2
531.535	8793.06
531.901	8889.55
532.267	8938.82
532.632	9012.94
532.998	9099.27
533.364	9127.06
533.73	9177.23
534.095	9317.11
534.461	9373.61
534.826	9444.12
535.192	9490.67
535.557	9597.56
535.923	9599.82
536.288	9674.39
536.653	9761.4
537.019	9727.27
537.384	9803.2
537.749	9918.91
538.114	9932.92
538.479	9955.52
538.845	10059.02
539.21	10089.75
539.575	10173.59
539.94	10230.54
540.305	10260.37
540.67	10247.94
541.034	10377.42
541.399	10498.33
541.764	10557.08
542.129	10563.18
542.494	10623.07
542.858	10650.19
543.223	10715.5
543.587	10705.33
543.952	10782.61
544.316	10915.49
544.681	10845.89
545.045	11054.47
545.41	11164.75
545.774	11131.08
546.138	11209.95
546.503	11227.57
546.867	11289.49
547.231	11368.13
547.595	11503.95
547.959	11545.98
548.324	11542.82
548.688	11575.36
549.052	11687.67
549.416	11723.15
549.779	11845.86
550.143	11760.44
550.507	11939.87
550.871	12033.43
551.235	12089.47
551.599	12129.7
551.962	12216.47
552.326	12237.49
552.689	12390.03
553.053	12396.13
553.417	12504.15
553.78	12606.07
554.143	12550.93
554.507	12744.82
554.87	12805.61
555.234	12873.18
555.597	12862.56
555.96	13008.54
556.323	13011.25
556.686	13083.79
557.05	13207.86
557.413	13302.55
557.776	13352.94
558.139	13429.55
558.502	13477.68
558.865	13523.1
559.228	13706.6
559.59	13738.24
559.953	13804.23
560.316	13942.75
560.679	13971.91
561.041	14110.89
561.404	14184.78
561.767	14281.05
562.129	14261.39
562.492	14423.65
562.854	14481.95
563.217	14520.59
563.579	14625.22
563.941	14761.49
564.304	14827.25
564.666	14999.9
565.028	14946.34
565.39	15097.53
565.753	15194.7
566.115	15268.37
566.477	15295.49
566.839	15399.44
567.201	15545.65
567.563	15576.61
567.925	15714.23
568.287	15697.74
568.648	15841.24
569.01	15924.62
569.372	15999.65
569.734	16069.93
570.095	16196.03
570.457	16261.79
570.819	16209.36
571.18	16414.55
571.542	16548.11
571.903	16507.21
572.265	16598.96
572.626	16659.29
572.987	16791.27
573.349	16840.98
573.71	17008.66
574.071	16951.49
574.432	17141.99
574.794	17278.03
575.155	17195.1
575.516	17230.58
575.877	17331.14
576.238	17349.22
576.599	17464.02
576.96	17527.29
577.32	17465.6
577.681	17646.39
578.042	17712.15
578.403	17842.54
578.763	17841.86
579.124	17860.84
579.485	18045.7
579.845	18006.6
580.206	18066.71
580.566	18146.71
580.927	18240.49
581.287	18195.75
581.648	18242.98
582.008	18400.94
582.368	18413.37
582.728	18373.15
583.089	18445.46
583.449	18499.7
583.809	18480.04
584.169	18635.74
584.529	18553.26
584.889	18712.12
585.249	18649.52
585.609	18739.46
585.969	18798.9
586.329	18806.58
586.688	18801.84
587.048	18835.96
587.408	18932.91
587.768	18892.23
588.127	18918.44
588.487	18950.08
588.846	19107.36
589.206	18987.59
589.565	19087.7
589.925	19287.47
590.284	19064.43
590.643	19165.89
591.003	19365.44
591.362	19336.74
591.721	19343.29
592.08	19381.03
592.44	19475.72
592.799	19454.93
593.158	19449.95
593.517	19566.34
593.876	19478.2
594.235	19581.93
594.593	19581.7
594.952	19630.06
595.311	19606.79
595.67	19678.88
596.029	19750.96
596.387	19750.29
596.746	19831.64
597.104	19854.24
597.463	19860.79
597.822	19919.55
598.18	19862.83
598.538	19896.72
598.897	20010.84
599.255	19982.82
599.613	20220.56
599.972	20120.22
600.33	20211.97
600.688	20138.52
601.046	20208.35
601.404	20421.68
601.762	20321.8
602.12	20501
602.478	20448.57
602.836	20392.98
603.194	20347.78
603.552	20381.68
603.91	20404.05
604.268	20498.51
604.625	20499.64
604.983	20668
605.341	20502.58
605.698	20681.56
606.056	20764.5
606.413	20668.91
606.771	20811.95
607.128	20874.55
607.485	20776.02
607.843	20872.97
608.2	20924.94
608.557	21075.67
608.914	20956.13
609.272	21077.71
609.629	21255.56
609.986	21212.62
610.343	21158.38
610.7	21349.57
611.057	21310.02
611.414	21266.18
611.771	21334.2
612.127	21413.29
612.484	21482.22
612.841	21484.48
613.198	21387.76
613.554	21588.66
613.911	21712.49
614.267	21663
614.624	21682.21
614.98	21698.94
615.337	21806.73
615.693	21833.39
616.05	21836.78
616.406	21920.17
616.762	21906.16
617.118	21879.04
617.475	21934.18
617.831	21984.13
618.187	22119.26
618.543	22066.61
618.899	22169.88
619.255	22228.19
619.611	22191.35
619.967	22278.81
620.323	22432.25
620.678	22248.53
621.034	22165.82
621.39	22202.42
621.746	22302.76
622.101	22628.85
622.457	22453.94
622.812	22282.65
623.168	22532.59
623.523	22568.52
623.879	22613.49
624.234	22513.15
624.589	22610.32
624.945	22530.1
625.3	22631.11
625.655	22536.88
626.01	22598.8
626.365	22599.48
626.72	22652.36
627.075	22648.29
627.43	22582.75
627.785	22620.72
628.14	22573.94
628.495	22776.42
628.85	22670.89
629.205	22564.9
629.559	22791.56
629.914	22704.11
630.269	22755.18
630.623	22665.24
630.978	22707.5
631.332	22821.62
631.687	22874.27
632.041	22706.59
632.396	22762.86
632.75	22726.25
633.104	22691.23
633.459	22607.39
633.813	22688.51
634.167	22723.31
634.521	22671.11
634.875	22670.21
635.229	22674.95
635.583	22645.58
635.937	22677.89
636.291	22726.25
636.645	22632.47
636.999	22618.91
637.352	22619.14
637.706	22565.8
638.06	22664.56
638.413	22592.92
638.767	22547.73
639.121	22538.91
639.474	22473.15
639.828	22524
640.181	22640.15
640.534	22554.51
640.888	22446.71
641.241	22372.14
641.594	22582.53
641.947	22517.22
642.301	22449.42
642.654	22518.35
643.007	22559.25
643.36	22507.95
643.713	22407.84
644.066	22657.55
644.419	22410.55
644.771	22349.77
645.124	22196.32
645.477	22126.95
645.83	21982.54
646.182	21927.86
646.535	21790.46
646.888	22018.25
647.24	21772.83
647.593	21970.57
647.945	21922.88
648.298	21765.15
648.65	21764.24
649.002	21765.15
649.355	21903
649.707	21824.81
650.059	21946.84
650.411	22198.13
650.763	22155.19
651.115	22493.94
651.467	22348.86
651.819	22446.49
652.171	22272.03
652.523	22411.23
652.875	22347.51
653.227	22208.75
653.578	22462.76
653.93	22392.93
654.282	22287.85
654.633	22259.6
654.985	22229.32
655.337	22354.74
655.688	22281.74
656.039	22402.87
656.391	22247.17
656.742	22271.8
657.094	22234.74
657.445	22290.78
657.796	22335.53
658.147	22269.09
658.498	22274.06
658.849	22373.27
659.2	22308.64
659.551	22266.6
659.902	22306.6
660.253	22348.64
660.604	22368.97
660.955	22317.9
661.306	22297.56
661.656	22348.86
662.007	22264.12
662.358	22243.55
662.708	22312.03
663.059	22274.97
663.409	22262.31
663.76	22339.14
664.11	22383.89
664.461	22412.81
664.811	22359.03
665.161	22394.96
665.511	22235.64
665.862	22222.09
666.212	22540.27
666.562	22527.39
666.912	22426.15
667.262	22381.85
667.612	22333.04
667.962	22373.27
668.312	22300.5
668.662	22422.76
669.011	22414.62
669.361	22413.94
669.711	22314.74
670.06	22419.37
670.41	22358.35
670.76	22397.45
671.109	22381.85
671.459	22372.14
671.808	22317.45
672.157	22397
672.507	22323.78
672.856	22286.04
673.205	22343.21
673.554	22394.28
673.904	22372.36
674.253	22476.32
674.602	22298.24
674.951	22056.89
675.3	21973.5
675.649	22275.87
675.998	22366.26
676.346	22364.23
676.695	22357.9
677.044	22277.22
677.393	22224.8
677.741	22295.53
678.09	22129.43
678.438	22272.71
678.787	22275.42
679.135	22262.54
679.484	22139.83
679.832	22112.94
680.181	22137.12
680.529	22199.71
680.877	22019.6
681.225	22034.97
681.573	22239.71
681.922	22025.25
682.27	22057.8
682.618	22009.21
682.966	21905.03
683.314	22045.14
683.661	21942.09
684.009	21944.35
684.357	21835.43
684.705	21776
685.053	21919.04
685.4	21911.58
685.748	21704.13
686.095	21827.52
686.443	21599.5
686.79	21628.43
687.138	21768.31
687.485	21612.61
687.832	21598.6
688.18	21701.65
688.527	21572.84
688.874	21530.58
689.221	21515.89
689.568	21500.07
689.915	21377.59
690.262	21480.86
690.609	21435.21
690.956	21310.92
691.303	21319.28
691.65	21143.24
691.997	21223.24
692.344	21134.88
692.69	21109.35
693.037	21065.28
693.383	21009.46
693.73	20972.63
694.077	20956.81
694.423	20904.38
694.769	20783.48
695.116	20826.87
695.462	20768.56
695.808	20613.77
696.155	20663.71
696.501	20630.94
696.847	20567.44
697.193	20554.33
697.539	20546.42
697.885	20341.68
698.231	20357.95
698.577	20388.69
698.923	20352.53
699.269	20193.21
699.614	20160.67
699.96	20086.1
700.306	20123.16
700.651	20027.57
700.997	20053.33
701.342	19921.35
701.688	19882.71
702.033	19896.95
702.379	19819.66
702.724	19825.99
703.069	19924.07
703.415	19685.88
703.76	19695.15
704.105	19686.78
704.45	19698.99
704.795	19588.03
705.14	19494.93
705.485	19517.3
705.83	19378.09
706.175	19449.73
706.52	19318.21
706.865	19331.99
707.209	19326.12
707.554	19144.43
707.899	19282.5
708.243	19283.63
708.588	19093.81
708.932	19066.69
709.277	19111.43
709.621	19083.18
709.966	19028.5
710.31	18954.6
710.654	18911.89
710.998	18944.88
711.342	18763.42
711.687	18882.51
712.031	18814.27
712.375	18679.58
712.719	18781.95
713.063	18705.34
713.407	18767.94
713.75	18680.48
714.094	18689.3
714.438	18474.39
714.782	18574.5
715.125	18550.09
715.469	18578.57
715.812	18434.16
716.156	18447.27
716.499	18453.37
716.843	18538.11
717.186	18321.4
717.53	18466.48
717.873	18463.99
718.216	18381.73
718.559	18269.19
718.902	18177.9
719.246	18180.16
719.589	18235.75
719.932	18215.64
720.275	18159.14
720.617	18103.32
720.96	18129.76
721.303	18106.71
721.646	18113.94
721.989	17993.27
722.331	18092.7
722.674	18035.98
723.016	18037.56
723.359	18017.22
723.701	18054.29
724.044	17914.4
724.386	17800.96
724.729	17918.24
725.071	17873.72
725.413	17836.21
725.755	17946.27
726.097	17767.29
726.439	17774.74
726.782	17763.9
727.124	17876.44
727.465	17737.01
727.807	17704.46
728.149	17791.92
728.491	17688.87
728.833	17751.24
729.175	17708.08
729.516	17727.74
729.858	17673.05
730.199	17590.12
730.541	17627.86
730.882	17619.27
731.224	17683.67
731.565	17577.46
731.906	17567.07
732.248	17556.45
732.589	17474.64
732.93	17458.82
733.271	17538.82
733.612	17455.88
733.953	17560.96
734.294	17443.68
734.635	17440.97
734.976	17494.75
735.317	17461.31
735.658	17370.24
735.999	17408.88
736.339	17421.99
736.68	17452.72
737.021	17378.37
737.361	17366.62
737.702	17395.09
738.042	17286.62
738.383	17315.55
738.723	17319.62
739.063	17377.69
739.404	17242.56
739.744	17299.5
740.084	17280.97
740.424	17219.05
740.764	17235.55
741.104	17221.76
741.444	17225.15
741.784	17101.09
742.124	17294.31
742.464	17192.84
742.804	17172.73
743.143	17022
743.483	17105.38
743.823	17094.54
744.162	17092.5
744.502	17092.95
744.841	17016.12
745.181	17156.23
745.52	17018.61
745.86	17037.59
746.199	17072.39
746.538	17079.4
746.877	17078.94
747.216	17112.84
747.556	17041.2
747.895	17014.54
748.234	16845.73
748.573	16887.99
748.911	17002.56
749.25	16959.17
749.589	16903.13
749.928	16895.45
750.267	16951.94
750.605	16809.57
750.944	16917.14
751.283	16814.77
751.621	16900.19
751.96	16772.06
752.298	16788.78
752.636	16837.37
752.975	16672.63
753.313	16691.16
753.651	16738.16
753.989	16626.07
754.327	16634.66
754.666	16575.91
755.004	16577.71
755.342	16627.43
755.679	16673.3
756.017	16502.01
756.355	16593.08
756.693	16466.3
757.031	16563.7
757.368	16391.28
757.706	16502.01
758.044	16521.9
758.381	16373.2
758.719	16388.79
759.056	16351.28
759.394	16360.54
759.731	16283.03
760.068	16161.68
760.405	16119.19
760.743	16150.83
761.08	16128.01
761.417	16122.36
761.754	16053.21
762.091	16009.37
762.428	15941.12
762.765	15843.5
763.102	15962.14
763.438	15846.43
763.775	15787.9
764.112	15800.56
764.449	15874.46
764.785	15793.55
765.122	15686.66
765.458	15623.61
765.795	15664.97
766.131	15527.8
766.467	15637.17
766.804	15483.73
767.14	15482.38
767.476	15464.97
767.812	15410.51
768.148	15455.03
768.485	15336.62
768.821	15288.48
769.157	15289.84
769.492	15193.8
769.828	15133.01
770.164	15086
770.5	15071.31
770.836	15075.38
771.171	14965.33
771.507	14911.77
771.842	14836.97
772.178	14870.64
772.513	14836.06
772.849	14758.33
773.184	14693.02
773.519	14765.78
773.855	14641.72
774.19	14548.61
774.525	14459.8
774.86	14529.18
775.195	14457.32
775.53	14464.32
775.865	14344.78
776.2	14254.39
776.535	14182.3
776.87	14155.86
777.205	14194.73
777.539	14157.21
777.874	14145.91
778.209	13950.44
778.543	14029.31
778.878	13920.83
779.212	13886.71
779.547	13813.04
779.881	13837.9
780.215	13728.75
780.55	13778.01
780.884	13629.54
781.218	13655.08
781.552	13593.39
781.886	13571.47
782.22	13548.41
782.554	13481.98
782.888	13347.29
783.222	13358.14
783.556	13185.94
783.889	13290.79
784.223	13205.83
784.557	13136.67
784.89	13136.45
785.224	13171.48
785.557	13040.18
785.891	12926.51
786.224	12997.92
786.558	12954.53
786.891	12788.43
787.224	12797.02
787.557	12730.58
787.891	12798.38
788.224	12701.43
788.557	12714.99
788.89	12693.97
789.223	12543.92
789.556	12548.22
789.888	12514.09
790.221	12426.64
790.554	12373.3
790.887	12392.29
791.219	12344.83
791.552	12392.74
791.884	12311.84
792.217	12239.75
792.549	12216.92
792.882	12158.39
793.214	12144.84
793.546	12179.41
793.879	12043.6
794.211	11969.02
794.543	12082.46
794.875	11949.59
795.207	12043.37
795.539	11898.97
795.871	12008.79
796.203	11859.42
796.535	11760.21
796.867	11808.8
797.198	11765.86
797.53	11730.84
797.862	11627.56
798.193	11672.53
798.525	11598.64
798.856	11657.39
799.188	11498.75
799.519	11465.08
799.85	11449.49
800.182	11420.79
800.513	11462.59
800.844	11246.55
801.175	11345.54
801.506	11346.89
801.837	11268.93
802.168	11255.14
802.499	11224.63
802.83	11139.89
803.161	11198.19
803.491	11103.73
803.822	11144.86
804.153	11036.16
804.483	10998.43
804.814	10955.49
805.145	10967.24
805.475	10967.01
805.805	10878.88
806.136	10917.52
806.466	10854.93
806.796	10912.33
807.126	10775.61
807.457	10764.08
807.787	10880.24
808.117	10729.51
808.447	10728.38
808.777	10710.52
809.107	10720.24
809.436	10622.84
809.766	10675.5
810.096	10534.03
810.426	10534.26
810.755	10593.24
811.085	10562.28
811.414	10511.43
811.744	10429.4
812.073	10396.41
812.403	10402.06
812.732	10383.98
813.061	10331.1
813.39	10346.69
813.719	10252.23
814.049	10329.52
814.378	10277.99
814.707	10299.23
815.036	10266.24
815.365	10163.65
815.693	10155.06
816.022	10145.34
816.351	10080.26
816.68	10021.05
817.008	10073.03
817.337	10025.8
817.665	10020.37
817.994	10052.46
818.322	9970.43
818.651	9948.74
818.979	9892.69
819.307	9878
819.636	9904.67
819.964	9791.45
820.292	9924.33
820.62	9862.41
820.948	9788.74
821.276	9855.18
821.604	9852.24
821.932	9808.4
822.259	9821.96
822.587	9808.4
822.915	9800.72
823.243	9884.1
823.57	9786.93
823.898	9885.46
824.225	9756.88
824.553	9827.16
824.88	9795.52
825.207	9841.62
825.535	9769.31
825.862	9853.82
826.189	9782.86
826.516	9819.47
826.843	9875.97
827.17	9816.08
827.497	9756.65
827.824	9824.45
828.151	9781.28
828.478	9767.72
828.805	9855.63
829.131	9738.12
829.458	9809.53
829.785	9722.98
830.111	9777.21
830.438	9837.55
830.764	9862.86
831.09	9831.68
831.417	9737.67
831.743	9814.28
832.069	9793.03
832.395	9770.66
832.722	9778.57
833.048	9829.64
833.374	9764.56
833.7	9725.24
834.026	9736.09
834.351	9772.47
834.677	9773.6
835.003	9728.4
835.329	9741.06
835.654	9690.21
835.98	9701.74
836.306	9696.99
836.631	9680.72
836.956	9692.47
837.282	9732.24
837.607	9704
837.932	9632.81
838.258	9594.85
838.583	9615.86
838.908	9560.5
839.233	9557.33
839.558	9540.84
839.883	9540.38
840.208	9463.55
840.533	9565.02
840.858	9507.84
841.182	9489.76
841.507	9529.31
841.832	9436.88
842.156	9438.69
842.481	9456.55
842.805	9392.82
843.13	9383.55
843.454	9387.85
843.778	9340.62
844.103	9369.77
844.427	9267.4
844.751	9260.39
845.075	9337.45
845.399	9233.05
845.723	9216.78
846.047	9195.08
846.371	9108.76
846.695	9150.79
847.019	9059.72
847.343	9070.57
847.666	9000.96
847.99	8938.37
848.313	8911.7
848.637	8882.77
848.96	8853.85
849.284	8914.86
849.607	8805.04
849.931	8809.78
850.254	8745.83
850.577	8694.31
850.9	8641.2
851.223	8661.09
851.546	8530.92
851.869	8508.32
852.192	8560.3
852.515	8542.44
852.838	8457.7
853.161	8471.49
853.483	8382.45
853.806	8456.57
854.129	8399.85
854.451	8322.56
854.774	8292.73
855.096	8284.15
855.419	8262.45
855.741	8248.89
856.063	8216.13
856.385	8184.94
856.708	8159.63
857.03	8131.83
857.352	8123.47
857.674	8101.78
857.996	8085.06
858.318	8050.93
858.64	8060.42
858.961	8020.88
859.283	7993.76
859.605	7937.49
859.926	7981.56
860.248	7967.32
860.57	7920.54
860.891	7973.65
861.212	7882.8
861.534	7858.4
861.855	7767.55
862.176	7848.23
862.498	7883.48
862.819	7809.36
863.14	7816.81
863.461	7777.95
863.782	7782.46
864.103	7761.22
864.424	7743.82
864.745	7764.61
865.065	7747.66
865.386	7682.58
865.707	7662.24
866.027	7622.7
866.348	7664.5
866.668	7685.97
866.989	7586.99
867.309	7614.33
867.63	7607.1
867.95	7571.4
868.27	7515.13
868.59	7604.84
868.91	7551.74
869.23	7573.2
869.55	7490.04
869.87	7554.22
870.19	7517.16
870.51	7518.52
870.83	7484.62
871.15	7418.41
871.469	7416.37
871.789	7443.04
872.109	7483.94
872.428	7423.15
872.748	7477.84
873.067	7445.75
873.386	7448.69
873.706	7398.75
874.025	7360.56
874.344	7342.02
874.663	7357.17
874.982	7337.28
875.301	7393.32
875.62	7290.5
875.939	7321.91
876.258	7325.08
876.577	7272.42
876.896	7339.99
877.214	7271.52
877.533	7267.45
877.852	7252.54
878.17	7314.23
878.489	7183.84
878.807	7262.93
879.125	7196.49
879.444	7244.85
879.762	7176.61
880.08	7151.07
880.398	7157.85
880.716	7210.5
881.034	7123.5
881.352	7146.78
881.67	7096.61
881.988	7181.8
882.306	7073.33
882.624	7129.37
882.941	7028.81
883.259	7045.08
883.577	7014.35
883.894	7030.17
884.212	7008.7
884.529	6938.87
884.846	6932.77
885.164	6967.12
885.481	6945.2
885.798	6955.59
886.115	6921.02
886.432	6930.74
886.75	6846.67
887.067	6881.7
887.383	6840.57
887.7	6811.87
888.017	6823.62
888.334	6836.5
888.651	6804.64
888.967	6795.6
889.284	6717.63
889.6	6733
889.917	6699.56
890.233	6682.38
890.55	6659.33
890.866	6688.48
891.182	6642.16
891.498	6592.67
891.815	6592.89
892.131	6575.04
892.447	6525.32
892.763	6516.51
893.079	6512.22
893.395	6525.32
893.71	6538.88
894.026	6503.63
894.342	6413.01
894.657	6437.19
894.973	6439.22
895.289	6406.46
895.604	6405.55
895.92	6367.59
896.235	6337.31
896.55	6321.71
896.865	6361.03
897.181	6310.19
897.496	6258.21
897.811	6236.29
898.126	6224.77
898.441	6210.08
898.756	6163.52
899.071	6112
899.386	6193.58
899.7	6149.74
900.015	6086.92
900.33	6073.36
900.644	6059.12
900.959	6096.86
901.273	6059.12
901.588	6011.89
901.902	6033.36
902.216	5946.58
902.531	5946.35
902.845	5908.62
903.159	5918.33
903.473	5894.6
903.787	5869.29
904.101	5826.13
904.415	5817.77
904.729	5823.87
905.042	5759.69
905.356	5778
905.67	5761.5
905.984	5754.95
906.297	5701.62
906.611	5664.55
906.924	5662.29
907.237	5598.79
907.551	5623.43
907.864	5619.58
908.177	5511.34
908.491	5579.58
908.804	5515.41
909.117	5545.91
909.43	5474.5
909.743	5455.97
910.056	5462.98
910.368	5434.05
910.681	5392.7
910.994	5426.14
911.307	5380.04
911.619	5328.74
911.932	5342.98
912.244	5272.93
912.557	5287.84
912.869	5246.03
913.181	5265.24
913.494	5249.65
913.806	5176.66
914.118	5194.96
914.43	5151.8
914.742	5129.88
915.054	5111.8
915.366	5076.77
915.678	5090.56
915.99	5072.03
916.302	5033.61
916.613	5024.12
916.925	4986.15
917.236	5003.33
917.548	4971.01
917.859	4972.6
918.171	4907.96
918.482	4909.32
918.794	4890.11
919.105	4928.98
919.416	4861.41
919.727	4862.77
920.038	4847.63
920.349	4806.72
920.66	4763.34
920.971	4723.11
921.282	4757.01
921.593	4724.01
921.903	4735.54
922.214	4750
922.525	4652.38
922.835	4640.63
923.146	4635.88
923.456	4622.1
923.767	4562.89
924.077	4604.02
924.387	4563.57
924.697	4526.73
925.008	4525.83
925.318	4442.89
925.628	4483.57
925.938	4468.65
926.248	4467.07
926.558	4414.42
926.867	4417.81
927.177	4416.45
927.487	4370.35
927.796	4310.47
928.106	4302.56
928.416	4333.29
928.725	4316.79
929.034	4280.64
929.344	4310.47
929.653	4222.56
929.962	4256.23
930.271	4189.56
930.581	4222.56
930.89	4180.75
931.199	4154.54
931.508	4148.89
931.817	4149.34
932.125	4126.29
932.434	4122
932.743	4090.36
933.051	4034.31
933.36	4063.47
933.669	4005.39
933.977	4004.71
934.286	4010.36
934.594	3997.71
934.902	3954.54
935.21	3944.15
935.519	3934.66
935.827	3933.07
936.135	3872.06
936.443	3844.94
936.751	3870.48
937.059	3849.46
937.367	3807.65
937.674	3802.68
937.982	3826.41
938.29	3766.98
938.597	3768.56
938.905	3792.06
939.213	3695.79
939.52	3695.79
939.827	3761.78
940.135	3656.02
940.442	3676.13
940.749	3683.59
941.056	3660.54
941.363	3656.7
941.67	3637.26
941.977	3635.23
942.284	3602.69
942.591	3610.37
942.898	3549.81
943.205	3564.27
943.511	3567.43
943.818	3540.99
944.125	3519.98
944.431	3484.5
944.738	3496.7
945.044	3462.8
945.35	3453.99
945.657	3415.8
945.963	3453.99
946.269	3397.27
946.575	3429.36
946.881	3391.85
947.187	3402.47
947.493	3357.5
947.799	3382.35
948.105	3378.29
948.41	3285.86
948.716	3281.57
949.022	3265.97
949.327	3281.79
949.633	3240.44
949.938	3257.61
950.244	3236.82
950.549	3205.86
950.854	3211.06
951.16	3147.56
951.465	3199.31
951.77	3100.1
952.075	3137.62
952.38	3141.46
952.685	3129.48
952.99	3107.33
953.294	3108.92
953.599	3072.98
953.904	3072.98
954.209	3021.69
954.513	3059.65
954.818	2970.39
955.122	3016.04
955.426	3002.25
955.731	2985.3
956.035	2985.08
956.339	2964.74
956.643	2983.49
956.948	2937.39
957.252	2923.84
957.556	2953.89
957.86	2930.62
958.163	2885.87
958.467	2882.25
958.771	2863.95
959.075	2887.9
959.378	2809.71
959.682	2856.27
959.985	2821.01
960.289	2829.15
960.592	2812.43
960.896	2799.32
961.199	2752.09
961.502	2755.03
961.805	2791.86
962.108	2758.19
962.411	2735.59
962.714	2693.79
963.017	2715.25
963.32	2692.2
963.623	2702.82
963.926	2669.38
964.228	2716.38
964.531	2657.4
964.833	2670.06
965.136	2645.88
965.438	2649.04
965.741	2612.88
966.043	2623.73
966.345	2600.45
966.648	2588.25
966.95	2600.91
967.252	2553.45
967.554	2565.2
967.856	2556.84
968.158	2545.31
968.46	2502.15
968.761	2512.55
969.063	2509.16
969.365	2476.62
969.666	2433.68
969.968	2463.51
970.269	2448.59
970.571	2437.97
970.872	2429.39
971.174	2418.09
971.475	2424.41
971.776	2410.63
972.077	2401.82
972.378	2405.43
972.679	2405.21
972.98	2373.34
973.281	2384.19
973.582	2331.31
973.883	2283.63
974.183	2310.29
974.484	2289.28
974.785	2336.51
975.085	2315.94
975.386	2282.72
975.686	2305.32
975.986	2259.45
976.287	2287.02
976.587	2252.89
976.887	2249.73
977.187	2236.85
977.487	2230.07
977.787	2235.94
978.087	2237.53
978.387	2182.61
978.687	2210.41
978.987	2194.59
979.286	2173.35
979.586	2202.72
979.885	2162.05
980.185	2157.3
980.484	2137.87
980.784	2106.68
981.083	2123.18
981.382	2128.6
981.682	2105.33
981.981	2078.66
982.28	2099.22
982.579	2063.07
982.878	2084.54
983.177	2091.09
983.475	2089.96
983.774	2055.38
984.073	2032.56
984.372	2033.92
984.67	2011.77
984.969	2006.57
985.267	1993.24
985.566	1989.85
985.864	1984.65
986.162	2004.31
986.461	1965.89
986.759	1984.65
987.057	1969.74
987.355	1947.59
987.653	1963.41
987.951	1962.96
988.249	1943.75
988.547	1897.42
988.844	1887.7
989.142	1892.45
989.44	1889.51
989.737	1880.02
990.035	1849.97
990.332	1866.24
990.63	1854.49
990.927	1862.39
991.224	1851.32
991.521	1837.31
991.819	1837.54
992.116	1829.63
992.413	1815.62
992.71	1817.42
993.006	1791.44
993.303	1767.48
993.6	1783.98
993.897	1770.87
994.193	1739.46
994.49	1733.58
994.787	1774.49
995.083	1773.36
995.379	1701.27
995.676	1684.55
995.972	1723.42
996.268	1676.18
996.565	1697.43
996.861	1690.87
997.157	1706.24
997.453	1669.18
997.749	1637.77
998.044	1668.5
998.34	1669.41
998.636	1640.93
998.932	1654.94
999.227	1642.97
999.523	1630.76
999.818	1629.86
1000.114	1598.9
1000.409	1600.93
1000.704	1587.15
1001	1569.29
1001.295	1556.87
1001.59	1583.98
1001.885	1558.9
1002.18	1566.81
1002.475	1547.15
1002.77	1505.12
1003.065	1514.16
1003.359	1499.92
1003.654	1524.1
1003.949	1492.46
1004.243	1513.25
1004.538	1493.36
1004.832	1487.94
1005.127	1476.42
1005.421	1476.87
1005.715	1451.33
1006.009	1487.94
1006.304	1475.74
1006.598	1451.33
1006.892	1434.38
1007.186	1430.54
1007.48	1405.23
1007.773	1421.95
1008.067	1401.39
1008.361	1401.39
1008.655	1354.39
1008.948	1362.29
1009.242	1363.42
1009.535	1381.73
1009.829	1346.02
1010.122	1342.63
1010.415	1361.62
1010.708	1351.45
1011.001	1327.27
1011.295	1315.97
1011.588	1330.21
1011.881	1297.66
1012.173	1297.44
1012.466	1295.86
1012.759	1273.71
1013.052	1315.52
1013.344	1289.08
1013.637	1278.91
1013.93	1258.12
1014.222	1233.48
1014.514	1258.79
1014.807	1249.3
1015.099	1254.73
1015.391	1248.85
1015.683	1235.07
1015.976	1245.24
1016.268	1215.18
1016.56	1215.63
1016.851	1179.7
1017.143	1189.42
1017.435	1200.72
1017.727	1200.27
1018.018	1206.59
1018.31	1168.4
1018.602	1159.14
1018.893	1143.77
1019.185	1149.64
1019.476	1146.48
1019.767	1132.02
1020.058	1134.96
1020.35	1090.44
1020.641	1106.71
1020.932	1119.14
1021.223	1102.87
1021.514	1114.39
1021.804	1109.42
1022.095	1066.26
1022.386	1083.66
1022.677	1036.88
1022.967	1058.8
1023.258	1069.65
1023.548	1053.38
1023.839	1047.05
1024.129	1017.9
1024.419	1020.83
1024.709	1016.54
1025	1023.09
1025.29	1006.37
1025.58	993.49
1025.87	995.98
1026.16	993.26
1026.449	974.06
1026.739	969.31
1027.029	974.73
1027.319	988.75
1027.608	970.89
1027.898	946.71
1028.187	938.8
1028.477	947.62
1028.766	961.18
1029.055	913.49
1029.344	929.31
1029.634	924.57
1029.923	941.06
1030.212	904.23
1030.501	907.17
1030.79	900.61
1031.078	884.57
1031.367	895.41
1031.656	891.57
1031.945	854.96
1032.233	877.11
1032.522	887.5
1032.81	872.59
1033.099	854.51
1033.387	874.85
1033.675	855.64
1033.963	871.01
1034.251	843.66
1034.54	821.74
1034.828	822.65
1035.116	827.39
1035.403	841.4
1035.691	808.64
1035.979	815.19
1036.267	820.16
1036.554	795.53
1036.842	808.18
1037.129	816.32
1037.417	782.87
1037.704	767.28
1037.992	779.03
1038.279	789.2
1038.566	779.26
1038.853	779.26
1039.14	779.26
