Data from cardboard_FLMS001491_035.txt Node
Date: Tue Feb 07 11:39:21 GMT 2017
User: dcchb
Spectrometer: FLMS00149
Trigger mode: 0
Integration Time (sec): 2.000000E-2
Scans to average: 10
Electric dark correction enabled: true
Nonlinearity correction enabled: false
Boxcar width: 0
XAxis mode: Wavelengths
Number of Pixels in Spectrum: 2048
>>>>>Begin Spectral Data<<<<<
341.393	-26.09
341.776	-26.09
342.16	-26.09
342.543	-72.19
342.927	-78.74
343.31	-57.72
343.693	-76.71
344.077	-65.86
344.46	-66.31
344.843	-49.14
345.226	-63.15
345.61	-28.8
345.993	-19.76
346.376	3.29
346.759	15.72
347.142	9.62
347.525	41.03
347.908	66.11
348.291	84.42
348.674	91.88
349.057	115.38
349.44	133.68
349.823	132.1
350.206	146.11
350.588	200.12
350.971	204.42
351.354	200.12
351.737	229.05
352.119	219.33
352.502	250.74
352.884	260.91
353.267	290.74
353.65	261.36
354.032	312.89
354.414	292.55
354.797	310.63
355.179	321.25
355.562	311.08
355.944	317.63
356.326	315.37
356.709	330.74
357.091	341.14
357.473	336.84
357.855	315.15
358.238	318.31
358.62	321.47
359.002	335.94
359.384	337.75
359.766	323.96
360.148	330.06
360.53	332.32
360.912	338.65
361.294	330.74
361.676	337.75
362.057	313.11
362.439	339.1
362.821	306.11
363.203	322.83
363.584	314.92
363.966	302.04
364.348	312.21
364.729	322.38
365.111	306.79
365.493	300.23
365.874	315.37
366.256	302.72
366.637	304.98
367.019	306.11
367.4	298.88
367.781	304.75
368.163	295.03
368.544	298.42
368.925	310.18
369.306	306.33
369.688	304.07
370.069	304.75
370.45	300.01
370.831	303.62
371.212	297.97
371.593	295.49
371.974	293.23
372.355	316.95
372.736	308.59
373.117	307.24
373.498	324.86
373.879	303.17
374.26	284.64
374.641	318.31
375.021	309.5
375.402	318.99
375.783	314.02
376.163	321.7
376.544	322.15
376.925	318.31
377.305	314.7
377.686	306.56
378.066	306.79
378.447	325.09
378.827	299.33
379.208	336.39
379.588	330.97
379.968	306.11
380.349	325.54
380.729	339.1
381.109	322.83
381.489	328.25
381.87	314.47
382.25	330.06
382.63	325.99
383.01	338.88
383.39	329.16
383.77	335.94
384.15	335.71
384.53	334.58
384.91	335.94
385.29	320.8
385.67	354.69
386.049	353.79
386.429	324.41
386.809	329.61
387.189	327.8
387.568	333.45
387.948	344.98
388.328	355.37
388.707	336.39
389.087	334.13
389.466	361.25
389.846	372.55
390.225	352.89
390.605	360.34
390.984	356.73
391.363	342.27
391.743	370.74
392.122	375.71
392.501	367.12
392.881	375.26
393.26	366.22
393.639	358.54
394.018	365.09
394.397	372.77
394.776	385.2
395.155	389.95
395.534	381.36
395.913	368.93
396.292	372.55
396.671	375.71
397.05	366.45
397.429	367.58
397.808	373
398.186	373.9
398.565	386.33
398.944	384.75
399.323	375.26
399.701	381.36
400.08	369.83
400.458	360.8
400.837	373
401.215	381.13
401.594	397.4
401.972	392.43
402.351	407.12
402.729	404.86
403.107	399.66
403.486	402.38
403.864	407.8
404.242	411.87
404.62	420.23
404.999	392.21
405.377	419.33
405.755	418.2
406.133	444.41
406.511	425.65
406.889	434.24
407.267	429.04
407.645	410.96
408.023	420.91
408.401	435.82
408.779	405.54
409.156	426.1
409.534	431.75
409.912	460.23
410.29	454.8
410.667	461.36
411.045	456.84
411.422	457.06
411.8	447.8
412.178	461.36
412.555	468.36
412.933	484.41
413.31	491.19
413.687	492.54
414.065	489.38
414.442	488.48
414.819	466.1
415.197	488.02
415.574	489.15
415.951	486.67
416.328	478.98
416.705	491.87
417.082	489.15
417.46	507.91
417.837	509.04
418.214	518.53
418.591	513.79
418.967	503.84
419.344	522.83
419.721	534.8
420.098	510.85
420.475	530.28
420.852	525.76
421.228	530.28
421.605	532.99
421.982	542.71
422.358	553.33
422.735	547.01
423.111	539.55
423.488	546.1
423.864	583.84
424.241	557.63
424.617	555.59
424.994	573.67
425.37	591.98
425.746	583.61
426.123	561.02
426.499	577.74
426.875	563.73
427.251	594.24
427.627	585.2
428.003	586.1
428.379	599.21
428.756	649.83
429.132	597.17
429.507	612.54
429.883	630.17
430.259	625.87
430.635	641.01
431.011	648.7
431.387	662.26
431.763	644.18
432.138	676.04
432.514	666.32
432.89	674.01
433.265	687.79
433.641	685.76
434.016	676.72
434.392	673.1
434.767	658.41
435.143	687.57
435.518	710.84
435.894	704.97
436.269	703.61
436.644	735.48
437.02	751.29
437.395	744.74
437.77	746.55
438.145	727.11
438.52	737.96
438.895	751.29
439.271	755.81
439.646	761.46
440.021	780.67
440.395	778.19
440.77	784.29
441.145	761.24
441.52	809.6
441.895	788.35
442.27	801.01
442.645	815.25
443.019	814.34
443.394	818.64
443.769	797.62
444.143	799.65
444.518	816.6
444.892	826.09
445.267	841.46
445.641	843.95
446.016	829.26
446.39	860.44
446.764	844.85
447.139	861.35
447.513	874
447.887	872.42
448.262	867.9
448.636	853.21
449.01	877.17
449.384	885.53
449.758	901.12
450.132	910.39
450.506	890.95
450.88	907.45
451.254	907.45
451.628	933.44
452.002	942.48
452.376	938.18
452.75	930.95
453.123	985.86
453.497	956.71
453.871	971.18
454.244	986.77
454.618	959.65
454.992	991.29
455.365	1012.53
455.739	988.58
456.112	1022.93
456.486	1051.62
456.859	1051.85
457.232	1064.73
457.606	1092.53
457.979	1068.57
458.352	1091.4
458.725	1096.14
459.099	1091.17
459.472	1115.35
459.845	1147.22
460.218	1130.27
460.591	1160.32
460.964	1170.94
461.337	1173.43
461.71	1215.01
462.083	1201
462.456	1213.2
462.829	1191.28
463.201	1229.25
463.574	1233.54
463.947	1231.73
464.32	1271.51
464.692	1269.47
465.065	1281.9
465.438	1308.79
465.81	1330.49
466.183	1333.88
466.555	1352.86
466.928	1354.22
467.3	1372.75
467.672	1368.68
468.045	1393.08
468.417	1410.94
468.789	1410.94
469.161	1458.39
469.534	1449.81
469.906	1518.73
470.278	1504.04
470.65	1530.48
471.022	1543.36
471.394	1554.21
471.766	1572.52
472.138	1585.85
472.51	1631.5
472.882	1650.48
473.253	1672.85
473.625	1706.97
473.997	1718.5
474.369	1756.47
474.74	1747.2
475.112	1781.55
475.484	1808.89
475.855	1822
476.227	1859.97
476.598	1914.43
476.97	1925.73
477.341	1943.8
477.713	1958.95
478.084	2017.02
478.455	2039.4
478.827	2065.38
479.198	2125.95
479.569	2123.91
479.94	2156
480.311	2176.34
480.682	2243.68
481.053	2281.42
481.424	2330.24
481.795	2320.07
482.166	2397.58
482.537	2400.06
482.908	2450.68
483.279	2466.73
483.65	2512.6
484.021	2572.94
484.391	2583.34
484.762	2631.24
485.133	2644.8
485.503	2653.39
485.874	2740.17
486.244	2781.97
486.615	2791.24
486.985	2856.78
487.356	2865.14
487.726	2973.16
488.097	2998.24
488.467	3013.16
488.837	3048.18
489.207	3093.61
489.578	3122.08
489.948	3193.26
490.318	3264.67
490.688	3275.75
491.058	3331.56
491.428	3374.5
491.798	3421.05
492.168	3450.21
492.538	3519.13
492.908	3530.2
493.278	3565.68
493.648	3587.38
494.017	3619.47
494.387	3648.17
494.757	3696.75
495.126	3790.31
495.496	3793.93
495.866	3779.24
496.235	3819.69
496.605	3902.62
496.974	3949.4
497.344	3952.11
497.713	3995.95
498.082	4005.45
498.452	4062.62
498.821	4093.13
499.19	4128.38
499.559	4227.81
499.928	4219.45
500.298	4235.72
500.667	4290.64
501.036	4284.53
501.405	4356.4
501.774	4419.9
502.143	4453.57
502.512	4471.2
502.88	4521.59
503.249	4543.74
503.618	4599.1
503.987	4634.36
504.356	4693.79
504.724	4675.03
505.093	4688.59
505.462	4773.33
505.83	4832.77
506.199	4808.59
506.567	4922.71
506.936	4946.89
507.304	4995.25
507.672	5073.21
508.041	5063.27
508.409	5108.02
508.777	5165.64
509.145	5230.72
509.514	5203.61
509.882	5266.43
510.25	5346.88
510.618	5360.89
510.986	5425.97
511.354	5457.84
511.722	5529.47
512.09	5635.01
512.458	5606.76
512.826	5648.79
513.193	5687.21
513.561	5731.95
513.929	5797.49
514.297	5834.78
514.664	5930.59
515.032	5959.07
515.4	6018.05
515.767	5997.71
516.135	6129.01
516.502	6129.46
516.869	6226.18
517.237	6229.79
517.604	6225.73
517.972	6398.15
518.339	6410.81
518.706	6507.53
519.073	6533.74
519.44	6578.26
519.808	6613.74
520.175	6686.73
520.542	6779.38
520.909	6850.12
521.276	6872.94
521.643	7001.52
522.009	7048.53
522.376	7105.25
522.743	7152.26
523.11	7235.87
523.477	7347.5
523.843	7416.66
524.21	7478.35
524.577	7601.06
524.943	7575.75
525.31	7589.98
525.676	7776.65
526.043	7805.35
526.409	7916.53
526.776	7990.65
527.142	8059.12
527.508	8086.47
527.874	8183.41
528.241	8222.51
528.607	8326.69
528.973	8442.84
529.339	8470.86
529.705	8537.08
530.071	8581.14
530.437	8646.23
530.803	8703.85
531.169	8775.72
531.535	8860.46
531.901	8895.71
532.267	8910.4
532.632	9019.55
532.998	9084.18
533.364	9205.31
533.73	9192.43
534.095	9297.06
534.461	9378.64
534.826	9397.62
535.192	9475.81
535.557	9549.25
535.923	9644.39
536.288	9646.2
536.653	9710.83
537.019	9708.8
537.384	9798.51
537.749	9880.77
538.114	9937.94
538.479	9929.81
538.845	10062.69
539.21	10081.9
539.575	10152.18
539.94	10202.57
540.305	10337.03
540.67	10291.38
541.034	10418.84
541.399	10456.12
541.764	10466.07
542.129	10574.76
542.494	10603.46
542.858	10683.69
543.223	10780.63
543.587	10824.48
543.952	10807.98
544.316	10984.7
544.681	10910.8
545.045	11004.36
545.41	11042.1
545.774	11104.92
546.138	11119.38
546.503	11198.7
546.867	11257.91
547.231	11410.67
547.595	11438.92
547.959	11581.97
548.324	11567.96
548.688	11597.56
549.052	11686.83
549.416	11740.61
549.779	11800.27
550.143	11892.24
550.507	11964.11
550.871	12005.91
551.235	12039.81
551.599	12139.47
551.962	12233.48
552.326	12200.71
552.689	12379.46
553.053	12402.29
553.417	12440.93
553.78	12569.51
554.143	12596.18
554.507	12668.49
554.87	12824.87
555.234	12931.54
555.597	12850.18
555.96	12946.23
556.323	12963.85
556.686	13161.36
557.05	13223.28
557.413	13339.89
557.776	13259.67
558.139	13477.06
558.502	13526.33
558.865	13476.83
559.228	13651.07
559.59	13781.01
559.953	13818.29
560.316	14004.28
560.679	14008.35
561.041	14131.96
561.404	14123.37
561.767	14244.05
562.129	14285.85
562.492	14406.75
562.854	14423.7
563.217	14567.43
563.579	14654.66
563.941	14714.54
564.304	14814.88
564.666	14912.96
565.028	14960.19
565.39	15098.04
565.753	15198.15
566.115	15296.22
566.477	15267.75
566.839	15420.51
567.201	15522.43
567.563	15532.6
567.925	15635.65
568.287	15672.71
568.648	15774.63
569.01	15938.69
569.372	16058.69
569.734	16056.88
570.095	16218.68
570.457	16300.26
570.819	16311.34
571.18	16363.99
571.542	16462.75
571.903	16580.71
572.265	16656.19
572.626	16768.73
572.987	16784.09
573.349	16827.03
573.71	16994.03
574.071	17031.32
574.432	17116.29
574.794	17154.03
575.155	17232.44
575.516	17212.78
575.877	17357.86
576.238	17483.28
576.599	17521.7
576.96	17506.79
577.32	17515.15
577.681	17623.84
578.042	17669.04
578.403	17775.7
578.763	17903.39
579.124	17868.81
579.485	17933.89
579.845	18043.49
580.206	18101.57
580.566	18048.92
580.927	18125.3
581.287	18234.68
581.648	18209.59
582.008	18269.48
582.368	18295.69
582.728	18426.76
583.089	18384.73
583.449	18453.65
583.809	18517.15
584.169	18645.06
584.529	18596.47
584.889	18745.17
585.249	18668.34
585.609	18560.54
585.969	18773.42
586.329	18742.46
586.688	18895.22
587.048	18845.73
587.408	18852.96
587.768	18952.85
588.127	18989.46
588.487	18907.43
588.846	19149.45
589.206	18954.43
589.565	19060.19
589.925	19215.89
590.284	19117.82
590.643	19289.79
591.003	19163.01
591.362	19277.59
591.721	19315.78
592.08	19322.56
592.44	19392.16
592.799	19411.82
593.158	19379.28
593.517	19461.54
593.876	19435.77
594.235	19449.56
594.593	19537.01
594.952	19606.84
595.311	19552.83
595.67	19636.9
596.029	19773.62
596.387	19808.19
596.746	19832.83
597.104	19879.15
597.463	19811.13
597.822	19904.24
598.18	19797.35
598.538	19914.18
598.897	20031.69
599.255	19853.39
599.613	20129.54
599.972	20080.96
600.33	20123.21
600.688	20048.19
601.046	20190.56
601.404	20272.81
601.762	20256.77
602.12	20326.6
602.478	20325.92
602.836	20437.33
603.194	20392.13
603.552	20418.57
603.91	20409.99
604.268	20585.35
604.625	20465.8
604.983	20606.36
605.341	20510.1
605.698	20559.59
606.056	20758.45
606.413	20682.97
606.771	20850.2
607.128	20760.26
607.485	20856.75
607.843	20876.87
608.2	20861.95
608.557	20972.23
608.914	20963.87
609.272	21016.07
609.629	21049.29
609.986	21246.57
610.343	21192.56
610.7	21251.32
611.057	21322.5
611.414	21202.28
611.771	21299.68
612.127	21359.79
612.484	21479.11
612.841	21544.19
613.198	21354.37
613.554	21453.35
613.911	21651.76
614.267	21695.15
614.624	21628.94
614.98	21663.29
615.337	21692.44
615.693	21755.49
616.05	21746.45
616.406	21927.01
616.762	21778.31
617.118	21823.73
617.475	21863.73
617.831	21941.92
618.187	22066.21
618.543	22053.33
618.899	22179.88
619.255	22223.5
619.611	22164.97
619.967	22338.3
620.323	22165.65
620.678	22293.33
621.034	22310.5
621.39	22216.49
621.746	22333.1
622.101	22442.47
622.457	22357.28
622.812	22383.95
623.168	22454.23
623.523	22560.44
623.879	22669.81
624.234	22500.78
624.589	22610.83
624.945	22657.61
625.3	22685.63
625.655	22625.52
626.01	22596.82
626.365	22717.95
626.72	22689.47
627.075	22541
627.43	22741.68
627.785	22595.01
628.14	22700.1
628.495	22698.74
628.85	22669.59
629.205	22633.88
629.559	22863.25
629.914	22635.01
630.269	22755.01
630.623	22662.81
630.978	22673.43
631.332	22867.1
631.687	22785.29
632.041	22675.69
632.396	22765.86
632.75	22751.17
633.104	22762.92
633.459	22634.79
633.813	22689.47
634.167	22771.73
634.521	22741.45
634.875	22684.95
635.229	22722.02
635.583	22576.71
635.937	22645.41
636.291	22691.06
636.645	22644.05
636.999	22628.91
637.352	22722.69
637.706	22543.94
638.06	22621.91
638.413	22670.49
638.767	22611.06
639.121	22622.81
639.474	22481.8
639.828	22508.01
640.181	22568.57
640.534	22482.93
640.888	22580.78
641.241	22364.28
641.594	22454.45
641.947	22575.13
642.301	22486.32
642.654	22590.27
643.007	22573.09
643.36	22551.17
643.713	22538.07
644.066	22598.18
644.419	22419.42
644.771	22343.27
645.124	22167.68
645.477	22176.04
645.83	21956.39
646.182	21966.78
646.535	21983.05
646.888	21985.09
647.24	21706.9
647.593	21960.68
647.945	21924.97
648.298	21818.99
648.65	21811.98
649.002	21642.5
649.355	21869.38
649.707	21836.16
650.059	21918.65
650.411	22127.68
650.763	22147.57
651.115	22378.07
651.467	22329.26
651.819	22281.35
652.171	22336.94
652.523	22292.87
652.875	22289.48
653.227	22271.86
653.578	22401.8
653.93	22377.17
654.282	22294.68
654.633	22161.58
654.985	22232.31
655.337	22335.59
655.688	22400.89
656.039	22382.82
656.391	22233.67
656.742	22233.67
657.094	22250.16
657.445	22319.31
657.796	22285.64
658.147	22230.73
658.498	22330.39
658.849	22307.11
659.2	22284.74
659.551	22323.16
659.902	22441.57
660.253	22301.69
660.604	22396.37
660.955	22215.59
661.306	22313.21
661.656	22325.42
662.007	22372.65
662.358	22368.13
662.708	22381.69
663.059	22270.95
663.409	22200.45
663.76	22384.17
664.11	22432.76
664.461	22388.69
664.811	22399.76
665.161	22435.02
665.511	22379.2
665.862	22399.54
666.212	22474.34
666.562	22471.63
666.912	22366.32
667.262	22296.49
667.612	22468.91
667.962	22426.43
668.312	22315.02
668.662	22578.06
669.011	22383.95
669.361	22403.15
669.711	22419.65
670.06	22278.64
670.41	22293.55
670.76	22315.92
671.109	22320.9
671.459	22391.18
671.808	22373.32
672.157	22413.32
672.507	22259.2
672.856	22245.42
673.205	22312.31
673.554	22383.95
673.904	22246.77
674.253	22460.33
674.602	22392.08
674.951	22134.91
675.3	21882.04
675.649	22317.73
675.998	22346.21
676.346	22287.68
676.695	22373.78
677.044	22165.87
677.393	22248.36
677.741	22260.78
678.09	22154.8
678.438	22261.01
678.787	22176.49
679.135	22198.87
679.484	22133.33
679.832	22259.65
680.181	22082.26
680.529	22160
680.877	22114.57
681.225	22038.42
681.573	22169.94
681.922	22011.07
682.27	21940.79
682.618	22036.84
682.966	22048.59
683.314	22093.33
683.661	21983.5
684.009	21855.6
684.357	21871.19
684.705	21859.89
685.053	21948.48
685.4	21787.12
685.748	21676.17
686.095	21835.94
686.443	21763.85
686.79	21635.04
687.138	21753.91
687.485	21642.04
687.832	21709.84
688.18	21682.27
688.527	21503.29
688.874	21502.84
689.221	21501.48
689.568	21444.54
689.915	21441.82
690.262	21441.6
690.609	21310.3
690.956	21239.12
691.303	21272.79
691.65	21187.82
691.997	21284.77
692.344	21168.61
692.69	21093.13
693.037	21116.86
693.383	20941.27
693.73	21033.25
694.077	20842.29
694.423	20862.86
694.769	20875.28
695.116	20845.45
695.462	20755.97
695.808	20726.59
696.155	20733.14
696.501	20519.36
696.847	20575.41
697.193	20492.7
697.539	20544.22
697.885	20402.53
698.231	20289.76
698.577	20402.98
698.923	20231.23
699.269	20221.97
699.614	20188.52
699.96	20180.16
700.306	20186.49
700.651	20102.88
700.997	19989.66
701.342	19976.78
701.688	20021.97
702.033	19898.13
702.379	19928.87
702.724	19865.37
703.069	19882.77
703.415	19606.39
703.76	19744.01
704.105	19707.86
704.45	19642.77
704.795	19541.31
705.14	19487.07
705.485	19493.63
705.83	19410.69
706.175	19420.41
706.52	19446.85
706.865	19376.79
707.209	19402.33
707.554	19103.35
707.899	19253.18
708.243	19250.02
708.588	19132.05
708.932	19051.83
709.277	19019.29
709.621	18996.01
709.966	18935.67
710.31	18931.83
710.654	18765.74
710.998	18838.28
711.342	18928.67
711.687	18788.33
712.031	18829.69
712.375	18699.52
712.719	18720.31
713.063	18740.88
713.407	18721.89
713.75	18739.3
714.094	18693.19
714.438	18633.76
714.782	18560.54
715.125	18545.18
715.469	18621.33
715.812	18521.22
716.156	18426.54
716.499	18379.08
716.843	18402.58
717.186	18292.53
717.53	18407.78
717.873	18341.57
718.216	18369.14
718.559	18211.4
718.902	18165.07
719.246	18243.26
719.589	18214.79
719.932	18111.74
720.275	18085.3
720.617	18166.66
720.96	18021.12
721.303	18075.58
721.646	18168.46
721.989	17993.33
722.331	18140.44
722.674	17957.4
723.016	18122.81
723.359	18055.7
723.701	18088.01
724.044	17986.09
724.386	17909.94
724.729	18007.11
725.071	17861.13
725.413	17937.73
725.755	17875.59
726.097	17810.51
726.439	17711.07
726.782	17758.08
727.124	17778.42
727.465	17842.82
727.807	17683.05
728.149	17752.2
728.491	17721.47
728.833	17768.93
729.175	17697.74
729.516	17639.66
729.858	17642.38
730.199	17678.31
730.541	17562.38
730.882	17608.48
731.224	17643.05
731.565	17485.54
731.906	17576.39
732.248	17562.15
732.589	17413.68
732.93	17420.46
733.271	17584.75
733.612	17422.95
733.953	17546.11
734.294	17435.15
734.635	17462.72
734.976	17495.94
735.317	17323.51
735.658	17417.52
735.999	17469.72
736.339	17394.92
736.68	17424.08
737.021	17340.24
737.361	17172.56
737.702	17379.56
738.042	17234.93
738.383	17260.24
738.723	17365.09
739.063	17253.01
739.404	17308.6
739.744	17254.36
740.084	17252.55
740.424	17204.65
740.764	17243.06
741.104	17261.37
741.444	17125.55
741.784	17164.87
742.124	17141.37
742.464	17218.21
742.804	17082.16
743.143	17111.09
743.483	17133.69
743.823	17061.37
744.162	17028.15
744.502	17048.94
744.841	17040.13
745.181	17084.2
745.52	17097.08
745.86	17092.11
746.199	17042.84
746.538	17007.14
746.877	17174.82
747.216	16985.44
747.556	17050.53
747.895	17020.7
748.234	16989.06
748.573	16894.82
748.911	16923.98
749.25	16923.52
749.589	16907.93
749.928	16954.71
750.267	16843.98
750.605	16791.55
750.944	16787.03
751.283	16779.35
751.621	16780.48
751.96	16772.79
752.298	16800.59
752.636	16843.53
752.975	16669.75
753.313	16641.05
753.651	16777.77
753.989	16681.27
754.327	16626.13
754.666	16522.18
755.004	16693.93
755.342	16721.04
755.679	16605.34
756.017	16609.18
756.355	16560.14
756.693	16476.98
757.031	16646.02
757.368	16465.23
757.706	16482.86
758.044	16352.47
758.381	16327.83
758.719	16333.26
759.056	16343.88
759.394	16280.6
759.731	16229.76
760.068	16277.89
760.405	16077.9
760.743	16199.02
761.08	16173.04
761.417	16040.16
761.754	16045.35
762.091	16073.15
762.428	16007.39
762.765	15839.26
763.102	15979.82
763.438	15884.68
763.775	15761.52
764.112	15830.22
764.449	15715.19
764.785	15728.98
765.122	15644.46
765.458	15603.11
765.795	15683.78
766.131	15609.66
766.467	15504.35
766.804	15582.77
767.14	15528.31
767.476	15457.8
767.812	15390.68
768.148	15428.42
768.485	15351.59
768.821	15271.82
769.157	15260.74
769.492	15187.98
769.828	15137.58
770.164	15011.26
770.5	15006.51
770.836	14984.37
771.171	14998.6
771.507	14902.33
771.842	14759.97
772.178	14861.21
772.513	14822.79
772.849	14698.95
773.184	14757.71
773.519	14731.49
773.855	14639.97
774.19	14577.6
774.525	14536.24
774.86	14461.67
775.195	14477.49
775.53	14456.7
775.865	14353.2
776.2	14256.02
776.535	14213.09
776.87	14158.4
777.205	14137.16
777.539	14106.42
777.874	14082.69
778.209	13958.63
778.543	13964.96
778.878	13874.34
779.212	13950.27
779.547	13806.77
779.881	13882.25
780.215	13747.56
780.55	13776.49
780.884	13649.49
781.218	13694.46
781.552	13717.96
781.886	13524.29
782.22	13488.81
782.554	13479.77
782.888	13330.85
783.222	13309.61
783.556	13289.27
783.889	13222.83
784.223	13148.26
784.557	13136.5
784.89	13225.99
785.224	13105.09
785.557	13029.39
785.891	13027.13
786.224	12956.62
786.558	13008.37
786.891	12800.24
787.224	12776.51
787.557	12838.89
787.891	12718.44
788.224	12790.75
788.557	12712.34
788.89	12736.74
789.223	12662.39
789.556	12574.71
789.888	12543.53
790.221	12484.32
790.554	12394.15
790.887	12386.47
791.219	12367.26
791.552	12333.81
791.884	12305.79
792.217	12223.08
792.549	12219.24
792.882	12152.12
793.214	12155.29
793.546	12122.07
793.879	12093.14
794.211	11936.99
794.543	11987.38
794.875	11908.06
795.207	11990.32
795.539	11934.95
795.871	11919.81
796.203	11845.92
796.535	11799.59
796.867	11833.26
797.198	11682.76
797.53	11687.5
797.862	11621.74
798.193	11662.87
798.525	11596.21
798.856	11684.57
799.188	11441.86
799.519	11409.54
799.85	11328.87
800.182	11402.77
800.513	11387.4
800.844	11329.55
801.175	11360.05
801.506	11365.7
801.837	11230.11
802.168	11272.83
802.499	11203
802.83	11128.42
803.161	11126.16
803.491	11179.72
803.822	11083
804.153	11047.75
804.483	10932.27
804.814	11014.98
805.145	11033.96
805.475	10988.76
805.805	10878.03
806.136	10926.85
806.466	10911.93
806.796	10917.35
807.126	10815.21
807.457	10749
807.787	10824.25
808.117	10699.28
808.447	10641.88
808.777	10708.09
809.107	10634.42
809.436	10631.26
809.766	10577.02
810.096	10600.53
810.426	10538.38
810.755	10543.35
811.085	10538.83
811.414	10525.73
811.744	10391.49
812.073	10420.42
812.403	10435.78
812.732	10337.48
813.061	10397.14
813.39	10208.22
813.719	10298.61
814.049	10390.36
814.378	10263.36
814.707	10262.23
815.036	10206.86
815.365	10221.55
815.693	10122.8
816.022	10106.53
816.351	10067.88
816.68	10029.02
817.008	10018.39
817.337	9991.73
817.665	10009.58
817.994	10005.51
818.322	10010.03
818.651	9918.96
818.979	9915.8
819.307	9971.39
819.636	9857.95
819.964	9808.91
820.292	9906.53
820.62	9880.32
820.948	9812.3
821.276	9864.27
821.604	9814.56
821.932	9827.44
822.259	9847.55
822.587	9852.3
822.915	9835.12
823.243	9816.37
823.57	9846.65
823.898	9862.24
824.225	9804.62
824.553	9821.56
824.88	9790.15
825.207	9805.29
825.535	9742.47
825.862	9877.16
826.189	9771.85
826.516	9906.08
826.843	9882.81
827.17	9869.02
827.497	9791.73
827.824	9826.54
828.151	9879.87
828.478	9815.24
828.805	9808.46
829.131	9756.93
829.458	9826.76
829.785	9759.19
830.111	9843.03
830.438	9831.28
830.764	9890.71
831.09	9736.82
831.417	9701.57
831.743	9789.47
832.069	9749.25
832.395	9737.05
832.722	9767.55
833.048	9722.58
833.374	9770.72
833.7	9772.98
834.026	9745.63
834.351	9731.85
834.677	9728.68
835.003	9729.81
835.329	9749.93
835.654	9721
835.98	9660.44
836.306	9673.55
836.631	9707.67
836.956	9622.02
837.282	9728.91
837.607	9660.44
837.932	9602.13
838.258	9617.05
838.583	9632.42
838.908	9575.92
839.233	9614.11
839.558	9531.4
839.883	9542.7
840.208	9546.99
840.533	9526.88
840.858	9484.17
841.182	9569.59
841.507	9543.38
841.832	9452.99
842.156	9448.01
842.481	9387.9
842.805	9400.56
843.13	9359.66
843.454	9335.47
843.778	9233.56
844.103	9344.97
844.427	9332.54
844.751	9318.98
845.075	9337.28
845.399	9198.76
845.723	9230.17
846.047	9207.57
846.371	9122.37
846.695	9114.69
847.019	9063.17
847.343	8989.04
847.666	8925.54
847.99	8923.51
848.313	8919.21
848.637	8900.46
848.96	8868.59
849.284	8863.62
849.607	8821.14
849.931	8718.09
850.254	8725.55
850.577	8631.31
850.9	8625.66
851.223	8630.18
851.546	8628.37
851.869	8544.54
852.192	8559
852.515	8460.02
852.838	8468.83
853.161	8510.64
853.483	8426.12
853.806	8386.12
854.129	8368.49
854.451	8290.08
854.774	8352.22
855.096	8274.71
855.419	8290.3
855.741	8244.66
856.063	8205.79
856.385	8164.88
856.708	8151.1
857.03	8126.02
857.352	8162.85
857.674	8112.91
857.996	8044.89
858.318	8026.13
858.64	8069.29
858.961	7981.16
859.283	7954.95
859.605	8001.95
859.926	8051.21
860.248	7929.41
860.57	7920.82
860.891	7942.07
861.212	7904.78
861.534	7853.03
861.855	7910.43
862.176	7847.83
862.498	7805.35
862.819	7815.06
863.14	7760.15
863.461	7784.56
863.782	7798.79
864.103	7763.76
864.424	7732.13
864.745	7725.35
865.065	7743.88
865.386	7714.5
865.707	7697.78
866.027	7625.69
866.348	7648.51
866.668	7676.76
866.989	7586.37
867.309	7573.49
867.63	7585.69
867.95	7540.95
868.27	7508.86
868.59	7536.2
868.91	7580.04
869.23	7487.39
869.55	7484.45
869.87	7499.14
870.19	7585.01
870.51	7489.65
870.83	7467.05
871.15	7459.37
871.469	7464.34
871.789	7484.45
872.109	7429.54
872.428	7392.48
872.748	7418.69
873.067	7437.9
873.386	7383.89
873.706	7430.21
874.025	7354.06
874.344	7352.7
874.663	7372.36
874.982	7336.66
875.301	7337.79
875.62	7336.21
875.939	7333.04
876.258	7320.84
876.577	7312.25
876.896	7364.91
877.214	7303.89
877.533	7259.37
877.852	7327.39
878.17	7254.17
878.489	7271.8
878.807	7268.86
879.125	7169.2
879.444	7166.49
879.762	7176.21
880.08	7177.57
880.398	7224.8
880.716	7199.26
881.034	7122.88
881.352	7108.19
881.67	7091.01
881.988	7128.3
882.306	7066.16
882.624	7046.72
882.941	7050.34
883.259	6998.14
883.577	7009.66
883.894	7048.3
884.212	6994.07
884.529	6992.03
884.846	6949.55
885.164	6950.9
885.481	6888.31
885.798	6912.71
886.115	6912.04
886.432	6899.83
886.75	6874.07
887.067	6863
887.383	6779.61
887.7	6844.69
888.017	6822.09
888.334	6846.5
888.651	6800.17
888.967	6809.44
889.284	6760.63
889.6	6764.7
889.917	6748.2
890.233	6697.58
890.55	6714.98
890.866	6642.44
891.182	6644.02
891.498	6647.18
891.815	6646.05
892.131	6556.56
892.447	6604.47
892.763	6587.75
893.079	6488.09
893.395	6472.95
893.71	6491.93
894.026	6486.06
894.342	6514.31
894.657	6456.91
894.973	6416
895.289	6394.99
895.604	6440.41
895.92	6330.81
896.235	6290.58
896.55	6321.09
896.865	6318.38
897.181	6275.89
897.496	6257.59
897.811	6254.88
898.126	6241.09
898.441	6172.62
898.756	6206.97
899.071	6144.82
899.386	6143.02
899.7	6094.43
900.015	6042.23
900.33	6048.78
900.644	6054.66
900.959	6080.65
901.273	6042.68
901.588	6006.52
901.902	5952.06
902.216	6004.49
902.531	5940.08
902.845	5874.55
903.159	5917.26
903.473	5830.48
903.787	5824.83
904.101	5823.93
904.415	5803.59
904.729	5799.52
905.042	5774.89
905.356	5764.04
905.67	5781.22
905.984	5771.73
906.297	5705.06
906.611	5672.75
906.924	5702.12
907.237	5606.99
907.551	5604.05
907.864	5564.27
908.177	5638.62
908.491	5543.71
908.804	5560.43
909.117	5456.03
909.43	5477.95
909.743	5472.75
910.056	5412.41
910.368	5432.07
910.681	5407.44
910.994	5424.39
911.307	5352.98
911.619	5322.02
911.932	5331.29
912.244	5319.08
912.557	5235.02
912.869	5250.61
913.181	5250.84
913.494	5256.94
913.806	5205.87
914.118	5200.44
914.43	5154.79
914.742	5118.64
915.054	5142.14
915.366	5148.24
915.678	5103.5
915.99	5053.55
916.302	5032.99
916.613	5002.03
916.925	5028.92
917.236	5004.06
917.548	4921.81
917.859	5021.69
918.171	4913.9
918.482	4889.49
918.794	4860.56
919.105	4894.91
919.416	4860.34
919.727	4806.55
920.038	4845.65
920.349	4758.19
920.66	4742.15
920.971	4762.71
921.282	4808.59
921.593	4734.47
921.903	4660.34
922.214	4663.28
922.525	4731.98
922.835	4649.5
923.146	4615.15
923.456	4604.07
923.767	4552.1
924.077	4561.82
924.387	4544.41
924.697	4556.39
925.008	4503.29
925.318	4526.34
925.628	4509.61
925.938	4504.87
926.248	4434.59
926.558	4416.51
926.867	4422.16
927.177	4395.49
927.487	4405.21
927.796	4336.06
928.106	4320.69
928.416	4286.12
928.725	4312.56
929.034	4270.52
929.344	4294.93
929.653	4289.28
929.962	4251.09
930.271	4215.61
930.581	4187.81
930.89	4176.74
931.199	4162.73
931.508	4150.3
931.817	4151.66
932.125	4120.7
932.434	4113.24
932.743	4094.71
933.051	4027.14
933.36	4056.07
933.669	4032.56
933.977	3976.29
934.286	4021.72
934.594	4033.69
934.902	3980.36
935.21	3934.26
935.519	3981.04
935.827	3927.26
936.135	3911.21
936.443	3863.3
936.751	3863.98
937.059	3869.18
937.367	3834.83
937.674	3836.64
937.982	3800.71
938.29	3777.65
938.597	3819.46
938.905	3734.27
939.213	3741.95
939.52	3713.02
939.827	3751.44
940.135	3698.33
940.442	3674.38
940.749	3656.3
941.056	3640.26
941.363	3671.22
941.67	3644.78
941.977	3638.22
942.284	3587.15
942.591	3570.43
942.898	3550.77
943.205	3552.8
943.511	3553.48
943.818	3516.42
944.125	3481.17
944.431	3506.7
944.738	3479.13
945.044	3458.79
945.35	3480.26
945.657	3462.63
945.963	3405.69
946.269	3413.14
946.575	3390.77
946.881	3373.37
947.187	3384.22
947.493	3343.09
947.799	3325.01
948.105	3336.54
948.41	3303.32
948.716	3311.45
949.022	3260.61
949.327	3255.41
949.633	3250.44
949.938	3231.68
950.244	3236.43
950.549	3194.17
950.854	3203.88
951.16	3147.84
951.465	3168.18
951.77	3134.73
952.075	3133.83
952.38	3156.88
952.685	3147.84
952.99	3118.01
953.294	3090.22
953.599	3074.17
953.904	3058.58
954.209	3036.66
954.513	3031.01
954.818	3041.63
955.122	3016.09
955.426	3030.1
955.731	3020.16
956.035	2995.3
956.339	2960.95
956.643	2943.33
956.948	2972.25
957.252	2941.29
957.556	2925.93
957.86	2919.82
958.163	2908.3
958.467	2895.87
958.771	2869.66
959.075	2886.38
959.378	2833.05
959.682	2832.6
959.985	2826.49
960.289	2806.38
960.592	2786.27
960.896	2782.65
961.199	2777.23
961.502	2731.58
961.805	2781.3
962.108	2750.79
962.411	2735.2
962.714	2739.04
963.017	2718.7
963.32	2707.4
963.623	2645.03
963.926	2654.75
964.228	2668.31
964.531	2655.88
964.833	2682.54
965.136	2660.17
965.438	2618.36
965.741	2594.18
966.043	2581.3
966.345	2578.59
966.648	2577.01
966.95	2586.27
967.252	2579.27
967.554	2541.53
967.856	2552.15
968.158	2507.63
968.46	2503.11
968.761	2500.63
969.063	2500.4
969.365	2492.49
969.666	2466.95
969.968	2440.06
970.269	2461.98
970.571	2443.23
970.872	2442.77
971.174	2417.24
971.475	2412.49
971.776	2427.18
972.077	2398.71
972.378	2373.17
972.679	2364.13
972.98	2411.82
973.281	2372.49
973.582	2368.43
973.883	2351.93
974.183	2327.98
974.484	2349.22
974.785	2306.28
975.085	2308.32
975.386	2288.43
975.686	2279.84
975.986	2291.37
976.287	2258.82
976.587	2227.19
976.887	2265.15
977.187	2242.1
977.487	2212.95
977.787	2221.99
978.087	2188.54
978.387	2214.08
978.687	2229.22
978.987	2158.26
979.286	2170.69
979.586	2185.83
979.885	2149
980.185	2157.13
980.484	2138.15
980.784	2133.18
981.083	2124.14
981.382	2119.85
981.682	2130.92
981.981	2108.32
982.28	2083.01
982.579	2063.12
982.878	2092.5
983.177	2041.43
983.475	2057.47
983.774	2005.95
984.073	2027.42
984.372	2057.7
984.67	2019.28
984.969	2009.79
985.267	1988.78
985.566	1996.01
985.864	1978.83
986.162	2016.35
986.461	1956.01
986.759	1971.6
987.057	1951.94
987.355	1933.18
987.653	1949.91
987.951	1901.32
988.249	1920.53
988.547	1891.15
988.844	1918.04
989.142	1873.98
989.44	1866.29
989.737	1898.83
990.035	1849.8
990.332	1864.26
990.63	1848.67
990.927	1834.88
991.224	1854.77
991.521	1821.55
991.819	1830.81
992.116	1812.73
992.413	1820.87
992.71	1782.23
993.006	1792.85
993.303	1803.02
993.6	1776.58
993.897	1753.53
994.193	1771.38
994.49	1775.9
994.787	1731.61
995.083	1744.71
995.379	1716.69
995.676	1714.88
995.972	1713.98
996.268	1728.67
996.565	1706.52
996.861	1706.52
997.157	1718.5
997.453	1669.69
997.749	1631.27
998.044	1666.98
998.34	1647.54
998.636	1629.46
998.932	1648.67
999.227	1655
999.523	1614.55
999.818	1626.07
1000.114	1589.92
1000.409	1615
1000.704	1568.45
1001	1591.27
1001.295	1580.88
1001.59	1558.05
1001.885	1586.98
1002.18	1557.15
1002.475	1555.34
1002.77	1540.65
1003.065	1530.26
1003.359	1527.54
1003.654	1533.87
1003.949	1509.92
1004.243	1502.23
1004.538	1483.48
1004.832	1445.51
1005.127	1505.17
1005.421	1471.5
1005.715	1461.11
1006.009	1459.52
1006.304	1425.63
1006.598	1448.22
1006.892	1425.17
1007.186	1427.21
1007.48	1409.81
1007.773	1379.75
1008.067	1391.73
1008.361	1393.31
1008.655	1393.76
1008.948	1356.48
1009.242	1362.58
1009.535	1359.41
1009.829	1371.16
1010.122	1333.43
1010.415	1311.73
1010.708	1347.44
1011.001	1323.71
1011.295	1315.57
1011.588	1308.34
1011.881	1313.31
1012.173	1331.39
1012.466	1286.87
1012.759	1306.08
1013.052	1275.35
1013.344	1287.32
1013.637	1281.68
1013.93	1267.44
1014.222	1243.71
1014.514	1239.19
1014.807	1222.92
1015.099	1214.56
1015.391	1231.73
1015.683	1239.42
1015.976	1209.59
1016.268	1170.04
1016.56	1239.64
1016.851	1195.8
1017.143	1173.2
1017.435	1175.92
1017.727	1162.36
1018.018	1176.82
1018.31	1173.88
1018.602	1151.74
1018.893	1137.5
1019.185	1116.93
1019.476	1157.61
1019.767	1136.37
1020.058	1102.47
1020.35	1114.45
1020.641	1124.39
1020.932	1081.68
1021.223	1095.47
1021.514	1108.57
1021.804	1058.86
1022.095	1074.22
1022.386	1056.82
1022.677	1048.01
1022.967	1063.83
1023.258	1049.82
1023.548	1034.68
1023.839	1034.22
1024.129	1029.7
1024.419	1038.29
1024.709	1014.56
1025	997.84
1025.29	994
1025.58	993.55
1025.87	994.9
1026.16	992.87
1026.449	979.08
1026.739	989.25
1027.029	963.94
1027.319	988.12
1027.608	963.72
1027.898	976.82
1028.187	961.23
1028.477	964.17
1028.766	939.54
1029.055	931.63
1029.344	963.72
1029.634	907.45
1029.923	913.32
1030.212	928.69
1030.501	911.97
1030.79	895.47
1031.078	893.89
1031.367	891.63
1031.656	858.41
1031.945	864.96
1032.233	876.26
1032.522	865.42
1032.81	868.8
1033.099	854.12
1033.387	829.48
1033.675	836.26
1033.963	851.86
1034.251	854.57
1034.54	832.42
1034.828	827.68
1035.116	811.63
1035.403	818.86
1035.691	806.43
1035.979	782.48
1036.267	797.17
1036.554	796.72
1036.842	801.01
1037.129	798.07
1037.417	818.64
1037.704	809.6
1037.992	777.06
1038.279	777.51
1038.566	779.32
1038.853	779.32
1039.14	779.32
