Data from cardboard_FLMS001491_029.txt Node
Date: Tue Feb 07 11:39:11 GMT 2017
User: dcchb
Spectrometer: FLMS00149
Trigger mode: 0
Integration Time (sec): 2.000000E-2
Scans to average: 10
Electric dark correction enabled: true
Nonlinearity correction enabled: false
Boxcar width: 0
XAxis mode: Wavelengths
Number of Pixels in Spectrum: 2048
>>>>>Begin Spectral Data<<<<<
341.393	-2.47
341.776	-2.47
342.16	-2.47
342.543	-56.03
342.927	-72.98
343.31	-58.06
343.693	-68.68
344.077	-45.41
344.46	-69.36
344.843	-63.04
345.226	-22.81
345.61	-4.28
345.993	-28.23
346.376	-2.47
346.759	-7.67
347.142	34.14
347.525	35.49
347.908	36.4
348.291	70.75
348.674	97.19
349.057	96.06
349.44	121.82
349.823	142.38
350.206	165.66
350.588	187.35
350.971	175.38
351.354	219.67
351.737	225.54
352.119	236.17
352.502	244.3
352.884	264.19
353.267	285.2
353.65	294.02
354.032	299.89
354.414	299.44
354.797	291.76
355.179	330.4
355.562	304.41
355.944	308.93
356.326	319.1
356.709	309.38
357.091	327.69
357.473	321.59
357.855	328.82
358.238	336.05
358.62	349.16
359.002	347.35
359.384	306.67
359.766	329.5
360.148	323.17
360.53	330.85
360.912	317.75
361.294	307.8
361.676	326.33
362.057	298.09
362.439	317.07
362.821	322.27
363.203	335.6
363.584	311.87
363.966	301.7
364.348	294.02
364.729	310.74
365.111	323.4
365.493	307.8
365.874	310.06
366.256	294.92
366.637	310.06
367.019	302.15
367.4	289.5
367.781	313.45
368.163	287.46
368.544	303.28
368.925	288.37
369.306	307.12
369.688	304.41
370.069	296.28
370.45	320.91
370.831	293.34
371.212	300.8
371.593	303.06
371.974	306.45
372.355	293.34
372.736	301.25
373.117	315.03
373.498	299.44
373.879	301.48
374.26	301.48
374.641	304.86
375.021	321.14
375.402	317.29
375.783	305.77
376.163	326.33
376.544	308.25
376.925	325.43
377.305	307.8
377.686	306.45
378.066	325.88
378.447	323.17
378.827	300.57
379.208	310.51
379.588	311.64
379.968	326.33
380.349	318.42
380.729	318.65
381.109	326.11
381.489	318.88
381.87	308.25
382.25	337.63
382.63	341.02
383.01	345.54
383.39	323.17
383.77	309.84
384.15	323.4
384.53	326.33
384.91	320.68
385.29	338.08
385.67	332.89
386.049	335.6
386.429	330.63
386.809	334.24
387.189	336.95
387.568	326.56
387.948	356.61
388.328	343.73
388.707	347.58
389.087	352.1
389.466	335.37
389.846	342.83
390.225	336.5
390.605	343.51
390.984	355.49
391.363	342.6
391.743	331.08
392.122	338.31
392.501	337.86
392.881	347.35
393.26	365.43
393.639	348.48
394.018	346.67
394.397	355.49
394.776	388.7
395.155	355.03
395.534	363.17
395.913	350.51
396.292	345.32
396.671	364.07
397.05	367.46
397.429	367.24
397.808	365.65
398.186	370.17
398.565	351.64
398.944	367.69
399.323	371.76
399.701	394.58
400.08	363.39
400.458	365.88
400.837	405.88
401.215	389.83
401.594	365.88
401.972	364.3
402.351	371.53
402.729	382.15
403.107	388.03
403.486	363.39
403.864	377.18
404.242	377.41
404.62	384.18
404.999	395.71
405.377	372.43
405.755	389.16
406.133	371.53
406.511	391.64
406.889	385.09
407.267	399.1
407.645	397.29
408.023	402.94
408.401	404.52
408.779	413.79
409.156	422.38
409.534	415.37
409.912	402.04
410.29	420.57
410.667	406.33
411.045	405.65
411.422	423.96
411.8	441.36
412.178	429.16
412.555	420.79
412.933	430.06
413.31	449.04
413.687	434.58
414.065	436.84
414.442	445.2
414.819	444.75
415.197	457.18
415.574	446.33
415.951	423.51
416.328	461.47
416.705	452.21
417.082	459.66
417.46	448.14
417.837	455.37
418.214	461.24
418.591	462.15
418.967	485.65
419.344	460.34
419.721	458.76
420.098	461.02
420.475	448.14
420.852	479.78
421.228	469.83
421.605	489.27
421.982	479.55
422.358	483.84
422.735	484.97
423.111	467.35
423.488	493.33
423.864	481.36
424.241	502.83
424.617	492.66
424.994	505.99
425.37	528.14
425.746	500.34
426.123	509.61
426.499	514.8
426.875	515.03
427.251	497.4
427.627	512.77
428.003	524.29
428.379	539.66
428.756	518.19
429.132	522.03
429.507	536.05
429.883	553.45
430.259	550.06
430.635	561.13
431.011	552.77
431.387	544.41
431.763	559.77
432.138	592.31
432.514	559.55
432.89	583.05
433.265	572.65
433.641	591.41
434.016	578.3
434.392	596.83
434.767	577.63
435.143	575.82
435.518	621.24
435.894	613.78
436.269	606.1
436.644	607.91
437.02	622.14
437.395	621.24
437.77	631.64
438.145	600.9
438.52	647.91
438.895	645.42
439.271	631.86
439.646	621.92
440.021	652.43
440.395	659.88
440.77	625.99
441.145	695.59
441.52	669.38
441.895	681.58
442.27	655.36
442.645	673.44
443.019	665.76
443.394	674.35
443.769	681.8
444.143	675.93
444.518	701.69
444.892	695.59
445.267	718.19
445.641	696.49
446.016	719.09
446.39	724.29
446.764	696.72
447.139	720.9
447.513	734.46
447.887	693.78
448.262	714.12
448.636	729.26
449.01	722.48
449.384	726.77
449.758	769.03
450.132	748.7
450.506	750.05
450.88	748.7
451.254	730.16
451.628	770.84
452.002	741.69
452.376	754.34
452.75	766.55
453.123	771.07
453.497	790.5
453.871	804.51
454.244	818.3
454.618	818.07
454.992	832.53
455.365	823.72
455.739	840.22
456.112	834.34
456.486	836.83
456.859	842.93
457.232	859.2
457.606	860.78
457.979	860.78
458.352	863.04
458.725	881.35
459.099	890.16
459.472	897.39
459.845	924.96
460.218	906.2
460.591	923.83
460.964	939.65
461.337	937.16
461.71	934.45
462.083	976.94
462.456	983.04
462.829	937.62
463.201	999.99
463.574	969.71
463.947	987.78
464.32	1035.69
464.692	1020.33
465.065	1020.33
465.438	1036.6
465.81	1047.9
466.183	1038.18
466.555	1066.65
466.928	1062.13
467.3	1084.05
467.672	1093.54
468.045	1117.27
468.417	1132.19
468.789	1127.22
469.161	1135.8
469.534	1160.21
469.906	1169.7
470.278	1180.1
470.65	1167.89
471.022	1216.93
471.394	1245.86
471.766	1238.85
472.138	1226.42
472.51	1281.56
472.882	1270.26
473.253	1328.57
473.625	1340.77
473.997	1335.8
474.369	1331.5
474.74	1355.46
475.112	1387.55
475.484	1373.54
475.855	1427.77
476.227	1445.17
476.598	1429.13
476.97	1451.28
477.341	1527.88
477.713	1524.72
478.084	1540.09
478.455	1564.49
478.827	1599.75
479.198	1622.12
479.569	1650.14
479.94	1647.2
480.311	1648.11
480.682	1703.25
481.053	1724.26
481.424	1768.33
481.795	1785.05
482.166	1816.24
482.537	1825.05
482.908	1867.08
483.279	1876.12
483.65	1895.78
484.021	1934.65
484.391	1982.33
484.762	1985.27
485.133	2012.39
485.503	2030.02
485.874	2071.82
486.244	2065.04
486.615	2132.16
486.985	2126.29
487.356	2194.31
487.726	2189.34
488.097	2266.85
488.467	2254.87
488.837	2280.18
489.207	2312.27
489.578	2361.31
489.948	2373.96
490.318	2442.89
490.688	2437.46
491.058	2464.58
491.428	2488.54
491.798	2554.07
492.168	2570.79
492.538	2550.68
492.908	2612.6
493.278	2609.89
493.648	2661.19
494.017	2702.32
494.387	2717.68
494.757	2736.44
495.126	2771.92
495.496	2803.33
495.866	2824.35
496.235	2831.8
496.605	2877
496.974	2905.93
497.344	2953.16
497.713	2970.33
498.082	2976.21
498.452	3026.15
498.821	3042.19
499.19	3075.64
499.559	3042.87
499.928	3091.23
500.298	3158.58
500.667	3165.13
501.036	3176.43
501.405	3212.13
501.774	3210.33
502.143	3281.28
502.512	3299.81
502.88	3313.37
503.249	3324.45
503.618	3347.27
503.987	3379.81
504.356	3429.98
504.724	3458.23
505.093	3467.49
505.462	3472.01
505.83	3498.68
506.199	3549.3
506.567	3589.07
506.936	3614.61
507.304	3649.41
507.672	3672.01
508.041	3678.11
508.409	3726.02
508.777	3756.75
509.145	3785.68
509.514	3786.58
509.882	3850.99
510.25	3846.92
510.618	3876.3
510.986	3902.51
511.354	3949.29
511.722	4038.55
512.09	4031.32
512.458	4101.15
512.826	4119.23
513.193	4103.64
513.561	4143.41
513.929	4198.32
514.297	4240.58
514.664	4279
515.032	4293.69
515.4	4338.88
515.767	4338.88
516.135	4400.8
516.502	4405.77
516.869	4461.37
517.237	4554.7
517.604	4529.39
517.972	4573
518.339	4640.8
518.706	4651.64
519.073	4725.09
519.44	4718.08
519.808	4747.23
520.175	4802.37
520.542	4894.57
520.909	4903.39
521.276	4949.26
521.643	4971.63
522.009	5027.9
522.376	5046.89
522.743	5114.68
523.11	5155.36
523.477	5189.93
523.843	5292.08
524.21	5296.37
524.577	5367.33
524.943	5382.25
525.31	5438.97
525.676	5502.69
526.043	5496.14
526.409	5608
526.776	5669.47
527.142	5641
527.508	5739.3
527.874	5751.73
528.241	5843.7
528.607	5822.23
528.973	5910.37
529.339	5944.94
529.705	5988.11
530.071	6073.53
530.437	6101.32
530.803	6167.08
531.169	6180.42
531.535	6176.57
531.901	6215.44
532.267	6291.6
532.632	6268.78
532.998	6395.33
533.364	6434.65
533.73	6472.61
534.095	6533.85
534.461	6575.43
534.826	6643.23
535.192	6688.2
535.557	6748.76
535.923	6737.69
536.288	6822.89
536.653	6820.17
537.019	6817.24
537.384	6882.77
537.749	6945.59
538.114	6991.24
538.479	7065.37
538.845	7024.69
539.21	7080.96
539.575	7092.71
539.94	7133.16
540.305	7172.93
540.67	7164.8
541.034	7234.85
541.399	7375.64
541.764	7357.33
542.129	7344.45
542.494	7387.39
542.858	7459.25
543.223	7487.27
543.587	7530.21
543.952	7528.18
544.316	7638.91
544.681	7679.59
545.045	7725.23
545.41	7724.56
545.774	7791.9
546.138	7837.77
546.503	7876.19
546.867	7894.72
547.231	7991.22
547.595	8008.84
547.959	8035.74
548.324	8082.06
548.688	8043.64
549.052	8125.68
549.416	8110.54
549.779	8201.61
550.143	8260.14
550.507	8311.43
550.871	8346.91
551.235	8379.23
551.599	8385.1
551.962	8488.38
552.326	8484.31
552.689	8593.23
553.053	8588.49
553.417	8632.1
553.78	8709.84
554.143	8743.06
554.507	8802.95
554.87	8837.75
555.234	8910.97
555.597	8866.67
555.96	8956.84
556.323	9044.97
556.686	9083.84
557.05	9156.16
557.413	9111.86
557.776	9183.95
558.139	9241.81
558.502	9294.68
558.865	9375.13
559.228	9448.35
559.59	9485.64
559.953	9465.3
560.316	9634.11
560.679	9627.78
561.041	9700.55
561.404	9749.59
561.767	9839.08
562.129	9809.7
562.492	9957.04
562.854	9970.15
563.217	10008.79
563.579	10065.06
563.941	10132.18
564.304	10197.26
564.666	10310.7
565.028	10337.14
565.39	10312.74
565.753	10447.65
566.115	10460.3
566.477	10507.31
566.839	10535.56
567.201	10652.62
567.563	10721.54
567.925	10725.61
568.287	10842.89
568.648	10838.6
569.01	10912.27
569.372	11023
569.734	10928.09
570.095	11071.36
570.457	11130.79
570.819	11157.01
571.18	11150.91
571.542	11293.05
571.903	11243.56
572.265	11364.01
572.626	11270.23
572.987	11399.49
573.349	11479.94
573.71	11584.57
574.071	11601.97
574.432	11576.66
574.794	11688.75
575.155	11783.21
575.516	11768.07
575.877	11748.86
576.238	11810.55
576.599	11867.5
576.96	11886.03
577.32	11939.59
577.681	12025.69
578.042	11979.59
578.403	12036.76
578.763	12129.41
579.124	12132.8
579.485	12272.91
579.845	12251.44
580.206	12258.22
580.566	12211.22
580.927	12309.52
581.287	12476.52
581.648	12327.37
582.008	12408.5
582.368	12382.74
582.728	12524.88
583.089	12509.29
583.449	12526.24
583.809	12481.72
584.169	12589.51
584.529	12625.44
584.889	12760.36
585.249	12629.74
585.609	12645.78
585.969	12675.16
586.329	12704.54
586.688	12707.93
587.048	12751.09
587.408	12768.04
587.768	12692.34
588.127	12761.71
588.487	12741.37
588.846	12943.4
589.206	12789.51
589.565	12836.96
589.925	12992.89
590.284	12866.12
590.643	12902.95
591.003	12923.29
591.362	13092.55
591.721	13033.34
592.08	13017.98
592.44	13098.88
592.799	13112.89
593.158	13129.39
593.517	13140.23
593.876	13109.27
594.235	13106.11
594.593	13189.27
594.952	13261.36
595.311	13189.27
595.67	13304.07
596.029	13258.87
596.387	13351.3
596.746	13379.55
597.104	13290.06
597.463	13344.3
597.822	13390.4
598.18	13360.11
598.538	13399.66
598.897	13425.42
599.255	13390.17
599.613	13566.66
599.972	13513.33
600.33	13547.91
600.688	13497.74
601.046	13617.74
601.404	13624.51
601.762	13621.58
602.12	13670.62
602.478	13704.51
602.836	13754.68
603.194	13671.75
603.552	13736.38
603.91	13622.25
604.268	13736.15
604.625	13795.58
604.983	13795.13
605.341	13771.86
605.698	13895.47
606.056	13934.34
606.413	13935.92
606.771	14020.44
607.128	14056.14
607.485	13910.61
607.843	13928.69
608.2	14125.52
608.557	14220.66
608.914	14094.33
609.272	14175.46
609.629	14217.27
609.986	14160.77
610.343	14182.01
610.7	14299.75
611.057	14350.37
611.414	14312.86
611.771	14325.29
612.127	14342.69
612.484	14372.74
612.841	14415.91
613.198	14381.33
613.554	14328.9
613.911	14503.81
614.267	14591.95
614.624	14527.99
614.98	14517.6
615.337	14600.53
615.693	14627.65
616.05	14660.42
616.406	14593.3
616.762	14661.78
617.118	14625.17
617.475	14736.8
617.831	14699.97
618.187	14752.17
618.543	14747.65
618.899	14916.23
619.255	14780.19
619.611	14872.39
619.967	14924.14
620.323	14956.46
620.678	14890.47
621.034	14990.35
621.39	14865.39
621.746	14870.13
622.101	15108.54
622.457	14894.09
622.812	14992.16
623.168	15149.67
623.523	15036.91
623.879	15074.65
624.234	14986.96
624.589	15072.61
624.945	15131.14
625.3	15181.54
625.655	15074.42
626.01	15119.39
626.365	15185.83
626.72	15123.68
627.075	15246.84
627.43	15133.85
627.785	15215.43
628.14	15127.98
628.495	15156.45
628.85	15111.03
629.205	15074.87
629.559	15260.4
629.914	15097.47
630.269	15214.53
630.623	15094.53
630.978	15090.01
631.332	15195.77
631.687	15243.46
632.041	15259.95
632.396	15202.55
632.75	15177.24
633.104	15125.49
633.459	15176.34
633.813	15151.93
634.167	15217.69
634.521	15156.9
634.875	15236.45
635.229	15162.78
635.583	15125.27
635.937	15141.54
636.291	15105.38
636.645	15192.16
636.999	15077.58
637.352	15133.85
637.706	15056.57
638.06	15195.32
638.413	15063.35
638.767	15060.86
639.121	15083.46
639.474	15021.54
639.828	15080.07
640.181	15009.56
640.534	15042.78
640.888	15049.11
641.241	14949
641.594	15026.29
641.947	15188.54
642.301	14945.38
642.654	15033.07
643.007	15032.39
643.36	14977.93
643.713	15039.39
644.066	15091.37
644.419	15019.05
644.771	14934.76
645.124	14822.45
645.477	14815.67
645.83	14683.02
646.182	14677.37
646.535	14560.99
646.888	14617.03
647.24	14509.01
647.593	14655.9
647.945	14640.08
648.298	14574.32
648.65	14580.87
649.002	14503.36
649.355	14683.47
649.707	14658.16
650.059	14660.65
650.411	14890.24
650.763	14843.01
651.115	15009.56
651.467	14997.36
651.819	14941.99
652.171	14973.41
652.523	14945.16
652.875	14935.89
653.227	14812.05
653.578	14947.64
653.93	14995.55
654.282	14876.01
654.633	14819.29
654.985	14861.09
655.337	14893.41
655.688	14862.22
656.039	15022.9
656.391	14829.23
656.742	14961.43
657.094	14869.68
657.445	14905.16
657.796	14968.43
658.147	14885.5
658.498	14887.98
658.849	14927.76
659.2	14857.7
659.551	14845.05
659.902	14908.32
660.253	14821.32
660.604	14952.39
660.955	14838.27
661.306	14961.88
661.656	14945.84
662.007	14841.66
662.358	14884.82
662.708	14932.95
663.059	14882.79
663.409	14893.86
663.76	14924.14
664.11	14970.69
664.461	15010.24
664.811	15029
665.161	14957.59
665.511	14994.42
665.862	15032.61
666.212	14990.13
666.562	14948.55
666.912	14960.07
667.262	14939.51
667.612	14962.56
667.962	14937.93
668.312	14936.12
668.662	15012.27
669.011	15002.78
669.361	14949.68
669.711	14921.2
670.06	14935.21
670.41	14890.02
670.76	14947.19
671.109	14994.65
671.459	15010.69
671.808	14961.88
672.157	14927.98
672.507	14779.51
672.856	14948.1
673.205	14928.21
673.554	15000.07
673.904	14979.73
674.253	15012.05
674.602	15011.6
674.951	14746.52
675.3	14709.46
675.649	14916.01
675.998	14927.53
676.346	14874.88
676.695	14960.98
677.044	14878.49
677.393	14960.98
677.741	14961.43
678.09	14848.66
678.438	14833.07
678.787	14906.74
679.135	14907.42
679.484	14815.9
679.832	14901.77
680.181	14778.83
680.529	14876.46
680.877	14784.71
681.225	14727.99
681.573	14865.84
681.922	14762.56
682.27	14750.81
682.618	14821.09
682.966	14722.79
683.314	14762.11
683.661	14738.16
684.009	14601.89
684.357	14640.08
684.705	14639.18
685.053	14683.92
685.4	14669.23
685.748	14531.84
686.095	14566.18
686.443	14465.85
686.79	14525.06
687.138	14544.94
687.485	14598.27
687.832	14553.3
688.18	14476.7
688.527	14421.56
688.874	14353.99
689.221	14331.84
689.568	14377.72
689.915	14362.57
690.262	14418.84
690.609	14346.53
690.956	14267.44
691.303	14194.9
691.65	14176.36
691.997	14184.27
692.344	14111.06
692.69	14071.51
693.037	14136.14
693.383	14075.58
693.73	14091.85
694.077	14055.46
694.423	14016.59
694.769	14036.03
695.116	14010.72
695.462	13953.55
695.808	13929.82
696.155	13911.29
696.501	13873.32
696.847	13837.39
697.193	13777.5
697.539	13798.3
697.885	13707.22
698.231	13660.9
698.577	13742.48
698.923	13650.28
699.269	13621.35
699.614	13498.64
699.96	13497.96
700.306	13460.23
700.651	13474.01
700.997	13468.59
701.342	13367.12
701.688	13435.14
702.033	13349.72
702.379	13356.5
702.724	13333.22
703.069	13303.17
703.415	13259.55
703.76	13264.07
704.105	13168.03
704.45	13220.46
704.795	13156.05
705.14	13158.31
705.485	13104.53
705.83	13106.34
706.175	13098.43
706.52	13044.42
706.865	12975.04
707.209	12958.77
707.554	12921.93
707.899	12950.18
708.243	12875.16
708.588	12958.54
708.932	12859.11
709.277	12733.01
709.621	12794.03
709.966	12784.31
710.31	12773.46
710.654	12738.44
710.998	12665.44
711.342	12707.25
711.687	12698.21
712.031	12629.29
712.375	12591.1
712.719	12621.15
713.063	12594.49
713.407	12615.5
713.75	12544.77
714.094	12476.75
714.438	12465.68
714.782	12545.45
715.125	12413.02
715.469	12462.29
715.812	12361.5
716.156	12355.62
716.499	12346.36
716.843	12338.67
717.186	12352.91
717.53	12363.08
717.873	12346.36
718.216	12321.72
718.559	12223.65
718.902	12197.21
719.246	12280.14
719.589	12239.01
719.932	12208.73
720.275	12171.45
720.617	12178.9
720.96	12248.96
721.303	12144.1
721.646	12160.15
721.989	12061.62
722.331	12099.13
722.674	12177.1
723.016	12138
723.359	12056.87
723.701	12134.61
724.044	12047.15
724.386	12015.07
724.729	12110.66
725.071	12036.08
725.413	12025.23
725.755	12053.71
726.097	12021.84
726.439	11926.25
726.782	11919.02
727.124	12013.48
727.465	11858.23
727.807	11904.33
728.149	11905.46
728.491	11874.28
728.833	11858.23
729.175	11853.71
729.516	11907.95
729.858	11778.24
730.199	11878.57
730.541	11883.32
730.882	11804
731.224	11833.6
731.565	11721.06
731.906	11777.33
732.248	11768.52
732.589	11789.08
732.93	11714.96
733.271	11712.02
733.612	11755.19
733.953	11776.65
734.294	11683.55
734.635	11760.16
734.976	11710.44
735.317	11640.39
735.658	11749.08
735.999	11762.42
736.339	11653.27
736.68	11681.51
737.021	11709.99
737.361	11632.48
737.702	11688.97
738.042	11689.65
738.383	11649.2
738.723	11657.11
739.063	11602.65
739.404	11655.98
739.744	11592.25
740.084	11583.89
740.424	11674.06
740.764	11547.51
741.104	11612.14
741.444	11548.19
741.784	11498.69
742.124	11656.88
742.464	11607.84
742.804	11496.66
743.143	11498.02
743.483	11587.28
743.823	11442.43
744.162	11420.73
744.502	11558.81
744.841	11451.24
745.181	11554.06
745.52	11445.81
745.86	11489.2
746.199	11454.63
746.538	11451.01
746.877	11434.97
747.216	11463.22
747.556	11390
747.895	11495.08
748.234	11402.43
748.573	11331.69
748.911	11354.29
749.25	11402.88
749.589	11385.7
749.928	11377.57
750.267	11397.68
750.605	11328.98
750.944	11284.24
751.283	11345.93
751.621	11392.48
751.96	11250.11
752.298	11284.24
752.636	11238.36
752.975	11233.39
753.313	11209.44
753.651	11228.42
753.989	11133.28
754.327	11167.4
754.666	11162.88
755.004	11171.47
755.342	11152.49
755.679	11157.23
756.017	11064.36
756.355	11107.52
756.693	11078.82
757.031	11088.54
757.368	11081.76
757.706	11001.76
758.044	11040.63
758.381	11050.12
758.719	11014.41
759.056	11004.92
759.394	10969.22
759.731	10906.85
760.068	10969.44
760.405	10924.25
760.743	10814.65
761.08	10830.69
761.417	10916.34
761.754	10815.77
762.091	10744.36
762.428	10783.91
762.765	10757.47
763.102	10757.7
763.438	10752.05
763.775	10662.33
764.112	10661.43
764.449	10646.06
764.785	10653.07
765.122	10572.39
765.458	10537.36
765.795	10563.13
766.131	10536.46
766.467	10465.95
766.804	10463.24
767.14	10469.57
767.476	10418.72
767.812	10348.22
768.148	10274.77
768.485	10300.53
768.821	10346.86
769.157	10275
769.492	10217.82
769.828	10245.85
770.164	10191.16
770.5	10185.51
770.836	10100.99
771.171	10072.07
771.507	10038.39
771.842	10000.2
772.178	10026.42
772.513	10070.03
772.849	10023.71
773.184	9959.3
773.519	9909.81
773.855	9795.69
774.19	9823.71
774.525	9802.02
774.86	9837.95
775.195	9752.53
775.53	9772.64
775.865	9683.38
776.2	9573.32
776.535	9574.9
776.87	9544.4
777.205	9528.35
777.539	9541.01
777.874	9586.65
778.209	9381.91
778.543	9419.88
778.878	9422.59
779.212	9437.73
779.547	9327.45
779.881	9369.03
780.215	9311.63
780.55	9327.68
780.884	9232.77
781.218	9144.18
781.552	9220.79
781.886	9171.75
782.22	9104.86
782.554	9102.6
782.888	9040.45
783.222	8949.61
783.556	8943.96
783.889	8981.02
784.223	8920.91
784.557	8886.11
784.89	8901.25
785.224	8802.95
785.557	8813.57
785.891	8844.75
786.224	8728.6
786.558	8742.38
786.891	8697.64
787.224	8693.57
787.557	8624.19
787.891	8649.28
788.224	8638.43
788.557	8646.57
788.89	8659.22
789.223	8643.18
789.556	8561.82
789.888	8521.82
790.221	8461.71
790.554	8373.13
790.887	8356.18
791.219	8383.52
791.552	8399.79
791.884	8313.24
792.217	8243.87
792.549	8249.97
792.882	8212.23
793.214	8211.1
793.546	8252
793.879	8216.75
794.211	8116.86
794.543	8088.84
794.875	8186.01
795.207	8153.25
795.539	8071.44
795.871	8054.49
796.203	7991.44
796.535	7962.29
796.867	7964.1
797.198	7943.53
797.53	7973.14
797.862	7911.22
798.193	7850.66
798.525	7837.32
798.856	7845.46
799.188	7825.57
799.519	7786.25
799.85	7694.28
800.182	7734.05
800.513	7724.56
800.844	7605.24
801.175	7719.36
801.506	7656.76
801.837	7648.85
802.168	7612.24
802.499	7616.09
802.83	7522.98
803.161	7546.71
803.491	7559.82
803.822	7551
804.153	7487.05
804.483	7443.66
804.814	7414.73
805.145	7446.82
805.475	7413.6
805.805	7390.1
806.136	7383.77
806.466	7402.76
806.796	7325.7
807.126	7325.02
807.457	7305.13
807.787	7282.53
808.117	7248.41
808.447	7285.7
808.777	7222.65
809.107	7232.37
809.436	7213.61
809.766	7191.92
810.096	7201.63
810.426	7190.11
810.755	7135.65
811.085	7119.6
811.414	7130
811.744	7087.96
812.073	7083.67
812.403	7076.66
812.732	7049.32
813.061	6991.47
813.39	6966.61
813.719	7024.24
814.049	6943.11
814.378	7024.24
814.707	6972.71
815.036	6978.81
815.365	6894.75
815.693	6868.76
816.022	6888.42
816.351	6837.35
816.68	6807.52
817.008	6823.56
817.337	6781.53
817.665	6833.96
817.994	6788.08
818.322	6744.24
818.651	6770.68
818.979	6751.48
819.307	6752.83
819.636	6755.32
819.964	6715.32
820.292	6697.92
820.62	6784.02
820.948	6663.79
821.276	6744.92
821.604	6683.23
821.932	6689.78
822.259	6708.76
822.587	6643.91
822.915	6707.41
823.243	6717.8
823.57	6666.73
823.898	6709.44
824.225	6676
824.553	6659.73
824.88	6681.42
825.207	6664.7
825.535	6672.38
825.862	6649.1
826.189	6663.57
826.516	6682.1
826.843	6711.02
827.17	6670.8
827.497	6657.92
827.824	6667.41
828.151	6725.04
828.478	6631.93
828.805	6724.58
829.131	6640.74
829.458	6656.79
829.785	6631.03
830.111	6709.67
830.438	6694.3
830.764	6593.74
831.09	6695.88
831.417	6607.3
831.743	6704.02
832.069	6699.72
832.395	6647.3
832.722	6643.68
833.048	6642.55
833.374	6687.3
833.7	6658.37
834.026	6683
834.351	6588.99
834.677	6657.47
835.003	6666.51
835.329	6664.02
835.654	6591.03
835.98	6597.81
836.306	6602.78
836.631	6537.47
836.956	6603.91
837.282	6597.81
837.607	6569.11
837.932	6566.62
838.258	6555.32
838.583	6556.68
838.908	6474.19
839.233	6527.75
839.558	6464.93
839.883	6479.84
840.208	6487.08
840.533	6515.55
840.858	6525.04
841.182	6474.42
841.507	6421.09
841.832	6413.63
842.156	6418.83
842.481	6426.74
842.805	6443.46
843.13	6359.85
843.454	6398.04
843.778	6324.37
844.103	6366.4
844.427	6328.21
844.751	6330.02
845.075	6324.82
845.399	6276.69
845.723	6303.58
846.047	6281.43
846.371	6196.24
846.695	6201.66
847.019	6185.16
847.343	6124.82
847.666	6125.28
847.99	6113.98
848.313	6142.45
848.637	6095.9
848.96	6042.34
849.284	6073.3
849.607	6000.31
849.931	5972.96
850.254	6007.99
850.577	5915.79
850.9	5896.81
851.223	5867.43
851.546	5850.71
851.869	5848
852.192	5932.74
852.515	5728.9
852.838	5805.96
853.161	5829.24
853.483	5749.24
853.806	5748.56
854.129	5735.23
854.451	5762.35
854.774	5665.63
855.096	5650.49
855.419	5634.89
855.741	5671.05
856.063	5660.43
856.385	5617.27
856.708	5621.11
857.03	5600.77
857.352	5595.35
857.674	5544.5
857.996	5551.96
858.318	5521.9
858.64	5502.02
858.961	5517.38
859.283	5477.38
859.605	5489.59
859.926	5501.56
860.248	5459.08
860.57	5464.5
860.891	5422.02
861.212	5394.45
861.534	5360.1
861.855	5385.18
862.176	5413.21
862.498	5375.47
862.819	5431.06
863.14	5350.16
863.461	5408.91
863.782	5335.02
864.103	5287.78
864.424	5358.07
864.745	5328.69
865.065	5248.92
865.386	5262.25
865.707	5302.25
866.027	5271.29
866.348	5252.31
866.668	5273.1
866.989	5228.58
867.309	5209.82
867.63	5196.71
867.95	5234.45
868.27	5239.42
868.59	5250.72
868.91	5191.74
869.23	5259.08
869.55	5173.44
869.87	5212.53
870.19	5158.75
870.51	5163.49
870.83	5191.29
871.15	5132.76
871.469	5112.65
871.789	5170.27
872.109	5204.62
872.428	5073.1
872.748	5128.92
873.067	5140.22
873.386	5100.22
873.706	5089.15
874.025	5066.55
874.344	5052.76
874.663	5077.17
874.982	5037.4
875.301	5042.59
875.62	5065.19
875.939	5063.38
876.258	5019.09
876.577	5007.11
876.896	4982.26
877.214	5008.02
877.533	4976.83
877.852	4931.18
878.17	4975.25
878.489	4934.57
878.807	4960.79
879.125	4983.16
879.444	5006.89
879.762	4944.97
880.08	4956.72
880.398	4920.34
880.716	4949.26
881.034	4941.13
881.352	4896.83
881.67	4921.92
881.988	4937.74
882.306	4915.59
882.624	4908.81
882.941	4874.91
883.259	4838.98
883.577	4816.16
883.894	4831.53
884.212	4827.91
884.529	4824.07
884.846	4783.39
885.164	4796.27
885.481	4811.64
885.798	4836.05
886.115	4794.92
886.432	4747.69
886.75	4737.74
887.067	4728.93
887.383	4720.34
887.7	4667.46
888.017	4713.11
888.334	4730.96
888.651	4730.74
888.967	4716.73
889.284	4710.85
889.6	4668.14
889.917	4621.14
890.233	4581.14
890.55	4658.65
890.866	4628.37
891.182	4555.37
891.498	4546.79
891.815	4594.7
892.131	4556.96
892.447	4565.77
892.763	4531.42
893.079	4522.16
893.395	4517.41
893.71	4500.69
894.026	4454.81
894.342	4460.01
894.657	4437.86
894.973	4484.64
895.289	4430.18
895.604	4428.6
895.92	4387.02
896.235	4365.55
896.55	4401.25
896.865	4395.38
897.181	4415.49
897.496	4349.5
897.811	4358.09
898.126	4277.19
898.441	4300.92
898.756	4262.95
899.071	4234.93
899.386	4273.57
899.7	4272.67
900.015	4258.21
900.33	4190.86
900.644	4215.72
900.959	4224.31
901.273	4203.52
901.588	4185.89
901.902	4130.3
902.216	4164.2
902.531	4175.27
902.845	4143.41
903.159	4056.63
903.473	4099.34
903.787	4078.55
904.101	4056.86
904.415	4021.15
904.729	4054.6
905.042	4039.46
905.356	3997.65
905.67	3960.14
905.984	4031.55
906.297	3977.31
906.611	3967.82
906.924	3971.89
907.237	3959.46
907.551	3901.61
907.864	3927.82
908.177	3928.72
908.491	3859.57
908.804	3855.05
909.117	3865.9
909.43	3823.64
909.743	3794.94
910.056	3822.06
910.368	3780.03
910.681	3728.73
910.994	3707.94
911.307	3733.93
911.619	3680.14
911.932	3703.87
912.244	3727.15
912.557	3711.33
912.869	3668.62
913.181	3629.52
913.494	3688.28
913.806	3639.01
914.118	3596.3
914.43	3642.86
914.742	3584.55
915.054	3569.41
915.366	3587.49
915.678	3550.43
915.99	3564.89
916.302	3497.78
916.613	3510.66
916.925	3529.19
917.236	3497.78
917.548	3488.74
917.859	3458.45
918.171	3467.27
918.482	3458
918.794	3421.17
919.105	3401.73
919.416	3396.76
919.727	3404.44
920.038	3383.2
920.349	3360.6
920.66	3330.55
920.971	3392.47
921.282	3359.02
921.593	3320.6
921.903	3329.64
922.214	3278.12
922.525	3308.85
922.835	3288.74
923.146	3217.56
923.456	3247.16
923.767	3206.03
924.077	3213.26
924.387	3237.9
924.697	3155.19
925.008	3217.1
925.318	3167.61
925.628	3173.72
925.938	3098.01
926.248	3109.54
926.558	3107.5
926.867	3093.04
927.177	3100.27
927.487	3087.39
927.796	3034.51
928.106	3094.17
928.416	3060.05
928.725	3070.44
929.034	3040.16
929.344	3021.18
929.653	2997
929.962	3013.04
930.271	2988.41
930.581	2980.05
930.89	2918.36
931.199	2926.04
931.508	2926.04
931.817	2914.29
932.125	2923.78
932.434	2885.14
932.743	2879.03
933.051	2851.92
933.36	2857.79
933.669	2833.61
933.977	2870
934.286	2814.86
934.594	2851.01
934.902	2799.49
935.21	2796.32
935.519	2809.88
935.827	2781.41
936.135	2763.11
936.443	2783.67
936.751	2745.93
937.059	2751.58
937.367	2703.22
937.674	2746.16
937.982	2707.97
938.29	2666.16
938.597	2700.73
938.905	2669.55
939.213	2681.07
939.52	2673.16
939.827	2689.89
940.135	2658.48
940.442	2628.19
940.749	2610.34
941.056	2598.59
941.363	2590.68
941.67	2598.59
941.977	2557.01
942.284	2546.16
942.591	2556.11
942.898	2520.17
943.205	2521.76
943.511	2524.69
943.818	2507.07
944.125	2519.5
944.431	2516.56
944.738	2457.8
945.044	2451.7
945.35	2477.69
945.657	2454.41
945.963	2452.61
946.269	2472.49
946.575	2445.37
946.881	2403.79
947.187	2409.89
947.493	2409.67
947.799	2451.02
948.105	2375.32
948.41	2378.03
948.716	2400.18
949.022	2394.08
949.327	2388.43
949.633	2313.63
949.938	2341.42
950.244	2304.59
950.549	2304.81
950.854	2266.85
951.16	2300.74
951.465	2302.55
951.77	2253.29
952.075	2259.16
952.38	2243.57
952.685	2236.57
952.99	2254.87
953.294	2229.79
953.599	2194.53
953.904	2194.76
954.209	2217.13
954.513	2181.2
954.818	2197.02
955.122	2154.31
955.426	2152.73
955.731	2167.19
956.035	2164.25
956.339	2107.53
956.643	2146.85
956.948	2103.91
957.252	2123.35
957.556	2104.14
957.86	2102.56
958.163	2084.71
958.467	2081.54
958.771	2066.63
959.075	2094.87
959.378	2051.26
959.682	2043.35
959.985	2041.09
960.289	2034.08
960.592	2020.98
960.896	2015.55
961.199	1994.09
961.502	2006.97
961.805	1995.22
962.108	2004.26
962.411	1981.66
962.714	1984.82
963.017	1961.32
963.32	1956.35
963.623	1979.17
963.926	1946.4
964.228	1954.76
964.531	1922
964.833	1939.85
965.136	1887.65
965.438	1905.5
965.741	1895.56
966.043	1879.96
966.345	1904.14
966.648	1904.37
966.95	1872.28
967.252	1839.97
967.554	1841.32
967.856	1849.46
968.158	1815.33
968.46	1831.15
968.761	1820.98
969.063	1833.86
969.365	1800.87
969.666	1801.77
969.968	1808.1
970.269	1810.59
970.571	1771.49
970.872	1795.67
971.174	1803.81
971.475	1773.53
971.776	1780.76
972.077	1753.64
972.378	1743.02
972.679	1746.18
972.98	1757.48
973.281	1716.13
973.582	1727.65
973.883	1700.99
974.183	1697.6
974.484	1690.37
974.785	1691.72
975.085	1679.07
975.386	1665.73
975.686	1679.29
975.986	1629.58
976.287	1656.02
976.587	1661.67
976.887	1651.04
977.187	1620.08
977.487	1648.78
977.787	1638.16
978.087	1590.48
978.387	1594.32
978.687	1612.85
978.987	1641.1
979.286	1589.58
979.586	1587.77
979.885	1572.85
980.185	1566.75
980.484	1563.59
980.784	1574.44
981.083	1557.04
981.382	1576.47
981.682	1561.78
981.981	1548
982.28	1556.13
982.579	1538.96
982.878	1555.68
983.177	1515.68
983.475	1533.53
983.774	1470.71
984.073	1534.89
984.372	1502.8
984.67	1478.85
984.969	1484.27
985.267	1456.47
985.566	1470.94
985.864	1446.76
986.162	1457.6
986.461	1452.41
986.759	1468
987.057	1463.48
987.355	1436.81
987.653	1450.82
987.951	1428.68
988.249	1394.1
988.547	1399.98
988.844	1396.81
989.142	1412.41
989.44	1411.73
989.737	1373.09
990.035	1382.35
990.332	1401.79
990.63	1370.37
990.927	1371.96
991.224	1354.33
991.521	1355.23
991.819	1348.68
992.116	1364.95
992.413	1345.74
992.71	1352.75
993.006	1315.91
993.303	1334.44
993.6	1323.6
993.897	1309.36
994.193	1293.31
994.49	1320.88
994.787	1312.97
995.083	1301.67
995.379	1291.73
995.676	1273.2
995.972	1274.33
996.268	1271.39
996.565	1255.57
996.861	1272.98
997.157	1236.37
997.453	1267.1
997.749	1240.89
998.044	1246.99
998.34	1221.68
998.636	1215.35
998.932	1194.78
999.227	1220.55
999.523	1223.48
999.818	1209.25
1000.114	1197.72
1000.409	1189.59
1000.704	1169.47
1001	1201.11
1001.295	1193.43
1001.59	1180.55
1001.885	1181.9
1002.18	1172.19
1002.475	1180.1
1002.77	1161.34
1003.065	1169.47
1003.359	1148.68
1003.654	1152.07
1003.949	1146.2
1004.243	1114.34
1004.538	1124.96
1004.832	1140.78
1005.127	1138.06
1005.421	1131.28
1005.715	1095.58
1006.009	1103.94
1006.304	1099.87
1006.598	1110.49
1006.892	1085.41
1007.186	1067.78
1007.48	1086.54
1007.773	1054.45
1008.067	1063.94
1008.361	1071.62
1008.655	1046.54
1008.948	1018.07
1009.242	1043.6
1009.535	1035.69
1009.829	1039.08
1010.122	1030.95
1010.415	1021.46
1010.708	1025.75
1011.001	1011.74
1011.295	1007.22
1011.588	976.26
1011.881	992.76
1012.173	1010.38
1012.466	1001.12
1012.759	997.5
1013.052	1001.8
1013.344	993.21
1013.637	976.03
1013.93	969.71
1014.222	963.15
1014.514	975.36
1014.807	945.3
1015.099	969.93
1015.391	964.06
1015.683	938.07
1015.976	964.73
1016.268	942.36
1016.56	906.88
1016.851	916.6
1017.143	929.26
1017.435	934.68
1017.727	914.34
1018.018	886.77
1018.31	916.83
1018.602	899.65
1018.893	893.78
1019.185	906.2
1019.476	873.89
1019.767	870.05
1020.058	882.25
1020.35	856.26
1020.641	855.13
1020.932	859.65
1021.223	849.48
1021.514	871.18
1021.804	858.07
1022.095	844.96
1022.386	848.35
1022.677	842.7
1022.967	832.76
1023.258	820.33
1023.548	824.63
1023.839	799.54
1024.129	823.72
1024.419	818.75
1024.709	788.69
1025	793.67
1025.29	802.25
1025.58	799.09
1025.87	791.63
1026.16	796.38
1026.449	813.33
1026.739	785.3
1027.029	772.65
1027.319	753.21
1027.608	766.77
1027.898	766.55
1028.187	779.65
1028.477	777.17
1028.766	756.15
1029.055	757.28
1029.344	728.81
1029.634	733.33
1029.923	746.44
1030.212	758.86
1030.501	722.71
1030.79	720.22
1031.078	727
1031.367	692.88
1031.656	711.86
1031.945	723.84
1032.233	699.66
1032.522	708.02
1032.81	705.98
1033.099	689.04
1033.387	692.43
1033.675	690.39
1033.963	676.83
1034.251	677.51
1034.54	691.07
1034.828	666.89
1035.116	682.26
1035.403	651.75
1035.691	669.15
1035.979	654.91
1036.267	666.89
1036.554	639.55
1036.842	663.05
1037.129	652.43
1037.417	658.08
1037.704	660.11
1037.992	639.55
1038.279	632.09
1038.566	627.12
1038.853	627.12
1039.14	627.12
