Data from cardboard_FLMS001491_003.txt Node
Date: Tue Feb 07 11:38:50 GMT 2017
User: dcchb
Spectrometer: FLMS00149
Trigger mode: 0
Integration Time (sec): 2.000000E-2
Scans to average: 10
Electric dark correction enabled: true
Nonlinearity correction enabled: false
Boxcar width: 0
XAxis mode: Wavelengths
Number of Pixels in Spectrum: 2048
>>>>>Begin Spectral Data<<<<<
341.393	-25.39
341.776	-25.39
342.16	-25.39
342.543	-44.6
342.927	-39.63
343.31	-68.78
343.693	-54.55
344.077	-75.11
344.46	-61.1
344.843	-51.61
345.226	-35.34
345.61	-38.73
345.993	-7.09
346.376	-15.23
346.759	17.77
347.142	41.5
347.525	31.78
347.908	60.25
348.291	53.47
348.674	96.18
349.057	106.58
349.44	125.56
349.823	136.86
350.206	179.57
350.588	186.35
350.971	199.68
351.354	220.7
351.737	219.12
352.119	241.04
352.502	244.88
352.884	282.62
353.267	270.64
353.65	272.22
354.032	277.87
354.414	298.66
354.797	285.11
355.179	313.35
355.562	305.44
355.944	314.26
356.326	319.23
356.709	334.82
357.091	320.81
357.473	328.95
357.855	320.36
358.238	312.9
358.62	320.36
359.002	335.27
359.384	311.09
359.766	315.61
360.148	316.74
360.53	341.15
360.912	315.84
361.294	326.23
361.676	305.9
362.057	302.28
362.439	325.33
362.821	311.55
363.203	295.95
363.584	301.38
363.966	302.05
364.348	303.18
364.729	308.38
365.111	307.93
365.493	304.99
365.874	288.72
366.256	297.53
366.637	281.94
367.019	290.3
367.4	304.31
367.781	301.6
368.163	303.18
368.544	299.34
368.925	291.43
369.306	303.64
369.688	292.56
370.069	306.57
370.45	291.66
370.831	284.43
371.212	301.83
371.593	295.73
371.974	305.67
372.355	303.86
372.736	297.99
373.117	283.3
373.498	319.23
373.879	276.29
374.26	283.75
374.641	297.53
375.021	304.31
375.402	314.48
375.783	285.78
376.163	316.74
376.544	319
376.925	302.96
377.305	312.68
377.686	286.24
378.066	311.55
378.447	303.18
378.827	317.2
379.208	309.29
379.588	316.29
379.968	318.32
380.349	300.7
380.729	306.35
381.109	306.57
381.489	323.97
381.87	334.14
382.25	311.09
382.63	319.23
383.01	305.67
383.39	347.25
383.77	316.52
384.15	319.23
384.53	321.71
384.91	339.57
385.29	320.13
385.67	314.71
386.049	332.56
386.429	332.34
386.809	346.8
387.189	324.88
387.568	333.24
387.948	340.92
388.328	334.82
388.707	313.35
389.087	328.27
389.466	320.58
389.846	351.54
390.225	324.88
390.605	338.21
390.984	346.57
391.363	350.87
391.743	340.92
392.122	353.13
392.501	344.54
392.881	351.54
393.26	338.21
393.639	349.06
394.018	342.96
394.397	342.51
394.776	368.95
395.155	371.66
395.534	354.03
395.913	340.47
396.292	349.06
396.671	349.06
397.05	349.06
397.429	346.35
397.808	376.4
398.186	347.48
398.565	352.45
398.944	361.71
399.323	367.14
399.701	377.76
400.08	381.6
400.458	344.31
400.837	376.18
401.215	366.91
401.594	391.54
401.972	368.49
402.351	381.6
402.729	376.85
403.107	384.76
403.486	364.65
403.864	382.73
404.242	373.01
404.62	385.22
404.999	404.2
405.377	379.34
405.755	375.27
406.133	403.97
406.511	398.1
406.889	410.3
407.267	389.96
407.645	396.74
408.023	404.65
408.401	415.95
408.779	381.83
409.156	400.81
409.534	411.66
409.912	422.05
410.29	431.32
410.667	409.4
411.045	425.67
411.422	414.59
411.8	414.37
412.178	431.32
412.555	423.18
412.933	443.29
413.31	444.2
413.687	412.79
414.065	431.32
414.442	426.57
414.819	439.23
415.197	432.9
415.574	440.81
415.951	444.42
416.328	443.29
416.705	455.5
417.082	444.88
417.46	461.82
417.837	455.5
418.214	437.19
418.591	455.5
418.967	464.31
419.344	459.79
419.721	495.5
420.098	459.34
420.475	476.29
420.852	459.34
421.228	474.71
421.605	477.19
421.982	490.07
422.358	487.13
422.735	499.11
423.111	464.54
423.488	512.9
423.864	483.52
424.241	481.71
424.617	474.25
424.994	509.28
425.37	480.13
425.746	487.36
426.123	502.27
426.499	503.18
426.875	522.16
427.251	520.13
427.627	523.07
428.003	500.24
428.379	506.34
428.756	503.86
429.132	543.4
429.507	525.78
429.883	537.08
430.259	561.03
430.635	540.47
431.011	549.51
431.387	554.02
431.763	541.6
432.138	578.88
432.514	607.13
432.89	575.27
433.265	575.95
433.641	580.24
434.016	592.67
434.392	591.99
434.767	618.43
435.143	617.98
435.518	594.25
435.894	595.83
436.269	624.08
436.644	625.44
437.02	617.3
437.395	636.73
437.77	631.99
438.145	633.57
438.52	646
438.895	640.35
439.271	660.69
439.646	647.13
440.021	654.36
440.395	650.52
440.77	640.35
441.145	688.71
441.52	686.45
441.895	680.12
442.27	687.35
442.645	672.89
443.019	677.41
443.394	668.15
443.769	703.85
444.143	682.16
444.518	716.73
444.892	704.76
445.267	716.28
445.641	679.45
446.016	722.61
446.39	730.07
446.764	724.87
447.139	691.42
447.513	721.48
447.887	708.6
448.262	721.03
448.636	710.41
449.01	722.83
449.384	737.3
449.758	768.71
450.132	760.35
450.506	752.21
450.88	761.25
451.254	773.91
451.628	761.93
452.002	772.32
452.376	773.68
452.75	782.27
453.123	787.47
453.497	804.41
453.871	808.03
454.244	818.42
454.618	826.11
454.992	806.22
455.365	836.73
455.739	843.06
456.112	838.09
456.486	841.02
456.859	845.54
457.232	851.42
457.606	869.27
457.979	848.03
458.352	899.55
458.725	896.84
459.099	895.26
459.472	927.12
459.845	914.69
460.218	914.24
460.591	926.44
460.964	918.08
461.337	937.74
461.71	940.23
462.083	985.43
462.456	959.44
462.829	989.04
463.201	983.62
463.574	996.5
463.947	993.34
464.32	1031.3
464.692	1001.47
465.065	995.6
465.438	1015.93
465.81	1049.38
466.183	1067.46
466.555	1085.99
466.928	1094.35
467.3	1076.95
467.672	1103.39
468.045	1115.37
468.417	1101.58
468.789	1139.32
469.161	1153.33
469.534	1129.6
469.906	1207.12
470.278	1187.45
470.65	1211.41
471.022	1220.45
471.394	1224.06
471.766	1230.84
472.138	1251.41
472.51	1272.65
472.882	1292.76
473.253	1285.08
473.625	1347.9
473.997	1374.57
474.369	1361.91
474.74	1370.5
475.112	1380.67
475.484	1428.35
475.855	1404.17
476.227	1449.37
476.598	1491.4
476.97	1492.76
477.341	1516.03
477.713	1540.89
478.084	1544.06
478.455	1575.47
478.827	1603.26
479.198	1618.86
479.569	1634.45
479.94	1675.13
480.311	1672.19
480.682	1724.16
481.053	1751.96
481.424	1768.91
481.795	1800.09
482.166	1806.65
482.537	1845.97
482.908	1907.89
483.279	1891.39
483.65	1941.33
484.021	1969.58
484.391	1971.16
484.762	1990.37
485.133	2004.61
485.503	2086.19
485.874	2060.88
486.244	2094.32
486.615	2168.9
486.985	2184.04
487.356	2192.4
487.726	2241.66
488.097	2238.73
488.467	2268.1
488.837	2319.4
489.207	2349.91
489.578	2383.36
489.948	2410.47
490.318	2438.95
490.688	2488.44
491.058	2486.18
491.428	2530.92
491.798	2551.03
492.168	2590.13
492.538	2629
492.908	2641.2
493.278	2642.11
493.648	2718.04
494.017	2728.66
494.387	2761.88
494.757	2782.44
495.126	2817.02
495.496	2858.37
495.866	2846.17
496.235	2904.92
496.605	2925.49
496.974	2929.78
497.344	2960.52
497.713	3024.24
498.082	3037.12
498.452	3041.42
498.821	3084.13
499.19	3094.98
499.559	3154.63
499.928	3156.89
500.298	3195.09
500.667	3189.66
501.036	3240.06
501.405	3287.29
501.774	3284.57
502.143	3316.44
502.512	3354.18
502.88	3386.04
503.249	3424.46
503.618	3412.25
503.987	3489.77
504.356	3484.57
504.724	3481.86
505.093	3555.75
505.462	3529.99
505.83	3555.08
506.199	3622.87
506.567	3676.43
506.936	3682.08
507.304	3723.89
507.672	3729.08
508.041	3780.83
508.409	3839.81
508.777	3828.06
509.145	3868.97
509.514	3901.96
509.882	3929.98
510.25	3959.81
510.618	3989.64
510.986	3989.87
511.354	4023.99
511.722	4114.16
512.09	4111.9
512.458	4115.74
512.826	4200.26
513.193	4202.06
513.561	4230.31
513.929	4275.74
514.297	4366.35
514.664	4390.53
515.032	4447.48
515.4	4483.87
515.767	4486.12
516.135	4571.55
516.502	4489.74
516.869	4622.39
517.237	4634.14
517.604	4637.08
517.972	4720.7
518.339	4706.91
518.706	4779.68
519.073	4860.8
519.44	4869.17
519.808	4912.78
520.175	4968.6
520.542	5014.7
520.909	5025.32
521.276	5034.81
521.643	5128.37
522.009	5175.15
522.376	5217.86
522.743	5245.43
523.11	5325.65
523.477	5429.15
523.843	5438.42
524.21	5427.12
524.577	5476.16
524.943	5571.75
525.31	5648.13
525.676	5646.55
526.043	5674.79
526.409	5722.93
526.776	5820.78
527.142	5871.17
527.508	5896.94
527.874	5964.5
528.241	5976.71
528.607	6058.74
528.973	6071.39
529.339	6095.57
529.705	6146.19
530.071	6221.22
530.437	6312.74
530.803	6325.4
531.169	6395.91
531.535	6420.54
531.901	6486.3
532.267	6530.82
532.632	6535.11
532.998	6597.03
533.364	6640.42
533.73	6705.05
534.095	6714.54
534.461	6806.97
534.826	6815.1
535.192	6885.16
535.557	6924.7
535.923	6924.7
536.288	6996.34
536.653	7024.59
537.019	7034.76
537.384	7124.02
537.749	7190.23
538.114	7182.1
538.479	7209.22
538.845	7234.98
539.21	7289.67
539.575	7362.89
539.94	7410.57
540.305	7440.62
540.67	7444.69
541.034	7501.41
541.399	7569.43
541.764	7580.51
542.129	7653.73
542.494	7686.49
542.858	7702.76
543.223	7771.01
543.587	7792.25
543.952	7825.7
544.316	7873.38
544.681	7874.28
545.045	7935.53
545.41	8032.7
545.774	7987.95
546.138	8058.23
546.503	8149.76
546.867	8136.42
547.231	8226.82
547.595	8198.34
547.959	8273.14
548.324	8279.25
548.688	8398.56
549.052	8394.04
549.416	8457.77
549.779	8484.66
550.143	8499.35
550.507	8528.73
550.871	8599.92
551.235	8574.61
551.599	8673.36
551.962	8692.34
552.326	8746.35
552.689	8853.92
553.053	8888.5
553.417	8880.59
553.78	9017.98
554.143	8966.46
554.507	9063.86
554.87	9097.53
555.234	9150.18
555.597	9138.66
555.96	9239.45
556.323	9303.4
556.686	9278.09
557.05	9485.32
557.413	9471.08
557.776	9431.53
558.139	9581.36
558.502	9679.89
558.865	9680.34
559.228	9782.26
559.59	9816.38
559.953	9767.34
560.316	9920.78
560.679	9905.19
561.041	10025.19
561.404	10092.53
561.767	10205.07
562.129	10191.74
562.492	10326.42
562.854	10320.77
563.217	10306.08
563.579	10414.1
563.941	10445.06
564.304	10531.84
564.666	10559.19
565.028	10652.06
565.39	10671.5
565.753	10718.73
566.115	10775.68
566.477	10813.42
566.839	10928.44
567.201	10993.52
567.563	11049.79
567.925	11087.53
568.287	11116.01
568.648	11180.19
569.01	11269.22
569.372	11346.74
569.734	11391.25
570.095	11468.54
570.457	11488.43
570.819	11593.06
571.18	11530.23
571.542	11663.11
571.903	11627.41
572.265	11681.87
572.626	11808.19
572.987	11825.37
573.349	11954.63
573.71	11962.76
574.071	11987.85
574.432	12086.6
574.794	12138.58
575.155	12212.7
575.516	12121.4
575.877	12153.95
576.238	12279.59
576.599	12284.79
576.96	12354.17
577.32	12356.65
577.681	12431.45
578.042	12473.49
578.403	12539.7
578.763	12530.66
579.124	12609.3
579.485	12658.57
579.845	12705.8
580.206	12768.85
580.566	12740.15
580.927	12733.37
581.287	12772.91
581.648	12769.07
582.008	12886.81
582.368	12922.74
582.728	12917.77
583.089	13026.47
583.449	12939.46
583.809	13005.9
584.169	12997.77
584.529	13059.01
584.889	13211.09
585.249	13144.88
585.609	13109.18
585.969	13195.73
586.329	13117.99
586.688	13203.64
587.048	13184.65
587.408	13248.61
587.768	13188.72
588.127	13219.68
588.487	13242.96
588.846	13376.96
589.206	13262.62
589.565	13372.9
589.925	13406.57
590.284	13346.91
590.643	13361.6
591.003	13461.48
591.362	13549.16
591.721	13578.99
592.08	13544.87
592.44	13600.46
592.799	13608.37
593.158	13563.85
593.517	13600.24
593.876	13694.7
594.235	13553.91
594.593	13652.21
594.952	13742.38
595.311	13665.32
595.67	13672.1
596.029	13802.94
596.387	13884.3
596.746	13946.22
597.104	13868.25
597.463	13848.59
597.822	13889.27
598.18	13863.96
598.538	13804.52
598.897	13968.81
599.255	13880.23
599.613	14064.86
599.972	14093.56
600.33	14124.74
600.688	14142.14
601.046	14136.72
601.404	14319.54
601.762	14092.43
602.12	14270.5
602.478	14282.7
602.836	14247.68
603.194	14114.35
603.552	14298.97
603.91	14217.62
604.268	14255.81
604.625	14332.65
604.983	14408.12
605.341	14389.37
605.698	14411.51
606.056	14447.9
606.413	14423.49
606.771	14504.62
607.128	14573.77
607.485	14433.66
607.843	14466.2
608.2	14685.4
608.557	14648.8
608.914	14607.44
609.272	14637.95
609.629	14758.62
609.986	14794.33
610.343	14634.11
610.7	14839.75
611.057	14884.95
611.414	14886.98
611.771	14823.93
612.127	14817.38
612.484	14945.06
612.841	15044.94
613.198	14982.57
613.554	14996.58
613.911	14999.97
614.267	15121.78
614.624	15141.89
614.98	15075.68
615.337	15156.13
615.693	15137.37
616.05	15142.79
616.406	15380.08
616.762	15236.12
617.118	15195.22
617.475	15296.91
617.831	15317.03
618.187	15330.13
618.543	15367.19
618.899	15514.54
619.255	15463.92
619.611	15464.14
619.967	15523.57
620.323	15562.9
620.678	15536
621.034	15567.87
621.39	15547.76
621.746	15562.9
622.101	15733.51
622.457	15599.51
622.812	15675.89
623.168	15695.55
623.523	15705.49
623.879	15811.93
624.234	15611.26
624.589	15785.26
624.945	15734.42
625.3	15766.96
625.655	15804.02
626.01	15704.36
626.365	15824.13
626.72	15913.4
627.075	15803.12
627.43	15835.43
627.785	15832.49
628.14	15787.75
628.495	15843.79
628.85	15884.47
629.205	15840.85
629.559	15867.97
629.914	15807.41
630.269	15843.57
630.623	15771.93
630.978	15816.67
631.332	15839.5
631.687	15879.5
632.041	15829.1
632.396	15902.32
632.75	15870.23
633.104	15862.1
633.459	15829.56
633.813	15806.96
634.167	15851.7
634.521	15833.85
634.875	15802.89
635.229	15795.88
635.583	15777.81
635.937	15766.96
636.291	15724.25
636.645	15757.47
636.999	15696.68
637.352	15780.74
637.706	15709.33
638.06	15716.34
638.413	15722.89
638.767	15663.23
639.121	15680.63
639.474	15644.02
639.828	15688.09
640.181	15723.12
640.534	15748.2
640.888	15617.81
641.241	15652.16
641.594	15714.98
641.947	15747.98
642.301	15714.3
642.654	15683.34
643.007	15702.55
643.36	15607.87
643.713	15762.21
644.066	15670.01
644.419	15587.98
644.771	15566.51
645.124	15411.71
645.477	15475.21
645.83	15289
646.182	15199.29
646.535	15217.37
646.888	15250.81
647.24	15251.49
647.593	15277.48
647.945	15237.71
648.298	15174.21
648.65	15199.97
649.002	15207.88
649.355	15210.81
649.707	15232.74
650.059	15206.75
650.411	15404.93
650.763	15420.07
651.115	15674.98
651.467	15595.89
651.819	15648.54
652.171	15570.35
652.523	15625.49
652.875	15524.03
653.227	15529.9
653.578	15655.77
653.93	15647.64
654.282	15517.7
654.633	15420.53
654.985	15511.37
655.337	15601.99
655.688	15528.77
656.039	15622.33
656.391	15440.87
656.742	15558.6
657.094	15486.74
657.445	15558.83
657.796	15561.54
658.147	15571.48
658.498	15476.57
658.849	15621.43
659.2	15668.66
659.551	15549.34
659.902	15603.12
660.253	15550.24
660.604	15610.35
660.955	15543.46
661.306	15594.31
661.656	15614.87
662.007	15599.28
662.358	15605.38
662.708	15572.84
663.059	15535.33
663.409	15517.7
663.76	15635.21
664.11	15618.49
664.461	15696.45
664.811	15619.62
665.161	15598.38
665.511	15514.08
665.862	15653.74
666.212	15640.41
666.562	15697.13
666.912	15556.34
667.262	15602.44
667.612	15714.3
667.962	15648.54
668.312	15518.38
668.662	15630.46
669.011	15617.58
669.361	15531.94
669.711	15658.71
670.06	15637.02
670.41	15640.41
670.76	15684.93
671.109	15667.53
671.459	15534.65
671.808	15634.53
672.157	15668.66
672.507	15553.86
672.856	15504.14
673.205	15585.95
673.554	15613.52
673.904	15587.08
674.253	15729.45
674.602	15696.68
674.951	15388.21
675.3	15328.1
675.649	15609.22
675.998	15573.52
676.346	15610.35
676.695	15700.29
677.044	15550.92
677.393	15589.11
677.741	15628.66
678.09	15609.22
678.438	15472.28
678.787	15621.2
679.135	15618.71
679.484	15480.19
679.832	15528.09
680.181	15423.24
680.529	15552.05
680.877	15495.78
681.225	15472.73
681.573	15598.6
681.922	15469.34
682.27	15456.01
682.618	15331.72
682.966	15379.62
683.314	15341.88
683.661	15415.33
684.009	15371.26
684.357	15244.71
684.705	15319.06
685.053	15280.19
685.4	15221.66
685.748	15239.51
686.095	15200.87
686.443	15170.59
686.79	15116.58
687.138	15178.27
687.485	15127.43
687.832	15127.2
688.18	15137.37
688.527	15010.59
688.874	15063.93
689.221	15060.54
689.568	14973.98
689.915	14996.36
690.262	15025.06
690.609	14924.27
690.956	14879.52
691.303	14888.79
691.65	14875.91
691.997	14845.4
692.344	14794.33
692.69	14717.27
693.037	14768.11
693.383	14691.73
693.73	14714.1
694.077	14656.03
694.423	14613.54
694.769	14608.57
695.116	14565.86
695.462	14642.69
695.808	14484.96
696.155	14508.91
696.501	14515.01
696.847	14459.87
697.193	14355.02
697.539	14421.23
697.885	14264.85
698.231	14303.95
698.577	14331.74
698.923	14317.28
699.269	14164.29
699.614	14114.8
699.96	14085.19
700.306	14212.2
700.651	14016.04
700.997	14068.47
701.342	13968.59
701.688	14016.5
702.033	13973.56
702.379	13933.11
702.724	13920.45
703.069	13956.16
703.415	13759.55
703.76	13860.12
704.105	13842.72
704.45	13840.91
704.795	13704.41
705.14	13703.06
705.485	13666.9
705.83	13609.27
706.175	13711.87
706.52	13588.03
706.865	13525.21
707.209	13623.29
707.554	13582.83
707.899	13604.3
708.243	13430.07
708.588	13528.83
708.932	13418.09
709.277	13360.24
709.621	13325.89
709.966	13346.46
710.31	13345.55
710.654	13183.75
710.998	13318.66
711.342	13336.06
711.687	13164.99
712.031	13228.72
712.375	13151.66
712.719	13234.6
713.063	13278.89
713.407	13271.43
713.75	13111.89
714.094	13138.1
714.438	13037.99
714.782	13101.72
715.125	13116.86
715.469	13098.1
715.812	13033.7
716.156	12951.89
716.499	12959.35
716.843	12911.67
717.186	12887.94
717.53	12999.35
717.873	12923.87
718.216	12951.89
718.559	12893.14
718.902	12793.48
719.246	12850.65
719.589	12873.02
719.932	12642.07
720.275	12785.34
720.617	12741.5
720.96	12735.17
721.303	12829.86
721.646	12778.34
721.989	12712.8
722.331	12618.79
722.674	12646.14
723.016	12710.32
723.359	12672.12
723.701	12674.16
724.044	12598.68
724.386	12481.62
724.729	12595.29
725.071	12579.02
725.413	12558
725.755	12560.49
726.097	12471.23
726.439	12442.07
726.782	12514.16
727.124	12546.93
727.465	12474.84
727.807	12478.23
728.149	12461.73
728.491	12463.09
728.833	12426.26
729.175	12456.08
729.516	12366.14
729.858	12476.2
730.199	12443.88
730.541	12382.87
730.882	12297.22
731.224	12448.63
731.565	12319.37
731.906	12353.49
732.248	12334.96
732.589	12361.62
732.93	12282.76
733.271	12306.26
733.612	12368.86
733.953	12286.15
734.294	12315.52
734.635	12238.69
734.976	12281.63
735.317	12244.57
735.658	12208.41
735.999	12207.73
736.339	12251.12
736.68	12231.91
737.021	12202.98
737.361	12136.55
737.702	12302.64
738.042	12195.98
738.383	12192.81
738.723	12197.56
739.063	12218.35
739.404	12155.08
739.744	12137
740.084	12128.41
740.424	12184
740.764	12158.69
741.104	12229.42
741.444	12094.96
741.784	12148.75
742.124	12085.25
742.464	12095.19
742.804	12168.86
743.143	12077.11
743.483	12092.25
743.823	12053.38
744.162	11990.79
744.502	12110.78
744.841	12058.36
745.181	12115.3
745.52	11955.31
745.86	12092.25
746.199	12051.58
746.538	11979.26
746.877	12032.59
747.216	12001.63
747.556	12007.96
747.895	12010.67
748.234	11936.55
748.573	11974.74
748.911	11896.33
749.25	12025.59
749.589	11888.19
749.928	11997.79
750.267	11888.42
750.605	11864.24
750.944	11877.12
751.283	11862.65
751.621	11875.54
751.96	11802.77
752.298	11809.1
752.636	11832.82
752.975	11758.48
753.313	11731.81
753.651	11823.56
753.989	11805.48
754.327	11772.04
754.666	11742.88
755.004	11757.35
755.342	11756.44
755.679	11719.16
756.017	11579.72
756.355	11721.87
756.693	11645.48
757.031	11724.8
757.368	11653.39
757.706	11624.92
758.044	11624.69
758.381	11473.74
758.719	11597.58
759.056	11605.71
759.394	11523.23
759.731	11462.21
760.068	11464.02
760.405	11407.75
760.743	11390.12
761.08	11365.49
761.417	11368.43
761.754	11364.81
762.091	11348.32
762.428	11304.02
762.765	11285.95
763.102	11233.07
763.438	11313.74
763.775	11224.03
764.112	11285.72
764.449	11156.01
764.785	11167.53
765.122	11087.08
765.458	11118.27
765.795	11077.59
766.131	11046.86
766.467	11050.25
766.804	10980.87
767.14	10964.15
767.476	10967.76
767.812	10870.59
768.148	10904.94
768.485	10881.21
768.821	10784.94
769.157	10814.77
769.492	10721.22
769.828	10738.16
770.164	10612.97
770.5	10597.38
770.836	10645.96
771.171	10613.2
771.507	10644.61
771.842	10462.24
772.178	10513.31
772.513	10462.47
772.849	10442.13
773.184	10377.27
773.519	10398.06
773.855	10358.96
774.19	10318.51
774.525	10315.35
774.86	10250.04
775.195	10273.77
775.53	10252.98
775.865	10175.92
776.2	10018.63
776.535	10111.29
776.87	10128.24
777.205	9988.35
777.539	9923.72
777.874	10080.78
778.209	9927.56
778.543	9976.6
778.878	9872.2
779.212	9905.64
779.547	9810.5
779.881	9785.19
780.215	9773.22
780.55	9838.07
780.884	9759.21
781.218	9692.09
781.552	9677.63
781.886	9614.35
782.22	9527.57
782.554	9599.44
782.888	9478.31
783.222	9433.57
783.556	9436.96
783.889	9391.31
784.223	9367.35
784.557	9343.17
784.89	9375.71
785.224	9327.81
785.557	9275.6
785.891	9278.54
786.224	9221.82
786.558	9187.92
786.891	9106.57
787.224	9166.68
787.557	9114.93
787.891	9093.69
788.224	9064.08
788.557	9097.98
788.89	8994.71
789.223	8996.74
789.556	8931.88
789.888	8911.09
790.221	8916.06
790.554	8822.96
790.887	8856.18
791.219	8794.71
791.552	8808.72
791.884	8775.28
792.217	8775.28
792.549	8730.53
792.882	8683.08
793.214	8668.84
793.546	8656.86
793.879	8582.97
794.211	8561.5
794.543	8567.6
794.875	8484.66
795.207	8568.73
795.539	8450.54
795.871	8487.83
796.203	8430.65
796.535	8347.94
796.867	8384.78
797.198	8371.45
797.53	8353.59
797.862	8310.88
798.193	8344.1
798.525	8265.46
798.856	8254.16
799.188	8203.77
799.519	8211.45
799.85	8129.64
800.182	8193.37
800.513	8145.24
800.844	8039.7
801.175	8138.01
801.506	8055.75
801.837	8056.2
802.168	7972.59
802.499	7994.96
802.83	7988.63
803.161	7942.08
803.491	8010.1
803.822	7998.12
804.153	7925.36
804.483	7867.96
804.814	7856.43
805.145	7889.88
805.475	7838.81
805.805	7809.2
806.136	7806.26
806.466	7784.12
806.796	7748.86
807.126	7698.7
807.457	7690.33
807.787	7643.56
808.117	7652.82
808.447	7607.85
808.777	7649.66
809.107	7677
809.436	7587.29
809.766	7601.07
810.096	7567.63
810.426	7519.27
810.755	7504.8
811.085	7532.15
811.414	7478.36
811.744	7428.87
812.073	7424.35
812.403	7424.8
812.732	7338.48
813.061	7348.42
813.39	7359.95
813.719	7338.25
814.049	7368.31
814.378	7332.83
814.707	7332.6
815.036	7249.67
815.365	7264.81
815.693	7190.69
816.022	7241.76
816.351	7151.82
816.68	7126.96
817.008	7253.96
817.337	7151.59
817.665	7137.35
817.994	7139.39
818.322	7211.48
818.651	7098.49
818.979	7077.02
819.307	7088.99
819.636	7068.2
819.964	7053.06
820.292	7040.41
820.62	7077.24
820.948	7062.33
821.276	7079.28
821.604	7035.89
821.932	7051.93
822.259	7016.68
822.587	6998.15
822.915	7065.72
823.243	7086.73
823.57	7044.93
823.898	7007.41
824.225	6976.23
824.553	7007.64
824.88	7042.67
825.207	7048.77
825.535	7023.46
825.862	7026.4
826.189	6987.53
826.516	7027.3
826.843	7027.3
827.17	7026.4
827.497	7059.62
827.824	7020.97
828.151	7086.73
828.478	7032.27
828.805	7045.61
829.131	7023.23
829.458	7018.94
829.785	6986.4
830.111	7030.69
830.438	7025.95
830.764	6990.47
831.09	7039.96
831.417	7050.13
831.743	7057.36
832.069	7018.26
832.395	6973.29
832.722	7009.22
833.048	6964.03
833.374	6972.84
833.7	6942.11
834.026	6934.65
834.351	6978.94
834.677	7004.93
835.003	7008.77
835.329	6934.87
835.654	6956.57
835.98	6924.93
836.306	6931.26
836.631	6902.78
836.956	6987.53
837.282	6939.39
837.607	6953.86
837.932	6903.91
838.258	6893.75
838.583	6899.62
838.908	6845.16
839.233	6865.5
839.558	6805.84
839.883	6829.11
840.208	6724.94
840.533	6797.25
840.858	6749.12
841.182	6835.67
841.507	6763.58
841.832	6754.77
842.156	6754.31
842.481	6740.53
842.805	6744.37
843.13	6703.02
843.454	6669.8
843.778	6688.78
844.103	6655.11
844.427	6703.69
844.751	6655.33
845.075	6658.05
845.399	6597.93
845.723	6572.62
846.047	6639.97
846.371	6530.37
846.695	6586.41
847.019	6466.19
847.343	6517.94
847.666	6432.06
847.99	6402.68
848.313	6441.1
848.637	6425.06
848.96	6394.78
849.284	6311.39
849.607	6338.51
849.931	6275.23
850.254	6243.37
850.577	6279.07
850.9	6202.01
851.223	6204.72
851.546	6117.49
851.869	6128.34
852.192	6166.08
852.515	6122.92
852.838	6098.96
853.161	6113.43
853.483	6053.09
853.806	6035.01
854.129	6039.53
854.451	5976.71
854.774	5979.87
855.096	5959.98
855.419	5932.64
855.741	5933.32
856.063	5957.27
856.385	5899.2
856.708	5879.08
857.03	5879.99
857.352	5837.95
857.674	5833.89
857.996	5810.61
858.318	5789.59
858.64	5806.77
858.961	5792.53
859.283	5746.66
859.605	5725.64
859.926	5737.84
860.248	5730.39
860.57	5716.83
860.891	5700.56
861.212	5684.74
861.534	5677.28
861.855	5628.92
862.176	5624.85
862.498	5681.12
862.819	5643.38
863.14	5622.59
863.461	5609.49
863.782	5576.49
864.103	5611.75
864.424	5574.01
864.745	5574.68
865.065	5574.01
865.386	5570.62
865.707	5514.57
866.027	5559.77
866.348	5521.8
866.668	5537.4
866.989	5548.92
867.309	5483.84
867.63	5478.64
867.95	5519.32
868.27	5457.62
868.59	5498.98
868.91	5446.1
869.23	5484.06
869.55	5386.89
869.87	5436.83
870.19	5442.71
870.51	5413.56
870.83	5394.35
871.15	5405.65
871.469	5415.37
871.789	5420.11
872.109	5382.82
872.428	5401.36
872.748	5384.41
873.067	5392.32
873.386	5375.37
873.706	5373.79
874.025	5336.5
874.344	5330.17
874.663	5327.46
874.982	5322.71
875.301	5321.13
875.62	5275.03
875.939	5316.61
876.258	5276.16
876.577	5240.23
876.896	5259.89
877.214	5246.78
877.533	5309.38
877.852	5262.83
878.17	5254.24
878.489	5276.84
878.807	5226.22
879.125	5208.37
879.444	5206.78
879.762	5153.45
880.08	5226.22
880.398	5134.7
880.716	5201.13
881.034	5197.52
881.352	5186.9
881.67	5159.1
881.988	5103.06
882.306	5138.09
882.624	5133.57
882.941	5089.05
883.259	5127.01
883.577	5044.53
883.894	5095.37
884.212	5071.19
884.529	5049.5
884.846	5031.65
885.164	5022.16
885.481	5078.43
885.798	5004.3
886.115	5018.09
886.432	5014.7
886.75	4983.51
887.067	4979.67
887.383	4923.63
887.7	4941.71
888.017	4871.2
888.334	4945.32
888.651	4927.02
888.967	4886.34
889.284	4899
889.6	4881.14
889.917	4857.87
890.233	4881.59
890.55	4856.51
890.866	4844.76
891.182	4795.27
891.498	4787.81
891.815	4798.66
892.131	4794.82
892.447	4766.57
892.763	4764.08
893.079	4725.44
893.395	4716.4
893.71	4769.73
894.026	4711.88
894.342	4677.31
894.657	4647.93
894.973	4663.97
895.289	4674.82
895.604	4650.19
895.92	4619.45
896.235	4588.72
896.55	4577.87
896.865	4576.74
897.181	4523.64
897.496	4550.3
897.811	4546.91
898.126	4507.59
898.441	4506.24
898.756	4525.22
899.071	4475.5
899.386	4474.15
899.7	4408.39
900.015	4406.58
900.33	4385.11
900.644	4416.07
900.959	4437.54
901.273	4415.62
901.588	4388.05
901.902	4349.41
902.216	4322.51
902.531	4324.1
902.845	4329.29
903.159	4313.93
903.473	4286.13
903.787	4252.91
904.101	4281.16
904.415	4263.53
904.729	4243.65
905.042	4195.96
905.356	4181.95
905.67	4210.2
905.984	4190.31
906.297	4160.94
906.611	4137.21
906.924	4125.46
907.237	4151.9
907.551	4134.72
907.864	4103.31
908.177	4036.87
908.491	4021.73
908.804	4041.16
909.117	3997.78
909.43	4016.98
909.743	3979.02
910.056	3984.22
910.368	3966.14
910.681	3905.12
910.994	3945.57
911.307	3900.15
911.619	3868.74
911.932	3935.18
912.244	3888.17
912.557	3917.33
912.869	3846.14
913.181	3820.83
913.494	3803.66
913.806	3809.53
914.118	3805.24
914.43	3800.04
914.742	3768.63
915.054	3746.71
915.366	3754.62
915.678	3719.14
915.99	3727.73
916.302	3689.31
916.613	3705.13
916.925	3661.97
917.236	3651.34
917.548	3606.15
917.859	3662.64
918.171	3670.1
918.482	3592.59
918.794	3604.57
919.105	3599.37
919.416	3555.53
919.727	3562.53
920.038	3594.17
920.349	3507.17
920.66	3490.67
920.971	3480.05
921.282	3513.27
921.593	3459.26
921.903	3467.39
922.214	3465.59
922.525	3419.94
922.835	3408.87
923.146	3387.4
923.456	3328.42
923.767	3382.88
924.077	3325.7
924.387	3323.9
924.697	3344.01
925.008	3338.58
925.318	3273.28
925.628	3309.66
925.938	3269.89
926.248	3271.02
926.558	3265.59
926.867	3253.16
927.177	3192.83
927.487	3264.69
927.796	3238.7
928.106	3177.68
928.416	3157.35
928.725	3162.09
929.034	3117.12
929.344	3155.76
929.653	3109.89
929.962	3087.07
930.271	3113.51
930.581	3069.67
930.89	3104.01
931.199	3045.94
931.508	3093.85
931.817	3049.78
932.125	3048.65
932.434	3036.9
932.743	3021.08
933.051	2991.25
933.36	3003.23
933.669	2946.96
933.977	2941.98
934.286	2953.74
934.594	2938.82
934.902	2953.51
935.21	2887.07
935.519	2890.23
935.827	2894.53
936.135	2890.23
936.443	2851.82
936.751	2842.78
937.059	2836.45
937.367	2835.77
937.674	2825.6
937.982	2826.06
938.29	2837.35
938.597	2796.9
938.905	2753.97
939.213	2767.07
939.52	2762.78
939.827	2751.26
940.135	2725.27
940.442	2711.03
940.749	2743.57
941.056	2714.42
941.363	2713.74
941.67	2691.37
941.977	2704.02
942.284	2651.6
942.591	2625.83
942.898	2630.58
943.205	2658.15
943.511	2619.51
943.818	2615.67
944.125	2624.93
944.431	2587.19
944.738	2577.25
945.044	2600.98
945.35	2583.8
945.657	2570.24
945.963	2526.85
946.269	2497.93
946.575	2530.7
946.881	2521.88
947.187	2528.21
947.493	2520.75
947.799	2504.03
948.105	2482.79
948.41	2469
948.716	2465.61
949.022	2447.76
949.327	2421.77
949.633	2423.35
949.938	2435.56
950.244	2438.95
950.549	2377.93
950.854	2387.65
951.16	2392.17
951.465	2353.53
951.77	2389.68
952.075	2346.52
952.38	2318.05
952.685	2339.97
952.99	2334.09
953.294	2329.35
953.599	2297.48
953.904	2313.3
954.209	2293.87
954.513	2285.5
954.818	2240.76
955.122	2255.68
955.426	2227.88
955.731	2260.65
956.035	2233.98
956.339	2226.3
956.643	2169.58
956.948	2168.67
957.252	2196.92
957.556	2173.64
957.86	2156.69
958.163	2143.81
958.467	2175.23
958.771	2156.92
959.075	2139.52
959.378	2136.13
959.682	2133.19
959.985	2127.99
960.289	2099.52
960.592	2104.49
960.896	2103.81
961.199	2088.45
961.502	2077.6
961.805	2075.34
962.108	2038.28
962.411	2061.56
962.714	2041.22
963.017	2030.6
963.32	2010.26
963.623	2034.66
963.926	2017.26
964.228	2013.65
964.531	1998.51
964.833	2030.6
965.136	1989.47
965.438	2005.74
965.741	1943.37
966.043	1969.13
966.345	1949.24
966.648	1956.02
966.95	1951.28
967.252	1922.58
967.554	1914.44
967.856	1910.37
968.158	1936.59
968.46	1907.44
968.761	1878.51
969.063	1905.85
969.365	1893.2
969.666	1880.32
969.968	1856.14
970.269	1837.61
970.571	1837.16
970.872	1848.91
971.174	1808.91
971.475	1820.88
971.776	1823.14
972.077	1844.16
972.378	1817.49
972.679	1820.66
972.98	1796.25
973.281	1766.42
973.582	1786.08
973.883	1773.65
974.183	1777.72
974.484	1745.86
974.785	1749.7
975.085	1768.46
975.386	1759.87
975.686	1715.8
975.986	1749.02
976.287	1747.44
976.587	1704.05
976.887	1673.77
977.187	1714.22
977.487	1693.2
977.787	1692.07
978.087	1699.98
978.387	1670.15
978.687	1695.01
978.987	1669.48
979.286	1680.32
979.586	1631.28
979.885	1652.08
980.185	1659.08
980.484	1634.9
980.784	1646.65
981.083	1619.08
981.382	1632.64
981.682	1603.94
981.981	1596.03
982.28	1583.38
982.579	1573.89
982.878	1602.13
983.177	1577.05
983.475	1571.4
983.774	1555.58
984.073	1567.56
984.372	1529.82
984.67	1542.47
984.969	1531.4
985.267	1539.31
985.566	1515.81
985.864	1493.21
986.162	1516.94
986.461	1475.13
986.759	1502.93
987.057	1478.07
987.355	1506.09
987.653	1484.62
987.951	1479.88
988.249	1479.2
988.547	1482.14
988.844	1463.15
989.142	1484.62
989.44	1457.5
989.737	1433.78
990.035	1447.11
990.332	1423.38
990.63	1400.33
990.927	1423.38
991.224	1386.32
991.521	1406.66
991.819	1370.05
992.116	1365.08
992.413	1382.03
992.71	1389.71
993.006	1394
993.303	1399.2
993.6	1368.69
993.897	1335.02
994.193	1330.95
994.49	1335.7
994.787	1319.65
995.083	1343.61
995.379	1346.55
995.676	1296.38
995.972	1338.19
996.268	1335.7
996.565	1323.5
996.861	1285.31
997.157	1298.19
997.453	1307
997.749	1291.41
998.044	1275.14
998.34	1304.06
998.636	1239.88
998.932	1269.03
999.227	1246.89
999.523	1255.7
999.818	1266.1
1000.114	1232.43
1000.409	1219.77
1000.704	1235.36
1001	1237.62
1001.295	1232.65
1001.59	1242.14
1001.885	1212.31
1002.18	1214.8
1002.475	1207.34
1002.77	1184.29
1003.065	1169.38
1003.359	1194.23
1003.654	1163.05
1003.949	1172.31
1004.243	1163.73
1004.538	1167.57
1004.832	1182.26
1005.127	1144.07
1005.421	1178.64
1005.715	1145.2
1006.009	1121.92
1006.304	1114.46
1006.598	1107.91
1006.892	1132.99
1007.186	1115.14
1007.48	1104.97
1007.773	1105.42
1008.067	1086.67
1008.361	1093.45
1008.655	1073.33
1008.948	1078.53
1009.242	1078.98
1009.535	1058.87
1009.829	1064.07
1010.122	1071.3
1010.415	1056.16
1010.708	1057.97
1011.001	1031.53
1011.295	1038.31
1011.588	1062.49
1011.881	1030.4
1012.173	1028.36
1012.466	1033.33
1012.759	1044.18
1013.052	997.4
1013.344	1012.32
1013.637	1021.81
1013.93	1026.33
1014.222	1007.12
1014.514	1025.65
1014.807	988.82
1015.099	998.08
1015.391	989.04
1015.683	969.16
1015.976	984.97
1016.268	973.67
1016.56	946.56
1016.851	953.34
1017.143	938.65
1017.435	941.13
1017.727	945.88
1018.018	940.23
1018.31	926.9
1018.602	903.17
1018.893	915.6
1019.185	909.27
1019.476	880.8
1019.767	907.01
1020.058	927.8
1020.35	895.03
1020.641	887.58
1020.932	889.38
1021.223	851.64
1021.514	879.21
1021.804	896.39
1022.095	861.81
1022.386	857.52
1022.677	852.55
1022.967	836.73
1023.258	833.57
1023.548	846.45
1023.839	830.4
1024.129	825.66
1024.419	836.96
1024.709	825.2
1025	842.38
1025.29	803.96
1025.58	817.29
1025.87	813.91
1026.16	787.47
1026.449	801.02
1026.739	791.76
1027.029	812.32
1027.319	806
1027.608	795.15
1027.898	789.5
1028.187	794.92
1028.477	780.91
1028.766	766.22
1029.055	763.51
1029.344	749.73
1029.634	765.32
1029.923	735.26
1030.212	726.9
1030.501	741.59
1030.79	738.65
1031.078	714.92
1031.367	718.77
1031.656	721.48
1031.945	716.28
1032.233	723.29
1032.522	710.86
1032.81	701.14
1033.099	700.69
1033.387	712.89
1033.675	697.52
1033.963	711.76
1034.251	704.53
1034.54	705.43
1034.828	683.74
1035.116	698.2
1035.403	687.81
1035.691	664.08
1035.979	670.86
1036.267	687.35
1036.554	658.88
1036.842	657.98
1037.129	674.25
1037.417	671.54
1037.704	642.61
1037.992	640.12
1038.279	645.55
1038.566	648.71
1038.853	648.71
1039.14	648.71
