Data from cardboard_FLMS001491_100.txt Node
Date: Tue Feb 07 11:40:27 GMT 2017
User: dcchb
Spectrometer: FLMS00149
Trigger mode: 0
Integration Time (sec): 2.000000E-2
Scans to average: 10
Electric dark correction enabled: true
Nonlinearity correction enabled: false
Boxcar width: 0
XAxis mode: Wavelengths
Number of Pixels in Spectrum: 2048
>>>>>Begin Spectral Data<<<<<
341.393	-30.25
341.776	-30.25
342.16	-30.25
342.543	-53.98
342.927	-65.73
343.31	-71.16
343.693	-54.21
344.077	-75.9
344.46	-60.54
344.843	-58.28
345.226	-46.3
345.61	-28.22
345.993	-2.91
346.376	-12.4
346.759	11.78
347.142	18.56
347.525	42.06
347.908	80.03
348.291	54.72
348.674	91.55
349.057	111.21
349.44	143.53
349.823	151.66
350.206	160.02
350.588	194.15
350.971	202.96
351.354	228.27
351.737	233.69
352.119	242.28
352.502	248.61
352.884	261.26
353.267	270.08
353.65	288.38
354.032	295.61
354.414	283.86
354.797	336.97
355.179	324.99
355.562	320.02
355.944	316.86
356.326	323.41
356.709	305.78
357.091	318.66
357.473	340.58
357.855	350.75
358.238	350.53
358.62	350.98
359.002	350.98
359.384	326.8
359.766	336.06
360.148	334.48
360.53	350.98
360.912	331.54
361.294	314.82
361.676	320.92
362.057	342.84
362.439	341.04
362.821	344.43
363.203	311.43
363.584	317.08
363.966	318.89
364.348	337.65
364.729	308.27
365.111	323.18
365.493	320.25
365.874	309.4
366.256	316.4
366.637	313.24
367.019	311.21
367.4	310.98
367.781	315.5
368.163	299.91
368.544	302.39
368.925	317.31
369.306	289.51
369.688	296.97
370.069	318.21
370.45	299.91
370.831	311.66
371.212	313.47
371.593	320.47
371.974	323.86
372.355	326.35
372.736	332.9
373.117	305.56
373.498	316.86
373.879	341.26
374.26	294.26
374.641	336.52
375.021	322.73
375.402	343.3
375.783	307.14
376.163	332
376.544	316.18
376.925	329.74
377.305	342.84
377.686	320.25
378.066	315.27
378.447	326.12
378.827	334.26
379.208	314.14
379.588	301.04
379.968	319.57
380.349	342.84
380.729	354.82
381.109	312.79
381.489	306.01
381.87	350.08
382.25	327.25
382.63	354.6
383.01	339
383.39	345.56
383.77	349.85
384.15	325.22
384.53	340.81
384.91	346.91
385.29	362.28
385.67	351.88
386.049	343.75
386.429	352.79
386.809	369.06
387.189	355.95
387.568	348.49
387.948	340.36
388.328	346.69
388.707	345.33
389.087	369.06
389.466	379.45
389.846	348.95
390.225	373.35
390.605	348.72
390.984	372.45
391.363	372.9
391.743	385.1
392.122	369.74
392.501	381.49
392.881	392.79
393.26	389.62
393.639	378.1
394.018	383.75
394.397	384.42
394.776	370.41
395.155	392.56
395.534	374.48
395.913	408.15
396.292	373.35
396.671	384.65
397.05	395.72
397.429	410.41
397.808	395.95
398.186	384.42
398.565	394.59
398.944	407.93
399.323	386.68
399.701	421.94
400.08	405.89
400.458	404.76
400.837	421.94
401.215	426.91
401.594	408.38
401.972	413.58
402.351	402.5
402.729	430.75
403.107	426.01
403.486	445.67
403.864	439.56
404.242	428.49
404.62	429.4
404.999	437.08
405.377	437.53
405.755	448.6
406.133	426.01
406.511	459.9
406.889	463.97
407.267	458.77
407.645	445.89
408.023	451.99
408.401	443.86
408.779	466.23
409.156	476.17
409.534	474.14
409.912	496.06
410.29	478.21
410.667	506.46
411.045	495.38
411.422	490.86
411.8	475.04
412.178	484.54
412.555	517.08
412.933	497.87
413.31	532.44
413.687	515.95
414.065	522.95
414.442	539.68
414.819	527.02
415.197	538.55
415.574	542.84
415.951	527.25
416.328	552.78
416.705	540.35
417.082	524.08
417.46	542.39
417.837	541.71
418.214	556.17
418.591	558.66
418.967	558.66
419.344	562.27
419.721	571.09
420.098	578.54
420.475	594.14
420.852	586.91
421.228	565.89
421.605	606.34
421.982	595.72
422.358	600.24
422.735	603.18
423.111	617.41
423.488	608.37
423.864	595.49
424.241	600.24
424.617	630.52
424.994	621.48
425.37	634.81
425.746	655.6
426.123	638.88
426.499	623.97
426.875	653.34
427.251	661.25
427.627	642.27
428.003	660.35
428.379	671.42
428.756	686.56
429.132	723.4
429.507	695.38
429.883	692.21
430.259	691.54
430.635	731.53
431.011	703.51
431.387	729.73
431.763	728.37
432.138	757.75
432.514	752.78
432.89	773.57
433.265	781.48
433.641	777.41
434.016	758.43
434.392	773.34
434.767	775.38
435.143	799.33
435.518	795.04
435.894	798.65
436.269	806.33
436.644	832.1
437.02	816.5
437.395	834.81
437.77	845.43
438.145	851.08
438.52	854.24
438.895	875.71
439.271	845.88
439.646	883.17
440.021	884.75
440.395	875.71
440.77	901.93
441.145	904.64
441.52	923.39
441.895	884.98
442.27	915.71
442.645	922.26
443.019	922.94
443.394	939.66
443.769	936.27
444.143	935.6
444.518	954.58
444.892	952.55
445.267	946.44
445.641	961.13
446.016	971.3
446.39	983.05
446.764	971.53
447.139	987.8
447.513	997.06
447.887	981.02
448.262	1018.98
448.636	988.25
449.01	1007.91
449.384	1004.97
449.758	1037.29
450.132	1049.49
450.506	1049.94
450.88	1040
451.254	1048.81
451.628	1090.4
452.002	1075.93
452.376	1078.19
452.75	1084.52
453.123	1096.72
453.497	1122.03
453.871	1085.2
454.244	1126.78
454.618	1101.69
454.992	1140.11
455.365	1153.44
455.739	1154.57
456.112	1183.05
456.486	1179.43
456.859	1190.96
457.232	1198.64
457.606	1228.24
457.979	1237.06
458.352	1263.95
458.725	1247.91
459.099	1285.19
459.472	1311.63
459.845	1322.48
460.218	1299.43
460.591	1335.36
460.964	1336.72
461.337	1336.26
461.71	1390.95
462.083	1390.73
462.456	1407
462.829	1417.17
463.201	1416.04
463.574	1441.12
463.947	1472.76
464.32	1464.62
464.692	1482.02
465.065	1482.48
465.438	1535.36
465.81	1524.28
466.183	1562.25
466.555	1598.18
466.928	1611.74
467.3	1594.11
467.672	1623.04
468.045	1627.33
468.417	1656.03
468.789	1634.79
469.161	1720.21
469.534	1731.06
469.906	1753.43
470.278	1761.79
470.65	1784.84
471.022	1836.59
471.394	1830.26
471.766	1862.13
472.138	1851.05
472.51	1900.54
472.882	1943.48
473.253	1949.81
473.625	1992.29
473.997	2019.86
474.369	2019.41
474.74	2049.01
475.112	2071.84
475.484	2158.62
475.855	2171.95
476.227	2190.25
476.598	2225.28
476.97	2280.42
477.341	2297.37
477.713	2326.07
478.084	2339.85
478.455	2404.71
478.827	2437.7
479.198	2486.97
479.569	2519.74
479.94	2566.06
480.311	2604.03
480.682	2647.19
481.053	2731.93
481.424	2756.57
481.795	2741.43
482.166	2792.95
482.537	2850.35
482.908	2917.01
483.279	2970.57
483.65	2997.24
484.021	3014.86
484.391	3085.82
484.762	3074.3
485.133	3164.46
485.503	3214.18
485.874	3277.91
486.244	3301.18
486.615	3369.88
486.985	3401.75
487.356	3462.54
487.726	3448.98
488.097	3554.96
488.467	3571.69
488.837	3643.55
489.207	3699.14
489.578	3759.48
489.948	3761.29
490.318	3888.97
490.688	3854.84
491.058	3972.35
491.428	3969.42
491.798	4055.74
492.168	4113.82
492.538	4118.11
492.908	4218.67
493.278	4266.36
493.648	4269.07
494.017	4336.64
494.387	4375.05
494.757	4430.19
495.126	4516.75
495.496	4533.92
495.866	4514.49
496.235	4659.11
496.605	4634.48
496.974	4700.47
497.344	4725.1
497.713	4810.3
498.082	4842.39
498.452	4880.13
498.821	4937.07
499.19	4976.39
499.559	4999.44
499.928	5034.02
500.298	5066.79
500.667	5147.24
501.036	5196.73
501.405	5253.68
501.774	5258.87
502.143	5345.65
502.512	5370.73
502.88	5411.41
503.249	5476.04
503.618	5490.96
503.987	5535.7
504.356	5621.8
504.724	5584.51
505.093	5739.09
505.462	5721.69
505.83	5811.17
506.199	5833.32
506.567	5913.32
506.936	5926.2
507.304	6007.55
507.672	6002.36
508.041	6067.21
508.409	6188.11
508.777	6245.51
509.145	6303.37
509.514	6296.36
509.882	6334.1
510.25	6376.36
510.618	6503.13
510.986	6497.48
511.354	6623.58
511.722	6649.57
512.09	6679.4
512.458	6773.18
512.826	6795.1
513.193	6780.19
513.561	6911.71
513.929	6977.92
514.297	7033.06
514.664	7127.3
515.032	7115.77
515.4	7273.96
515.767	7258.82
516.135	7322.1
516.502	7359.83
516.869	7487.06
517.237	7478.7
517.604	7490.9
517.972	7657.45
518.339	7697
518.706	7799.15
519.073	7803.21
519.44	7920.05
519.808	7968.86
520.175	8020.16
520.542	8146.93
520.909	8179.02
521.276	8243.65
521.643	8303.99
522.009	8506.02
522.376	8497.88
522.743	8553.7
523.11	8662.17
523.477	8837.54
523.843	8829.85
524.21	8968.83
524.577	9065.33
524.943	9146.68
525.31	9176.74
525.676	9219.45
526.043	9400.23
526.409	9353.23
526.776	9507.8
527.142	9619.21
527.508	9672.09
527.874	9784.63
528.241	9872.99
528.607	9870.28
528.973	10007.67
529.339	10048.13
529.705	10137.61
530.071	10292.64
530.437	10386.65
530.803	10384.39
531.169	10491.96
531.535	10511.39
531.901	10575.34
532.267	10652.4
532.632	10842.46
532.998	10817.14
533.364	10983.47
533.73	11016.46
534.095	11083.8
534.461	11148.66
534.826	11227.53
535.192	11270.69
535.557	11395.89
535.923	11423.91
536.288	11559.95
536.653	11604.24
537.019	11606.95
537.384	11700.06
537.749	11804.46
538.114	11876.78
538.479	11859.38
538.845	12033.84
539.21	12034.74
539.575	12088.52
539.94	12167.84
540.305	12226.37
540.67	12330.55
541.034	12349.76
541.399	12473.37
541.764	12506.14
542.129	12626.36
542.494	12670.88
542.858	12719.02
543.223	12794.27
543.587	12846.02
543.952	12860.71
544.316	12936.86
544.681	12916.98
545.045	13069.74
545.41	13176.4
545.774	13275.39
546.138	13280.36
546.503	13318.1
546.867	13415.27
547.231	13502.95
547.595	13636.51
547.959	13643.06
548.324	13638.31
548.688	13721.7
549.052	13911.98
549.416	13925.54
549.779	13999.66
550.143	14040.56
550.507	14178.41
550.871	14202.37
551.235	14172.31
551.599	14362.59
551.962	14387.9
552.326	14559.19
552.689	14684.61
553.053	14589.02
553.417	14632.19
553.78	14876.7
554.143	14828.79
554.507	14874.21
554.87	15018.84
555.234	15234.88
555.597	15150.82
555.96	15191.27
556.323	15362.34
556.686	15344.71
557.05	15577.25
557.413	15626.74
557.776	15635.1
558.139	15759.16
558.502	15846.84
558.865	15897.46
559.228	16026.27
559.59	16221.07
559.953	16209.77
560.316	16533.15
560.679	16441.18
561.041	16593.26
561.404	16578.12
561.767	16797.55
562.129	16786.93
562.492	16903.54
562.854	17018.34
563.217	17044.55
563.579	17192.57
563.941	17368.16
564.304	17428.04
564.666	17500.81
565.028	17567.7
565.39	17680.69
565.753	17738.77
566.115	17824.19
566.477	17936.05
566.839	17977.86
567.201	18185.09
567.563	18233.9
567.925	18341.01
568.287	18415.82
568.648	18553.44
569.01	18670.27
569.372	18709.59
569.734	18790.95
570.095	18932.86
570.457	19016.25
570.819	19116.81
571.18	19233.65
571.542	19180.99
571.903	19302.35
572.265	19462.12
572.626	19452.4
572.987	19509.57
573.349	19619.17
573.71	19624.82
574.071	19862.1
574.432	19998.82
574.794	20036.34
575.155	20070.46
575.516	20162.44
575.877	20233.62
576.238	20282.88
576.599	20351.81
576.96	20380.06
577.32	20422.77
577.681	20496.21
578.042	20596.77
578.403	20716.32
578.763	20762.19
579.124	20752.48
579.485	20943.21
579.845	20959.03
580.206	20961.74
580.566	21049.87
580.927	21024.56
581.287	21193.6
581.648	21132.13
582.008	21384.55
582.368	21335.74
582.728	21407.83
583.089	21380.48
583.449	21414.83
583.809	21505.9
584.169	21588.39
584.529	21668.84
584.889	21656.63
585.249	21622.96
585.609	21681.72
585.969	21789.74
586.329	21786.57
586.688	21929.85
587.048	21830.87
587.408	21916.51
587.768	21884.65
588.127	21982.5
588.487	22056.17
588.846	22131.65
589.206	22081.93
589.565	22050.3
589.925	22239.44
590.284	22113.8
590.643	22280.8
591.003	22260.91
591.362	22497.74
591.721	22428.59
592.08	22326.9
592.44	22495.93
592.799	22541.81
593.158	22485.76
593.517	22584.75
593.876	22682.82
594.235	22609.83
594.593	22739.09
594.952	22640.56
595.311	22640.79
595.67	22862.93
596.029	22862.25
596.387	22811.86
596.746	22818.86
597.104	22935.7
597.463	23040.55
597.822	23025.86
598.18	23030.84
598.538	22949.71
598.897	23084.62
599.255	23049.82
599.613	23233.99
599.972	23102.92
600.33	23219.08
600.688	23325.06
601.046	23300.66
601.404	23446.64
601.762	23375.46
602.12	23511.27
602.478	23510.37
602.836	23591.72
603.194	23568.67
603.552	23510.6
603.91	23441.67
604.268	23659.07
604.625	23615.68
604.983	23844.83
605.341	23707.65
605.698	23916.46
606.056	23916.24
606.413	23883.92
606.771	23947.65
607.128	24091.82
607.485	23814.77
607.843	24093.41
608.2	24205.95
608.557	24184.25
608.914	24202.78
609.272	24359.61
609.629	24449.1
609.986	24562.32
610.343	24399.16
610.7	24542.66
611.057	24541.53
611.414	24459.95
611.771	24676.22
612.127	24677.57
612.484	24727.06
612.841	24845.7
613.198	24774.07
613.554	24756.89
613.911	24934.29
614.267	24980.84
614.624	24960.95
614.98	25014.06
615.337	25187.84
615.693	25170.89
616.05	25099.93
616.406	25232.81
616.762	25185.13
617.118	25170.67
617.475	25195.98
617.831	25456.99
618.187	25454.73
618.543	25453.14
618.899	25623.99
619.255	25519.81
619.611	25551.45
619.967	25717.54
620.323	25812.46
620.678	25573.37
621.034	25673.93
621.39	25609.07
621.746	25754.15
622.101	26010.64
622.457	25648.17
622.812	25819.46
623.168	25956.63
623.523	25879.12
623.879	25982.4
624.234	25863.75
624.589	25889.52
624.945	25917.09
625.3	26018.78
625.655	26043.19
626.01	25989.85
626.365	26040.25
626.72	26102.84
627.075	26088.16
627.43	26123.64
627.785	26018.1
628.14	26149.85
628.495	26081.15
628.85	26088.38
629.205	26083.64
629.559	26310.07
629.914	26127.48
630.269	26074.82
630.623	26061.26
630.978	25962.74
631.332	26132
631.687	26326.12
632.041	26168.83
632.396	26282.95
632.75	26048.16
633.104	26227.81
633.459	26063.3
633.813	26068.72
634.167	26085.22
634.521	26172.22
634.875	26207.7
635.229	26100.58
635.583	25993.92
635.937	26117.76
636.291	25915.51
636.645	26029.63
636.999	25995.73
637.352	26032.79
637.706	25933.81
638.06	26097.42
638.413	26056.74
638.767	25955.05
639.121	25922.51
639.474	25813.81
639.828	25860.82
640.181	25962.96
640.534	26009.06
640.888	25919.35
641.241	25849.97
641.594	25755.74
641.947	25913.92
642.301	25838.67
642.654	25861.04
643.007	25887.03
643.36	25857.88
643.713	25838.22
644.066	25888.16
644.419	25715.28
644.771	25551.22
645.124	25351.23
645.477	25297.22
645.83	25173.38
646.182	25123.66
646.535	25048.18
646.888	25242.53
647.24	25001.4
647.593	25221.06
647.945	25155.98
648.298	25092.48
648.65	24917.34
649.002	24888.64
649.355	24967.96
649.707	25041.86
650.059	25108.75
650.411	25351.45
650.763	25496.76
651.115	25720.03
651.467	25687.94
651.819	25635.51
652.171	25652.24
652.523	25590.09
652.875	25553.93
653.227	25524.55
653.578	25674.61
653.93	25558.68
654.282	25510.09
654.633	25404.33
654.985	25664.44
655.337	25573.59
655.688	25628.28
656.039	25688.84
656.391	25415.18
656.742	25455.63
657.094	25527.04
657.445	25655.4
657.796	25565.23
658.147	25482.75
658.498	25507.15
658.849	25664.44
659.2	25507.61
659.551	25565.23
659.902	25544.89
660.253	25523.88
660.604	25513.03
660.955	25447.95
661.306	25662.86
661.656	25569.07
662.007	25612.69
662.358	25525.91
662.708	25584.67
663.059	25552.8
663.409	25477.78
663.76	25578.79
664.11	25526.59
664.461	25694.49
664.811	25690.43
665.161	25630.99
665.511	25607.49
665.862	25601.84
666.212	25601.84
666.562	25710.54
666.912	25697.66
667.262	25520.71
667.612	25621.5
667.962	25626.25
668.312	25524.33
668.662	25798.22
669.011	25705.12
669.361	25596.87
669.711	25554.61
670.06	25609.52
670.41	25561.84
670.76	25496.31
671.109	25696.53
671.459	25471.67
671.808	25629.86
672.157	25670.77
672.507	25506.48
672.856	25579.24
673.205	25594.38
673.554	25697.66
673.904	25626.93
674.253	25693.59
674.602	25599.13
674.951	25251.34
675.3	25251.12
675.649	25510.54
675.998	25515.97
676.346	25534.5
676.695	25705.57
677.044	25376.54
677.393	25496.08
677.741	25454.27
678.09	25507.15
678.438	25465.8
678.787	25382.86
679.135	25406.82
679.484	25304.22
679.832	25410.21
680.181	25293.6
680.529	25345.58
680.877	25178.8
681.225	25275.07
681.573	25453.37
681.922	25255.41
682.27	25103.77
682.618	25212.25
682.966	25153.94
683.314	25166.15
683.661	25033.49
684.009	25016.55
684.357	24988.75
684.705	24967.51
685.053	24993.04
685.4	25064.91
685.748	24745.82
686.095	24838.47
686.443	24811.81
686.79	24863.78
687.138	24766.38
687.485	24869.43
687.832	24807.51
688.18	24693.62
688.527	24564.58
688.874	24562.77
689.221	24556.22
689.568	24493.4
689.915	24406.84
690.262	24449.55
690.609	24299.95
690.956	24297.47
691.303	24362.78
691.65	24231.48
691.997	24336.11
692.344	24107.64
692.69	24077.81
693.037	23971.83
693.383	23893.64
693.73	23996.91
694.077	23873.52
694.423	23987.87
694.769	23859.74
695.116	23868.33
695.462	23813.64
695.808	23619.07
696.155	23620.2
696.501	23516.7
696.847	23562.57
697.193	23357.15
697.539	23511.95
697.885	23235.8
698.231	23305.86
698.577	23410.71
698.923	23201.9
699.269	23137.05
699.614	22993.77
699.96	23152.87
700.306	22986.32
700.651	22900.9
700.997	23011.4
701.342	22951.06
701.688	22882.14
702.033	22862.25
702.379	22836.04
702.724	22722.59
703.069	22787.23
703.415	22586.1
703.76	22496.84
704.105	22636.95
704.45	22517.18
704.795	22302.49
705.14	22197.86
705.485	22256.39
705.83	22146.34
706.175	22218.43
706.52	22110.41
706.865	22185.21
707.209	22038.32
707.554	21970.52
707.899	22014.36
708.243	21892.79
708.588	21888.04
708.932	21785.44
709.277	21921.71
709.621	21805.33
709.966	21692.57
710.31	21723.98
710.654	21554.94
710.998	21593.36
711.342	21556.07
711.687	21620.7
712.031	21451.67
712.375	21408.96
712.719	21475.62
713.063	21483.53
713.407	21531.21
713.75	21393.36
714.094	21383.65
714.438	21233.59
714.782	21347.72
715.125	21186.82
715.469	21269.75
715.812	21065.01
716.156	21149.3
716.499	21163.31
716.843	20978.69
717.186	20986.37
717.53	21015.07
717.873	21176.87
718.216	20945.69
718.559	20876.32
718.902	20809.42
719.246	20933.26
719.589	20787.28
719.932	20675.19
720.275	20808.75
720.617	20670.67
720.96	20659.37
721.303	20709.31
721.646	20737.79
721.989	20608.75
722.331	20633.84
722.674	20630.45
723.016	20609.43
723.359	20662.54
723.701	20589.54
724.044	20475.42
724.386	20433.62
724.729	20475.42
725.071	20401.98
725.413	20409.44
725.755	20423.67
726.097	20314.3
726.439	20234.3
726.782	20371.02
727.124	20436.33
727.465	20175.99
727.807	20290.12
728.149	20163.34
728.491	20284.01
728.833	20266.39
729.175	20165.83
729.516	20100.97
729.858	20138.03
730.199	20185.71
730.541	20133.74
730.882	20119.73
731.224	20155.88
731.565	20017.58
731.906	20018.94
732.248	20154.53
732.589	19972.84
732.93	20029.33
733.271	19911.82
733.612	20044.92
733.953	20077.69
734.294	19910.92
734.635	19917.02
734.976	19992.5
735.317	19812.61
735.658	19843.8
735.999	19994.3
736.339	19825.04
736.68	19829.11
737.021	19755.22
737.361	19800.41
737.702	19796.8
738.042	19736.01
738.383	19739.62
738.723	19755.67
739.063	19672.05
739.404	19694.2
739.744	19658.49
740.084	19717.25
740.424	19620.08
740.764	19578.95
741.104	19753.63
741.444	19592.96
741.784	19571.27
742.124	19609.68
742.464	19590.47
742.804	19548.44
743.143	19535.56
743.483	19509.35
743.823	19490.14
744.162	19519.52
744.502	19476.8
744.841	19444.04
745.181	19640.64
745.52	19429.57
745.86	19416.01
746.199	19387.77
746.538	19381.21
746.877	19422.79
747.216	19421.21
747.556	19398.61
747.895	19494.88
748.234	19312.29
748.573	19336.02
748.911	19273.87
749.25	19376.02
749.589	19288.11
749.928	19284.94
750.267	19351.38
750.605	19279.3
750.944	19169.69
751.283	19134.21
751.621	19255.57
751.96	19077.27
752.298	19131.95
752.636	19119.3
752.975	19123.59
753.313	19074.55
753.651	19131.73
753.989	18985.07
754.327	18982.35
754.666	18912.3
755.004	18990.72
755.342	19026.87
755.679	19003.6
756.017	18863.71
756.355	18935.35
756.693	18764.96
757.031	18856.71
757.368	18820.78
757.706	18818.97
758.044	18738.97
758.381	18759.99
758.719	18795.92
759.056	18811.29
759.394	18747.56
759.731	18649.26
760.068	18574.46
760.405	18487.68
760.743	18507.79
761.08	18542.37
761.417	18381.92
761.754	18437.74
762.091	18343.95
762.428	18286.1
762.765	18258.08
763.102	18267.34
763.438	18171.98
763.775	18068.71
764.112	18172.88
764.449	18123.85
764.785	18124.75
765.122	17990.97
765.458	17871.65
765.795	17891.54
766.131	17905.32
766.467	17810.86
766.804	17796.17
767.14	17731.09
767.476	17759.79
767.812	17600.7
768.148	17608.38
768.485	17559.11
768.821	17485.44
769.157	17448.83
769.492	17447.93
769.828	17439.8
770.164	17310.31
770.5	17272.34
770.836	17236.64
771.171	17183.53
771.507	17167.71
771.842	16876.87
772.178	16954.38
772.513	16966.36
772.849	16919.58
773.184	16842.3
773.519	16923.43
773.855	16688.85
774.19	16556.2
774.525	16660.83
774.86	16647.5
775.195	16520.72
775.53	16574.06
775.865	16417.9
776.2	16330.22
776.535	16230.79
776.87	16184.24
777.205	16189.66
777.539	16122.54
777.874	16283.89
778.209	16069.21
778.543	16106.72
778.878	15923.23
779.212	15985.82
779.547	15825.37
779.881	15906.05
780.215	15723.46
780.55	15787.86
780.884	15711.03
781.218	15628.09
781.552	15629.67
781.886	15562.33
782.22	15476.23
782.554	15521.88
782.888	15221.1
783.222	15260.42
783.556	15244.83
783.889	15191.49
784.223	15117.14
784.557	15047.99
784.89	15012.06
785.224	14994.44
785.557	14953.31
785.891	14958.5
786.224	14856.36
786.558	14811.39
786.891	14744.5
787.224	14692.3
787.557	14653.65
787.891	14632.19
788.224	14536.6
788.557	14580.21
788.89	14454.11
789.223	14498.4
789.556	14319.88
789.888	14387.45
790.221	14284.62
790.554	14255.47
790.887	14276.04
791.219	14145.65
791.552	14161.24
791.884	14027.23
792.217	13982.71
792.549	13989.72
792.882	13890.28
793.214	13813.9
793.546	13860.45
793.879	13714.7
794.211	13725.77
794.543	13711.98
794.875	13672.21
795.207	13820.68
795.539	13681.48
795.871	13667.92
796.203	13540.69
796.535	13414.36
796.867	13429.05
797.198	13331.2
797.53	13429.51
797.862	13281.49
798.193	13365.55
798.525	13233.13
798.856	13218.21
799.188	13144.54
799.519	13083.53
799.85	13013.02
800.182	13006.92
800.513	13098.89
800.844	12971.21
801.175	12963.3
801.506	12995.62
801.837	12937.09
802.168	12877.2
802.499	12788.17
802.83	12797.43
803.161	12722.41
803.491	12723.76
803.822	12694.61
804.153	12678.11
804.483	12672.24
804.814	12553.37
805.145	12561.96
805.475	12539.59
805.805	12479.25
806.136	12445.58
806.466	12478.57
806.796	12439.7
807.126	12351.12
807.457	12366.26
807.787	12305.47
808.117	12302.53
808.447	12161.06
808.777	12221.63
809.107	12187.28
809.436	12146.15
809.766	12116.09
810.096	12067.28
810.426	11978.92
810.755	12045.81
811.085	12059.37
811.414	12044.68
811.744	11839.04
812.073	11914.29
812.403	11890.56
812.732	11819.83
813.061	11825.48
813.39	11721.3
813.719	11684.01
814.049	11829.77
814.378	11700.29
814.707	11722.21
815.036	11719.72
815.365	11652.6
815.693	11534.41
816.022	11590.68
816.351	11480.18
816.68	11482.44
817.008	11470.46
817.337	11404.47
817.665	11438.6
817.994	11403.12
818.322	11363.35
818.651	11318.15
818.979	11307.75
819.307	11424.59
819.636	11302.1
819.964	11211.48
820.292	11340.3
820.62	11230.92
820.948	11239.05
821.276	11217.36
821.604	11218.72
821.932	11254.87
822.259	11239.96
822.587	11277.92
822.915	11198.83
823.243	11280.64
823.57	11219.17
823.898	11182.33
824.225	11192.28
824.553	11207.42
824.88	11228.43
825.207	11219.85
825.535	11163.35
825.862	11200.19
826.189	11176.46
826.516	11270.24
826.843	11255.78
827.17	11268.21
827.497	11239.51
827.824	11193.41
828.151	11222.11
828.478	11246.06
828.805	11223.46
829.131	11169.68
829.458	11154.76
829.785	11151.15
830.111	11210.35
830.438	11276.79
830.764	11203.12
831.09	11292.39
831.417	11127.42
831.743	11169.68
832.069	11174.65
832.395	11218.49
832.722	11251.26
833.048	11188.89
833.374	11130.81
833.7	11130.58
834.026	11110.92
834.351	11136.23
834.677	11152.5
835.003	11129.45
835.329	11161.54
835.654	11059.17
835.98	11087.19
836.306	11035.9
836.631	11047.2
836.956	11026.86
837.282	11039.51
837.607	11048.1
837.932	10992.51
838.258	11067.76
838.583	10976.01
838.908	10962.23
839.233	10896.46
839.558	10885.62
839.883	10943.47
840.208	10823.7
840.533	10840.65
840.858	10791.38
841.182	10905.05
841.507	10882.23
841.832	10736.02
842.156	10741.21
842.481	10719.07
842.805	10726.98
843.13	10706.64
843.454	10661.67
843.778	10659.18
844.103	10668.67
844.427	10558.17
844.751	10592.97
845.075	10592.52
845.399	10524.05
845.723	10480.66
846.047	10560.88
846.371	10404.05
846.695	10471.39
847.019	10346.87
847.343	10282.02
847.666	10202.7
847.99	10148.91
848.313	10206.09
848.637	10126.09
848.96	10160.67
849.284	10150.72
849.607	10042.93
849.931	9999.54
850.254	9925.64
850.577	9854.91
850.9	9863.5
851.223	9874.34
851.546	9752.77
851.869	9729.94
852.192	9779.21
852.515	9724.97
852.838	9694.69
853.161	9619.89
853.483	9619.66
853.806	9627.35
854.129	9625.09
854.451	9502.38
854.774	9485.88
855.096	9477.97
855.419	9491.08
855.741	9444.75
856.063	9357.75
856.385	9341.7
856.708	9298.99
857.03	9307.81
857.352	9258.77
857.674	9288.15
857.996	9181.93
858.318	9236.4
858.64	9176.51
858.961	9098.55
859.283	9133.35
859.605	9084.54
859.926	9111.88
860.248	9056.51
860.57	9030.07
860.891	9010.64
861.212	8943.07
861.534	8990.07
861.855	8959.57
862.176	9007.25
862.498	8967.7
862.819	8974.93
863.14	8867.82
863.461	8801.15
863.782	8849.97
864.103	8880.25
864.424	8815.62
864.745	8798.21
865.065	8760.02
865.386	8753.24
865.707	8776.07
866.027	8803.41
866.348	8762.51
866.668	8729.29
866.989	8721.15
867.309	8663.53
867.63	8733.36
867.95	8710.53
868.27	8640.03
868.59	8646.13
868.91	8645.9
869.23	8618.33
869.55	8623.98
869.87	8555.06
870.19	8593.25
870.51	8591.44
870.83	8623.98
871.15	8549.41
871.469	8533.82
871.789	8496.53
872.109	8572.68
872.428	8474.16
872.748	8583.53
873.067	8475.51
873.386	8486.13
873.706	8483.42
874.025	8399.58
874.344	8414.5
874.663	8421.28
874.982	8430.09
875.301	8353.03
875.62	8338.11
875.939	8384.67
876.258	8375.18
876.577	8330.43
876.896	8340.83
877.214	8344.67
877.533	8300.6
877.852	8299.02
878.17	8230.09
878.489	8259.7
878.807	8245.46
879.125	8230.32
879.444	8196.2
879.762	8158.01
880.08	8225.12
880.398	8153.03
880.716	8197.33
881.034	8143.77
881.352	8102.41
881.67	8087.05
881.988	8123.2
882.306	8074.17
882.624	8059.7
882.941	8054.96
883.259	7993.26
883.577	7919.59
883.894	7972.93
884.212	8003.89
884.529	7942.19
884.846	7903.55
885.164	7890.89
885.481	7940.61
885.798	7924.79
886.115	7820.39
886.432	7888.18
886.75	7876.88
887.067	7843.89
887.383	7837.11
887.7	7777.68
888.017	7757.34
888.334	7788.98
888.651	7785.81
888.967	7765.25
889.284	7664.91
889.6	7652.71
889.917	7638.47
890.233	7663.33
890.55	7611.35
890.866	7617.91
891.182	7553.28
891.498	7589.21
891.815	7461.53
892.131	7481.19
892.447	7474.63
892.763	7434.64
893.079	7387.18
893.395	7419.72
893.71	7383.11
894.026	7369.55
894.342	7353.28
894.657	7313.28
894.973	7328.2
895.289	7302.89
895.604	7271.02
895.92	7235.54
896.235	7249.56
896.55	7173.62
896.865	7188.54
897.181	7147.86
897.496	7184.02
897.811	7100.86
898.126	7071.03
898.441	7100.63
898.756	6997.13
899.071	7023.12
899.386	6999.17
899.7	6886.17
900.015	6873.29
900.33	6888.89
900.644	6873.29
900.959	6921.65
901.273	6865.16
901.588	6809.79
901.902	6745.16
902.216	6726.63
902.531	6787.19
902.845	6769.34
903.159	6667.2
903.473	6647.99
903.787	6654.99
904.101	6629.68
904.415	6660.42
904.729	6603.02
905.042	6616.58
905.356	6538.16
905.67	6546.75
905.984	6529.35
906.297	6464.04
906.611	6433.76
906.924	6459.52
907.237	6461.1
907.551	6348.34
907.864	6405.96
908.177	6358.28
908.491	6347.88
908.804	6320.31
909.117	6285.96
909.43	6222.92
909.743	6173.88
910.056	6205.06
910.368	6166.42
910.681	6163.26
910.994	6081.45
911.307	6050.94
911.619	6043.03
911.932	6085.97
912.244	6000.77
912.557	5995.35
912.869	5993.77
913.181	5984.28
913.494	5929.59
913.806	5901.79
914.118	5896.37
914.43	5826.54
914.742	5880.1
915.054	5786.09
915.366	5817.05
915.678	5738.63
915.99	5777.73
916.302	5711.97
916.613	5687.34
916.925	5706.77
917.236	5657.51
917.548	5619.77
917.859	5631.97
918.171	5608.92
918.482	5600.11
918.794	5519.21
919.105	5578.41
919.416	5495.93
919.727	5486.66
920.038	5503.16
920.349	5438.08
920.66	5383.84
920.971	5350.85
921.282	5399.43
921.593	5354.24
921.903	5348.81
922.214	5301.81
922.525	5271.98
922.835	5283.05
923.146	5222.04
923.456	5194.92
923.767	5204.64
924.077	5158.31
924.387	5178.65
924.697	5161.93
925.008	5141.14
925.318	5102.72
925.628	5098.65
925.938	5101.82
926.248	5034.47
926.558	5027.47
926.867	5029.05
927.177	4958.32
927.487	4985.66
927.796	4928.94
928.106	4928.71
928.416	4901.14
928.725	4930.52
929.034	4909.96
929.344	4834.48
929.653	4874.02
929.962	4819.34
930.271	4761.03
930.581	4739.79
930.89	4697.53
931.199	4710.19
931.508	4732.56
931.817	4735.95
932.125	4659.57
932.434	4641.94
932.743	4612.56
933.051	4609.4
933.36	4574.37
933.669	4560.13
933.977	4530.98
934.286	4483.53
934.594	4504.32
934.902	4467.26
935.21	4477.42
935.519	4468.16
935.827	4394.04
936.135	4432.45
936.443	4415.96
936.751	4399.46
937.059	4356.98
937.367	4361.27
937.674	4333.93
937.982	4324.89
938.29	4302.51
938.597	4273.14
938.905	4203.99
939.213	4206.92
939.52	4195.85
939.827	4222.52
940.135	4157.66
940.442	4156.08
940.749	4182.97
941.056	4121.28
941.363	4109.3
941.67	4074.27
941.977	4072.69
942.284	4043.99
942.591	4033.59
942.898	4037.44
943.205	4018
943.511	4002.86
943.818	4001.96
944.125	3943.65
944.431	3897.1
944.738	3895.75
945.044	3880.83
945.35	3901.85
945.657	3887.84
945.963	3884.22
946.269	3879.47
946.575	3885.35
946.881	3840.15
947.187	3814.39
947.493	3796.99
947.799	3811
948.105	3761.74
948.41	3743.21
948.716	3734.17
949.022	3670.89
949.327	3679.25
949.633	3690.55
949.938	3670.44
950.244	3670.67
950.549	3643.77
950.854	3652.36
951.16	3612.81
951.465	3612.81
951.77	3575.3
952.075	3526.26
952.38	3549.31
952.685	3502.76
952.99	3485.13
953.294	3508.18
953.599	3468.86
953.904	3458.69
954.209	3415.53
954.513	3434.51
954.818	3440.39
955.122	3415.31
955.426	3400.84
955.731	3395.87
956.035	3362.65
956.339	3372.59
956.643	3326.27
956.948	3268.42
957.252	3268.19
957.556	3297.34
957.86	3267.96
958.163	3283.11
958.467	3207.18
958.771	3241.98
959.075	3228.87
959.378	3226.16
959.682	3207.85
959.985	3190.23
960.289	3183.9
960.592	3172.83
960.896	3186.16
961.199	3160.85
961.502	3148.87
961.805	3116.33
962.108	3120.4
962.411	3091.92
962.714	3067.97
963.017	3064.81
963.32	3068.2
963.623	3000.18
963.926	3049.67
964.228	2986.84
964.531	2994.07
964.833	2979.16
965.136	2960.85
965.438	2953.62
965.741	2938.48
966.043	2969.67
966.345	2943.23
966.648	2921.53
966.95	2907.07
967.252	2883.12
967.554	2888.77
967.856	2853.06
968.158	2859.39
968.46	2862.78
968.761	2798.6
969.063	2816.45
969.365	2815.1
969.666	2778.94
969.968	2786.4
970.269	2771.71
970.571	2743.46
970.872	2727.41
971.174	2723.12
971.475	2719.28
971.776	2743.91
972.077	2671.14
972.378	2708.88
972.679	2696.45
972.98	2695.32
973.281	2663.01
973.582	2655.33
973.883	2641.99
974.183	2606.97
974.484	2609.23
974.785	2606.06
975.085	2609.68
975.386	2625.5
975.686	2564.71
975.986	2550.92
976.287	2590.24
976.587	2517.93
976.887	2535.33
977.187	2523.35
977.487	2527.42
977.787	2486.29
978.087	2465.5
978.387	2471.38
978.687	2467.53
978.987	2444.03
979.286	2450.81
979.586	2451.94
979.885	2428.44
980.185	2424.6
980.484	2410.13
980.784	2388.44
981.083	2405.16
981.382	2352.96
981.682	2369.91
981.981	2316.13
982.28	2370.59
982.579	2318.39
982.878	2330.14
983.177	2330.36
983.475	2288.33
983.774	2254.21
984.073	2267.77
984.372	2249.91
984.67	2244.71
984.969	2237.48
985.267	2247.2
985.566	2224.15
985.864	2189.8
986.162	2187.99
986.461	2189.35
986.759	2209.91
987.057	2189.35
987.355	2195.22
987.653	2159.75
987.951	2161.78
988.249	2127.2
988.547	2149.8
988.844	2124.04
989.142	2120.42
989.44	2129.92
989.737	2124.94
990.035	2083.14
990.332	2107.77
990.63	2065.06
990.927	2030.03
991.224	2037.71
991.521	2051.27
991.819	2047.66
992.116	2004.04
992.413	2027.09
992.71	2027.77
993.006	1971.28
993.303	1974.21
993.6	1993.42
993.897	1990.26
994.193	1987.09
994.49	1941.45
994.787	1941.67
995.083	1936.93
995.379	1940.32
995.676	1912.07
995.972	1924.72
996.268	1891.28
996.565	1899.64
996.861	1894.44
997.157	1887.89
997.453	1872.52
997.749	1862.35
998.044	1857.15
998.34	1831.62
998.636	1831.39
998.932	1824.16
999.227	1811.73
999.523	1811.51
999.818	1795.01
1000.114	1800.88
1000.409	1793.65
1000.704	1781.68
1001	1740.77
1001.295	1727.89
1001.59	1745.29
1001.885	1748.68
1002.18	1758.63
1002.475	1731.28
1002.77	1702.58
1003.065	1701.68
1003.359	1701
1003.654	1667.78
1003.949	1695.12
1004.243	1657.61
1004.538	1656.71
1004.832	1674.56
1005.127	1661.45
1005.421	1621
1005.715	1625.07
1006.009	1623.26
1006.304	1598.18
1006.598	1606.54
1006.892	1608.12
1007.186	1576.48
1007.48	1580.78
1007.773	1562.93
1008.067	1547.56
1008.361	1604.96
1008.655	1524.73
1008.948	1550.04
1009.242	1527.9
1009.535	1522.47
1009.829	1506.66
1010.122	1504.85
1010.415	1501.46
1010.708	1464.17
1011.001	1483.83
1011.295	1461.68
1011.588	1444.51
1011.881	1432.98
1012.173	1429.6
1012.466	1432.31
1012.759	1427.34
1013.052	1420.33
1013.344	1410.61
1013.637	1413.1
1013.93	1369.26
1014.222	1397.28
1014.514	1409.03
1014.807	1350.95
1015.099	1347.34
1015.391	1355.02
1015.683	1339.2
1015.976	1336.26
1016.268	1355.25
1016.56	1333.1
1016.851	1306.66
1017.143	1321.35
1017.435	1320.22
1017.727	1288.81
1018.018	1313.89
1018.31	1291.29
1018.602	1254.46
1018.893	1270.73
1019.185	1252.88
1019.476	1264.63
1019.767	1245.42
1020.058	1213.1
1020.35	1217.85
1020.641	1213.1
1020.932	1200.22
1021.223	1201.8
1021.514	1201.35
1021.804	1181.01
1022.095	1195.7
1022.386	1185.53
1022.677	1186.89
1022.967	1169.72
1023.258	1168.81
1023.548	1144.18
1023.839	1135.82
1024.129	1143.95
1024.419	1104.63
1024.709	1097.17
1025	1128.81
1025.29	1101.47
1025.58	1109.38
1025.87	1068.47
1026.16	1100.34
1026.449	1104.86
1026.739	1067.12
1027.029	1065.31
1027.319	1072.09
1027.608	1069.83
1027.898	1057.4
1028.187	1059.44
1028.477	1034.58
1028.766	1037.52
1029.055	1034.35
1029.344	1037.74
1029.634	1025.31
1029.923	969.95
1030.212	995.03
1030.501	987.8
1030.79	989.83
1031.078	981.25
1031.367	974.47
1031.656	976.95
1031.945	938.99
1032.233	926.56
1032.522	960
1032.81	940.34
1033.099	941.25
1033.387	938.31
1033.675	938.31
1033.963	906.9
1034.251	908.48
1034.54	903.73
1034.828	915.94
1035.116	876.62
1035.403	887.24
1035.691	880.23
1035.979	877.52
1036.267	869.61
1036.554	872.77
1036.842	877.97
1037.129	843.17
1037.417	837.07
1037.704	861.93
1037.992	846.56
1038.279	828.93
1038.566	834.13
1038.853	834.13
1039.14	834.13
