Data from cardboard_FLMS001491_013.txt Node
Date: Tue Feb 07 11:39:00 GMT 2017
User: dcchb
Spectrometer: FLMS00149
Trigger mode: 0
Integration Time (sec): 2.000000E-2
Scans to average: 10
Electric dark correction enabled: true
Nonlinearity correction enabled: false
Boxcar width: 0
XAxis mode: Wavelengths
Number of Pixels in Spectrum: 2048
>>>>>Begin Spectral Data<<<<<
341.393	-19.15
341.776	-19.15
342.16	-19.15
342.543	-42.65
342.927	-55.08
343.31	-75.2
343.693	-71.35
344.077	-55.08
344.46	-69.55
344.843	-52.82
345.226	-44.46
345.61	-37.23
345.993	-16.67
346.376	13.16
346.759	-0.62
347.142	18.59
347.525	52.26
347.908	61.3
348.291	76.89
348.674	105.36
349.057	95.42
349.44	119.6
349.823	143.1
350.206	153.27
350.588	186.94
350.971	186.72
351.354	229.65
351.737	228.07
352.119	229.43
352.502	257.22
352.884	261.07
353.267	276.21
353.65	284.57
354.032	290.44
354.414	312.82
354.797	321.18
355.179	324.12
355.562	318.69
355.944	320.73
356.326	309.65
356.709	340.84
357.091	339.71
357.473	337
357.855	326.15
358.238	327.51
358.62	316.88
359.002	331.8
359.384	342.87
359.766	335.87
360.148	335.87
360.53	331.12
360.912	345.81
361.294	319.6
361.676	333.38
362.057	324.79
362.439	328.18
362.821	331.35
363.203	332.7
363.584	309.43
363.966	321.86
364.348	309.65
364.729	324.12
365.111	305.13
365.493	312.82
365.874	318.47
366.256	285.92
366.637	301.07
367.019	310.33
367.4	301.74
367.781	311.46
368.163	299.26
368.544	306.04
368.925	301.07
369.306	308.75
369.688	298.81
370.069	304.23
370.45	279.15
370.831	301.52
371.212	308.97
371.593	303.55
371.974	305.81
372.355	307.85
372.736	313.27
373.117	310.33
373.498	311.91
373.879	315.98
374.26	325.7
374.641	308.97
375.021	303.78
375.402	321.4
375.783	306.49
376.163	318.24
376.544	313.95
376.925	318.01
377.305	312.82
377.686	335.87
378.066	324.12
378.447	351.69
378.827	327.51
379.208	320.95
379.588	324.34
379.968	335.87
380.349	331.57
380.729	319.82
381.109	333.38
381.489	332.25
381.87	315.08
382.25	319.14
382.63	343.1
383.01	345.13
383.39	327.73
383.77	337
384.15	330.22
384.53	337.67
384.91	339.26
385.29	358.69
385.67	335.87
386.049	345.58
386.429	351.46
386.809	365.7
387.189	357.34
387.568	353.04
387.948	339.71
388.328	352.82
388.707	334.74
389.087	334.96
389.466	375.87
389.846	358.24
390.225	374.06
390.605	366.37
390.984	358.01
391.363	368.18
391.743	373.83
392.122	380.84
392.501	368.86
392.881	350.33
393.26	364.79
393.639	392.81
394.018	374.74
394.397	377.9
394.776	365.7
395.155	384.68
395.534	383.78
395.913	369.54
396.292	394.4
396.671	369.76
397.05	394.85
397.429	382.65
397.808	384.68
398.186	388.75
398.565	393.49
398.944	389.2
399.323	395.3
399.701	384.23
400.08	400.72
400.458	407.96
400.837	420.16
401.215	418.58
401.594	407.05
401.972	403.66
402.351	409.54
402.729	402.31
403.107	406.37
403.486	400.5
403.864	438.01
404.242	428.75
404.62	410.67
404.999	442.98
405.377	443.89
405.755	429.42
406.133	442.98
406.511	425.58
406.889	440.27
407.267	428.97
407.645	439.14
408.023	440.95
408.401	447.73
408.779	447.95
409.156	453.6
409.534	455.86
409.912	462.87
410.29	475.3
410.667	482.3
411.045	474.85
411.422	491.79
411.8	453.83
412.178	480.04
412.555	482.98
412.933	488.41
413.31	482.76
413.687	514.17
414.065	505.58
414.442	527.5
414.819	520.04
415.197	510.78
415.574	507.16
415.951	514.39
416.328	522.3
416.705	517.33
417.082	512.36
417.46	535.64
417.837	527.5
418.214	513.94
418.591	545.58
418.967	558.01
419.344	551.23
419.721	556.2
420.098	566.37
420.475	553.04
420.852	558.01
421.228	557.56
421.605	555.52
421.982	561.85
422.358	595.75
422.735	582.19
423.111	562.75
423.488	595.97
423.864	587.16
424.241	606.37
424.617	579.25
424.994	592.81
425.37	600.04
425.746	607.27
426.123	612.24
426.499	635.29
426.875	622.86
427.251	618.12
427.627	642.98
428.003	623.54
428.379	661.51
428.756	646.37
429.132	661.28
429.507	652.02
429.883	668.29
430.259	675.52
430.635	688.17
431.011	683.88
431.387	689.76
431.763	687.27
432.138	700.6
432.514	719.36
432.89	706.48
433.265	729.75
433.641	729.08
434.016	746.25
434.392	748.51
434.767	773.82
435.143	760.04
435.518	755.74
435.894	767.04
436.269	783.54
436.644	776.53
437.02	791.67
437.395	775.4
437.77	794.16
438.145	814.72
438.52	810.2
438.895	829.87
439.271	842.75
439.646	817.44
440.021	848.4
440.395	842.52
440.77	828.28
441.145	805.23
441.52	863.99
441.895	859.47
442.27	865.57
442.645	870.32
443.019	878.23
443.394	873.93
443.769	877.77
444.143	889.52
444.518	901.73
444.892	907.15
445.267	895.17
445.641	916.64
446.016	915.29
446.39	920.26
446.764	917.09
447.139	916.64
447.513	938.34
447.887	945.12
448.262	946.02
448.636	958
449.01	953.7
449.384	959.81
449.758	966.58
450.132	983.08
450.506	981.05
450.88	1000.26
451.254	1013.14
451.628	1013.14
452.002	1019.92
452.376	1022.85
452.75	1028.96
453.123	1045
453.497	1067.83
453.871	1047.26
454.244	1085.68
454.618	1069.18
454.992	1080.71
455.365	1116.41
455.739	1137.65
456.112	1129.52
456.486	1150.76
456.859	1103.08
457.232	1151.66
457.606	1132
457.979	1153.92
458.352	1175.62
458.725	1214.49
459.099	1231.89
459.472	1232.79
459.845	1237.99
460.218	1266.24
460.591	1276.18
460.964	1276.41
461.337	1315.95
461.71	1301.94
462.083	1318.21
462.456	1312.11
462.829	1345.56
463.201	1369.51
463.574	1371.77
463.947	1398.21
464.32	1420.58
464.692	1437.76
465.065	1405.9
465.438	1468.94
465.81	1455.16
466.183	1499.45
466.555	1507.36
466.928	1504.42
467.3	1557.76
467.672	1541.94
468.045	1543.52
468.417	1550.3
468.789	1581.94
469.161	1617.19
469.534	1629.39
469.906	1680.46
470.278	1664.42
470.65	1680.24
471.022	1718.66
471.394	1758.88
471.766	1760.01
472.138	1753
472.51	1799.33
472.882	1842.72
473.253	1858.99
473.625	1898.76
473.997	1927.46
474.369	1895.6
474.74	1975.6
475.112	1993.68
475.484	2032.55
475.855	2040.45
476.227	2053.56
476.598	2120.9
476.97	2138.53
477.341	2165.88
477.713	2175.82
478.084	2229.15
478.455	2309.37
478.827	2287.23
479.198	2330.62
479.569	2394.12
479.94	2389.82
480.311	2459.2
480.682	2511.85
481.053	2532.87
481.424	2581.01
481.795	2609.71
482.166	2671.85
482.537	2691.96
482.908	2738.52
483.279	2744.17
483.65	2829.36
484.021	2828.23
484.391	2933.54
484.762	2959.75
485.133	2938.28
485.503	3053.31
485.874	3064.61
486.244	3110.71
486.615	3178.05
486.985	3218.73
487.356	3289.69
487.726	3286.52
488.097	3353.64
488.467	3392.74
488.837	3444.71
489.207	3482.22
489.578	3495.78
489.948	3574.43
490.318	3653.97
490.688	3647.19
491.058	3690.81
491.428	3804.25
491.798	3781.2
492.168	3906.62
492.538	3921.31
492.908	3987.52
493.278	4011.93
493.648	4051.02
494.017	4129.67
494.387	4124.47
494.757	4182.55
495.126	4220.96
495.496	4268.42
495.866	4272.49
496.235	4350.45
496.605	4401.3
496.974	4416.21
497.344	4513.61
497.713	4525.14
498.082	4552.25
498.452	4598.81
498.821	4637.22
499.19	4675.87
499.559	4707.96
499.928	4758.58
500.298	4782.08
500.667	4837.44
501.036	4879.25
501.405	4921.96
501.774	4918.35
502.143	5044.67
502.512	5047.16
502.88	5075.63
503.249	5140.71
503.618	5178
503.987	5194.04
504.356	5267.49
504.724	5329.18
505.093	5365.79
505.462	5340.48
505.83	5420.03
506.199	5473.81
506.567	5522.85
506.936	5554.26
507.304	5596.52
507.672	5657.53
508.041	5747.02
508.409	5782.5
508.777	5799.45
509.145	5949.73
509.514	5908.83
509.882	5961.93
510.25	6061.37
510.618	6126.9
510.986	6139.1
511.354	6193.11
511.722	6260.46
512.09	6302.26
512.458	6368.48
512.826	6424.97
513.193	6424.75
513.561	6483.73
513.929	6534.57
514.297	6674.68
514.664	6696.6
515.032	6686.89
515.4	6856.15
515.767	6905.64
516.135	6951.96
516.502	6882.36
516.869	7047.55
517.237	7097.05
517.604	7087.55
517.972	7223.6
518.339	7322.8
518.706	7301.79
519.073	7417.26
519.44	7424.27
519.808	7506.98
520.175	7579.07
520.542	7687.54
520.909	7755.78
521.276	7753.98
521.643	7943.8
522.009	7900.64
522.376	8017.92
522.743	8085.72
523.11	8154.42
523.477	8287.97
523.843	8318.26
524.21	8465.14
524.577	8537.69
524.943	8580.17
525.31	8599.6
525.676	8763.67
526.043	8812.25
526.409	8837.11
526.776	8992.81
527.142	9035.53
527.508	9158.91
527.874	9224.67
528.241	9304.22
528.607	9381.73
528.973	9445.46
529.339	9441.16
529.705	9640.48
530.071	9738.78
530.437	9732.23
530.803	9859.23
531.169	9944.43
531.535	9946.24
531.901	9973.35
532.267	9955.27
532.632	10211.54
532.998	10216.96
533.364	10313.68
533.73	10378.99
534.095	10489.05
534.461	10569.5
534.826	10638.42
535.192	10625.77
535.557	10869.38
535.923	10750.96
536.288	10887.23
536.653	10935.81
537.019	10913.44
537.384	11036.6
537.749	11066.21
538.114	11189.37
538.479	11199.76
538.845	11251.74
539.21	11286.99
539.575	11408.8
539.94	11501.9
540.305	11585.29
540.67	11586.64
541.034	11652.18
541.399	11726.75
541.764	11835.45
542.129	11885.85
542.494	12026.41
542.858	12024.15
543.223	11972.4
543.587	12178.04
543.952	12208.1
544.316	12295.55
544.681	12303.91
545.045	12336.23
545.41	12441.99
545.774	12506.62
546.138	12564.02
546.503	12688.99
546.867	12677.01
547.231	12795.2
547.595	12865.03
547.959	12901.64
548.324	12929.89
548.688	12968.08
549.052	13042.2
549.416	13107.06
549.779	13173.72
550.143	13269.76
550.507	13411.23
550.871	13439.48
551.235	13464.34
551.599	13626.14
551.962	13643.54
552.326	13753.82
552.689	13868.84
553.053	13723.31
553.417	13803.54
553.78	14111.55
554.143	14044.88
554.507	14215.05
554.87	14219.8
555.234	14441.03
555.597	14330.3
555.96	14391.09
556.323	14446.23
556.686	14540.24
557.05	14660.91
557.413	14749.5
557.776	14793.79
558.139	14865.43
558.502	14989.94
558.865	15092.99
559.228	15229.26
559.59	15278.52
559.953	15355.36
560.316	15444.85
560.679	15573.43
561.041	15704.28
561.404	15754.22
561.767	15889.81
562.129	15880.99
562.492	15981.33
562.854	16073.08
563.217	16060.43
563.579	16251.83
563.941	16259.52
564.304	16440.98
564.666	16606.85
565.028	16661.31
565.39	16658.15
565.753	16896.34
566.115	16869.44
566.477	16986.28
566.839	17094.75
567.201	17286.38
567.563	17202.99
567.925	17475.98
568.287	17529.99
568.648	17535.19
569.01	17611.8
569.372	17861.96
569.734	17722.53
570.095	17905.57
570.457	17976.31
570.819	18063.99
571.18	18116.64
571.542	18254.27
571.903	18212.68
572.265	18267.6
572.626	18340.14
572.987	18569.51
573.349	18617.19
573.71	18760.47
574.071	18804.31
574.432	18849.28
574.794	19047.24
575.155	19052.44
575.516	19022.61
575.877	19094.92
576.238	19137.18
576.599	19268.25
576.96	19394.12
577.32	19336.72
577.681	19446.55
578.042	19588.69
578.403	19525.42
578.763	19677.96
579.124	19754.57
579.485	19774.9
579.845	19924.5
580.206	19848.12
580.566	19891.96
580.927	19828.91
581.287	20047.66
581.648	20029.81
582.008	20209.47
582.368	20240.2
582.728	20200.88
583.089	20175.8
583.449	20294.89
583.809	20377.6
584.169	20320.2
584.529	20383.48
584.889	20570.82
585.249	20411.05
585.609	20486.07
585.969	20635.22
586.329	20510.93
586.688	20688.33
587.048	20657.14
587.408	20712.28
587.768	20680.87
588.127	20686.97
588.487	20756.57
588.846	20836.34
589.206	20820.07
589.565	20758.38
589.925	21001.99
590.284	20930.58
590.643	21088.09
591.003	21067.75
591.362	21132.16
591.721	20976.68
592.08	21186.17
592.44	21254.64
592.799	21236.79
593.158	21236.11
593.517	21333.28
593.876	21363.34
594.235	21376.67
594.593	21460.96
594.952	21535.99
595.311	21436.1
595.67	21403.11
596.029	21584.57
596.387	21542.54
596.746	21621.18
597.104	21544.12
597.463	21637.91
597.822	21789.99
598.18	21582.54
598.538	21739.82
598.897	21876.77
599.255	21772.59
599.613	22094.16
599.972	21913.15
600.33	21904.57
600.688	21808.07
601.046	22023.21
601.404	22102.07
601.762	22096.2
602.12	22260.71
602.478	22219.81
602.836	22247.61
603.194	22187.72
603.552	22263.88
603.91	22255.06
604.268	22305.68
604.625	22352.69
604.983	22370.32
605.341	22200.15
605.698	22543.42
606.056	22561.27
606.413	22601.27
606.771	22711.32
607.128	22689.86
607.485	22549.52
607.843	22593.59
608.2	22783.64
608.557	22871.77
608.914	22829.51
609.272	22918.78
609.629	23010.3
609.986	23128.71
610.343	23016.63
610.7	23195.83
611.057	23079.9
611.414	23270.63
611.771	23058.66
612.127	23210.29
612.484	23266.11
612.841	23499.55
613.198	23306.79
613.554	23465.65
613.911	23493.45
614.267	23496.16
614.624	23589.72
614.98	23535.48
615.337	23729.83
615.693	23669.26
616.05	23704.07
616.406	23791.07
616.762	23808.7
617.118	23693.9
617.475	23797.62
617.831	23897.28
618.187	23894.8
618.543	23988.8
618.899	24104.28
619.255	24090.72
619.611	23966.21
619.967	24080.55
620.323	24104.73
620.678	24044.4
621.034	24164.17
621.39	24154.68
621.746	24092.76
622.101	24488.9
622.457	24244.62
622.812	24196.03
623.168	24308.57
623.523	24347.89
623.879	24568.45
624.234	24405.52
624.589	24446.19
624.945	24388.34
625.3	24546.08
625.655	24539.98
626.01	24447.55
626.365	24428.34
626.72	24470.37
627.075	24509.02
627.43	24478.51
627.785	24557.38
628.14	24541.33
628.495	24555.34
628.85	24538.62
629.205	24524.84
629.559	24656.58
629.914	24523.03
630.269	24657.49
630.623	24557.83
630.978	24535.46
631.332	24710.14
631.687	24666.53
632.041	24513.54
632.396	24531.61
632.75	24456.14
633.104	24541.78
633.459	24558.73
633.813	24495.68
634.167	24407.78
634.521	24459.53
634.875	24619.07
635.229	24561.67
635.583	24514.89
635.937	24425.4
636.291	24556.25
636.645	24507.66
636.999	24470.15
637.352	24429.7
637.706	24334.56
638.06	24401.45
638.413	24327.33
638.767	24466.53
639.121	24446.65
639.474	24237.84
639.828	24344.5
640.181	24335.69
640.534	24354.9
640.888	24302.02
641.241	24229.02
641.594	24240.55
641.947	24453.88
642.301	24292.98
642.654	24305.41
643.007	24202.58
643.36	24308.8
643.713	24216.14
644.066	24313.54
644.419	24203.71
644.771	24095.69
645.124	23810.96
645.477	23809.6
645.83	23692.09
646.182	23582.49
646.535	23538.42
646.888	23601.24
647.24	23468.82
647.593	23590.85
647.945	23548.14
648.298	23523.51
648.65	23452.1
649.002	23504.98
649.355	23496.39
649.707	23539.32
650.059	23681.92
650.411	23859.99
650.763	23935.25
651.115	24187.44
651.467	24142.47
651.819	24072.87
652.171	23994.23
652.523	24026.32
652.875	24104.28
653.227	23985.87
653.578	24071.74
653.93	24099.54
654.282	24029.26
654.633	23765.76
654.985	23975.7
655.337	24036.03
655.688	24064.28
656.039	24163.49
656.391	24034.68
656.742	24041.68
657.094	24061.8
657.445	24101.57
657.796	24095.02
658.147	23958.07
658.498	23939.77
658.849	24135.69
659.2	23993.55
659.551	23911.07
659.902	24189.48
660.253	24088.91
660.604	24085.07
660.955	23953.1
661.306	24103.6
661.656	23991.06
662.007	24081.23
662.358	24119.65
662.708	24038.75
663.059	24111.96
663.409	23944.96
663.76	24101.34
664.11	24115.58
664.461	24093.89
664.811	24174.79
665.161	24097.5
665.511	24102.47
665.862	24054.79
666.212	24252.07
666.562	24236.71
666.912	24247.78
667.262	24156.48
667.612	24182.47
667.962	24137.27
668.312	24080.78
668.662	24313.99
669.011	24224.73
669.361	24160.33
669.711	24136.15
670.06	24128.91
670.41	24127.56
670.76	24144.51
671.109	24117.61
671.459	24095.02
671.808	24070.38
672.157	24185.41
672.507	24056.6
672.856	24084.85
673.205	24044.17
673.554	24108.12
673.904	24027.9
674.253	24198.29
674.602	24110.16
674.951	23704.97
675.3	23638.76
675.649	24007.33
675.998	24071.51
676.346	24140.44
676.695	24128.46
677.044	23879.2
677.393	24151.06
677.741	24094.34
678.09	24009.14
678.438	23856.38
678.787	23989.48
679.135	23997.62
679.484	23932.99
679.832	24009.82
680.181	23860.22
680.529	23901.8
680.877	23863.61
681.225	23889.6
681.573	23942.93
681.922	23815.48
682.27	23852.76
682.618	23832.88
682.966	23792.43
683.314	23686.89
683.661	23741.81
684.009	23513.11
684.357	23584.07
684.705	23538.19
685.053	23568.02
685.4	23544.07
685.748	23381.36
686.095	23399.67
686.443	23379.33
686.79	23396.28
687.138	23338.43
687.485	23267.24
687.832	23350.4
688.18	23333.68
688.527	23143.63
688.874	23231.08
689.221	23169.62
689.568	23105.21
689.915	23033.8
690.262	23004.42
690.609	23104.99
690.956	22902.51
691.303	22940.24
691.65	22834.71
691.997	22862.51
692.344	22773.47
692.69	22644.66
693.037	22770.76
693.383	22515.62
693.73	22585.45
694.077	22537.09
694.423	22453.7
694.769	22537.54
695.116	22326.25
695.462	22396.08
695.808	22378.9
696.155	22406.47
696.501	22220.49
696.847	22176.2
697.193	22077.22
697.539	22166.03
697.885	22077.89
698.231	21924.68
698.577	21975.3
698.923	21905.47
699.269	21880.16
699.614	21810.33
699.96	21687.62
700.306	21666.61
700.651	21580.51
700.997	21589.77
701.342	21495.54
701.688	21541.64
702.033	21433.17
702.379	21544.8
702.724	21472.71
703.069	21413.05
703.415	21155.66
703.76	21175.77
704.105	21154.08
704.45	21128.77
704.795	21069.11
705.14	20960.64
705.485	20942.1
705.83	20903.69
706.175	20897.59
706.52	20834.99
706.865	20793.86
707.209	20797.25
707.554	20696.91
707.899	20726.52
708.243	20646.52
708.588	20609.01
708.932	20546.63
709.277	20534.21
709.621	20449.91
709.966	20494.88
710.31	20371.27
710.654	20204.95
710.998	20281.11
711.342	20266.19
711.687	20265.74
712.031	20204.95
712.375	20165.4
712.719	20148.68
713.063	20186.64
713.407	20258.05
713.75	20111.84
714.094	20135.57
714.438	20088.12
714.782	20091.28
715.125	20107.32
715.469	19995.46
715.812	19948.23
716.156	19749.82
716.499	19896.93
716.843	19757.96
717.186	19757.28
717.53	19903.94
717.873	19866.43
718.216	19731.06
718.559	19674.57
718.902	19601.57
719.246	19702.82
719.589	19638.64
719.932	19508.7
720.275	19543.05
720.617	19483.61
720.96	19477.06
721.303	19489.04
721.646	19519.09
721.989	19366.33
722.331	19416.72
722.674	19498.98
723.016	19408.81
723.359	19393.22
723.701	19358.64
724.044	19268.7
724.386	19217.18
724.729	19350.73
725.071	19240
725.413	19213.56
725.755	19260.57
726.097	19090.85
726.439	19051.31
726.782	19095.83
727.124	19268.02
727.465	19099.89
727.807	19102.61
728.149	18983.51
728.491	19042.27
728.833	19071.42
729.175	18958.43
729.516	18991.65
729.858	18983.06
730.199	19052.89
730.541	18910.29
730.882	18933.34
731.224	18855.38
731.565	18815.38
731.906	18868.94
732.248	18863.06
732.589	18884.31
732.93	18702.39
733.271	18812.9
733.612	18798.21
733.953	18821.71
734.294	18708.04
734.635	18759.79
734.976	18750.52
735.317	18741.71
735.658	18684.08
735.999	18708.94
736.339	18635.95
736.68	18770.41
737.021	18654.93
737.361	18595.5
737.702	18720.47
738.042	18598.44
738.383	18569.96
738.723	18634.14
739.063	18553.69
739.404	18496.07
739.744	18494.49
740.084	18553.47
740.424	18501.49
740.764	18371.55
741.104	18610.41
741.444	18560.47
741.784	18479.12
742.124	18492.23
742.464	18433.7
742.804	18499.68
743.143	18383.08
743.483	18373.36
743.823	18344.88
744.162	18412.23
744.502	18388.05
744.841	18291.78
745.181	18384.43
745.52	18384.66
745.86	18365.45
746.199	18388.27
746.538	18269.41
746.877	18435.5
747.216	18282.06
747.556	18324.32
747.895	18303.3
748.234	18213.81
748.573	18240.93
748.911	18216.75
749.25	18249.97
749.589	18124.1
749.928	18173.36
750.267	18203.19
750.605	18148.96
750.944	18140.82
751.283	18176.08
751.621	18148.05
751.96	18084.78
752.298	18103.76
752.636	18106.02
752.975	17981.73
753.313	17968.4
753.651	18044.55
753.989	17949.87
754.327	17915.07
754.666	17823.77
755.004	17910.77
755.342	17946.93
755.679	17859.02
756.017	17859.7
756.355	17936.53
756.693	17824.22
757.031	17837.1
757.368	17823.32
757.706	17707.84
758.044	17690.89
758.381	17721.17
758.719	17637.56
759.056	17677.78
759.394	17625.81
759.731	17515.53
760.068	17439.6
760.405	17474.85
760.743	17425.81
761.08	17426.94
761.417	17338.58
761.754	17381.75
762.091	17306.49
762.428	17292.48
762.765	17161.87
763.102	17374.06
763.438	17149.89
763.775	17134.07
764.112	17084.35
764.449	17051.36
764.785	17047.52
765.122	16965.26
765.458	16956.22
765.795	16941.53
766.131	16774.08
766.467	16721.42
766.804	16683.46
767.14	16638.72
767.476	16693.4
767.812	16563.69
768.148	16701.31
768.485	16560.53
768.821	16489.79
769.157	16367.31
769.492	16436.46
769.828	16413.18
770.164	16275.11
770.5	16290.48
770.836	16280.53
771.171	16169.8
771.507	16155.56
771.842	16018.17
772.178	16046.87
772.513	15861.56
772.849	15989.47
773.184	15851.62
773.519	15869.47
773.855	15695.69
774.19	15655.69
774.525	15657.72
774.86	15681.45
775.195	15637.16
775.53	15697.5
775.865	15530.04
776.2	15410.95
776.535	15288.24
776.87	15243.27
777.205	15309.26
777.539	15266.55
777.874	15303.61
778.209	15108.59
778.543	15063.62
778.878	14994.24
779.212	15011.87
779.547	14827.24
779.881	14918.76
780.215	14834.69
780.55	14822.72
780.884	14705.43
781.218	14771.65
781.552	14653.46
781.886	14681.48
782.22	14571.2
782.554	14523.52
782.888	14451.65
783.222	14376.63
783.556	14320.36
783.889	14306.35
784.223	14295.5
784.557	14281.71
784.89	14254.6
785.224	14127.37
785.557	14100.48
785.891	14070.65
786.224	13984.55
786.558	13935.51
786.891	13894.38
787.224	13775.06
787.557	13855.51
787.891	13733.93
788.224	13712.24
788.557	13787.49
788.89	13733.71
789.223	13607.83
789.556	13588.63
789.888	13593.15
790.221	13457.1
790.554	13379.82
790.887	13368.52
791.219	13395.64
791.552	13295.75
791.884	13217.11
792.217	13241.97
792.549	13219.14
792.882	13154.96
793.214	13147.28
793.546	13087.62
793.879	13022.54
794.211	12888.31
794.543	12990.22
794.875	12977.34
795.207	12884.69
795.539	12900.96
795.871	12835.2
796.203	12748.42
796.535	12703.45
796.867	12712.04
797.198	12672.72
797.53	12666.62
797.862	12614.41
798.193	12688.99
798.525	12604.02
798.856	12524.47
799.188	12447.64
799.519	12349.56
799.85	12322.22
800.182	12394.53
800.513	12328.09
800.844	12235.67
801.175	12287.19
801.506	12267.76
801.837	12127.87
802.168	12190.92
802.499	12156.12
802.83	12009.91
803.161	12001.32
803.491	12002.23
803.822	11990.25
804.153	11976.01
804.483	11822.34
804.814	11814.66
805.145	11885.39
805.475	11879.52
805.805	11713.87
806.136	11820.31
806.466	11749.35
806.796	11681.56
807.126	11681.33
807.457	11672.74
807.787	11608.11
808.117	11550.26
808.447	11491.05
808.777	11593.2
809.107	11501
809.436	11439.76
809.766	11487.21
810.096	11371.51
810.426	11393.43
810.755	11370.83
811.085	11321.11
811.414	11320.44
811.744	11166.32
812.073	11307.1
812.403	11212.64
812.732	11223.94
813.061	11210.61
813.39	11115.7
813.719	11104.4
814.049	11159.76
814.378	11039.99
814.707	11122.25
815.036	11101.46
815.365	11040.22
815.693	10910.96
816.022	10931.29
816.351	10895.14
816.68	10836.16
817.008	10807.68
817.337	10826.21
817.665	10775.59
817.994	10725.88
818.322	10829.38
818.651	10712.77
818.979	10712.32
819.307	10717.06
819.636	10662.15
819.964	10631.87
820.292	10652.66
820.62	10617.86
820.948	10621.02
821.276	10650.85
821.604	10643.62
821.932	10590.74
822.259	10693.56
822.587	10621.02
822.915	10576.28
823.243	10684.75
823.57	10567.91
823.898	10637.74
824.225	10610.62
824.553	10579.89
824.88	10600.91
825.207	10619.89
825.535	10571.53
825.862	10540.8
826.189	10637.06
826.516	10611.53
826.843	10737.4
827.17	10694.46
827.497	10646.78
827.824	10678.65
828.151	10664.63
828.478	10647.91
828.805	10674.13
829.131	10620.79
829.458	10584.86
829.785	10528.59
830.111	10571.08
830.438	10688.81
830.764	10543.28
831.09	10600
831.417	10554.36
831.743	10635.94
832.069	10604.3
832.395	10588.48
832.722	10631.87
833.048	10504.19
833.374	10550.29
833.7	10552.77
834.026	10474.81
834.351	10581.47
834.677	10499.22
835.003	10534.02
835.329	10611.75
835.654	10526.56
835.98	10485.2
836.306	10542.6
836.631	10448.82
836.956	10512.32
837.282	10501.48
837.607	10410.63
837.932	10384.64
838.258	10420.57
838.583	10450.18
838.908	10322.04
839.233	10322.72
839.558	10391.87
839.883	10270.07
840.208	10274.81
840.533	10301.03
840.858	10340.58
841.182	10284.98
841.507	10307.58
841.832	10221.03
842.156	10261.03
842.481	10222.61
842.805	10130.64
843.13	10130.86
843.454	10146.68
843.778	10112.78
844.103	10064.42
844.427	10053.58
844.751	9986.46
845.075	9955.73
845.399	9977.65
845.723	9863.07
846.047	9951.66
846.371	9931.77
846.695	9897.65
847.019	9798.22
847.343	9796.41
847.666	9692.46
847.99	9664.89
848.313	9705.34
848.637	9628.05
848.96	9591.44
849.284	9621.5
849.607	9546.02
849.931	9503.08
850.254	9405.01
850.577	9364.33
850.9	9364.56
851.223	9322.75
851.546	9237.78
851.869	9204.11
852.192	9216.76
852.515	9187.16
852.838	9135.18
853.161	9096.77
853.483	9090.66
853.806	9017.45
854.129	9083.89
854.451	8959.59
854.774	9005.92
855.096	8942.19
855.419	8908.97
855.741	8875.53
856.063	8824.91
856.385	8859.26
856.708	8820.39
857.03	8792.82
857.352	8826.94
857.674	8751.46
857.996	8646.83
858.318	8690
858.64	8718.92
858.961	8688.64
859.283	8668.53
859.605	8616.33
859.926	8636.89
860.248	8546.95
860.57	8598.93
860.891	8557.35
861.212	8504.92
861.534	8421.53
861.855	8526.61
862.176	8479.61
862.498	8512.38
862.819	8457.46
863.14	8414.52
863.461	8454.52
863.782	8382.21
864.103	8445.94
864.424	8352.61
864.745	8400.51
865.065	8339.72
865.386	8323
865.707	8309.44
866.027	8332.72
866.348	8306.96
866.668	8322.1
866.989	8281.19
867.309	8218.6
867.63	8207.98
867.95	8214.08
868.27	8209.11
868.59	8241.42
868.91	8169.79
869.23	8202.33
869.55	8175.21
869.87	8136.34
870.19	8134.53
870.51	8164.36
870.83	8156
871.15	8096.79
871.469	8059.28
871.789	8158.26
872.109	8063.12
872.428	8019.96
872.748	8039.39
873.067	8105.83
873.386	8054.76
873.706	8019.73
874.025	7956.01
874.344	7999.62
874.663	7974.76
874.982	7944.93
875.301	7926.18
875.62	7923.01
875.939	7906.74
876.258	7931.6
876.577	7906.97
876.896	7937.02
877.214	7907.19
877.533	7821.32
877.852	7892.96
878.17	7874.43
878.489	7866.74
878.807	7794.2
879.125	7813.41
879.444	7772.51
879.762	7772.06
880.08	7743.81
880.398	7749.01
880.716	7744.26
881.034	7675.56
881.352	7726.86
881.67	7724.83
881.988	7747.88
882.306	7631.72
882.624	7605.05
882.941	7648.89
883.259	7653.64
883.577	7599.63
883.894	7596.24
884.212	7615.22
884.529	7483.02
884.846	7507.88
885.164	7507.43
885.481	7508.33
885.798	7511.5
886.115	7473.76
886.432	7411.16
886.75	7405.96
887.067	7444.38
887.383	7398.73
887.7	7358.28
888.017	7368
888.334	7400.54
888.651	7331.39
888.967	7297.94
889.284	7300.88
889.6	7316.02
889.917	7247.78
890.233	7266.53
890.55	7192.64
890.866	7239.87
891.182	7232.86
891.498	7215.69
891.815	7128.68
892.131	7124.61
892.447	7070.61
892.763	7057.95
893.079	7061.79
893.395	7019.98
893.71	7028.8
894.026	7044.39
894.342	7054.11
894.657	7001.68
894.973	6959.42
895.289	6974.34
895.604	6937.5
895.92	6883.49
896.235	6819.09
896.55	6835.13
896.865	6817.5
897.181	6768.69
897.496	6809.37
897.811	6748.58
898.126	6702.03
898.441	6710.84
898.756	6716.26
899.071	6627.9
899.386	6656.6
899.7	6688.47
900.015	6557.62
900.33	6537.74
900.644	6551.52
900.959	6599.88
901.273	6487.34
901.588	6484.41
901.902	6455.48
902.216	6391.53
902.531	6394.92
902.845	6385.43
903.159	6342.71
903.473	6338.19
903.787	6299.55
904.101	6313.34
904.415	6324.86
904.729	6321.02
905.042	6226.56
905.356	6204.19
905.67	6217.97
905.984	6176.62
906.297	6177.52
906.611	6125.32
906.924	6118.09
907.237	6071.76
907.551	6086.22
907.864	6032.67
908.177	6028.6
908.491	6020.46
908.804	5967.13
909.117	5938.88
909.43	5945.21
909.743	5973.23
910.056	5917.64
910.368	5865.89
910.681	5870.64
910.994	5820.92
911.307	5788.15
911.619	5702.73
911.932	5781.15
912.244	5682.62
912.557	5772.56
912.869	5716.29
913.181	5663.64
913.494	5691.21
913.806	5637.2
914.118	5643.75
914.43	5558.55
914.742	5550.19
915.054	5508.39
915.366	5512.45
915.678	5438.11
915.99	5444.66
916.302	5386.81
916.613	5374.15
916.925	5405.11
917.236	5372.8
917.548	5354.04
917.859	5330.99
918.171	5328.73
918.482	5324.89
918.794	5295.28
919.105	5260.26
919.416	5215.06
919.727	5241.73
920.038	5187.26
920.349	5224.78
920.66	5117.21
920.971	5134.38
921.282	5107.94
921.593	5075.86
921.903	5043.77
922.214	5016.87
922.525	5026.37
922.835	5066.14
923.146	4976.65
923.456	4988.63
923.767	4943.43
924.077	4908.85
924.387	4908.18
924.697	4930.55
925.008	4913.15
925.318	4890.1
925.628	4879.93
925.938	4826.37
926.248	4800.38
926.558	4767.61
926.867	4757.22
927.177	4770.33
927.487	4744.11
927.796	4686.94
928.106	4679.48
928.416	4625.25
928.725	4644.23
929.034	4585.92
929.344	4600.39
929.653	4599.48
929.962	4539.6
930.271	4557.9
930.581	4545.7
930.89	4515.64
931.199	4468.19
931.508	4438.58
931.817	4466.61
932.125	4469.09
932.434	4433.84
932.743	4409.43
933.051	4380.28
933.36	4364.91
933.669	4280.17
933.977	4314.29
934.286	4304.58
934.594	4306.61
934.902	4264.8
935.21	4227.74
935.519	4218.48
935.827	4216.44
936.135	4221.87
936.443	4191.13
936.751	4193.62
937.059	4151.81
937.367	4135.99
937.674	4114.75
937.982	4146.61
938.29	4072.27
938.597	4085.6
938.905	4041.98
939.213	4058.93
939.52	3976.22
939.827	4003.79
940.135	3976.22
940.442	3949.78
940.749	3969.22
941.056	3921.08
941.363	3917.47
941.67	3931.93
941.977	3873.85
942.284	3846.74
942.591	3900.97
942.898	3844.48
943.205	3818.94
943.511	3802.22
943.818	3789.79
944.125	3768.54
944.431	3749.79
944.738	3761.54
945.044	3732.39
945.35	3738.49
945.657	3728.55
945.963	3688.77
946.269	3680.41
946.575	3687.42
946.881	3602.67
947.187	3623.24
947.493	3622.79
947.799	3600.41
948.105	3591.6
948.41	3580.75
948.716	3572.62
949.022	3595.22
949.327	3509.79
949.633	3495.11
949.938	3488.55
950.244	3501.21
950.549	3488.78
950.854	3474.09
951.16	3448.1
951.465	3411.27
951.77	3403.36
952.075	3359.97
952.38	3375.33
952.685	3392.74
952.99	3341.66
953.294	3356.35
953.599	3313.19
953.904	3311.83
954.209	3300.76
954.513	3288.11
954.818	3279.97
955.122	3277.71
955.426	3253.08
955.731	3219.41
956.035	3227.09
956.339	3200.2
956.643	3183.7
956.948	3156.58
957.252	3166.53
957.556	3130.82
957.86	3146.87
958.163	3112.97
958.467	3150.48
958.771	3100.99
959.075	3073.2
959.378	3067.32
959.682	3108
959.985	3064.38
960.289	3033.65
960.592	3033.65
960.896	3012.86
961.199	2983.25
961.502	2982.8
961.805	2995.23
962.108	2960.2
962.411	2945.52
962.714	2951.39
963.017	2929.25
963.32	2916.14
963.623	2886.76
963.926	2882.01
964.228	2863.26
964.531	2876.14
964.833	2880.66
965.136	2844.5
965.438	2820.1
965.741	2790.94
966.043	2793.66
966.345	2784.84
966.648	2811.96
966.95	2761.79
967.252	2768.57
967.554	2742.13
967.856	2745.52
968.158	2741.45
968.46	2728.57
968.761	2722.24
969.063	2714.79
969.365	2710.49
969.666	2684.05
969.968	2652.19
970.269	2662.13
970.571	2652.87
970.872	2630.95
971.174	2623.49
971.475	2603.83
971.776	2599.54
972.077	2554.57
972.378	2572.42
972.679	2581.91
972.98	2577.16
973.281	2518.63
973.582	2516.83
973.883	2506.21
974.183	2511.85
974.484	2513.89
974.785	2438.86
975.085	2447.45
975.386	2470.27
975.686	2440.22
975.986	2429.82
976.287	2460.78
976.587	2410.16
976.887	2426.66
977.187	2441.12
977.487	2424.4
977.787	2363.16
978.087	2402.48
978.387	2353.67
978.687	2384.4
978.987	2372.65
979.286	2336.72
979.586	2328.13
979.885	2312.76
980.185	2295.59
980.484	2303.27
980.784	2259.88
981.083	2253.78
981.382	2259.43
981.682	2232.54
981.981	2240.68
982.28	2244.52
982.579	2231.86
982.878	2240
983.177	2204.07
983.475	2221.02
983.774	2217.17
984.073	2201.35
984.372	2200.9
984.67	2193.67
984.969	2147.57
985.267	2139.66
985.566	2165.88
985.864	2167.46
986.162	2098.76
986.461	2120.45
986.759	2105.76
987.057	2082.71
987.355	2072.77
987.653	2047.69
987.951	2082.71
988.249	2070.28
988.547	2067.8
988.844	2047.01
989.142	2034.58
989.44	2021.02
989.737	2023.28
990.035	1982.38
990.332	2014.24
990.63	1981.47
990.927	1963.62
991.224	2005.43
991.521	1969.72
991.819	1937.41
992.116	1949.16
992.413	1924.98
992.71	1922.94
993.006	1943.73
993.303	1903.96
993.6	1914.36
993.897	1894.47
994.193	1880.01
994.49	1841.36
994.787	1867.8
995.083	1880.46
995.379	1841.36
995.676	1827.81
995.972	1824.42
996.268	1861.02
996.565	1807.24
996.861	1824.64
997.157	1808.6
997.453	1797.75
997.749	1801.82
998.044	1778.99
998.34	1795.26
998.636	1779.67
998.932	1752.33
999.227	1721.14
999.523	1757.75
999.818	1729.5
1000.114	1735.6
1000.409	1727.47
1000.704	1682.27
1001	1730.41
1001.295	1670.97
1001.59	1680.46
1001.885	1673.23
1002.18	1656.28
1002.475	1647.47
1002.77	1649.96
1003.065	1639.11
1003.359	1633.23
1003.654	1624.87
1003.949	1616.29
1004.243	1612.44
1004.538	1620.58
1004.832	1586.68
1005.127	1578.77
1005.421	1564.31
1005.715	1559.79
1006.009	1574.93
1006.304	1566.79
1006.598	1544.87
1006.892	1513.24
1007.186	1510.3
1007.48	1547.36
1007.773	1503.75
1008.067	1505.55
1008.361	1496.29
1008.655	1473.69
1008.948	1491.99
1009.242	1465.55
1009.535	1461.26
1009.829	1469.62
1010.122	1452
1010.415	1413.58
1010.708	1427.82
1011.001	1423.07
1011.295	1392.79
1011.588	1428.95
1011.881	1410.87
1012.173	1381.04
1012.466	1390.98
1012.759	1364.77
1013.052	1333.81
1013.344	1353.47
1013.637	1366.8
1013.93	1336.29
1014.222	1327.93
1014.514	1343.52
1014.807	1310.3
1015.099	1295.62
1015.391	1286.8
1015.683	1297.2
1015.976	1295.62
1016.268	1267.59
1016.56	1256.07
1016.851	1284.77
1017.143	1260.81
1017.435	1247.48
1017.727	1253.81
1018.018	1222.85
1018.31	1223.98
1018.602	1205.9
1018.893	1235.28
1019.185	1204.09
1019.476	1171.33
1019.767	1194.15
1020.058	1198.44
1020.35	1179.46
1020.641	1173.13
1020.932	1169.97
1021.223	1183.53
1021.514	1161.83
1021.804	1165
1022.095	1148.95
1022.386	1131.78
1022.677	1095.39
1022.967	1108.73
1023.258	1120.03
1023.548	1107.37
1023.839	1122.29
1024.129	1095.39
1024.419	1084.32
1024.709	1082.97
1025	1063.98
1025.29	1067.37
1025.58	1062.18
1025.87	1053.36
1026.16	1031.89
1026.449	1050.65
1026.739	1023.31
1027.029	1024.89
1027.319	1028.28
1027.608	1000.71
1027.898	1012.91
1028.187	1013.36
1028.477	1005.91
1028.766	998.22
1029.055	988.96
1029.344	981.73
1029.634	955.06
1029.923	961.16
1030.212	957.32
1030.501	954.83
1030.79	936.98
1031.078	933.82
1031.367	941.27
1031.656	944.44
1031.945	928.39
1032.233	920.48
1032.522	921.39
1032.81	925.46
1033.099	902.86
1033.387	910.54
1033.675	916.87
1033.963	901.28
1034.251	901.05
1034.54	855.63
1034.828	870.77
1035.116	855.85
1035.403	843.42
1035.691	851.33
1035.979	848.62
1036.267	878
1036.554	845.23
1036.842	826.93
1037.129	851.79
1037.417	831.22
1037.704	821.73
1037.992	808.4
1038.279	826.25
1038.566	804.1
1038.853	804.1
1039.14	804.1
