Data from cardboard_FLMS001491_039.txt Node
Date: Tue Feb 07 11:39:22 GMT 2017
User: dcchb
Spectrometer: FLMS00149
Trigger mode: 0
Integration Time (sec): 2.000000E-2
Scans to average: 10
Electric dark correction enabled: true
Nonlinearity correction enabled: false
Boxcar width: 0
XAxis mode: Wavelengths
Number of Pixels in Spectrum: 2048
>>>>>Begin Spectral Data<<<<<
341.393	-8.14
341.776	-8.14
342.16	-8.14
342.543	-69.83
342.927	-58.3
343.31	-74.35
343.693	-63.05
344.077	-60.79
344.46	-53.33
344.843	-58.53
345.226	-32.77
345.61	-41.13
345.993	-19.21
346.376	-15.14
346.759	26.44
347.142	28.7
347.525	47
347.908	50.39
348.291	84.97
348.674	87.91
349.057	92.88
349.44	108.02
349.823	126.32
350.206	164.97
350.588	187.57
350.971	211.52
351.354	203.61
351.737	242.48
352.119	235.25
352.502	239.99
352.884	284.29
353.267	282.7
353.65	275.47
354.032	299.43
354.414	311.63
354.797	302.59
355.179	306.88
355.562	308.01
355.944	329.93
356.326	331.06
356.709	320.44
357.091	327.67
357.473	346.43
357.855	331.97
358.238	331.06
358.62	338.97
359.002	333.78
359.384	346.66
359.766	334
360.148	327.68
360.53	341.23
360.912	331.74
361.294	325.87
361.676	322.03
362.057	329.03
362.439	319.54
362.821	329.26
363.203	328.8
363.584	324.06
363.966	308.01
364.348	310.95
364.729	330.39
365.111	313.21
365.493	309.37
365.874	314.79
366.256	320.44
366.637	304.62
367.019	332.19
367.4	301.24
367.781	304.62
368.163	312.08
368.544	291.97
368.925	280.44
369.306	305.75
369.688	313.89
370.069	306.43
370.45	299.88
370.831	305.75
371.212	299.43
371.593	313.21
371.974	282.7
372.355	321.57
372.736	317.73
373.117	317.96
373.498	287.45
373.879	315.92
374.26	315.47
374.641	307.56
375.021	313.66
375.402	301.46
375.783	316.38
376.163	312.53
376.544	321.35
376.925	334
377.305	324.06
377.686	322.48
378.066	344.4
378.447	336.71
378.827	327.9
379.208	312.99
379.588	327.22
379.968	317.28
380.349	313.44
380.729	306.21
381.109	324.74
381.489	330.61
381.87	335.81
382.25	343.72
382.63	322.7
383.01	327.68
383.39	336.04
383.77	330.61
384.15	337.17
384.53	330.39
384.91	357.28
385.29	352.76
385.67	367
386.049	336.26
386.429	354.11
386.809	331.06
387.189	344.17
387.568	358.41
387.948	343.27
388.328	352.99
388.707	351.4
389.087	342.59
389.466	334.45
389.846	352.76
390.225	339.88
390.605	334.23
390.984	354.79
391.363	353.66
391.743	360.89
392.122	370.16
392.501	355.92
392.881	375.13
393.26	376.26
393.639	355.24
394.018	363.61
394.397	379.65
394.776	369.48
395.155	367.9
395.534	371.06
395.913	379.65
396.292	389.82
396.671	381.46
397.05	368.35
397.429	381.01
397.808	390.27
398.186	383.94
398.565	379.88
398.944	380.1
399.323	390.5
399.701	392.31
400.08	383.04
400.458	407.45
400.837	414.23
401.215	403.61
401.594	412.64
401.972	398.18
402.351	392.76
402.729	409.48
403.107	400.89
403.486	406.77
403.864	417.84
404.242	411.74
404.62	388.24
404.999	427.79
405.377	416.94
405.755	411.29
406.133	427.56
406.511	412.64
406.889	422.14
407.267	416.71
407.645	428.92
408.023	439.31
408.401	454.23
408.779	445.19
409.156	447.45
409.534	450.16
409.912	457.39
410.29	446.99
410.667	443.6
411.045	463.94
411.422	446.32
411.8	467.11
412.178	464.62
412.555	484.73
412.933	445.41
413.31	476.6
413.687	459.2
414.065	472.53
414.442	475.47
414.819	478.18
415.197	486.99
415.574	506.88
415.951	510.95
416.328	498.74
416.705	505.52
417.082	509.14
417.46	513.66
417.837	500.1
418.214	507.78
418.591	526.77
418.967	528.35
419.344	525.64
419.721	523.83
420.098	546.65
420.475	527.44
420.852	524.51
421.228	549.36
421.605	534.22
421.982	558.18
422.358	553.43
422.735	546.43
423.111	555.24
423.488	543.49
423.864	559.53
424.241	542.36
424.617	558.4
424.994	553.43
425.37	577.39
425.746	574.67
426.123	577.84
426.499	576.93
426.875	591.4
427.251	582.58
427.627	626.42
428.003	595.69
428.379	596.14
428.756	618.51
429.132	618.74
429.507	627.1
429.883	648.8
430.259	640.89
430.635	633.88
431.011	624.84
431.387	634.56
431.763	646.08
432.138	658.29
432.514	655.35
432.89	667.78
433.265	682.02
433.641	697.83
434.016	675.46
434.392	696.7
434.767	701.68
435.143	712.07
435.518	697.38
435.894	706.42
436.269	723.14
436.644	721.11
437.02	732.64
437.395	745.97
437.77	742.13
438.145	750.04
438.52	773.54
438.895	743.71
439.271	763.6
439.646	785.29
440.021	792.52
440.395	798.4
440.77	785.29
441.145	796.59
441.52	812.63
441.895	821
442.27	819.19
442.645	805.4
443.019	818.06
443.394	823.71
443.769	850.6
444.143	817.61
444.518	844.72
444.892	831.62
445.267	830.49
445.641	856.93
446.016	833.88
446.39	853.31
446.764	860.77
447.139	853.76
447.513	884.72
447.887	903.25
448.262	855.8
448.636	882.46
449.01	870.71
449.384	896.02
449.758	875.91
450.132	905.06
450.506	918.17
450.88	909.58
451.254	924.72
451.628	915
452.002	944.83
452.376	930.82
452.75	947.77
453.123	959.3
453.497	978.05
453.871	991.84
454.244	974.21
454.618	969.92
454.992	1007.88
455.365	1023.02
455.739	1034.1
456.112	1023.48
456.486	1019.18
456.859	1055.11
457.232	1056.92
457.606	1044.27
457.979	1059.86
458.352	1112.51
458.725	1108.45
459.099	1103.25
459.472	1123.59
459.845	1155
460.218	1139.63
460.591	1155.22
460.964	1132.17
461.337	1175.79
461.71	1204.94
462.083	1186.86
462.456	1205.62
462.829	1228.22
463.201	1188.67
463.574	1212.85
463.947	1245.84
464.32	1265.5
464.692	1274.99
465.065	1284.49
465.438	1303.69
465.81	1313.41
466.183	1340.53
466.555	1357.93
466.928	1376.01
467.3	1380.98
467.672	1392.05
468.045	1416.23
468.417	1457.14
468.789	1449.68
469.161	1453.52
469.534	1458.72
469.906	1502.11
470.278	1506.63
470.65	1525.61
471.022	1541.65
471.394	1573.52
471.766	1578.04
472.138	1631.82
472.51	1633.18
472.882	1679.05
473.253	1671.37
473.625	1693.97
473.997	1724.93
474.369	1727.19
474.74	1764.25
475.112	1778.94
475.484	1814.19
475.855	1808.31
476.227	1845.6
476.598	1894.64
476.97	1932.15
477.341	1974.19
477.713	1984.58
478.084	2022.32
478.455	2034.75
478.827	2071.13
479.198	2126.95
479.569	2116.33
479.94	2147.51
480.311	2195.65
480.682	2245.14
481.053	2268.87
481.424	2296.44
481.795	2341.18
482.166	2375.53
482.537	2416.66
482.908	2491.23
483.279	2478.13
483.65	2513.38
484.021	2590.21
484.391	2579.82
484.762	2636.09
485.133	2677.22
485.503	2699.14
485.874	2748.18
486.244	2781.85
486.615	2845.35
486.985	2862.75
487.356	2902.52
487.726	2966.7
488.097	3002.18
488.467	3048.73
488.837	3095.74
489.207	3125.79
489.578	3197.43
489.948	3203.98
490.318	3229.07
490.688	3253.47
491.058	3339.35
491.428	3360.59
491.798	3410.76
492.168	3443.75
492.538	3450.08
492.908	3524.88
493.278	3609.85
493.648	3593.35
494.017	3632.22
494.387	3688.94
494.757	3735.95
495.126	3783.4
495.496	3822.5
495.866	3821.37
496.235	3860.24
496.605	3902.27
496.974	3956.05
497.344	3948.37
497.713	3988.82
498.082	4058.2
498.452	4155.37
498.821	4123.96
499.19	4143.62
499.559	4207.57
499.928	4206.22
500.298	4285.31
500.667	4332.77
501.036	4322.6
501.405	4371.86
501.774	4359.43
502.143	4455.02
502.512	4494.12
502.88	4570.28
503.249	4491.63
503.618	4552.65
503.987	4619.31
504.356	4627.9
504.724	4706.32
505.093	4711.51
505.462	4726.43
505.83	4795.35
506.199	4814.11
506.567	4935.69
506.936	4935.69
507.304	4987.21
507.672	5003.71
508.041	5082.58
508.409	5081.45
508.777	5145.4
509.145	5216.13
509.514	5203.93
509.882	5257.04
510.25	5331.61
510.618	5393.76
510.986	5383.81
511.354	5465.84
511.722	5522.11
512.09	5570.02
512.458	5618.38
512.826	5643.02
513.193	5668.33
513.561	5736.12
513.929	5817.02
514.297	5876.23
514.664	5893.86
515.032	5960.52
515.4	6043
515.767	6056.34
516.135	6061.99
516.502	6116.45
516.869	6220.4
517.237	6261.98
517.604	6294.3
517.972	6340.85
518.339	6391.24
518.706	6424.92
519.073	6528.19
519.44	6557.34
519.808	6695.64
520.175	6677.11
520.542	6855.41
520.909	6866.71
521.276	6853.15
521.643	6942.64
522.009	7040.94
522.376	7086.14
522.743	7107.84
523.11	7221.05
523.477	7315.29
523.843	7383.76
524.21	7485.45
524.577	7561.38
524.943	7588.28
525.31	7635.96
525.676	7786.46
526.043	7842.51
526.409	7884.76
526.776	7981.49
527.142	8056.29
527.508	8087.47
527.874	8163.63
528.241	8255.15
528.607	8301.7
528.973	8373.57
529.339	8445.43
529.705	8494.92
530.071	8666.89
530.437	8708.92
530.803	8726.55
531.169	8807.45
531.535	8776.94
531.901	8957.5
532.267	8952.31
532.632	9035.24
532.998	9109.82
533.364	9139.42
533.73	9193.66
534.095	9386.87
534.461	9409.02
534.826	9419.87
535.192	9539.41
535.557	9636.36
535.923	9597.71
536.288	9710.25
536.653	9733.3
537.019	9739.4
537.384	9829.57
537.749	9881.32
538.114	9982.79
538.479	9945.28
538.845	10047.65
539.21	10089.9
539.575	10065.72
539.94	10209.22
540.305	10274.53
540.67	10344.13
541.034	10348.88
541.399	10497.58
541.764	10546.16
542.129	10540.06
542.494	10592.26
542.858	10566.95
543.223	10686.27
543.587	10860.05
543.952	10829.55
544.316	10946.38
544.681	10946.6
545.045	11012.59
545.41	11091.46
545.774	11168.97
546.138	11232.25
546.503	11231.57
546.867	11296.2
547.231	11415.07
547.595	11397.21
547.959	11480.38
548.324	11553.14
548.688	11559.7
549.052	11658.22
549.416	11695.06
549.779	11757.66
550.143	11900.03
550.507	11985.22
550.871	12059.57
551.235	12043.98
551.599	12236.51
551.962	12267.47
552.326	12268.15
552.689	12422.27
553.053	12392.22
553.417	12495.72
553.78	12674.69
554.143	12607.8
554.507	12662.49
554.87	12763.51
555.234	12963.73
555.597	12849.38
555.96	12979.55
556.323	13046.44
556.686	13143.16
557.05	13200.56
557.413	13330.5
557.776	13294.79
558.139	13403.72
558.502	13396.94
558.865	13593.54
559.228	13700.88
559.59	13739.98
559.953	13735.91
560.316	14025.17
560.679	13993.53
561.041	14021.55
561.404	14236.46
561.767	14349
562.129	14276.46
562.492	14456.8
562.854	14465.16
563.217	14522.1
563.579	14541.99
563.941	14703.57
564.304	14773.62
564.666	14878.03
565.028	14961.19
565.39	15054.52
565.753	15135.42
566.115	15186.95
566.477	15401.4
566.839	15472.36
567.201	15540.83
567.563	15574.96
567.925	15688.85
568.287	15723.43
568.648	15861.5
569.01	15930.2
569.372	16014.95
569.734	16017.21
570.095	16192.34
570.457	16191.21
570.819	16378.55
571.18	16357.08
571.542	16452
571.903	16495.84
572.265	16682.5
572.626	16711.43
572.987	16786.23
573.349	16859.67
573.71	16936.96
574.071	16931.53
574.432	17017.86
574.794	17220.34
575.155	17162.26
575.516	17221.47
575.877	17408.13
576.238	17399.54
576.599	17429.37
576.96	17429.82
577.32	17541.01
577.681	17666.88
578.042	17729.48
578.403	17733.09
578.763	17789.81
579.124	17825.52
579.485	17944.16
579.845	17989.13
580.206	17989.36
580.566	18118.62
580.927	18186.19
581.287	18240.65
581.648	18241.1
582.008	18376.92
582.368	18375.79
582.728	18485.62
583.089	18378.73
583.449	18570.36
583.809	18437.93
584.169	18599.96
584.529	18604.03
584.889	18677.25
585.249	18669.57
585.609	18669.34
585.969	18827.75
586.329	18811.03
586.688	18845.83
587.048	18885.83
587.408	18892.84
587.768	18962.44
588.127	18949.56
588.487	18948.43
588.846	19108.88
589.206	19047.86
589.565	19094.41
589.925	19273.84
590.284	19118.82
590.643	19274.3
591.003	19360.17
591.362	19273.62
591.721	19309.77
592.08	19444.46
592.44	19335.08
592.799	19427.74
593.158	19410.79
593.517	19474.74
593.876	19481.3
594.235	19523.33
594.593	19527.62
594.952	19520.84
595.311	19554.97
595.67	19705.47
596.029	19756.54
596.387	19789.54
596.746	19789.54
597.104	19779.82
597.463	19837.44
597.822	19891.23
598.18	19876.77
598.538	19880.38
598.897	20094.61
599.255	19823.66
599.613	20184.78
599.972	20089.42
600.33	20082.41
600.688	20054.39
601.046	20203.76
601.404	20359.92
601.762	20300.03
602.12	20400.59
602.478	20417.77
602.836	20412.12
603.194	20291.22
603.552	20398.56
603.91	20389.97
604.268	20432.23
604.625	20564.21
604.983	20589.74
605.341	20505
605.698	20742.73
606.056	20731.66
606.413	20730.98
606.771	20804.65
607.128	20806.68
607.485	20785.89
607.843	20905.21
608.2	21003.29
608.557	21032.67
608.914	20990.41
609.272	21064.08
609.629	21156.05
609.986	21189.5
610.343	21074.93
610.7	21312.66
611.057	21215.04
611.414	21271.31
611.771	21383.17
612.127	21470.4
612.484	21428.59
612.841	21511.52
613.198	21455.93
613.554	21422.94
613.911	21614.12
614.267	21610.96
614.624	21543.16
614.98	21558.53
615.337	21700.67
615.693	21757.17
616.05	21857.28
616.406	21961.68
616.762	21822.7
617.118	21955.13
617.475	21819.77
617.831	22041.91
618.187	21982.02
618.543	21998.97
618.899	22138.17
619.255	22218.62
619.611	22169.59
619.967	22207.1
620.323	22368.9
620.678	22299.3
621.034	22296.14
621.39	22245.29
621.746	22246.87
622.101	22448.9
622.457	22376.13
622.812	22446.64
623.168	22567.54
623.523	22617.26
623.879	22600.31
624.234	22505.17
624.589	22593.53
624.945	22621.78
625.3	22620.65
625.655	22587.2
626.01	22607.32
626.365	22605.06
626.72	22688.44
627.075	22639.4
627.43	22733.87
627.785	22719.85
628.14	22671.04
628.495	22700.65
628.85	22705.62
629.205	22624.49
629.559	22868.33
629.914	22763.02
630.269	22831.04
630.623	22657.71
630.978	22573.42
631.332	22862.22
631.687	22854.31
632.041	22716.46
632.396	22764.15
632.75	22660.2
633.104	22791.72
633.459	22629.24
633.813	22704.71
634.167	22667.43
634.521	22723.24
634.875	22704.26
635.229	22678.95
635.583	22713.53
635.937	22638.27
636.291	22620.42
636.645	22680.99
636.999	22645.51
637.352	22771.6
637.706	22582.68
638.06	22657.71
638.413	22613.42
638.767	22463.59
639.121	22605.28
639.474	22416.36
639.828	22417.49
640.181	22536.58
640.534	22532.29
640.888	22574.32
641.241	22464.95
641.594	22520.99
641.947	22561.89
642.301	22318.74
642.654	22466.98
643.007	22609.57
643.36	22518.28
643.713	22513.98
644.066	22652.06
644.419	22463.36
644.771	22269.47
645.124	22161.68
645.477	22105.18
645.83	21954.45
646.182	21914.23
646.535	21867.45
646.888	21991.96
647.24	21750.16
647.593	21981.12
647.945	21906.09
648.298	21795.59
648.65	21798.97
649.002	21799.2
649.355	21842.36
649.707	21774.79
650.059	21979.08
650.411	22147.21
650.763	22277.38
651.115	22405.29
651.467	22500.43
651.819	22434.89
652.171	22401.67
652.523	22385.17
652.875	22341.33
653.227	22248
653.578	22312.41
653.93	22385.85
654.282	22333.2
654.633	22206.2
654.985	22226.08
655.337	22213.65
655.688	22314.22
656.039	22346.98
656.391	22186.76
656.742	22343.37
657.094	22317.61
657.445	22332.52
657.796	22282.58
658.147	22380.43
658.498	22340.88
658.849	22388.34
659.2	22165.29
659.551	22272.86
659.902	22295.23
660.253	22283.93
660.604	22329.13
660.955	22324.16
661.306	22393.76
661.656	22261.11
662.007	22233.09
662.358	22362.58
662.708	22287.78
663.059	22405.29
663.409	22191.73
663.76	22408.9
664.11	22358.28
664.461	22393.08
664.811	22412.29
665.161	22397.6
665.511	22375.46
665.862	22323.71
666.212	22522.8
666.562	22445.29
666.912	22400.54
667.262	22471.27
667.612	22401.9
667.962	22522.8
668.312	22336.59
668.662	22460.2
669.011	22459.3
669.361	22337.04
669.711	22341.11
670.06	22362.58
670.41	22332.29
670.76	22270.83
671.109	22449.81
671.459	22345.85
671.808	22385.63
672.157	22437.38
672.507	22301.79
672.856	22343.59
673.205	22285.74
673.554	22389.69
673.904	22331.84
674.253	22450.48
674.602	22300.66
674.951	22054.79
675.3	21882.14
675.649	22226.76
675.998	22298.85
676.346	22270.83
676.695	22284.16
677.044	22238.74
677.393	22289.13
677.741	22321.45
678.09	22260.21
678.438	22215.46
678.787	22232.41
679.135	22233.77
679.484	22198.51
679.832	22136.37
680.181	21993.09
680.529	22231.96
680.877	22026.09
681.225	21995.81
681.573	22186.76
681.922	21996.26
682.27	22061.57
682.618	22053.88
682.966	22055.92
683.314	22047.33
683.661	21984.28
684.009	21966.65
684.357	21822.48
684.705	21852.76
685.053	21829.93
685.4	21802.82
685.748	21761.69
686.095	21714.91
686.443	21677.4
686.79	21633.78
687.138	21797.84
687.485	21765.76
687.832	21526.21
688.18	21631.3
688.527	21535.03
688.874	21499.77
689.221	21460
689.568	21374.58
689.915	21425.43
690.262	21372.32
690.609	21390.4
690.956	21267.24
691.303	21292.77
691.65	21289.84
691.997	21273.56
692.344	21133.68
692.69	21054.36
693.037	21131.2
693.383	20943.18
693.73	20932.78
694.077	20844.2
694.423	20952.44
694.769	20830.19
695.116	20868.15
695.462	20763.52
695.808	20763.75
696.155	20789.96
696.501	20566.24
696.847	20516.75
697.193	20406.02
697.539	20499.8
697.885	20414.6
698.231	20432.68
698.577	20375.28
698.923	20406.92
699.269	20311.78
699.614	20084.67
699.96	20043.09
700.306	20217.1
700.651	20064.78
700.997	20078.12
701.342	20029.53
701.688	19942.3
702.033	19956.54
702.379	19978.46
702.724	19792.7
703.069	19853.26
703.415	19656.21
703.76	19740.27
704.105	19772.14
704.45	19655.98
704.795	19559.71
705.14	19512.03
705.485	19504.35
705.83	19472.26
706.175	19485.14
706.52	19393.16
706.865	19456.21
707.209	19367.4
707.554	19303.22
707.899	19334.63
708.243	19149.1
708.588	19227.97
708.932	19040.63
709.277	19095.32
709.621	19089.44
709.966	18914.98
710.31	19041.53
710.654	18888.99
710.998	18805.16
711.342	18906.4
711.687	18770.13
712.031	18805.38
712.375	18792.27
712.719	18865.04
713.063	18672.96
713.407	18763.8
713.75	18701.88
714.094	18636.12
714.438	18601.09
714.782	18662.11
715.125	18499.63
715.469	18593.18
715.812	18506.41
716.156	18395
716.499	18397.26
716.843	18460.76
717.186	18300.54
717.53	18508.67
717.873	18417.82
718.216	18359.74
718.559	18236.13
718.902	18231.16
719.246	18267.32
719.589	18193.87
719.932	18111.16
720.275	18190.48
720.617	18074.78
720.96	18068.9
721.303	18126.3
721.646	18092.63
721.989	17978.06
722.331	18160.65
722.674	18091.5
723.016	17998.17
723.359	18026.64
723.701	18047.89
724.044	17883.37
724.386	17872.75
724.729	17896.7
725.071	17864.84
725.413	17900.32
725.755	17882.69
726.097	17788.68
726.439	17760.66
726.782	17776.26
727.124	17859.42
727.465	17703.49
727.807	17785.97
728.149	17726.54
728.491	17712.98
728.833	17745.3
729.175	17700.33
729.516	17679.76
729.858	17608.8
730.199	17727.44
730.541	17679.08
730.882	17600.44
731.224	17607.67
731.565	17570.39
731.906	17504.62
732.248	17578.29
732.589	17488.58
732.93	17445.19
733.271	17484.06
733.612	17508.69
733.953	17585.3
734.294	17420.56
734.635	17420.11
734.976	17549.82
735.317	17418.3
735.658	17408.13
735.999	17473.21
736.339	17281.58
736.68	17375.59
737.021	17401.12
737.361	17235.03
737.702	17364.29
738.042	17255.14
738.383	17360.45
738.723	17329.49
739.063	17302.6
739.404	17381.01
739.744	17280.22
740.084	17238.64
740.424	17289.49
740.764	17243.84
741.104	17330.62
741.444	17230.96
741.784	17155.26
742.124	17159.55
742.464	17131.3
742.804	17168.59
743.143	17193.67
743.483	17160.23
743.823	17050.85
744.162	17072.32
744.502	17091.08
744.841	17025.32
745.181	17024.86
745.52	17127.46
745.86	17077.97
746.199	17059.66
746.538	16948.93
746.877	17082.94
747.216	16959.33
747.556	16946.9
747.895	17007.46
748.234	16897.18
748.573	16880.46
748.911	16886.34
749.25	16924.98
749.589	16925.66
749.928	16864.64
750.267	16876.39
750.605	16935.15
750.944	16917.3
751.283	16818.99
751.621	16861.03
751.96	16697.64
752.298	16790.07
752.636	16821.03
752.975	16686.11
753.313	16619.68
753.651	16795.26
753.989	16717.07
754.327	16699
754.666	16572.45
755.004	16595.27
755.342	16580.13
755.679	16627.36
756.017	16487.02
756.355	16581.48
756.693	16589.39
757.031	16533.12
757.368	16531.32
757.706	16444.77
758.044	16360.02
758.381	16379.23
758.719	16313.92
759.056	16388.04
759.394	16282.28
759.731	16163.42
760.068	16235.96
760.405	16155.96
760.743	16105.57
761.08	16201.83
761.417	16088.62
761.754	15980.14
762.091	16093.81
762.428	15957.09
762.765	15973.59
763.102	15959.35
763.438	15882.07
763.775	15806.82
764.112	15773.37
764.449	15881.39
764.785	15707.84
765.122	15677.1
765.458	15616.54
765.795	15533.15
766.131	15677.33
766.467	15685.24
766.804	15550.33
767.14	15466.03
767.476	15429.2
767.812	15407.05
768.148	15471.01
768.485	15350.56
768.821	15245.93
769.157	15252.93
769.492	15227.85
769.828	15137.91
770.164	15061.75
770.5	15096.1
770.836	15026.27
771.171	14982.43
771.507	14870.12
771.842	14886.39
772.178	14897.91
772.513	14772.72
772.849	14844.58
773.184	14663.12
773.519	14711.48
773.855	14657.47
774.19	14535.44
774.525	14562.78
774.86	14574.53
775.195	14509.67
775.53	14440.07
775.865	14341.09
776.2	14389.23
776.535	14262.22
776.87	14215.67
777.205	14128.22
777.539	14123.24
777.874	14111.72
778.209	13987.2
778.543	13971.61
778.878	13887.77
779.212	13936.36
779.547	13765.29
779.881	13873.53
780.215	13703.59
780.55	13747.89
780.884	13705.85
781.218	13697.04
781.552	13682.8
781.886	13585.41
782.22	13439.65
782.554	13525.29
782.888	13384.96
783.222	13382.7
783.556	13305.86
783.889	13210.05
784.223	13074.91
784.557	13178.41
784.89	13133.21
785.224	13135.7
785.557	13035.82
785.891	12966.44
786.224	13039.66
786.558	12944.29
786.891	12797.4
787.224	12781.58
787.557	12784.97
787.891	12762.15
788.224	12739.33
788.557	12709.27
788.89	12605.54
789.223	12693
789.556	12628.82
789.888	12565.09
790.221	12485.1
790.554	12487.58
790.887	12458.43
791.219	12342.5
791.552	12366.45
791.884	12250.75
792.217	12315.83
792.549	12160.58
792.882	12144.31
793.214	12107.48
793.546	12143.41
793.879	12094.15
794.211	11961.49
794.543	11975.5
794.875	12016.86
795.207	12062.73
795.539	11894.83
795.871	11928.27
796.203	11799.46
796.535	11787.26
796.867	11783.42
797.198	11725.79
797.53	11710.2
797.862	11646.25
798.193	11648.73
798.525	11624.1
798.856	11620.26
799.188	11563.09
799.519	11483.77
799.85	11457.78
800.182	11432.02
800.513	11423.65
800.844	11265.01
801.175	11328.74
801.506	11264.11
801.837	11259.82
802.168	11266.37
802.499	11218.01
802.83	11201.51
803.161	11140.27
803.491	11140.05
803.822	11117.22
804.153	11033.83
804.483	10918.36
804.814	10975.98
805.145	11025.25
805.475	10999.03
805.805	10860.28
806.136	10864.8
806.466	10863.44
806.796	10917.68
807.126	10767.63
807.457	10751.58
807.787	10781.86
808.117	10689.89
808.447	10643.34
808.777	10702.32
809.107	10691.24
809.436	10681.08
809.766	10712.71
810.096	10605.6
810.426	10515.66
810.755	10502.32
811.085	10572.83
811.414	10523.11
811.744	10382.1
812.073	10412.83
812.403	10386.39
812.732	10400.63
813.061	10396.34
813.39	10320.86
813.719	10312.27
814.049	10360.18
814.378	10215.55
814.707	10264.14
815.036	10248.32
815.365	10192.05
815.693	10106.4
816.022	10112.5
816.351	10139.62
816.68	10024.14
817.008	10020.75
817.337	9991.6
817.665	10023.01
817.994	10039.51
818.322	9992.05
818.651	9922
818.979	9837.71
819.307	9899.17
819.636	9922.45
819.964	9856.69
820.292	9804.04
820.62	9917.71
820.948	9911.6
821.276	9880.19
821.604	9877.93
821.932	9873.64
822.259	9787.77
822.587	9845.84
822.915	9791.15
823.243	9860.98
823.57	9782.12
823.898	9839.97
824.225	9758.16
824.553	9818.05
824.88	9836.58
825.207	9820.76
825.535	9839.97
825.862	9829.8
826.189	9798.61
826.516	9804.94
826.843	9842.68
827.17	9833.64
827.497	9874.54
827.824	9872.73
828.151	9829.8
828.478	9789.12
828.805	9839.06
829.131	9794.77
829.458	9752.96
829.785	9756.81
830.111	9766.52
830.438	9795.67
830.764	9802
831.09	9814.66
831.417	9727.2
831.743	9762
832.069	9767.43
832.395	9756.58
832.722	9742.57
833.048	9726.98
833.374	9749.12
833.7	9737.15
834.026	9731.72
834.351	9750.25
834.677	9742.34
835.003	9737.15
835.329	9742.57
835.654	9714.77
835.98	9697.82
836.306	9676.58
836.631	9586.41
836.956	9648.33
837.282	9682.01
837.607	9593.87
837.932	9635.23
838.258	9629.58
838.583	9565.85
838.908	9517.04
839.233	9544.61
839.558	9520.43
839.883	9545.29
840.208	9538.73
840.533	9510.26
840.858	9524.5
841.182	9484.95
841.507	9544.16
841.832	9417.61
842.156	9410.15
842.481	9406.53
842.805	9339.64
843.13	9439.98
843.454	9331.05
843.778	9296.7
844.103	9321.79
844.427	9239.31
844.751	9296.48
845.075	9340.55
845.399	9182.36
845.723	9183.71
846.047	9250.83
846.371	9095.58
846.695	9090.83
847.019	9059.2
847.343	9034.56
847.666	8969.26
847.99	8930.61
848.313	8956.37
848.637	8906.21
848.96	8901.91
849.284	8914.12
849.607	8817.4
849.931	8824.17
850.254	8744.4
850.577	8683.84
850.9	8627.34
851.223	8628.47
851.546	8607.01
851.869	8559.77
852.192	8545.76
852.515	8508.48
852.838	8441.81
853.161	8494.69
853.483	8475.48
853.806	8275.49
854.129	8423.96
854.451	8303.28
854.774	8287.92
855.096	8310.74
855.419	8239.11
855.741	8258.31
856.063	8194.59
856.385	8199.56
856.708	8145.77
857.03	8125.66
857.352	8146.68
857.674	8085.66
857.996	8089.73
858.318	8027.81
858.64	8037.98
858.961	8020.13
859.283	8019
859.605	8009.51
859.926	7926.35
860.248	7950.3
860.57	7940.36
860.891	7964.76
861.212	7913.46
861.534	7831.43
861.855	7861.94
862.176	7821.26
862.498	7851.77
862.819	7843.41
863.14	7848.16
863.461	7794.6
863.782	7766.8
864.103	7819.91
864.424	7733.81
864.745	7764.09
865.065	7623.75
865.386	7697.2
865.707	7716.86
866.027	7685.9
866.348	7651.78
866.668	7647.03
866.989	7657.2
867.309	7611.78
867.63	7537.2
867.95	7606.81
868.27	7548.28
868.59	7576.98
868.91	7573.13
869.23	7548.05
869.55	7522.29
869.87	7507.83
870.19	7575.39
870.51	7526.13
870.83	7510.76
871.15	7437.09
871.469	7393.7
871.789	7486.58
872.109	7464.44
872.428	7407.04
872.748	7466.02
873.067	7447.04
873.386	7486.81
873.706	7413.59
874.025	7351.22
874.344	7340.82
874.663	7365
874.982	7381.5
875.301	7361.16
875.62	7341.5
875.939	7282.97
876.258	7290.2
876.577	7335.63
876.896	7299.7
877.214	7266.7
877.533	7283.88
877.852	7199.36
878.17	7251.11
878.489	7279.58
878.807	7234.16
879.125	7207.04
879.444	7244.1
879.762	7167.72
880.08	7219.25
880.398	7146.93
880.716	7135.86
881.034	7153.03
881.352	7120.94
881.67	7113.49
881.988	7095.63
882.306	7088.4
882.624	7053.15
882.941	7045.92
883.259	7050.44
883.577	6986.26
883.894	7069.87
884.212	7027.39
884.529	6995.97
884.846	6966.37
885.164	6934.96
885.481	6953.04
885.798	6921.17
886.115	6876.66
886.432	6924.56
886.75	6876.88
887.067	6852.02
887.383	6804.57
887.7	6856.77
888.017	6834.62
888.334	6811.12
888.651	6766.38
888.967	6778.8
889.284	6770.67
889.6	6723.44
889.917	6678.02
890.233	6699.26
890.55	6694.29
890.866	6682.99
891.182	6669.43
891.498	6601.41
891.815	6617.91
892.131	6619.49
892.447	6563.67
892.763	6542.88
893.079	6534.29
893.395	6483.67
893.71	6486.84
894.026	6490.68
894.342	6524.57
894.657	6420.62
894.973	6388.53
895.289	6401.19
895.604	6379.27
895.92	6366.39
896.235	6340.17
896.55	6330.91
896.865	6335.88
897.181	6300.17
897.496	6354.18
897.811	6229.67
898.126	6225.6
898.441	6214.98
898.756	6201.19
899.071	6149.44
899.386	6172.04
899.7	6085.94
900.015	6117.35
900.33	6039.39
900.644	6069.67
900.959	6026.96
901.273	6063.12
901.588	5991.71
901.902	5953.52
902.216	5986.96
902.531	5962.78
902.845	5945.38
903.159	5893.86
903.473	5892.5
903.787	5871.48
904.101	5811.82
904.415	5853.41
904.729	5808.89
905.042	5793.97
905.356	5758.27
905.67	5727.98
905.984	5754.88
906.297	5713.07
906.611	5679.17
906.924	5640.76
907.237	5652.28
907.551	5636.69
907.864	5607.76
908.177	5565.05
908.491	5533.41
908.804	5511.72
909.117	5513.08
909.43	5512.4
909.743	5431.04
910.056	5436.92
910.368	5439.41
910.681	5365.73
910.994	5401.89
911.307	5343.14
911.619	5335
911.932	5341.33
912.244	5271.27
912.557	5293.65
912.869	5262.23
913.181	5283.7
913.494	5243.03
913.806	5218.85
914.118	5183.14
914.43	5115.57
914.742	5158.51
915.054	5102.46
915.366	5100.43
915.678	5057.95
915.99	5092.52
916.302	5015.91
916.613	5063.37
916.925	4986.99
917.236	4998.74
917.548	4934.56
917.859	4961.68
918.171	4956.03
918.482	4905.41
918.794	4917.61
919.105	4908.12
919.416	4830.16
919.727	4827.67
920.038	4813.88
920.349	4788.8
920.66	4774.79
920.971	4750.61
921.282	4741.34
921.593	4717.62
921.903	4669.71
922.214	4694.57
922.525	4675.13
922.835	4643.27
923.146	4566.43
923.456	4605.75
923.767	4559.88
924.077	4555.59
924.387	4598.98
924.697	4517.62
925.008	4500.22
925.318	4501.58
925.628	4488.47
925.938	4438.98
926.248	4418.41
926.558	4387.91
926.867	4388.59
927.177	4403.05
927.487	4341.81
927.796	4326.44
928.106	4318.3
928.416	4319.43
928.725	4284.86
929.034	4287.8
929.344	4290.28
929.653	4232.21
929.962	4233.11
930.271	4247.57
930.581	4219.1
930.89	4161.92
931.199	4176.84
931.508	4187.46
931.817	4125.99
932.125	4098.42
932.434	4127.35
932.743	4067.69
933.051	4078.76
933.36	4037.86
933.669	4009.39
933.977	4010.97
934.286	4029.5
934.594	3985.88
934.902	3961.48
935.21	3916.28
935.519	3968.94
935.827	3919.44
936.135	3906.79
936.443	3868.37
936.751	3881.71
937.059	3868.37
937.367	3833.35
937.674	3855.27
937.982	3771.65
938.29	3767.36
938.597	3797.41
938.905	3787.02
939.213	3756.06
939.52	3729.39
939.827	3735.04
940.135	3704.54
940.442	3667.47
940.749	3661.6
941.056	3655.5
941.363	3637.64
941.67	3636.06
941.977	3607.14
942.284	3594.03
942.591	3577.08
942.898	3580.24
943.205	3555.16
943.511	3552.45
943.818	3516.52
944.125	3518.55
944.431	3507.7
944.738	3503.41
945.044	3450.53
945.35	3461.83
945.657	3468.16
945.963	3404.88
946.269	3426.35
946.575	3353.81
946.881	3389.52
947.187	3344.32
947.493	3343.19
947.799	3338.22
948.105	3307.26
948.41	3302.96
948.716	3315.39
949.022	3304.77
949.327	3291.21
949.633	3257.32
949.938	3200.59
950.244	3246.92
950.549	3186.58
950.854	3231.33
951.16	3207.83
951.465	3178
951.77	3156.08
952.075	3158.34
952.38	3150.43
952.685	3107.49
952.99	3103.2
953.294	3089.86
953.599	3080.82
953.904	3071.56
954.209	3013.71
954.513	3071.56
954.818	3034.72
955.122	2992.24
955.426	2999.24
955.731	2988.85
956.035	2987.72
956.339	2998.34
956.643	2945.91
956.948	2938
957.252	2922.86
957.556	2890.09
957.86	2913.82
958.163	2900.04
958.467	2913.37
958.771	2860.49
959.075	2884.22
959.378	2860.49
959.682	2841.28
959.985	2811.9
960.289	2809.19
960.592	2775.75
960.896	2818.46
961.199	2779.14
961.502	2775.07
961.805	2761.06
962.108	2739.59
962.411	2728.97
962.714	2727.39
963.017	2707.05
963.32	2701.17
963.623	2684
963.926	2732.36
964.228	2678.35
964.531	2643.55
964.833	2666.14
965.136	2655.3
965.438	2649.2
965.741	2654.62
966.043	2592.25
966.345	2594.73
966.648	2588.18
966.95	2590.67
967.252	2558.8
967.554	2568.07
967.856	2550.89
968.158	2525.58
968.46	2526.26
968.761	2498.01
969.063	2500.95
969.365	2465.02
969.666	2466.15
969.968	2453.72
970.269	2422.76
970.571	2460.73
970.872	2448.3
971.174	2452.36
971.475	2409.43
971.776	2393.84
972.077	2395.42
972.378	2403.1
972.679	2416.21
972.98	2368.3
973.281	2349.54
973.582	2332.59
973.883	2337.57
974.183	2363.78
974.484	2320.16
974.785	2323.1
975.085	2335.76
975.386	2311.58
975.686	2290.56
975.986	2294.18
976.287	2291.01
976.587	2234.97
976.887	2242.2
977.187	2221.64
977.487	2235.2
977.787	2227.74
978.087	2227.29
978.387	2197.46
978.687	2221.18
978.987	2193.61
979.286	2164.91
979.586	2168.3
979.885	2139.6
980.185	2147.51
980.484	2125.37
980.784	2131.47
981.083	2125.14
981.382	2075.2
981.682	2108.19
981.981	2100.06
982.28	2115.88
982.579	2097.8
982.878	2052.83
983.177	2061.19
983.475	2058.02
983.774	2030.68
984.073	2032.94
984.372	2019.61
984.67	2031.13
984.969	2016.22
985.267	2008.99
985.566	1975.99
985.864	2001.98
986.162	1964.92
986.461	1975.99
986.759	1991.81
987.057	1928.76
987.355	1947.75
987.653	1922.66
987.951	1948.65
988.249	1951.59
988.547	1921.31
988.844	1889.89
989.142	1891.7
989.44	1895.54
989.737	1886.73
990.035	1853.28
990.332	1869.1
990.63	1838.14
990.927	1833.4
991.224	1841.53
991.521	1825.26
991.819	1860.74
992.116	1830.69
992.413	1804.7
992.71	1777.13
993.006	1800.86
993.303	1786.62
993.6	1793.17
993.897	1775.77
994.193	1791.37
994.49	1777.35
994.787	1713.4
995.083	1743.46
995.379	1720.41
995.676	1708.88
995.972	1724.93
996.268	1728.99
996.565	1708.2
996.861	1668.66
997.157	1689
997.453	1693.29
997.749	1649.9
998.044	1673.63
998.34	1664.14
998.636	1640.86
998.932	1653.74
999.227	1639.05
999.523	1638.15
999.818	1634.53
1000.114	1625.72
1000.409	1596.79
1000.704	1577.81
1001	1597.02
1001.295	1582.56
1001.59	1553.18
1001.885	1558.15
1002.18	1547.3
1002.475	1546.85
1002.77	1537.81
1003.065	1536.68
1003.359	1476.12
1003.654	1514.99
1003.949	1507.08
1004.243	1504.59
1004.538	1508.43
1004.832	1461.2
1005.127	1501.66
1005.421	1474.54
1005.715	1463.46
1006.009	1428.44
1006.304	1470.24
1006.598	1435.89
1006.892	1404.71
1007.186	1424.14
1007.48	1408.78
1007.773	1416.91
1008.067	1402.9
1008.361	1365.61
1008.655	1388.66
1008.948	1371.04
1009.242	1357.03
1009.535	1362.68
1009.829	1372.17
1010.122	1350.02
1010.415	1352.28
1010.708	1332.62
1011.001	1311.6
1011.295	1311.6
1011.588	1284.03
1011.881	1301.89
1012.173	1293.75
1012.466	1302.34
1012.759	1299.85
1013.052	1275.67
1013.344	1282.68
1013.637	1301.43
1013.93	1259.85
1014.222	1231.83
1014.514	1263.92
1014.807	1254.2
1015.099	1222.57
1015.391	1232.96
1015.683	1221.89
1015.976	1226.18
1016.268	1209.91
1016.56	1193.19
1016.851	1178.5
1017.143	1180.53
1017.435	1200.19
1017.727	1164.49
1018.018	1163.81
1018.31	1170.59
1018.602	1141.21
1018.893	1122.68
1019.185	1142.12
1019.476	1126.07
1019.767	1124.94
1020.058	1095.56
1020.35	1115.68
1020.641	1113.19
1020.932	1113.87
1021.223	1096.02
1021.514	1081.1
1021.804	1080.2
1022.095	1067.54
1022.386	1097.15
1022.677	1050.14
1022.967	1046.3
1023.258	1061.22
1023.548	1045.62
1023.839	1039.97
1024.129	1050.14
1024.419	1024.83
1024.709	1036.36
1025	1022.35
1025.29	1010.37
1025.58	990.48
1025.87	1002.46
1026.16	1020.31
1026.449	971.05
1026.739	978.73
1027.029	974.21
1027.319	948.22
1027.608	984.38
1027.898	951.61
1028.187	943.7
1028.477	929.47
1028.766	951.39
1029.055	945.06
1029.344	944.38
1029.634	922.01
1029.923	929.02
1030.212	896.93
1030.501	908.45
1030.79	905.51
1031.078	907.77
1031.367	880.88
1031.656	897.38
1031.945	882.24
1032.233	865.74
1032.522	872.97
1032.81	861.67
1033.099	846.98
1033.387	847.21
1033.675	856.93
1033.963	838.85
1034.251	849.47
1034.54	828.23
1034.828	843.82
1035.116	823.93
1035.403	802.01
1035.691	814.67
1035.979	814.67
1036.267	808.11
1036.554	816.48
1036.842	817.38
1037.129	801.56
1037.417	801.56
1037.704	790.26
1037.992	793.43
1038.279	771.96
1038.566	769.7
1038.853	769.7
1039.14	769.7
