Data from cardboard_FLMS001491_036.txt Node
Date: Tue Feb 07 11:39:21 GMT 2017
User: dcchb
Spectrometer: FLMS00149
Trigger mode: 0
Integration Time (sec): 2.000000E-2
Scans to average: 10
Electric dark correction enabled: true
Nonlinearity correction enabled: false
Boxcar width: 0
XAxis mode: Wavelengths
Number of Pixels in Spectrum: 2048
>>>>>Begin Spectral Data<<<<<
341.393	-21.52
341.776	-21.52
342.16	-21.52
342.543	-54.07
342.927	-49.09
343.31	-71.24
343.693	-70.11
344.077	-64.91
344.46	-35.08
344.843	-37.57
345.226	-33.05
345.61	-34.63
345.993	-24.46
346.376	-18.81
346.759	-0.51
347.142	28.64
347.525	43.33
347.908	60.73
348.291	62.54
348.674	78.81
349.057	116.32
349.44	101.18
349.823	136.21
350.206	149.54
350.588	190.67
350.971	206.04
351.354	228.86
351.737	218.02
352.119	255.08
352.502	241.29
352.884	272.03
353.267	291.46
353.65	286.26
354.032	296.43
354.414	292.37
354.797	312.48
355.179	312.03
355.562	329.65
355.944	304.79
356.326	313.83
356.709	328.97
357.091	347.28
357.473	357.45
357.855	326.94
358.238	323.1
358.62	328.3
359.002	338.92
359.384	338.24
359.766	349.09
360.148	333.72
360.53	337.34
360.912	330.1
361.294	335.98
361.676	330.56
362.057	317.9
362.439	357.9
362.821	312.25
363.203	324
363.584	306.15
363.966	316.09
364.348	318.58
364.729	328.97
365.111	316.55
365.493	320.84
365.874	287.17
366.256	293.95
366.637	298.92
367.019	314.74
367.4	322.42
367.781	321.97
368.163	326.71
368.544	303.89
368.925	314.96
369.306	313.61
369.688	319.94
370.069	287.85
370.45	313.61
370.831	298.92
371.212	321.07
371.593	312.48
371.974	304.79
372.355	294.4
372.736	327.17
373.117	314.29
373.498	317.68
373.879	308.18
374.26	322.42
374.641	323.1
375.021	310.22
375.402	309.09
375.783	314.51
376.163	332.14
376.544	342.76
376.925	320.39
377.305	332.36
377.686	321.74
378.066	287.17
378.447	316.77
378.827	315.87
379.208	322.42
379.588	310.22
379.968	346.38
380.349	326.26
380.729	345.25
381.109	341.86
381.489	314.51
381.87	326.04
382.25	329.88
382.63	345.25
383.01	322.65
383.39	343.21
383.77	336.88
384.15	338.47
384.53	348.63
384.91	314.74
385.29	331.69
385.67	348.63
386.049	338.24
386.429	343.66
386.809	368.07
387.189	358.35
387.568	333.95
387.948	355.41
388.328	364
388.707	355.41
389.087	365.36
389.466	343.89
389.846	361.97
390.225	357.22
390.605	376.66
390.984	382.76
391.363	336.43
391.743	353.61
392.122	364.91
392.501	357
392.881	357.45
393.26	361.06
393.639	375.07
394.018	360.16
394.397	406.71
394.776	378.01
395.155	374.62
395.534	374.85
395.913	360.39
396.292	384.11
396.671	374.4
397.05	371.23
397.429	376.43
397.808	377.11
398.186	386.15
398.565	385.02
398.944	385.7
399.323	392.25
399.701	380.5
400.08	386.83
400.458	408.29
400.837	392.02
401.215	392.02
401.594	411.91
401.972	405.36
402.351	410.78
402.729	401.29
403.107	401.51
403.486	411.23
403.864	389.76
404.242	420.27
404.62	394.96
404.999	409.42
405.377	420.72
405.755	414.85
406.133	441.06
406.511	444.23
406.889	426.15
407.267	427.05
407.645	426.37
408.023	441.06
408.401	441.74
408.779	434.96
409.156	441.74
409.534	449.42
409.912	452.81
410.29	465.69
410.667	456.2
411.045	462.53
411.422	451.23
411.8	456.88
412.178	495.07
412.555	480.16
412.933	481.74
413.31	487.84
413.687	502.53
414.065	484
414.442	484
414.819	488.07
415.197	485.35
415.574	488.52
415.951	501.4
416.328	511.57
416.705	523.55
417.082	511.57
417.46	515.41
417.837	530.1
418.214	521.74
418.591	540.95
418.967	521.96
419.344	520.83
419.721	528.29
420.098	524.9
420.475	539.14
420.852	544.11
421.228	543.21
421.605	546.82
421.982	564.22
422.358	545.01
422.735	560.61
423.111	567.61
423.488	574.39
423.864	571.23
424.241	572.81
424.617	582.08
424.994	577.78
425.37	582.3
425.746	586.37
426.123	571
426.499	568.29
426.875	566.48
427.251	604.67
427.627	609.19
428.003	605.13
428.379	624.33
428.756	616.65
429.132	625.01
429.507	631.57
429.883	622.75
430.259	615.29
430.635	644.9
431.011	642.86
431.387	660.04
431.763	640.83
432.138	666.37
432.514	679.93
432.89	643.54
433.265	681.28
433.641	670.21
434.016	691.22
434.392	706.37
434.767	734.84
435.143	703.2
435.518	705.69
435.894	711.11
436.269	710.66
436.644	746.82
437.02	733.71
437.395	715.86
437.77	721.28
438.145	766.7
438.52	752.24
438.895	770.32
439.271	762.64
439.646	797.21
440.021	775.06
440.395	803.99
440.77	764.67
441.145	775.06
441.52	775.97
441.895	785.23
442.27	813.71
442.645	811.45
443.019	825.23
443.394	830.43
443.769	845.8
444.143	840.37
444.518	831.79
444.892	835.18
445.267	847.38
445.641	860.71
446.016	839.02
446.39	865.46
446.764	854.38
447.139	873.37
447.513	882.18
447.887	857.1
448.262	861.62
448.636	886.02
449.01	914.27
449.384	899.35
449.758	894.38
450.132	887.83
450.506	905
450.88	914.5
451.254	924.44
451.628	923.76
452.002	950.88
452.376	934.38
452.75	945
453.123	927.15
453.497	972.35
453.871	983.42
454.244	979.13
454.618	1006.92
454.992	1011.89
455.365	1024.1
455.739	1028.62
456.112	1018.22
456.486	1024.55
456.859	1062.74
457.232	1085.34
457.606	1065
457.979	1087.6
458.352	1095.28
458.725	1112.91
459.099	1126.47
459.472	1109.52
459.845	1149.52
460.218	1130.08
460.591	1146.13
460.964	1139.8
461.337	1180.25
461.71	1203.53
462.083	1198.1
462.456	1196.75
462.829	1228.61
463.201	1255.96
463.574	1230.87
463.947	1261.83
464.32	1276.29
464.692	1291.21
465.065	1279.23
465.438	1325.78
465.81	1333.47
466.183	1338.21
466.555	1352.68
466.928	1382.51
467.3	1367.14
467.672	1392.22
468.045	1414.14
468.417	1441.71
468.789	1463.41
469.161	1455.05
469.534	1509.51
469.906	1484.65
470.278	1525.33
470.65	1528.26
471.022	1534.59
471.394	1587.25
471.766	1585.66
472.138	1632.22
472.51	1621.6
472.882	1673.35
473.253	1657.53
473.625	1714.47
473.997	1739.78
474.369	1733.01
474.74	1786.79
475.112	1766
475.484	1821.36
475.855	1866.34
476.227	1864.75
476.598	1897.29
476.97	1908.82
477.341	1941.36
477.713	1977.29
478.084	1978.65
478.455	2055.71
478.827	2050.29
479.198	2105.42
479.569	2156.27
479.94	2169.83
480.311	2216.38
480.682	2230.85
481.053	2303.61
481.424	2315.81
481.795	2350.39
482.166	2413.44
482.537	2391.75
482.908	2453.66
483.279	2512.42
483.65	2515.36
484.021	2576.6
484.391	2583.6
484.762	2632.19
485.133	2666.54
485.503	2703.38
485.874	2748.8
486.244	2771.17
486.615	2848.68
486.985	2847.1
487.356	2913.09
487.726	2929.36
488.097	3027.43
488.467	2987.66
488.837	3118.96
489.207	3099.97
489.578	3191.27
489.948	3212.29
490.318	3237.82
490.688	3231.5
491.058	3347.43
491.428	3388.33
491.798	3422
492.168	3486.41
492.538	3523.69
492.908	3540.87
493.278	3585.84
493.648	3614.76
494.017	3678.49
494.387	3660.19
494.757	3756.45
495.126	3733.4
495.496	3753.07
495.866	3863.57
496.235	3886.85
496.605	3913.96
496.974	3936.79
497.344	4002.78
497.713	3976.56
498.082	4063.79
498.452	4081.19
498.821	4095.66
499.19	4147.18
499.559	4206.84
499.928	4240.51
500.298	4234.63
500.667	4304.24
501.036	4323.45
501.405	4392.6
501.774	4365.7
502.143	4450.67
502.512	4547.39
502.88	4513.95
503.249	4556.89
503.618	4560.5
503.987	4620.84
504.356	4664.91
504.724	4689.09
505.093	4707.16
505.462	4755.75
505.83	4817.67
506.199	4901.06
506.567	4922.07
506.936	4952.36
507.304	5022.41
507.672	5022.18
508.041	5106.93
508.409	5149.86
508.777	5172.91
509.145	5256.98
509.514	5223.53
509.882	5293.82
510.25	5350.09
510.618	5399.35
510.986	5442.51
511.354	5441.61
511.722	5480.48
512.09	5616.29
512.458	5625.11
512.826	5665.11
513.193	5706.91
513.561	5734.93
513.929	5801.6
514.297	5923.4
514.664	5981.26
515.032	5966.79
515.4	6038.43
515.767	6017.19
516.135	6141.7
516.502	6129.05
516.869	6237.29
517.237	6270.06
517.604	6261.02
517.972	6354.35
518.339	6444.97
518.706	6511.41
519.073	6555.25
519.44	6603.84
519.808	6677.96
520.175	6671.18
520.542	6791.63
520.909	6805.41
521.276	6886.32
521.643	6924.51
522.009	7031.62
522.376	7077.27
522.743	7150.94
523.11	7297.6
523.477	7257.83
523.843	7368.56
524.21	7489.92
524.577	7518.16
524.943	7594.32
525.31	7707.31
525.676	7752.06
526.043	7841.55
526.409	7843.81
526.776	8019.62
527.142	8093.97
527.508	8061.43
527.874	8129.22
528.241	8230.46
528.607	8289.67
528.973	8354.53
529.339	8453.51
529.705	8496.9
530.071	8642.2
530.437	8582.99
530.803	8682.2
531.169	8840.62
531.535	8816.66
531.901	8844.23
532.267	8975.3
532.632	8998.12
532.998	9172.36
533.364	9206.48
533.73	9213.94
534.095	9319.47
534.461	9424.78
534.826	9446.93
535.192	9508.17
535.557	9526.7
535.923	9583.19
536.288	9667.03
536.653	9675.62
537.019	9698.45
537.384	9829.97
537.749	9937.99
538.114	9978.21
538.479	9965.11
538.845	10057.08
539.21	10072
539.575	10096.85
539.94	10180.24
540.305	10271.76
540.67	10330.29
541.034	10317.41
541.399	10469.05
541.764	10504.75
542.129	10560.8
542.494	10678.53
542.858	10700
543.223	10769.6
543.587	10758.76
543.952	10882.6
544.316	10954.91
544.681	10902.93
545.045	11082.59
545.41	11092.76
545.774	11182.7
546.138	11120.56
546.503	11241.23
546.867	11303.83
547.231	11466.08
547.595	11444.84
547.959	11495.91
548.324	11540.43
548.688	11625.17
549.052	11685.74
549.416	11692.07
549.779	11765.51
550.143	11888.22
550.507	11936.13
550.871	12082.34
551.235	12027.65
551.599	12114.2
551.962	12244.59
552.326	12281.65
552.689	12344.48
553.053	12400.3
553.417	12463.34
553.78	12640.97
554.143	12622.44
554.507	12641.19
554.87	12722.77
555.234	12866.72
555.597	12819.72
555.96	12996.21
556.323	13007.74
556.686	13091.58
557.05	13185.59
557.413	13228.3
557.776	13294.74
558.139	13440.04
558.502	13494.73
558.865	13531.34
559.228	13677.55
559.59	13736.08
559.953	13801.16
560.316	13927.71
560.679	13985.34
561.041	14132.68
561.404	14099.01
561.767	14236.41
562.129	14244.77
562.492	14414.71
562.854	14438.43
563.217	14513.69
563.579	14611.08
563.941	14732.21
564.304	14934.69
564.666	14964.75
565.028	14925.65
565.39	15018.31
565.753	15123.39
566.115	15312.54
566.477	15303.27
566.839	15476.82
567.201	15569.93
567.563	15590.49
567.925	15735.12
568.287	15745.74
568.648	15846.98
569.01	15891.73
569.372	16012.63
569.734	15932.41
570.095	16184.38
570.457	16269.57
570.819	16319.51
571.18	16341.66
571.542	16439.06
571.903	16600.64
572.265	16565.16
572.626	16653.74
572.987	16702.78
573.349	16836.56
573.71	16917.01
574.071	17004.24
574.432	17104.8
574.794	17261.41
575.155	17240.39
575.516	17170.79
575.877	17348.41
576.238	17370.79
576.599	17488.98
576.96	17494.4
577.32	17522.42
577.681	17637.9
578.042	17701.85
578.403	17824.79
578.763	17794.5
579.124	17893.26
579.485	17971.45
579.845	18063.65
580.206	18088.73
580.566	18117.89
580.927	18201.5
581.287	18231.55
581.648	18288.5
582.008	18391.78
582.368	18397.88
582.728	18435.16
583.089	18463.86
583.449	18432.45
583.809	18490.53
584.169	18573.69
584.529	18658.89
584.889	18803.52
585.249	18627.48
585.609	18640.58
585.969	18722.62
586.329	18704.99
586.688	18867.02
587.048	18910.41
587.408	18895.49
587.768	18969.16
588.127	18924.87
588.487	18859.11
588.846	19142.49
589.206	18983.4
589.565	19063.17
589.925	19152.89
590.284	19150.63
590.643	19209.16
591.003	19245.77
591.362	19316.27
591.721	19267.91
592.08	19289.83
592.44	19432.65
592.799	19390.39
593.158	19420.9
593.517	19515.14
593.876	19468.36
594.235	19548.58
594.593	19565.98
594.952	19605.98
595.311	19606.43
595.67	19714.23
596.029	19784.73
596.387	19845.07
596.746	19796.26
597.104	19723.94
597.463	19812.53
597.822	19998.51
598.18	19865.18
598.538	19848.46
598.897	20033.54
599.255	19857.27
599.613	20230.37
599.972	20096.36
600.33	20071.51
600.688	20186.08
601.046	20232.18
601.404	20283.48
601.762	20268.11
602.12	20308.79
602.478	20459.29
602.836	20443.47
603.194	20405.73
603.552	20503.36
603.91	20407.32
604.268	20580.19
604.625	20507.65
604.983	20481.44
605.341	20416.13
605.698	20661.77
606.056	20734.99
606.413	20701.09
606.771	20823.12
607.128	20808.21
607.485	20774.09
607.843	20891.15
608.2	21042.1
608.557	21095.43
608.914	20964.14
609.272	21104.02
609.629	21231.25
609.986	21235.77
610.343	21116.68
610.7	21307.41
611.057	21228.54
611.414	21342.89
611.771	21390.12
612.127	21387.4
612.484	21417.91
612.841	21536.1
613.198	21443.45
613.554	21570.9
613.911	21633.72
614.267	21597.34
614.624	21648.19
614.98	21692.03
615.337	21758.24
615.693	21790.78
616.05	21807.51
616.406	22006.14
616.762	21869.42
617.118	21856.54
617.475	21924.11
617.831	21974.51
618.187	21998.46
618.543	22093.6
618.899	22269.19
619.255	22165.01
619.611	22173.82
619.967	22341.28
620.323	22327.94
620.678	22180.15
621.034	22152.58
621.39	22370.65
621.746	22312.58
622.101	22533.81
622.457	22274.61
622.812	22492.46
623.168	22496.08
623.523	22495.4
623.879	22548.73
624.234	22461.5
624.589	22610.42
624.945	22554.15
625.3	22692
625.655	22597.54
626.01	22637.09
626.365	22666.47
626.72	22712.57
627.075	22696.97
627.43	22744.43
627.785	22605.22
628.14	22794.15
628.495	22736.07
628.85	22735.39
629.205	22637.77
629.559	22922.73
629.914	22757.99
630.269	22719.57
630.623	22603.64
630.978	22732.23
631.332	22656.3
631.687	22788.72
632.041	22707.37
632.396	22753.47
632.75	22656.52
633.104	22819.68
633.459	22710.53
633.813	22659.46
634.167	22683.41
634.521	22573.14
634.875	22764.32
635.229	22712.79
635.583	22605.22
635.937	22624.89
636.291	22696.97
636.645	22687.71
636.999	22622.63
637.352	22690.42
637.706	22582.85
638.06	22715.28
638.413	22604.09
638.767	22425.57
639.121	22529.07
639.474	22472.35
639.828	22451.33
640.181	22642.06
640.534	22591.21
640.888	22525.68
641.241	22385.34
641.594	22530.2
641.947	22495.4
642.301	22347.83
642.654	22614.94
643.007	22500.59
643.36	22602.74
643.713	22461.95
644.066	22495.62
644.419	22432.12
644.771	22318.45
645.124	22109.87
645.477	22120.94
645.83	21998.46
646.182	21951.91
646.535	21899.93
646.888	21894.06
647.24	21741.97
647.593	21946.03
647.945	21967.73
648.298	21786.04
648.65	21822.42
649.002	21744.91
649.355	21848.86
649.707	21857.45
650.059	21939.71
650.411	22127.5
650.763	22280.71
651.115	22395.29
651.467	22355.29
651.819	22354.16
652.171	22240.04
652.523	22345.8
652.875	22300.15
653.227	22214.73
653.578	22428.73
653.93	22290.2
654.282	22363.2
654.633	22184.67
654.985	22242.3
655.337	22302.18
655.688	22363.65
656.039	22419.02
656.391	22206.14
656.742	22266.93
657.094	22152.58
657.445	22448.84
657.796	22238.45
658.147	22219.7
658.498	22308.28
658.849	22343.31
659.2	22341.05
659.551	22265.8
659.902	22391.9
660.253	22353.25
660.604	22330.43
660.955	22280.94
661.306	22398.68
661.656	22330.2
662.007	22273.93
662.358	22327.04
662.708	22285.46
663.059	22473.02
663.409	22272.8
663.76	22376.3
664.11	22417.21
664.461	22445.91
664.811	22339.92
665.161	22370.88
665.511	22346.02
665.862	22357.55
666.212	22464.89
666.562	22429.64
666.912	22464.21
667.262	22367.26
667.612	22478.67
667.962	22268.28
668.312	22335.63
668.662	22437.55
669.011	22410.43
669.361	22340.83
669.711	22298.34
670.06	22343.54
670.41	22309.41
670.76	22407.26
671.109	22450.88
671.459	22376.76
671.808	22308.74
672.157	22320.26
672.507	22260.38
672.856	22235.52
673.205	22299.02
673.554	22374.95
673.904	22326.59
674.253	22459.47
674.602	22256.99
674.951	22033.26
675.3	21971.12
675.649	22355.29
675.998	22235.29
676.346	22331.11
676.695	22459.69
677.044	22231.9
677.393	22291.33
677.741	22379.47
678.09	22177.21
678.438	22208.63
678.787	22242.3
679.135	22364.1
679.484	22120.04
679.832	22197.33
680.181	22072.36
680.529	22110.1
680.877	22035.52
681.225	22151.45
681.573	22169.08
681.922	22048.63
682.27	21981.29
682.618	22012.02
682.966	21958.01
683.314	22005.92
683.661	22016.99
684.009	21924.56
684.357	21850.67
684.705	21837.79
685.053	21838.92
685.4	21827.84
685.748	21749.88
686.095	21751.24
686.443	21723.89
686.79	21661.07
687.138	21793.27
687.485	21715.3
687.832	21611.35
688.18	21551.92
688.527	21576.78
688.874	21555.08
689.221	21507.4
689.568	21507.63
689.915	21464.01
690.262	21387.63
690.609	21363.22
690.956	21296.78
691.303	21281.19
691.65	21189.44
691.997	21214.98
692.344	21120.52
692.69	21016.11
693.037	21148.09
693.383	20874.2
693.73	21029.9
694.077	20789.91
694.423	20946.51
694.769	20828.77
695.116	20755.1
695.462	20797.59
695.808	20638.5
696.155	20789.23
696.501	20613.86
696.847	20612.06
697.193	20377.71
697.539	20560.98
697.885	20502
698.231	20342.69
698.577	20336.58
698.923	20347.21
699.269	20191.73
699.614	20152.63
699.96	20150.15
700.306	20158.28
700.651	20037.83
700.997	20026.08
701.342	19953.09
701.688	19960.77
702.033	19852.08
702.379	19872.87
702.724	19751.74
703.069	19928.69
703.415	19681.23
703.76	19681.01
704.105	19641.23
704.45	19673.32
704.795	19496.15
705.14	19475.14
705.485	19505.19
705.83	19435.59
706.175	19464.52
706.52	19437.4
706.865	19349.04
707.209	19288.02
707.554	19231.98
707.899	19227.91
708.243	19091.87
708.588	19220
708.932	19032.21
709.277	19054.58
709.621	19035.38
709.966	18951.08
710.31	19101.59
710.654	18862.5
710.998	18895.72
711.342	18958.32
711.687	18895.72
712.031	18836.28
712.375	18711.32
712.719	18798.77
713.063	18691.43
713.407	18861.82
713.75	18763.52
714.094	18725.33
714.438	18588.16
714.782	18653.24
715.125	18476.07
715.469	18632.67
715.812	18511.55
716.156	18397.88
716.499	18419.35
716.843	18503.19
717.186	18332.79
717.53	18408.73
717.873	18508.38
718.216	18342.74
718.559	18265
718.902	18248.96
719.246	18340.03
719.589	18236.07
719.932	18130.77
720.275	18180.48
720.617	18110.88
720.96	18068.62
721.303	18150.43
721.646	18050.99
721.989	17978.45
722.331	18079.02
722.674	18062.07
723.016	17982.07
723.359	18072.01
723.701	18083.08
724.044	17956.08
724.386	17800.38
724.729	18016.19
725.071	17903.88
725.413	17842.86
725.755	17920.38
726.097	17750.44
726.439	17756.76
726.782	17825.01
727.124	17832.69
727.465	17794.05
727.807	17783.43
728.149	17669.54
728.491	17740.27
728.833	17761.51
729.175	17716.31
729.516	17781.85
729.858	17697.56
730.199	17591.12
730.541	17637.45
730.882	17644.9
731.224	17617.33
731.565	17511.57
731.906	17634.73
732.248	17597.67
732.589	17476.32
732.93	17439.03
733.271	17496.88
733.612	17550.89
733.953	17507.96
734.294	17491.46
734.635	17455.76
734.976	17589.76
735.317	17465.25
735.658	17403.78
735.999	17458.02
736.339	17384.12
736.68	17451.91
737.021	17320.17
737.361	17329.88
737.702	17390.67
738.042	17314.97
738.383	17282.88
738.723	17333.27
739.063	17266.16
739.404	17398.13
739.744	17253.05
740.084	17214.41
740.424	17196.33
740.764	17224.8
741.104	17320.62
741.444	17134.18
741.784	17181.41
742.124	17235.87
742.464	17137.12
742.804	17140.28
743.143	17133.96
743.483	17131.02
743.823	17071.36
744.162	17030.23
744.502	17063.9
744.841	17041.3
745.181	17122.88
745.52	17010.8
745.86	17107.74
746.199	17022.32
746.538	17013.73
746.877	17144.8
747.216	17085.37
747.556	17014.86
747.895	16999.5
748.234	16926.28
748.573	16968.08
748.911	16802.44
749.25	16979.38
749.589	16866.17
749.928	16871.14
750.267	16889.44
750.605	16820.97
750.944	16825.04
751.283	16821.42
751.621	16872.49
751.96	16709.79
752.298	16751.82
752.636	16805.38
752.975	16736.45
753.313	16700.52
753.651	16812.38
753.989	16637.02
754.327	16625.95
754.666	16543.46
755.004	16668.66
755.342	16646.96
755.679	16636.34
756.017	16472.05
756.355	16616.46
756.693	16441.77
757.031	16505.05
757.368	16409
757.706	16509.34
758.044	16432.05
758.381	16465.95
758.719	16346.86
759.056	16339.85
759.394	16439.29
759.731	16266.18
760.068	16204.49
760.405	16187.54
760.743	16019.64
761.08	16189.57
761.417	16059.63
761.754	16086.75
762.091	16110.71
762.428	15890.6
762.765	15966.3
763.102	15986.19
763.438	15870.26
763.775	15822.58
764.112	15811.28
764.449	15792.52
764.785	15803.82
765.122	15652.64
765.458	15597.5
765.795	15661.9
766.131	15629.14
766.467	15554.79
766.804	15559.76
767.14	15436.15
767.476	15434.34
767.812	15377.17
768.148	15420.33
768.485	15375.81
768.821	15272.31
769.157	15226.44
769.492	15187.11
769.828	15176.04
770.164	15067.8
770.5	15074.12
770.836	15087.91
771.171	14868.25
771.507	14884.07
771.842	14854.69
772.178	14813.79
772.513	14740.8
772.849	14779.44
773.184	14693.79
773.519	14788.71
773.855	14644.76
774.19	14538.32
774.525	14571.31
774.86	14549.39
775.195	14524.31
775.53	14405.89
775.865	14367.25
776.2	14268.49
776.535	14168.61
776.87	14214.94
777.205	14150.98
777.539	14133.81
777.874	14175.39
778.209	13993.7
778.543	14007.48
778.878	13951.44
779.212	13879.35
779.547	13828.51
779.881	13863.08
780.215	13770.65
780.55	13790.99
780.884	13729.3
781.218	13680.04
781.552	13727.04
781.886	13605.46
782.22	13524.56
782.554	13456.76
782.888	13388.52
783.222	13371.8
783.556	13248.86
783.889	13287.73
784.223	13223.1
784.557	13178.81
784.89	13177.9
785.224	13054.74
785.557	13056.78
785.891	13051.13
786.224	12999.6
786.558	12945.14
786.891	12805.93
787.224	12864.92
787.557	12827.85
787.891	12798.25
788.224	12706.5
788.557	12614.08
788.89	12671.47
789.223	12659.95
789.556	12521.2
789.888	12516.22
790.221	12510.8
790.554	12370.69
790.887	12446.62
791.219	12394.65
791.552	12310.13
791.884	12338.15
792.217	12317.81
792.549	12167.08
792.882	12156.46
793.214	12067.65
793.546	12184.93
793.879	12133.86
794.211	11984.94
794.543	12051.6
794.875	11983.58
795.207	11964.37
795.539	11897.71
795.871	11958.05
796.203	11815
796.535	11817.94
796.867	11734.1
797.198	11772.97
797.53	11739.3
797.862	11735.23
798.193	11661.11
798.525	11579.3
798.856	11637.6
799.188	11501.56
799.519	11505.63
799.85	11406.42
800.182	11477.16
800.513	11445.74
800.844	11287.1
801.175	11426.08
801.506	11263.38
801.837	11303.6
802.168	11247.33
802.499	11250.95
802.83	11107.67
803.161	11099.09
803.491	11102.25
803.822	11113.1
804.153	11020.44
804.483	11010.28
804.814	10989.03
805.145	10972.08
805.475	10968.02
805.805	10948.81
806.136	10915.81
806.466	10957.4
806.796	10859.77
807.126	10780
807.457	10785.2
807.787	10796.72
808.117	10694.8
808.447	10673.11
808.777	10688.25
809.107	10659.78
809.436	10704.97
809.766	10696.39
810.096	10658.42
810.426	10522.15
810.755	10594.92
811.085	10600.79
811.414	10463.85
811.744	10420.23
812.073	10388.14
812.403	10403.29
812.732	10354.7
813.061	10406.9
813.39	10338.88
813.719	10288.26
814.049	10307.47
814.378	10364.64
814.707	10253.23
815.036	10269.73
815.365	10199.68
815.693	10120.81
816.022	10156.51
816.351	10149.06
816.68	10036.97
817.008	9999.23
817.337	9966.69
817.665	10027.02
817.994	10016.18
818.322	9967.82
818.651	9930.53
818.979	9944.77
819.307	9931.66
819.636	9890.76
819.964	9804.43
820.292	9880.14
820.62	9923.52
820.948	9821.61
821.276	9809.4
821.604	9827.03
821.932	9875.16
822.259	9855.73
822.587	9770.53
822.915	9830.19
823.243	9854.83
823.57	9824.32
823.898	9822.74
824.225	9817.99
824.553	9777.99
824.88	9829.74
825.207	9838.1
825.535	9807.82
825.862	9876.97
826.189	9777.31
826.516	9850.98
826.843	9851.44
827.17	9852.57
827.497	9844.66
827.824	9856.18
828.151	9840.59
828.478	9882.4
828.805	9854.83
829.131	9839.01
829.458	9770.31
829.785	9748.84
830.111	9858.89
830.438	9808.95
830.764	9818.89
831.09	9847.59
831.417	9763.53
831.743	9792.45
832.069	9810.98
832.395	9787.93
832.722	9823.41
833.048	9777.09
833.374	9762.62
833.7	9738.22
834.026	9814.15
834.351	9740.93
834.677	9742.96
835.003	9735.51
835.329	9740.93
835.654	9721.95
835.98	9627.71
836.306	9665.9
836.631	9659.8
836.956	9764.43
837.282	9707.26
837.607	9690.31
837.932	9657.09
838.258	9667.49
838.583	9589.52
838.908	9588.62
839.233	9615.06
839.558	9491.22
839.883	9488.73
840.208	9551.33
840.533	9487.15
840.858	9551.1
841.182	9497.55
841.507	9529.18
841.832	9388.4
842.156	9457.77
842.481	9465.46
842.805	9395.18
843.13	9362.18
843.454	9415.74
843.778	9352.24
844.103	9298
844.427	9274.5
844.751	9287.16
845.075	9286.25
845.399	9230.89
845.723	9176.65
846.047	9185.92
846.371	9089.42
846.695	9106.37
847.019	9093.04
847.343	9055.98
847.666	8931.69
847.99	8958.35
848.313	8935.75
848.637	8846.26
848.96	8905.92
849.284	8873.38
849.607	8825.93
849.931	8801.97
850.254	8729.88
850.577	8707.96
850.9	8629.32
851.223	8683.56
851.546	8595.65
851.869	8499.16
852.192	8520.85
852.515	8486.27
852.838	8421.19
853.161	8537.57
853.483	8456.22
853.806	8415.77
854.129	8389.1
854.451	8340.52
854.774	8308.2
855.096	8294.87
855.419	8248.31
855.741	8233.4
856.063	8138.94
856.385	8204.93
856.708	8176.45
857.03	8139.39
857.352	8208.32
857.674	8125.83
857.996	8088.77
858.318	8030.69
858.64	8083.57
858.961	8069.79
859.283	8007.42
859.605	7945.95
859.926	7987.76
860.248	7954.08
860.57	7904.59
860.891	7923.35
861.212	7896.01
861.534	7887.65
861.855	7845.16
862.176	7886.06
862.498	7856.91
862.819	7804.71
863.14	7858.27
863.461	7727.2
863.782	7760.19
864.103	7780.98
864.424	7771.72
864.745	7735.33
865.065	7651.27
865.386	7689.68
865.707	7675
866.027	7669.8
866.348	7657.37
866.668	7648.78
866.989	7663.24
867.309	7559.07
867.63	7604.04
867.95	7540.76
868.27	7558.39
868.59	7560.65
868.91	7511.16
869.23	7490.82
869.55	7514.32
869.87	7548.45
870.19	7491.5
870.51	7543.7
870.83	7534.89
871.15	7416.7
871.469	7491.05
871.789	7479.97
872.109	7454.66
872.428	7399.75
872.748	7393.87
873.067	7410.37
873.386	7438.62
873.706	7392.74
874.025	7392.07
874.344	7364.04
874.663	7389.13
874.982	7316.81
875.301	7335.12
875.62	7335.8
875.939	7287.66
876.258	7305.74
876.577	7307.1
876.896	7375.34
877.214	7225.74
877.533	7271.62
877.852	7237.72
878.17	7304.38
878.489	7274.1
878.807	7236.14
879.125	7268
879.444	7235.91
879.762	7169.7
880.08	7216.02
880.398	7165.86
880.716	7103.26
881.034	7121.79
881.352	7118.85
881.67	7058.74
881.988	7176.93
882.306	7069.14
882.624	7050.61
882.941	7031.4
883.259	7032.98
883.577	7023.71
883.894	6967.44
884.212	6992.75
884.529	6989.36
884.846	6961.34
885.164	6987.33
885.481	6931.96
885.798	6932.87
886.115	6875.02
886.432	6929.25
886.75	6889.71
887.067	6848.58
887.383	6899.65
887.7	6834.11
888.017	6799.54
888.334	6844.06
888.651	6746.21
888.967	6794.34
889.284	6735.59
889.6	6711.63
889.917	6710.28
890.233	6763.61
890.55	6638.64
890.866	6656.72
891.182	6643.84
891.498	6623.5
891.815	6610.62
892.131	6579.66
892.447	6565.65
892.763	6536.72
893.079	6524.74
893.395	6504.63
893.71	6520.68
894.026	6482.26
894.342	6454.69
894.657	6400.68
894.973	6425.76
895.289	6405.65
895.604	6390.51
895.92	6315.94
896.235	6319.33
896.55	6315.94
896.865	6317.07
897.181	6293.56
897.496	6271.64
897.811	6257.18
898.126	6236.16
898.441	6190.74
898.756	6213.11
899.071	6192.78
899.386	6153.91
899.7	6127.01
900.015	6073.68
900.33	6032.78
900.644	6049.73
900.959	6089.27
901.273	6100.8
901.588	5984.64
901.902	6017.41
902.216	5957.08
902.531	5953.01
902.845	5868.72
903.159	5904.87
903.473	5836.63
903.787	5853.57
904.101	5815.84
904.415	5822.16
904.729	5855.38
905.042	5771.54
905.356	5792.33
905.67	5727.93
905.984	5788.27
906.297	5714.37
906.611	5725.22
906.924	5629.85
907.237	5588.5
907.551	5635.05
907.864	5557.54
908.177	5547.14
908.491	5554.15
908.804	5573.58
909.117	5504.43
909.43	5504.88
909.743	5466.01
910.056	5439.57
910.368	5428.73
910.681	5383.08
910.994	5378.33
911.307	5405.9
911.619	5348.96
911.932	5342.63
912.244	5289.75
912.557	5256.3
912.869	5235.51
913.181	5258.79
913.494	5222.41
913.806	5209.07
914.118	5158.45
914.43	5117.32
914.742	5150.99
915.054	5113.71
915.366	5129.3
915.678	5085.23
915.99	5092.01
916.302	5010.89
916.613	5053.37
916.925	5009.3
917.236	5015.63
917.548	5000.72
917.859	4954.62
918.171	4975.86
918.482	4918.01
918.794	4899.25
919.105	4886.14
919.416	4861.74
919.727	4878.46
920.038	4852.92
920.349	4799.37
920.66	4764.34
920.971	4744.68
921.282	4744
921.593	4708.75
921.903	4708.07
922.214	4687.96
922.525	4655.87
922.835	4659.26
923.146	4663.32
923.456	4577.22
923.767	4599.14
924.077	4556.43
924.387	4543.33
924.697	4547.62
925.008	4485.7
925.318	4501.52
925.628	4534.29
925.938	4468.75
926.248	4424.46
926.558	4384.01
926.867	4417.68
927.177	4406.16
927.487	4429.43
927.796	4324.58
928.106	4314.63
928.416	4342.88
928.725	4372.71
929.034	4273.73
929.344	4327.51
929.653	4267.85
929.962	4187.63
930.271	4207.29
930.581	4156.22
930.89	4191.25
931.199	4159.38
931.508	4174.75
931.817	4168.65
932.125	4159.61
932.434	4085.49
932.743	4081.87
933.051	4033.96
933.36	4046.16
933.669	4036.45
933.977	4007.3
934.286	4025.37
934.594	3955.09
934.902	3887.98
935.21	3985.15
935.519	3934.53
935.827	3946.28
936.135	3871.48
936.443	3838.49
936.751	3874.42
937.059	3880.07
937.367	3830.35
937.674	3845.27
937.982	3831.71
938.29	3802.78
938.597	3763.01
938.905	3774.53
939.213	3759.17
939.52	3692.95
939.827	3712.84
940.135	3722.78
940.442	3665.16
940.749	3736.79
941.056	3684.37
941.363	3619.74
941.67	3661.32
941.977	3601.66
942.284	3567.08
942.591	3556.91
942.898	3598.27
943.205	3551.26
943.511	3560.08
943.818	3528.44
944.125	3521.21
944.431	3489.34
944.738	3488.67
945.044	3504.48
945.35	3445.28
945.657	3426.07
945.963	3412.06
946.269	3393.75
946.575	3422.9
946.881	3365.5
947.187	3395.33
947.493	3370.25
947.799	3316.47
948.105	3313.08
948.41	3318.73
948.716	3310.14
949.022	3289.57
949.327	3295.68
949.633	3244.83
949.938	3273.98
950.244	3279.41
950.549	3254.32
950.854	3228.11
951.16	3218.16
951.465	3171.39
951.77	3140.65
952.075	3145.4
952.38	3132.29
952.685	3179.75
952.99	3101.33
953.294	3136.13
953.599	3063.82
953.904	3069.02
954.209	3047.32
954.513	3056.36
954.818	3048.9
955.122	3053.42
955.426	3012.75
955.731	2995.12
956.035	2960.77
956.339	2998.06
956.643	2957.83
956.948	2950.37
957.252	2921
957.556	2959.64
957.86	2898.62
958.163	2917.61
958.467	2876.03
958.771	2866.31
959.075	2862.47
959.378	2863.37
959.682	2851.62
959.985	2838.51
960.289	2799.64
960.592	2805.97
960.896	2819.53
961.199	2805.97
961.502	2768.46
961.805	2740.44
962.108	2754
962.411	2727.56
962.714	2769.14
963.017	2697.95
963.32	2740.89
963.623	2700.44
963.926	2673.09
964.228	2669.25
964.531	2634.22
964.833	2663.15
965.136	2609.14
965.438	2647.78
965.741	2619.54
966.043	2648.46
966.345	2590.84
966.648	2573.89
966.95	2579.76
967.252	2585.19
967.554	2576.6
967.856	2563.04
968.158	2550.38
968.46	2532.76
968.761	2517.39
969.063	2512.65
969.365	2490.95
969.666	2482.59
969.968	2490.05
970.269	2428.81
970.571	2441.01
970.872	2439.88
971.174	2424.96
971.475	2420.67
971.776	2416.15
972.077	2439.2
972.378	2390.16
972.679	2425.19
972.98	2418.41
973.281	2346.1
973.582	2337.51
973.883	2374.8
974.183	2331.18
974.484	2321.69
974.785	2334.35
975.085	2305.87
975.386	2313.1
975.686	2288.02
975.986	2271.75
976.287	2287.79
976.587	2262.03
976.887	2221.58
977.187	2252.09
977.487	2257.51
977.787	2253.67
978.087	2202.37
978.387	2206.67
978.687	2197.63
978.987	2170.96
979.286	2196.04
979.586	2178.42
979.885	2144.29
980.185	2147.23
980.484	2123.5
980.784	2116.5
981.083	2121.47
981.382	2115.82
981.682	2120.57
981.981	2116.5
982.28	2093.67
982.579	2088.7
982.878	2068.59
983.177	2052.54
983.475	2049.61
983.774	2033.79
984.073	2052.77
984.372	2029.27
984.67	2053.22
984.969	2026.33
985.267	2033.34
985.566	2025.43
985.864	1982.49
986.162	1996.95
986.461	1953.79
986.759	1971.42
987.057	1961.7
987.355	1937.29
987.653	1949.72
987.951	1929.84
988.249	1919.44
988.547	1944.3
988.844	1907.69
989.142	1883.51
989.44	1893.68
989.737	1891.42
990.035	1845.54
990.332	1892.32
990.63	1847.8
990.927	1834.92
991.224	1837.18
991.521	1838.31
991.819	1795.6
992.116	1822.95
992.413	1815.49
992.71	1804.87
993.006	1783.63
993.303	1794.92
993.6	1774.81
993.897	1811.2
994.193	1750.41
994.49	1766.45
994.787	1762.84
995.083	1696.62
995.379	1730.52
995.676	1705.44
995.972	1698.43
996.268	1704.76
996.565	1736.4
996.861	1688.94
997.157	1686
997.453	1688.26
997.749	1664.53
998.044	1669.05
998.34	1667.24
998.636	1641.26
998.932	1630.41
999.227	1624.99
999.523	1642.39
999.818	1607.36
1000.114	1614.14
1000.409	1600.81
1000.704	1621.37
1001	1593.35
1001.295	1568.26
1001.59	1606.23
1001.885	1567.59
1002.18	1546.12
1002.475	1539.79
1002.77	1525.78
1003.065	1526.01
1003.359	1519.9
1003.654	1532.33
1003.949	1509.28
1004.243	1505.89
1004.538	1490.3
1004.832	1493.46
1005.127	1479
1005.421	1467.7
1005.715	1460.92
1006.009	1468.15
1006.304	1453.92
1006.598	1450.3
1006.892	1454.82
1007.186	1428.15
1007.48	1414.14
1007.773	1432.22
1008.067	1435.16
1008.361	1405.1
1008.655	1389.29
1008.948	1367.14
1009.242	1405.78
1009.535	1368.27
1009.829	1373.01
1010.122	1353.81
1010.415	1337.76
1010.708	1370.3
1011.001	1341.38
1011.295	1302.96
1011.588	1319.46
1011.881	1306.12
1012.173	1299.34
1012.466	1294.82
1012.759	1301.38
1013.052	1297.76
1013.344	1275.16
1013.637	1264.09
1013.93	1277.65
1014.222	1228.39
1014.514	1271.55
1014.807	1244.2
1015.099	1250.98
1015.391	1212.79
1015.683	1243.07
1015.976	1228.16
1016.268	1235.17
1016.56	1196.3
1016.851	1199.69
1017.143	1205.34
1017.435	1191.55
1017.727	1171.44
1018.018	1179.8
1018.31	1164.66
1018.602	1152.91
1018.893	1143.19
1019.185	1153.59
1019.476	1138.67
1019.767	1166.24
1020.058	1136.86
1020.35	1107.03
1020.641	1109.29
1020.932	1113.36
1021.223	1081.95
1021.514	1096.41
1021.804	1087.37
1022.095	1088.5
1022.386	1086.69
1022.677	1075.85
1022.967	1090.76
1023.258	1047.15
1023.548	1069.29
1023.839	1054.15
1024.129	1020.26
1024.419	1041.5
1024.709	1022.97
1025	1000.14
1025.29	1038.11
1025.58	1013.48
1025.87	995.4
1026.16	989.75
1026.449	985.23
1026.739	978.45
1027.029	991.56
1027.319	963.99
1027.608	979.58
1027.898	927.15
1028.187	978.22
1028.477	960.6
1028.766	931.22
1029.055	932.57
1029.344	917.43
1029.634	939.81
1029.923	939.35
1030.212	912.91
1030.501	907.26
1030.79	906.36
1031.078	893.93
1031.367	905.91
1031.656	880.6
1031.945	895.29
1032.233	895.97
1032.522	884.44
1032.81	851.22
1033.099	853.03
1033.387	870.43
1033.675	865.91
1033.963	826.81
1034.251	847.6
1034.54	841.73
1034.828	848.28
1035.116	834.27
1035.403	843.76
1035.691	819.58
1035.979	811.22
1036.267	823.88
1036.554	801.28
1036.842	801.28
1037.129	794.05
1037.417	800.83
1037.704	804.89
1037.992	778.23
1038.279	788.62
1038.566	780.49
1038.853	780.49
1039.14	780.49
