Data from cardboard_FLMS001491_095.txt Node
Date: Tue Feb 07 11:40:26 GMT 2017
User: dcchb
Spectrometer: FLMS00149
Trigger mode: 0
Integration Time (sec): 2.000000E-2
Scans to average: 10
Electric dark correction enabled: true
Nonlinearity correction enabled: false
Boxcar width: 0
XAxis mode: Wavelengths
Number of Pixels in Spectrum: 2048
>>>>>Begin Spectral Data<<<<<
341.393	-14.76
341.776	-14.76
342.16	-14.76
342.543	-56.11
342.927	-57.02
343.31	-83.46
343.693	-48.2
344.077	-60.86
344.46	-67.87
344.843	-60.18
345.226	-49.79
345.61	-37.81
345.993	-32.84
346.376	14.39
346.759	-2.1
347.142	26.37
347.525	44
347.908	68.63
348.291	75.41
348.674	86.25
349.057	128.06
349.44	119.47
349.823	142.3
350.206	166.25
350.588	186.82
350.971	208.96
351.354	237.44
351.737	235.18
352.119	258.68
352.502	281.73
352.884	261.84
353.267	281.73
353.65	277.66
354.032	313.82
354.414	304.33
354.797	309.53
355.179	318.57
355.562	310.88
355.944	331.9
356.326	347.26
356.709	337.32
357.091	333.25
357.473	329.19
357.855	321.95
358.238	323.99
358.62	359.47
359.002	358.34
359.384	340.94
359.766	330.09
360.148	340.26
360.53	317.21
360.912	322.18
361.294	313.14
361.676	328.51
362.057	339.81
362.439	347.04
362.821	329.41
363.203	340.94
363.584	312.92
363.966	333.71
364.348	349.07
364.729	305.23
365.111	335.06
365.493	315.4
365.874	304.55
366.256	317.21
366.637	317.89
367.019	287.83
367.4	287.15
367.781	326.93
368.163	335.29
368.544	307.72
368.925	311.56
369.306	310.2
369.688	323.54
370.069	318.57
370.45	325.34
370.831	319.02
371.212	323.99
371.593	337.77
371.974	320.6
372.355	311.56
372.736	315.85
373.117	304.55
373.498	317.66
373.879	317.89
374.26	303.88
374.641	323.31
375.021	323.76
375.402	338
375.783	330.54
376.163	332.58
376.544	335.29
376.925	335.51
377.305	307.72
377.686	323.76
378.066	306.81
378.447	322.41
378.827	335.97
379.208	331.67
379.588	350.2
379.968	329.64
380.349	333.71
380.729	346.36
381.109	325.12
381.489	355.4
381.87	342.75
382.25	326.02
382.63	326.02
383.01	337.32
383.39	333.48
383.77	354.04
384.15	336.64
384.53	342.75
384.91	350.65
385.29	361.05
385.67	338.9
386.049	336.42
386.429	363.99
386.809	367.15
387.189	331.22
387.568	361.05
387.948	363.99
388.328	365.57
388.707	367.15
389.087	365.34
389.466	353.37
389.846	364.67
390.225	364.21
390.605	375.96
390.984	369.19
391.363	375.06
391.743	383.87
392.122	393.14
392.501	365.34
392.881	380.71
393.26	379.35
393.639	372.35
394.018	400.6
394.397	376.64
394.776	379.81
395.155	407.38
395.534	391.56
395.913	395.63
396.292	410.31
396.671	392.69
397.05	391.56
397.429	396.76
397.808	427.04
398.186	415.96
398.565	412.8
398.944	386.36
399.323	399.92
399.701	412.57
400.08	405.12
400.458	431.1
400.837	420.03
401.215	416.19
401.594	417.77
401.972	407.83
402.351	425.23
402.729	412.57
403.107	402.4
403.486	419.35
403.864	418
404.242	440.6
404.62	453.93
404.999	451.22
405.377	474.04
405.755	448.73
406.133	453.7
406.511	452.8
406.889	466.58
407.267	452.8
407.645	463.42
408.023	460.71
408.401	474.72
408.779	466.81
409.156	495.51
409.534	471.1
409.912	483.31
410.29	476.3
410.667	486.24
411.045	487.83
411.422	500.26
411.8	500.71
412.178	520.59
412.555	498.67
412.933	520.37
413.31	521.27
413.687	521.95
414.065	523.53
414.442	535.28
414.819	539.12
415.197	528.5
415.574	541.38
415.951	545.68
416.328	527.37
416.705	533.02
417.082	546.58
417.46	555.4
417.837	572.57
418.214	566.92
418.591	572.34
418.967	558.78
419.344	587.94
419.721	578.45
420.098	567.6
420.475	598.56
420.852	590.42
421.228	580.48
421.605	593.59
421.982	608.05
422.358	611.89
422.735	628.16
423.111	606.92
423.488	609.18
423.864	626.13
424.241	622.96
424.617	653.7
424.994	622.96
425.37	641.72
425.746	636.75
426.123	650.08
426.499	649.86
426.875	664.09
427.251	668.61
427.627	674.49
428.003	688.05
428.379	690.31
428.756	669.52
429.132	684.88
429.507	683.53
429.883	692.34
430.259	718.1
430.635	728.27
431.011	728.27
431.387	718.78
431.763	761.94
432.138	755.84
432.514	747.71
432.89	733.24
433.265	768.27
433.641	753.13
434.016	764.43
434.392	745.22
434.767	812.11
435.143	797.42
435.518	798.55
435.894	816.86
436.269	813.47
436.644	828.38
437.02	853.24
437.395	805.33
437.77	848.27
438.145	850.75
438.52	858.89
438.895	860.02
439.271	887.82
439.646	892.79
440.021	876.97
440.395	895.27
440.77	891.66
441.145	891.43
441.52	896.85
441.895	902.05
442.27	921.49
442.645	921.04
443.019	914.93
443.394	936.85
443.769	928.72
444.143	908.15
444.518	935.72
444.892	938.66
445.267	977.76
445.641	953.12
446.016	967.59
446.39	955.16
446.764	980.47
447.139	983.41
447.513	989.73
447.887	965.33
448.262	976.85
448.636	1022.95
449.01	1017.08
449.384	1019.11
449.758	1018.43
450.132	1015.95
450.506	1031.99
450.88	1031.09
451.254	1046.46
451.628	1045.33
452.002	1095.04
452.376	1079.22
452.75	1105.21
453.123	1100.01
453.497	1100.47
453.871	1123.74
454.244	1116.28
454.618	1114.93
454.992	1153.12
455.365	1142.5
455.739	1183.85
456.112	1177.53
456.486	1220.01
456.859	1217.3
457.232	1205.55
457.606	1225.89
457.979	1239.22
458.352	1244.42
458.725	1257.98
459.099	1296.17
459.472	1307.69
459.845	1312.21
460.218	1316.28
460.591	1327.58
460.964	1313.57
461.337	1367.13
461.71	1376.16
462.083	1378.88
462.456	1389.72
462.829	1406.9
463.201	1429.95
463.574	1429.04
463.947	1446.45
464.32	1479.21
464.692	1478.99
465.065	1514.01
465.438	1524.86
465.81	1547.01
466.183	1555.37
466.555	1603.96
466.928	1594.01
467.3	1618.87
467.672	1648.7
468.045	1654.58
468.417	1657.96
468.789	1650.06
469.161	1715.14
469.534	1735.7
469.906	1737.96
470.278	1757.85
470.65	1748.58
471.022	1801.01
471.394	1849.37
471.766	1852.99
472.138	1887.11
472.51	1918.97
472.882	1937.28
473.253	1964.85
473.625	1961.91
473.997	2046.2
474.369	2042.59
474.74	2106.09
475.112	2110.61
475.484	2128.01
475.855	2153.09
476.227	2169.82
476.598	2243.26
476.97	2285.97
477.341	2309.02
477.713	2323.03
478.084	2368.91
478.455	2423.14
478.827	2405.52
479.198	2533.87
479.569	2523.48
479.94	2581.56
480.311	2580.43
480.682	2648.45
481.053	2706.07
481.424	2744.72
481.795	2771.83
482.166	2821.55
482.537	2867.65
482.908	2925.95
483.279	2953.3
483.65	3042.11
484.021	3045.27
484.391	3095.89
484.762	3114.88
485.133	3131.15
485.503	3253.18
485.874	3267.41
486.244	3308.54
486.615	3355.55
486.985	3403
487.356	3448.43
487.726	3467.86
488.097	3558.93
488.467	3610.23
488.837	3670.57
489.207	3692.26
489.578	3833.73
489.948	3848.42
490.318	3857.23
490.688	3891.8
491.058	3905.36
491.428	4013.61
491.798	4059.48
492.168	4142.65
492.538	4134.74
492.908	4205.92
493.278	4332.02
493.648	4293.15
494.017	4315.07
494.387	4384.22
494.757	4408.18
495.126	4516.42
495.496	4509.42
495.866	4554.61
496.235	4642.52
496.605	4673.25
496.974	4716.42
497.344	4768.62
497.713	4776.07
498.082	4862.85
498.452	4920.03
498.821	4899.01
499.19	4948.5
499.559	5025.33
499.928	5075.95
500.298	5103.98
500.667	5137.87
501.036	5200.24
501.405	5226.01
501.774	5262.84
502.143	5356.4
502.512	5338.77
502.88	5469.39
503.249	5442.27
503.618	5502.16
503.987	5517.07
504.356	5594.81
504.724	5633.91
505.093	5687.92
505.462	5686.11
505.83	5799.32
506.199	5828.48
506.567	5924.29
506.936	5931.07
507.304	5982.37
507.672	6069.83
508.041	6031.18
508.409	6195.47
508.777	6238.86
509.145	6302.59
509.514	6301.23
509.882	6377.39
510.25	6449.25
510.618	6406.31
510.986	6464.84
511.354	6543.03
511.722	6712.3
512.09	6773.76
512.458	6722.69
512.826	6786.42
513.193	6820.99
513.561	6882.46
513.929	6962.91
514.297	7038.39
514.664	7107.54
515.032	7158.39
515.4	7167.88
515.767	7258.04
516.135	7314.31
516.502	7371.71
516.869	7521.54
517.237	7566.96
517.604	7498.49
517.972	7680.41
518.339	7775.77
518.706	7765.83
519.073	7850.34
519.44	7974.63
519.808	7990.68
520.175	7999.04
520.542	8148.64
520.909	8236.1
521.276	8289.65
521.643	8398.58
522.009	8451.01
522.376	8517.22
522.743	8600.83
523.11	8714.5
523.477	8873.14
523.843	8868.85
524.21	8934.38
524.577	9051.44
524.943	9070.88
525.31	9227.71
525.676	9223.42
526.043	9319.68
526.409	9386.35
526.776	9571.43
527.142	9568.04
527.508	9673.35
527.874	9792.89
528.241	9844.64
528.607	9914.24
528.973	10015.03
529.339	10031.76
529.705	10140.23
530.071	10285.08
530.437	10315.82
530.803	10429.71
531.169	10476.94
531.535	10462.25
531.901	10622.02
532.267	10648.91
532.632	10763.71
532.998	10860.66
533.364	10957.83
533.73	11010.04
534.095	11167.32
534.461	11164.38
534.826	11272.4
535.192	11226.07
535.557	11397.14
535.923	11451.38
536.288	11447.31
536.653	11634.88
537.019	11621.54
537.384	11598.27
537.749	11772.28
538.114	11808.66
538.479	11957.81
538.845	11972.27
539.21	12008.88
539.575	12054.3
539.94	12129.55
540.305	12303.56
540.67	12269.89
541.034	12273.96
541.399	12447.29
541.764	12508.53
542.129	12652.03
542.494	12584.46
542.858	12763.66
543.223	12688.41
543.587	12872.81
543.952	12848.41
544.316	12985.58
544.681	12974.5
545.045	13140.6
545.41	13156.19
545.774	13242.97
546.138	13305.34
546.503	13341.27
546.867	13389.63
547.231	13527.26
547.595	13583.53
547.959	13671.89
548.324	13674.6
548.688	13725.22
549.052	13892.22
549.416	13891.09
549.779	13913.69
550.143	14047.7
550.507	14201.36
550.871	14161.59
551.235	14304.41
551.599	14362.49
551.962	14341.93
552.326	14424.18
552.689	14644.06
553.053	14542.6
553.417	14703.05
553.78	14799.09
554.143	14896.03
554.507	14950.72
554.87	15079.98
555.234	15197.72
555.597	15167.44
555.96	15172.64
556.323	15429.58
556.686	15418.51
557.05	15510.71
557.413	15566.53
557.776	15644.26
558.139	15825.05
558.502	15848.78
558.865	15890.36
559.228	16043.35
559.59	16180.97
559.953	16291.03
560.316	16439.72
560.679	16441.98
561.041	16634.52
561.404	16664.35
561.767	16867.73
562.129	16745.7
562.492	16992.93
562.854	17019.82
563.217	16995.41
563.579	17121.51
563.941	17290.77
564.304	17405.57
564.666	17466.81
565.028	17611.67
565.39	17629.75
565.753	17770.54
566.115	17928.27
566.477	18014.14
566.839	18080.58
567.201	18168.04
567.563	18179.34
567.925	18398.32
568.287	18527.35
568.648	18488.71
569.01	18601.02
569.372	18852.32
569.734	18792.2
570.095	18908.36
570.457	18914.23
570.819	19032.42
571.18	19028.36
571.542	19323.94
571.903	19334.34
572.265	19489.36
572.626	19407.78
572.987	19605.29
573.349	19655.01
573.71	19739.07
574.071	19836.92
574.432	19991.49
574.794	20068.1
575.155	20137.03
575.516	19975.22
575.877	20074.43
576.238	20229.45
576.599	20297.02
576.96	20370.69
577.32	20449.11
577.681	20537.92
578.042	20667.41
578.403	20705.37
578.763	20714.19
579.124	20765.26
579.485	20970.45
579.845	20976.55
580.206	20967.97
580.566	21017
580.927	21021.98
581.287	21261.07
581.648	21141.97
582.008	21182.88
582.368	21431.91
582.728	21379.25
583.089	21416.32
583.449	21358.92
583.809	21564.11
584.169	21555.75
584.529	21598.01
584.889	21683.2
585.249	21701.05
585.609	21663.09
585.969	21800.26
586.329	21763.88
586.688	21778.79
587.048	21836.87
587.408	21860.82
587.768	21828.73
588.127	22000.48
588.487	21955.51
588.846	22160.02
589.206	22106.69
589.565	22094.49
589.925	22154.83
590.284	22172
590.643	22209.51
591.003	22392.79
591.362	22401.37
591.721	22371.77
592.08	22509.39
592.44	22465.33
592.799	22520.24
593.158	22472.78
593.517	22585.1
593.876	22691.31
594.235	22551.2
594.593	22679.11
594.952	22775.83
595.311	22589.84
595.67	22830.29
596.029	22819.22
596.387	22910.29
596.746	22908.71
597.104	22860.35
597.463	22947.8
597.822	23032.32
598.18	22964.07
598.538	22944.64
598.897	23097.85
599.255	23015.14
599.613	23415.36
599.972	23208.81
600.33	23286.32
600.688	23247.45
601.046	23363.83
601.404	23395.02
601.762	23303.05
602.12	23581
602.478	23545.98
602.836	23670.72
603.194	23558.86
603.552	23575.13
603.91	23544.17
604.268	23719.53
604.625	23668.23
604.983	23762.02
605.341	23737.16
605.698	23980.54
606.056	23931.28
606.413	23928.79
606.771	24048.11
607.128	24064.38
607.485	23987.32
607.843	24098.5
608.2	24241.55
608.557	24294.66
608.914	24187.32
609.272	24303.25
609.629	24343.7
609.986	24446.97
610.343	24385.28
610.7	24643.58
611.057	24572.84
611.414	24515.22
611.771	24595.44
612.127	24818.94
612.484	24775.32
612.841	24847.19
613.198	24669.56
613.554	24721.09
613.911	24980.29
614.267	24873.4
614.624	25010.57
614.98	25073.85
615.337	25113.17
615.693	25108.2
616.05	25136.9
616.406	25310
616.762	25261.86
617.118	25136.22
617.475	25317.91
617.831	25260.51
618.187	25522.65
618.543	25439.49
618.899	25578.24
619.255	25555.19
619.611	25649.2
619.967	25669.08
620.323	25773.04
620.678	25690.1
621.034	25675.41
621.39	25599.26
621.746	25651.01
622.101	25959.02
622.457	25710.21
622.812	25827.95
623.168	25853.03
623.523	25921.96
623.879	26054.61
624.234	25727.84
624.589	26021.39
624.945	25905.91
625.3	26070.43
625.655	26053.93
626.01	25917.44
626.365	26120.82
626.72	25982.98
627.075	26081.5
627.43	26080.15
627.785	25893.03
628.14	26061.17
628.495	26065.91
628.85	26159.69
629.205	25993.14
629.559	26148.62
629.914	26203.31
630.269	26093.03
630.623	26032.92
630.978	26154.5
631.332	26301.84
631.687	26257.54
632.041	26151.56
632.396	26269.97
632.75	25995.18
633.104	26233.82
633.459	26020.49
633.813	26145.91
634.167	26110.2
634.521	26140.26
634.875	26243.76
635.229	26030.88
635.583	25987.95
635.937	26061.17
636.291	25883.32
636.645	26110.88
636.999	25868.4
637.352	26010.09
637.706	25786.14
638.06	25927.84
638.413	25976.2
638.767	25844.67
639.121	26000.6
639.474	25817.56
639.828	25882.86
640.181	25954.73
640.534	25878.8
640.888	25847.84
641.241	25793.15
641.594	25839.02
641.947	25834.05
642.301	25756.54
642.654	25835.41
643.007	25834.96
643.36	25843.77
643.713	25809.87
644.066	25862.07
644.419	25766.03
644.771	25602.65
645.124	25375.76
645.477	25387.51
645.83	25221.64
646.182	25177.57
646.535	25121.3
646.888	25190.68
647.24	25041.98
647.593	25171.92
647.945	25197.68
648.298	24936.45
648.65	24984.36
649.002	25049.44
649.355	24980.52
649.707	25063.9
650.059	25102.55
650.411	25440.62
650.763	25502.99
651.115	25718.58
651.467	25635.19
651.819	25651.68
652.171	25665.24
652.523	25549.77
652.875	25616.88
653.227	25593.15
653.578	25658.92
653.93	25576.43
654.282	25550.9
654.633	25434.97
654.985	25509.77
655.337	25520.16
655.688	25548.41
656.039	25619.82
656.391	25535.08
656.742	25409.88
657.094	25491.46
657.445	25526.49
657.796	25499.15
658.147	25505.7
658.498	25531.24
658.849	25538.69
659.2	25514.51
659.551	25469.09
659.902	25672.47
660.253	25476.32
660.604	25482.2
660.955	25397
661.306	25504.57
661.656	25581.86
662.007	25570.56
662.358	25565.58
662.708	25536.66
663.059	25685.13
663.409	25404.01
663.76	25539.37
664.11	25562.65
664.461	25739.59
664.811	25632.7
665.161	25639.48
665.511	25570.56
665.862	25595.87
666.212	25745.92
666.562	25697.56
666.912	25660.5
667.262	25647.39
667.612	25660.72
667.962	25637
668.312	25495.76
668.662	25764.45
669.011	25628.41
669.361	25573.72
669.711	25543.66
670.06	25509.32
670.41	25517.9
670.76	25496.43
671.109	25715.19
671.459	25667.05
671.808	25463.67
672.157	25619.82
672.507	25520.39
672.856	25563.55
673.205	25556.77
673.554	25696.65
673.904	25404.69
674.253	25614.17
674.602	25596.54
674.951	25207.85
675.3	25062.55
675.649	25607.84
675.998	25530.78
676.346	25577.34
676.695	25698.24
677.044	25311.58
677.393	25408.75
677.741	25556.55
678.09	25554.29
678.438	25354.97
678.787	25444.91
679.135	25493.04
679.484	25368.98
679.832	25479.03
680.181	25369.88
680.529	25349.77
680.877	25288.53
681.225	25219.61
681.573	25413.27
681.922	25201.98
682.27	25218.93
682.618	25231.13
682.966	25258.25
683.314	25138.7
683.661	25120.4
684.009	25034.3
684.357	24960.18
684.705	24952.04
685.053	25079.04
685.4	25005.6
685.748	24770.35
686.095	24870.24
686.443	24784.36
686.79	24794.53
687.138	24804.7
687.485	24823.46
687.832	24705.95
688.18	24767.41
688.527	24693.74
688.874	24586.63
689.221	24551.83
689.568	24525.16
689.915	24481.77
690.262	24519.96
690.609	24301.44
690.956	24376.46
691.303	24274.55
691.65	24188.9
691.997	24273.19
692.344	24062.35
692.69	24161.55
693.037	24123.81
693.383	23840.66
693.73	24063.03
694.077	23879.3
694.423	23918.62
694.769	23882.69
695.116	23749.14
695.462	23805.41
695.808	23699.42
696.155	23710.49
696.501	23545.52
696.847	23614.22
697.193	23286.55
697.539	23517.5
697.885	23361.8
698.231	23218.3
698.577	23192.09
698.923	23234.57
699.269	23117.51
699.614	23145.31
699.96	23028.25
700.306	22996.16
700.651	23058.98
700.997	22988.93
701.342	22854.02
701.688	22865.32
702.033	22859.67
702.379	22801.59
702.724	22735.15
703.069	22768.37
703.415	22486.8
703.76	22519.34
704.105	22477.98
704.45	22590.3
704.795	22354.14
705.14	22251.55
705.485	22294.71
705.83	22221.27
706.175	22280.47
706.52	22076.86
706.865	22105.11
707.209	22065.11
707.554	22053.36
707.899	21989.18
708.243	21911.22
708.588	21850.65
708.932	21761.39
709.277	21852.24
709.621	21875.06
709.966	21740.37
710.31	21659.02
710.654	21538.35
710.998	21552.13
711.342	21670.09
711.687	21440.95
712.031	21395.98
712.375	21390.78
712.719	21422.64
713.063	21423.55
713.407	21439.37
713.75	21284.79
714.094	21357.56
714.438	21219.26
714.782	21218.58
715.125	21266.71
715.469	21245.25
715.812	21161.63
716.156	20985.82
716.499	20996.89
716.843	21164.8
717.186	20994.18
717.53	21055.87
717.873	21021.52
718.216	21035.76
718.559	20967.74
718.902	20786.05
719.246	20792.83
719.589	20847.52
719.932	20763.23
720.275	20767.97
720.617	20736.11
720.96	20690.23
721.303	20723.9
721.646	20706.28
721.989	20616.79
722.331	20715.09
722.674	20636.67
723.016	20681.65
723.359	20559.84
723.701	20622.44
724.044	20545.6
724.386	20403.01
724.729	20533.4
725.071	20476.91
725.413	20423.8
725.755	20430.58
726.097	20382.67
726.439	20303.12
726.782	20381.09
727.124	20366.4
727.465	20316.46
727.807	20284.14
728.149	20324.14
728.491	20295.21
728.833	20263.13
729.175	20264.71
729.516	20189.91
729.858	20159.17
730.199	20218.15
730.541	20132.51
730.882	20081.89
731.224	20154.2
731.565	19990.82
731.906	19984.04
732.248	20062.68
732.589	19978.61
732.93	19947.43
733.271	19892.06
733.612	20132.51
733.953	19960.99
734.294	19845.06
734.635	19877.37
734.976	19953.98
735.317	19817.49
735.658	19839.63
735.999	19785.17
736.339	19733.87
736.68	19871.72
737.021	19765.74
737.361	19768.9
737.702	19924.38
738.042	19773.42
738.383	19728.68
738.723	19842.35
739.063	19691.84
739.404	19759.18
739.744	19734.78
740.084	19648.23
740.424	19648.68
740.764	19657.94
741.104	19701.78
741.444	19570.04
741.784	19544.27
742.124	19649.81
742.464	19622.69
742.804	19487.33
743.143	19528.23
743.483	19496.59
743.823	19515.8
744.162	19466.99
744.502	19508.57
744.841	19450.94
745.181	19456.82
745.52	19422.7
745.86	19400.1
746.199	19447.78
746.538	19453.2
746.877	19445.07
747.216	19411.85
747.556	19461.79
747.895	19355.58
748.234	19253.66
748.573	19275.58
748.911	19320.55
749.25	19317.61
749.589	19248.24
749.928	19287.33
750.267	19222.93
750.605	19235.13
750.944	19185.41
751.283	19163.27
751.621	19196.49
751.96	19121.46
752.298	19215.47
752.636	19158.07
752.975	19145.64
753.313	19191.06
753.651	19222.47
753.989	18980.45
754.327	19069.94
754.666	18930.73
755.004	19067.9
755.342	19145.64
755.679	19029.49
756.017	18835.14
756.355	18960.56
756.693	18874.24
757.031	18873.78
757.368	18785.65
757.706	18751.3
758.044	18731.64
758.381	18754.92
758.719	18682.38
759.056	18842.6
759.394	18660.46
759.731	18688.03
760.068	18622.26
760.405	18465.66
760.743	18476.73
761.08	18552.44
761.417	18443.06
761.754	18414.81
762.091	18337.3
762.428	18251.88
762.765	18202.16
763.102	18334.14
763.438	18163.52
763.775	18117.65
764.112	18168.72
764.449	18169.62
764.785	18152.67
765.122	17942.96
765.458	17826.58
765.795	17921.72
766.131	17916.52
766.467	17803.53
766.804	17758.56
767.14	17675.62
767.476	17664.32
767.812	17624.78
768.148	17721.72
768.485	17573.48
768.821	17403.31
769.157	17436.76
769.492	17403.77
769.828	17383.43
770.164	17243.09
770.5	17334.61
770.836	17264.79
771.171	17163.32
771.507	17069.76
771.842	16954.29
772.178	16957.45
772.513	16992.25
772.849	16954.51
773.184	16892.59
773.519	16878.36
773.855	16725.37
774.19	16682.88
774.525	16522.43
774.86	16573.5
775.195	16576.67
775.53	16465.94
775.865	16452.38
776.2	16403.57
776.535	16240.18
776.87	16217.58
777.205	16271.59
777.539	16198.6
777.874	16240.41
778.209	16022.33
778.543	16004.25
778.878	15949.34
779.212	15872.51
779.547	15881.32
779.881	15905.27
780.215	15836.58
780.55	15823.92
780.884	15583.25
781.218	15588.67
781.552	15666.86
781.886	15546.41
782.22	15540.76
782.554	15477.49
782.888	15305.29
783.222	15223.03
783.556	15199.53
783.889	15229.59
784.223	15067.33
784.557	15058.97
784.89	15052.64
785.224	14999.53
785.557	14935.81
785.891	14941.91
786.224	14846.09
786.558	14807
786.891	14748.92
787.224	14719.32
787.557	14685.87
787.891	14579.43
788.224	14597.29
788.557	14600
788.89	14505.54
789.223	14476.61
789.556	14407.23
789.888	14359.78
790.221	14322.49
790.554	14066.45
790.887	14267.12
791.219	14164.3
791.552	14189.61
791.884	14034.81
792.217	14016.96
792.549	13963.86
792.882	13934.25
793.214	13888.38
793.546	13885.89
793.879	13811.54
794.211	13736.97
794.543	13763.41
794.875	13703.52
795.207	13786.69
795.539	13715.73
795.871	13676.41
796.203	13508.05
796.535	13505.11
796.867	13417.2
797.198	13445.23
797.53	13426.47
797.862	13293.14
798.193	13365.91
798.525	13248.85
798.856	13287.49
799.188	13099.25
799.519	13084.78
799.85	13031.23
800.182	13045.24
800.513	13043.43
800.844	12929.98
801.175	13015.86
801.506	12938.35
801.837	12910.32
802.168	12868.74
802.499	12804.11
802.83	12737.45
803.161	12758.01
803.491	12683.66
803.822	12710.56
804.153	12619.03
804.483	12539.71
804.814	12522.54
805.145	12555.31
805.475	12520.5
805.805	12537
806.136	12431.92
806.466	12452.94
806.796	12377.46
807.126	12362.54
807.457	12275.09
807.787	12280.51
808.117	12281.64
808.447	12179.95
808.777	12228.08
809.107	12213.17
809.436	12131.81
809.766	12105.83
810.096	12090.68
810.426	12000.52
810.755	12009.33
811.085	11991.7
811.414	11985.38
811.744	11877.36
812.073	11906.96
812.403	11921.88
812.732	11847.98
813.061	11817.02
813.39	11757.81
813.719	11759.85
814.049	11852.27
814.378	11710.13
814.707	11724.59
815.036	11681.2
815.365	11630.36
815.693	11582.68
816.022	11610.47
816.351	11504.94
816.68	11512.17
817.008	11494.09
817.337	11413.41
817.665	11427.65
817.994	11490.47
818.322	11479.85
818.651	11366.18
818.979	11345.17
819.307	11378.84
819.636	11260.42
819.964	11271.95
820.292	11363.7
820.62	11268.33
820.948	11248
821.276	11250.71
821.604	11250.48
821.932	11223.14
822.259	11258.62
822.587	11209.8
822.915	11228.11
823.243	11163.7
823.57	11197.6
823.898	11243.02
824.225	11136.59
824.553	11147.88
824.88	11218.62
825.207	11197.38
825.535	11114.67
825.862	11197.83
826.189	11155.57
826.516	11257.71
826.843	11211.84
827.17	11285.51
827.497	11236.92
827.824	11238.73
828.151	11281.89
828.478	11187.88
828.805	11288.45
829.131	11197.38
829.458	11225.62
829.785	11091.62
830.111	11167.55
830.438	11186.08
830.764	11204.61
831.09	11175.68
831.417	11147.21
831.743	11211.39
832.069	11197.38
832.395	11170.48
832.722	11196.7
833.048	11087.1
833.374	11192.63
833.7	11041.67
834.026	11132.74
834.351	11157.38
834.677	11159.41
835.003	11157.83
835.329	11153.53
835.654	11082.8
835.98	11005.74
836.306	11131.39
836.631	11001.45
836.956	11017.72
837.282	11105.17
837.607	11020.43
837.932	10971.84
838.258	10964.61
838.583	11014.33
838.908	10907.21
839.233	10944.73
839.558	10895.69
839.883	10849.59
840.208	10892.3
840.533	10867.89
840.858	10895.46
841.182	10868.8
841.507	10819.08
841.832	10755.13
842.156	10791.28
842.481	10799.87
842.805	10762.36
843.13	10705.86
843.454	10666.77
843.778	10657.28
844.103	10686.88
844.427	10542.93
844.751	10598.52
845.075	10628.58
845.399	10517.62
845.723	10521.01
846.047	10499.09
846.371	10471.52
846.695	10371.86
847.019	10357.85
847.343	10396.04
847.666	10239.43
847.99	10226.33
848.313	10217.51
848.637	10152.43
848.96	10076.27
849.284	10120.57
849.607	10041.02
849.931	10025.43
850.254	9921.93
850.577	9889.61
850.9	9823.63
851.223	9838.77
851.546	9855.94
851.869	9742.05
852.192	9788.15
852.515	9695.49
852.838	9677.19
853.161	9647.81
853.483	9633.12
853.806	9608.72
854.129	9584.54
854.451	9554.03
854.774	9597.87
855.096	9439.23
855.419	9507.02
855.741	9455.73
856.063	9347.03
856.385	9327.37
856.708	9264.09
857.03	9243.3
857.352	9323.75
857.674	9217.31
857.996	9218.9
858.318	9172.57
858.64	9208.05
858.961	9137.09
859.283	9107.94
859.605	9127.37
859.926	9101.84
860.248	9121.72
860.57	9018.9
860.891	9065.23
861.212	8989.98
861.534	8981.39
861.855	9016.64
862.176	8874.95
862.498	8946.13
862.819	8973.48
863.14	8913.59
863.461	8904.33
863.782	8904.55
864.103	8871.33
864.424	8829.08
864.745	8818
865.065	8801.51
865.386	8790.88
865.707	8840.15
866.027	8771.22
866.348	8729.64
866.668	8772.35
866.989	8705.69
867.309	8636.76
867.63	8653.26
867.95	8632.47
868.27	8625.47
868.59	8693.49
868.91	8636.76
869.23	8609.19
869.55	8596.31
869.87	8651.23
870.19	8540.04
870.51	8652.13
870.83	8603.32
871.15	8557.67
871.469	8564
871.789	8533.72
872.109	8468.18
872.428	8507.5
872.748	8502.3
873.067	8445.81
873.386	8482.19
873.706	8500.04
874.025	8452.14
874.344	8365.59
874.663	8399.03
874.982	8447.16
875.301	8333.72
875.62	8405.13
875.939	8319.94
876.258	8337.34
876.577	8379.82
876.896	8353.61
877.214	8255.53
877.533	8288.3
877.852	8293.04
878.17	8246.04
878.489	8271.35
878.807	8298.02
879.125	8227.96
879.444	8226.61
879.762	8201.97
880.08	8174.86
880.398	8170.56
880.716	8195.87
881.034	8159.71
881.352	8115.87
881.67	8097.57
881.988	8082.88
882.306	8069.55
882.624	8053.28
882.941	7990.45
883.259	7995.2
883.577	7971.7
883.894	7953.39
884.212	7973.96
884.529	7998.14
884.846	7949.1
885.164	7907.07
885.481	7874.75
885.798	7929.66
886.115	7817.58
886.432	7865.03
886.75	7814.64
887.067	7850.8
887.383	7805.83
887.7	7825.49
888.017	7750.91
888.334	7743.91
888.651	7612.61
888.967	7688.31
889.284	7688.09
889.6	7688.77
889.917	7576.91
890.233	7601.31
890.55	7602.22
890.866	7602.89
891.182	7574.87
891.498	7592.27
891.815	7519.96
892.131	7429.34
892.447	7440.19
892.763	7424.37
893.079	7412.62
893.395	7417.81
893.71	7369
894.026	7419.17
894.342	7362.9
894.657	7327.65
894.973	7304.6
895.289	7309.12
895.604	7236.8
895.92	7238.38
896.235	7241.09
896.55	7187.76
896.865	7187.76
897.181	7173.53
897.496	7190.93
897.811	7099.63
898.126	7075.22
898.441	7051.5
898.756	7031.83
899.071	6980.08
899.386	6971.72
899.7	6908.45
900.015	6904.61
900.33	6876.36
900.644	6871.84
900.959	6917.04
901.273	6855.57
901.588	6802.69
901.902	6751.16
902.216	6812.86
902.531	6738.28
902.845	6681.56
903.159	6649.92
903.473	6664.39
903.787	6663.26
904.101	6614.67
904.415	6612.18
904.729	6626.65
905.042	6570.83
905.356	6588.46
905.67	6547.1
905.984	6542.36
906.297	6508.46
906.611	6482.02
906.924	6487.89
907.237	6413.32
907.551	6379.87
907.864	6359.76
908.177	6331.51
908.491	6341.01
908.804	6319.31
909.117	6273.44
909.43	6231.4
909.743	6168.81
910.056	6202.48
910.368	6198.41
910.681	6113.44
910.994	6143.04
911.307	6101.24
911.619	6055.82
911.932	6043.16
912.244	6070.5
912.557	6024.18
912.869	6019.21
913.181	6005.65
913.494	5971.3
913.806	5963.39
914.118	5880.23
914.43	5837.52
914.742	5819.66
915.054	5836.61
915.366	5844.75
915.678	5772.66
915.99	5778.99
916.302	5711.64
916.613	5717.75
916.925	5691.53
917.236	5753.9
917.548	5622.61
917.859	5703.51
918.171	5614.25
918.482	5567.47
918.794	5559.56
919.105	5636.84
919.416	5486.79
919.727	5506.68
920.038	5482.95
920.349	5385.55
920.66	5416.51
920.971	5381.71
921.282	5406.79
921.593	5304.2
921.903	5279.11
922.214	5330.41
922.525	5289.73
922.835	5270.53
923.146	5173.8
923.456	5220.81
923.767	5189.62
924.077	5205.89
924.387	5181.04
924.697	5172
925.008	5145.1
925.318	5094.94
925.628	5150.3
925.938	5122.51
926.248	5038.67
926.558	5012.23
926.867	5016.52
927.177	5006.8
927.487	4940.14
927.796	4929.07
928.106	4944.88
928.416	4924.77
928.725	4913.7
929.034	4855.85
929.344	4845.45
929.653	4853.14
929.962	4821.27
930.271	4762.06
930.581	4732.01
930.89	4738.34
931.199	4718.9
931.508	4703.99
931.817	4689.3
932.125	4703.76
932.434	4696.3
932.743	4610.43
933.051	4573.59
933.36	4573.14
933.669	4585.35
933.977	4531.56
934.286	4540.6
934.594	4498.57
934.902	4523.65
935.21	4445.46
935.519	4441.39
935.827	4436.42
936.135	4432.13
936.443	4400.72
936.751	4382.86
937.059	4388.29
937.367	4362.3
937.674	4376.09
937.982	4315.97
938.29	4267.39
938.597	4269.42
938.905	4237.33
939.213	4218.12
939.52	4202.53
939.827	4195.07
940.135	4181.74
940.442	4164.57
940.749	4172.02
941.056	4149.42
941.363	4060.39
941.67	4116.21
941.977	4047.96
942.284	4022.2
942.591	4062.65
942.898	3998.24
943.205	4038.24
943.511	4016.77
943.818	4011.58
944.125	3890.45
944.431	3962.31
944.738	3929.77
945.044	3947.4
945.35	3877.34
945.657	3901.75
945.963	3871.47
946.269	3886.83
946.575	3881.18
946.881	3827.85
947.187	3794.18
947.493	3760.28
947.799	3793.05
948.105	3755.08
948.41	3768.64
948.716	3740.62
949.022	3689.55
949.327	3689.1
949.633	3678.02
949.938	3672.38
950.244	3682.77
950.549	3610.46
950.854	3624.69
951.16	3596.44
951.465	3608.87
951.77	3551.47
952.075	3562.77
952.38	3560.97
952.685	3537.01
952.99	3521.19
953.294	3504.24
953.599	3473.96
953.904	3460.18
954.209	3461.76
954.513	3435.77
954.818	3435.09
955.122	3432.38
955.426	3379.73
955.731	3418.6
956.035	3362.1
956.339	3311.71
956.643	3342.67
956.948	3302.89
957.252	3322.1
957.556	3311.25
957.86	3311.93
958.163	3271.03
958.467	3227.87
958.771	3232.61
959.075	3269.9
959.378	3225.16
959.682	3229.67
959.985	3225.38
960.289	3189.68
960.592	3171.37
960.896	3138.38
961.199	3154.87
961.502	3132.73
961.805	3140.64
962.108	3067.87
962.411	3081.2
962.714	3029.68
963.017	3086.63
963.32	3053.41
963.623	3038.95
963.926	3056.57
964.228	3011.15
964.531	3044.82
964.833	3028.1
965.136	2970.02
965.438	2977.7
965.741	2946.97
966.043	2949.46
966.345	2962.34
966.648	2925.28
966.95	2903.58
967.252	2863.58
967.554	2862.45
967.856	2855
968.158	2865.62
968.46	2844.6
968.761	2831.72
969.063	2830.14
969.365	2780.2
969.666	2753.53
969.968	2759.86
970.269	2769.8
970.571	2743.59
970.872	2723.25
971.174	2739.74
971.475	2745.62
971.776	2699.07
972.077	2685.28
972.378	2681.67
972.679	2711.95
972.98	2656.13
973.281	2677.37
973.582	2663.59
973.883	2634.66
974.183	2623.14
974.484	2604.83
974.785	2576.36
975.085	2610.71
975.386	2574.1
975.686	2541.11
975.986	2569.13
976.287	2555.34
976.587	2523.93
976.887	2528.22
977.187	2534.55
977.487	2539.52
977.787	2513.54
978.087	2491.84
978.387	2458.4
978.687	2471.95
978.987	2452.97
979.286	2447.55
979.586	2416.81
979.885	2428.57
980.185	2384.5
980.484	2383.82
980.784	2374.56
981.083	2404.39
981.382	2346.99
981.682	2402.35
981.981	2336.14
982.28	2341.11
982.579	2310.38
982.878	2384.73
983.177	2335.24
983.475	2300.66
983.774	2286.42
984.073	2245.97
984.372	2286.65
984.67	2278.06
984.969	2267.21
985.267	2228.12
985.566	2254.79
985.864	2226.76
986.162	2233.09
986.461	2212.3
986.759	2195.8
987.057	2205.07
987.355	2169.59
987.653	2155.8
987.951	2151.06
988.249	2133.43
988.547	2154.45
988.844	2125.07
989.142	2099.54
989.44	2080.1
989.737	2099.76
990.035	2081
990.332	2084.62
990.63	2046.2
990.927	2076.26
991.224	2057.95
991.521	2079.87
991.819	2051.63
992.116	2038.52
992.413	2045.75
992.71	2026.54
993.006	1995.81
993.303	1977.05
993.6	2026.99
993.897	1968.92
994.193	1971.18
994.49	1973.44
994.787	1968.24
995.083	1943.83
995.379	1949.48
995.676	1927.56
995.972	1924.17
996.268	1899.99
996.565	1891.86
996.861	1885.53
997.157	1872.65
997.453	1866.32
997.749	1839.43
998.044	1856.38
998.34	1833.33
998.636	1838.53
998.932	1825.19
999.227	1808.92
999.523	1795.81
999.818	1801.92
1000.114	1799.2
1000.409	1778.64
1000.704	1774.35
1001	1773.67
1001.295	1755.14
1001.59	1742.93
1001.885	1768.47
1002.18	1764.85
1002.475	1723.05
1002.77	1683.73
1003.065	1693.9
1003.359	1661.58
1003.654	1671.52
1003.949	1676.5
1004.243	1662.26
1004.538	1645.54
1004.832	1654.12
1005.127	1643.28
1005.421	1617.06
1005.715	1593.11
1006.009	1625.88
1006.304	1610.51
1006.598	1593.33
1006.892	1568.7
1007.186	1586.78
1007.48	1565.31
1007.773	1551.53
1008.067	1536.39
1008.361	1552.2
1008.655	1541.81
1008.948	1549.72
1009.242	1500.23
1009.535	1499.55
1009.829	1518.99
1010.122	1499.1
1010.415	1488.03
1010.708	1450.06
1011.001	1501.58
1011.295	1483.96
1011.588	1484.18
1011.881	1439.89
1012.173	1415.03
1012.466	1463.17
1012.759	1427.91
1013.052	1434.69
1013.344	1418.42
1013.637	1401.7
1013.93	1414.58
1014.222	1415.49
1014.514	1417.97
1014.807	1365.32
1015.099	1361.93
1015.391	1344.75
1015.683	1359.44
1015.976	1338.88
1016.268	1331.87
1016.56	1342.94
1016.851	1316.73
1017.143	1314.92
1017.435	1314.02
1017.727	1283.06
1018.018	1325.77
1018.31	1259.78
1018.602	1296.39
1018.893	1291.87
1019.185	1239.9
1019.476	1260.24
1019.767	1263.17
1020.058	1227.02
1020.35	1225.89
1020.641	1233.57
1020.932	1203.97
1021.223	1209.39
1021.514	1188.37
1021.804	1169.62
1022.095	1185.43
1022.386	1180.01
1022.677	1186.11
1022.967	1159.45
1023.258	1167.81
1023.548	1145.44
1023.839	1148.83
1024.129	1133.23
1024.419	1121.71
1024.709	1123.52
1025	1104.31
1025.29	1092.33
1025.58	1122.16
1025.87	1112.67
1026.16	1079.9
1026.449	1074.93
1026.739	1086.45
1027.029	1084.87
1027.319	1067.47
1027.608	1027.92
1027.898	1039
1028.187	1064.31
1028.477	1037.64
1028.766	1027.02
1029.055	1012.11
1029.344	1003.07
1029.634	1014.14
1029.923	991.09
1030.212	1008.04
1030.501	1013.01
1030.79	969.62
1031.078	979.79
1031.367	994.71
1031.656	1000.13
1031.945	947.25
1032.233	941.6
1032.522	933.01
1032.81	931.66
1033.099	928.27
1033.387	932.33
1033.675	947.93
1033.963	919.45
1034.251	924.88
1034.54	879.45
1034.828	912.67
1035.116	917.65
1035.403	880.13
1035.691	902.73
1035.979	881.94
1036.267	875.61
1036.554	882.62
1036.842	871.09
1037.129	888.27
1037.417	861.6
1037.704	849.4
1037.992	864.77
1038.279	824.77
1038.566	841.72
1038.853	841.72
1039.14	841.72
