Data from cardboard_FLMS001491_088.txt Node
Date: Tue Feb 07 11:40:17 GMT 2017
User: dcchb
Spectrometer: FLMS00149
Trigger mode: 0
Integration Time (sec): 2.000000E-2
Scans to average: 10
Electric dark correction enabled: true
Nonlinearity correction enabled: false
Boxcar width: 0
XAxis mode: Wavelengths
Number of Pixels in Spectrum: 2048
>>>>>Begin Spectral Data<<<<<
341.393	-32.5
341.776	-32.5
342.16	-32.5
342.543	-70.92
342.927	-53.52
343.31	-68.66
343.693	-77.02
344.077	-71.82
344.46	-52.84
344.843	-63.68
345.226	-54.19
345.61	-26.85
345.993	-26.62
346.376	-4.03
346.759	-5.61
347.142	34.39
347.525	63.77
347.908	63.32
348.291	78.68
348.674	97.67
349.057	113.49
349.44	113.94
349.823	128.85
350.206	167.72
350.588	208.62
350.971	209.08
351.354	214.27
351.737	244.33
352.119	233.26
352.502	262.18
352.884	272.35
353.267	276.19
353.65	289.98
354.032	297.89
354.414	317.55
354.797	313.48
355.179	318.45
355.562	298.57
355.944	334.27
356.326	320.03
356.709	331.56
357.091	353.71
357.473	336.08
357.855	349.19
358.238	346.02
358.62	340.6
359.002	336.76
359.384	333.59
359.766	362.74
360.148	346.02
360.53	346.7
360.912	337.89
361.294	316.19
361.676	318
362.057	337.66
362.439	345.34
362.821	316.42
363.203	327.94
363.584	333.59
363.966	333.37
364.348	333.82
364.729	321.39
365.111	326.59
365.493	322.97
365.874	309.19
366.256	330.2
366.637	340.6
367.019	327.94
367.4	310.99
367.781	332.24
368.163	308.96
368.544	326.81
368.925	295.4
369.306	336.53
369.688	327.04
370.069	348.06
370.45	324.1
370.831	311.45
371.212	315.51
371.593	320.49
371.974	305.35
372.355	334.5
372.736	306.7
373.117	327.94
373.498	331.11
373.879	332.46
374.26	325.68
374.641	329.3
375.021	320.71
375.402	323.65
375.783	325.46
376.163	329.07
376.544	313.48
376.925	318
377.305	324.55
377.686	340.6
378.066	318.68
378.447	288.4
378.827	343.54
379.208	337.66
379.588	355.51
379.968	350.54
380.349	344.44
380.729	336.08
381.109	362.07
381.489	335.63
381.87	344.44
382.25	342.86
382.63	326.14
383.01	368.17
383.39	362.29
383.77	361.16
384.15	368.85
384.53	375.63
384.91	352.58
385.29	338.11
385.67	375.4
386.049	386.25
386.429	368.39
386.809	384.89
387.189	359.35
387.568	382.18
387.948	363.87
388.328	376.98
388.707	384.44
389.087	385.34
389.466	367.94
389.846	383.76
390.225	373.82
390.605	368.39
390.984	376.76
391.363	380.6
391.743	369.07
392.122	387.38
392.501	409.07
392.881	413.59
393.26	367.72
393.639	396.64
394.018	418.56
394.397	405.46
394.776	424.66
395.155	420.6
395.534	436.64
395.913	405.91
396.292	422.63
396.671	430.54
397.05	421.05
397.429	414.49
397.808	420.14
398.186	420.37
398.565	423.99
398.944	453.14
399.323	438.9
399.701	442.29
400.08	428.96
400.458	441.61
400.837	466.7
401.215	452.91
401.594	429.41
401.972	466.92
402.351	445
402.729	433.93
403.107	447.26
403.486	433.93
403.864	451.33
404.242	456.08
404.62	447.49
404.999	474.15
405.377	464.21
405.755	504.21
406.133	481.61
406.511	479.58
406.889	465.79
407.267	486.13
407.645	474.38
408.023	492.68
408.401	514.38
408.779	483.42
409.156	509.18
409.534	531.78
409.912	507.83
410.29	522.06
410.667	532.46
411.045	548.95
411.422	542.85
411.8	535.62
412.178	543.3
412.555	541.5
412.933	540.82
413.31	542.4
413.687	555.28
414.065	587.6
414.442	576.75
414.819	589.63
415.197	609.52
415.574	586.02
415.951	595.28
416.328	607.03
416.705	599.8
417.082	602.74
417.46	602.51
417.837	609.74
418.214	634.38
418.591	637.31
418.967	616.98
419.344	623.53
419.721	644.32
420.098	624.88
420.475	673.92
420.852	638.44
421.228	664.43
421.605	658.78
421.982	659.91
422.358	704.66
422.735	664.21
423.111	692.23
423.488	677.54
423.864	690.65
424.241	701.49
424.617	686.13
424.994	710.98
425.37	701.94
425.746	720.7
426.123	728.84
426.499	727.03
426.875	729.74
427.251	733.36
427.627	742.85
428.003	748.05
428.379	753.02
428.756	753.02
429.132	771.77
429.507	772
429.883	778.78
430.259	818.1
430.635	802.51
431.011	812
431.387	801.83
431.763	813.81
432.138	829.4
432.514	830.3
432.89	861.26
433.265	861.26
433.641	858.1
434.016	879.57
434.392	885.44
434.767	870.08
435.143	894.71
435.518	896.52
435.894	915.5
436.269	931.09
436.644	957.76
437.02	912.56
437.395	932.45
437.77	964.76
438.145	949.85
438.52	980.36
438.895	974.48
439.271	981.71
439.646	996.85
440.021	1018.55
440.395	1014.25
440.77	1000.47
441.145	1021.26
441.52	1039.11
441.895	1038.21
442.27	1035.04
442.645	1028.72
443.019	1060.81
443.394	1034.59
443.769	1076.17
444.143	1053.12
444.518	1054.03
444.892	1073.01
445.267	1096.96
445.641	1094.48
446.016	1065.78
446.39	1087.47
446.764	1113.46
447.139	1127.24
447.513	1137.64
447.887	1135.38
448.262	1108.26
448.636	1120.24
449.01	1158.66
449.384	1171.76
449.758	1183.51
450.132	1188.71
450.506	1202.27
450.88	1213.8
451.254	1192.1
451.628	1201.14
452.002	1239.11
452.376	1253.57
452.75	1266.68
453.123	1286.11
453.497	1278.43
453.871	1298.54
454.244	1338.54
454.618	1306.9
454.992	1314.13
455.365	1315.94
455.739	1347.13
456.112	1373.57
456.486	1415.82
456.859	1381.7
457.232	1421.47
457.606	1411.08
457.979	1437.52
458.352	1465.77
458.725	1472.09
459.099	1479.55
459.472	1494.24
459.845	1520.91
460.218	1540.11
460.591	1539.21
460.964	1557.29
461.337	1582.15
461.71	1594.35
462.083	1638.87
462.456	1648.13
462.829	1651.3
463.201	1661.47
463.574	1668.93
463.947	1695.59
464.32	1708.02
464.692	1747.12
465.065	1752.31
465.438	1782.37
465.81	1822.37
466.183	1800.67
466.555	1864.63
466.928	1869.6
467.3	1856.04
467.672	1925.19
468.045	1932.87
468.417	1968.13
468.789	1946.66
469.161	1990.05
469.534	2009.26
469.906	2034.57
470.278	2050.16
470.65	2078.86
471.022	2152.08
471.394	2170.61
471.766	2166.54
472.138	2221.23
472.51	2272.3
472.882	2274.11
473.253	2329.92
473.625	2305.07
473.997	2346.65
474.369	2400.66
474.74	2449.92
475.112	2485.85
475.484	2506.19
475.855	2564.72
476.227	2605.4
476.598	2621.67
476.97	2649.92
477.341	2696.92
477.713	2757.26
478.084	2780.99
478.455	2867.09
478.827	2879.74
479.198	2962.9
479.569	2967.65
479.94	3009.91
480.311	3074.09
480.682	3144.14
481.053	3198.38
481.424	3246.96
481.795	3310.24
482.166	3296.68
482.537	3371.71
482.908	3463.45
483.279	3511.59
483.65	3575.09
484.021	3624.58
484.391	3696.67
484.762	3715.65
485.133	3752.26
485.503	3803.78
485.874	3851.92
486.244	3935.53
486.615	4014.4
486.985	4027.28
487.356	4117.9
487.726	4107.96
488.097	4216.65
488.467	4290.78
488.837	4404.9
489.207	4425.01
489.578	4458.68
489.948	4558.11
490.318	4594.72
490.688	4645.12
491.058	4702.07
491.428	4780.03
491.798	4825.9
492.168	4928.27
492.538	4941.83
492.908	4996.75
493.278	5053.92
493.648	5130.53
494.017	5134.37
494.387	5202.17
494.757	5247.59
495.126	5356.96
495.496	5382.95
495.866	5442.84
496.235	5474.02
496.605	5573.23
496.974	5650.29
497.344	5724.41
497.713	5716.95
498.082	5799.89
498.452	5821.81
498.821	5860.23
499.19	5927.12
499.559	6036.72
499.928	6018.19
500.298	6103.84
500.667	6137.06
501.036	6126.21
501.405	6210.27
501.774	6253.44
502.143	6377.28
502.512	6432.64
502.88	6431.29
503.249	6459.99
503.618	6542.02
503.987	6622.92
504.356	6644.16
504.724	6665.4
505.093	6754.44
505.462	6751.73
505.83	6809.58
506.199	6894.55
506.567	7058.39
506.936	7024.26
507.304	7115.79
507.672	7228.78
508.041	7263.13
508.409	7309
508.777	7375.89
509.145	7401.2
509.514	7425.84
509.882	7514.87
510.25	7559.62
510.618	7663.34
510.986	7743.12
511.354	7822.44
511.722	7871.7
512.09	8019.94
512.458	8006.61
512.826	8058.81
513.193	8197.57
513.561	8192.6
513.929	8272.14
514.297	8350.33
514.664	8425.13
515.032	8560.95
515.4	8567.95
515.767	8657.67
516.135	8714.84
516.502	8703.99
516.869	8898.34
517.237	8988.28
517.604	8943.54
517.972	9060.14
518.339	9146.02
518.706	9303.75
519.073	9299.91
519.44	9392.34
519.808	9487.93
520.175	9518.89
520.542	9701.03
520.909	9736.06
521.276	9836.39
521.643	9957.75
522.009	9941.7
522.376	10067.8
522.743	10220.34
523.11	10254.01
523.477	10393.89
523.843	10532.19
524.21	10595.47
524.577	10685.64
524.943	10812.41
525.31	10957.72
525.676	10980.77
526.043	11101.45
526.409	11140.77
526.776	11355.45
527.142	11352.06
527.508	11512.28
527.874	11623.24
528.241	11757.02
528.607	11681.77
528.973	11842.22
529.339	11912.5
529.705	12023
530.071	12078.14
530.437	12277.91
530.803	12375.54
531.169	12427.96
531.535	12374.41
531.901	12611.91
532.267	12616.21
532.632	12796.09
532.998	12837.9
533.364	12931.68
533.73	12982.98
534.095	13206.47
534.461	13268.17
534.826	13370.31
535.192	13343.42
535.557	13545.67
535.923	13503.87
536.288	13577.76
536.653	13696.18
537.019	13739.79
537.384	13766.23
537.749	13929.39
538.114	13969.62
538.479	13999.22
538.845	14122.38
539.21	14142.27
539.575	14229.72
539.94	14376.39
540.305	14485.09
540.67	14549.04
541.034	14647.57
541.399	14681.46
541.764	14754
542.129	14800.56
542.494	14983.15
542.858	15001
543.223	15050.72
543.587	15233.31
543.952	15211.85
544.316	15196.03
544.681	15288
545.045	15438.51
545.41	15509.92
545.774	15600.31
546.138	15686.86
546.503	15737.03
546.867	15851.15
547.231	15994.42
547.595	16059.96
547.959	16123.69
548.324	16135.66
548.688	16258.15
549.052	16289.11
549.416	16344.47
549.779	16433.51
550.143	16459.27
550.507	16636.89
550.871	16689.32
551.235	16725.93
551.599	16921.63
551.962	16965.47
552.326	17155.3
552.689	17170.44
553.053	17109.65
553.417	17259.25
553.78	17437.1
554.143	17342.41
554.507	17545.8
554.87	17603.42
555.234	17937.65
555.597	17788.05
555.96	17893.58
556.323	18049.74
556.686	18066.91
557.05	18288.6
557.413	18353.68
557.776	18361.37
558.139	18579.89
558.502	18643.85
558.865	18709.83
559.228	18838.64
559.59	18927.23
559.953	19072.31
560.316	19258.07
560.679	19344.17
561.041	19431.62
561.404	19595.69
561.767	19867.77
562.129	19718.17
562.492	19982.57
562.854	20012.4
563.217	20031.83
563.579	20166.52
563.941	20263.69
564.304	20431.37
564.666	20653.28
565.028	20679.95
565.39	20674.75
565.753	20863.22
566.115	21010.11
566.477	21005.37
566.839	21070.9
567.201	21342.76
567.563	21324
567.925	21549.53
568.287	21643.99
568.648	21622.52
569.01	21881.73
569.372	22014.15
569.734	21934.38
570.095	22166.47
570.457	22360.81
570.819	22421.83
571.18	22355.84
571.542	22563.29
571.903	22615.27
572.265	22657.3
572.626	22773.91
572.987	22843.96
573.349	23070.17
573.71	23122.6
574.071	23229.26
574.432	23241.92
574.794	23482.36
575.155	23514.68
575.516	23399.43
575.877	23535.92
576.238	23740.44
576.599	23914.89
576.96	23855.01
577.32	23972.07
577.681	24047.55
578.042	24095.45
578.403	24084.15
578.763	24127.32
579.124	24281.66
579.485	24401.89
579.845	24571.37
580.206	24462.9
580.566	24634.65
580.927	24578.61
581.287	24779.96
581.648	24657.93
582.008	24862.67
582.368	24826.73
582.728	24931.59
583.089	24891.59
583.449	24921.87
583.809	24988.76
584.169	25117.12
584.529	25045.71
584.889	25358.7
585.249	25183.11
585.609	25062.89
585.969	25309.89
586.329	25255.65
586.688	25386.95
587.048	25375.42
587.408	25308.98
587.768	25355.31
588.127	25473.04
588.487	25516.43
588.846	25738.8
589.206	25541.97
589.565	25824.45
589.925	25839.36
590.284	25741.29
590.643	25753.49
591.003	25820.61
591.362	25829.42
591.721	25966.82
592.08	25908.74
592.44	26002.75
592.799	26070.77
593.158	26023.54
593.517	26049.75
593.876	26076.42
594.235	26148.51
594.593	26188.51
594.952	26282.06
595.311	26192.12
595.67	26356.64
596.029	26623.3
596.387	26483.64
596.746	26556.18
597.104	26462.17
597.463	26442.28
597.822	26624.88
598.18	26583.98
598.538	26461.95
598.897	26730.64
599.255	26478.22
599.613	27002.04
599.972	26838.88
600.33	26786.23
600.688	26804.54
601.046	26924.31
601.404	27076.17
601.762	27035.72
602.12	27137.41
602.478	27089.27
602.836	27146.67
603.194	27127.92
603.552	27205.88
603.91	27118.2
604.268	27208.59
604.625	27149.61
604.983	27317.29
605.341	27316.39
605.698	27525.42
606.056	27560.9
606.413	27495.36
606.771	27725.64
607.128	27769.93
607.485	27501.47
607.843	27751.18
608.2	27823.04
608.557	28048.8
608.914	27834.56
609.272	27987.56
609.629	28076.59
609.986	28199.07
610.343	28018.97
610.7	28265.06
611.057	28124.27
611.414	28181.67
611.771	28305.96
612.127	28340.09
612.484	28401.56
612.841	28562.46
613.198	28405.62
613.554	28390.71
613.911	28599.74
614.267	28571.72
614.624	28526.07
614.98	28536.24
615.337	28865.27
615.693	28689.91
616.05	28710.7
616.406	29033.63
616.762	28816.91
617.118	28859.17
617.475	28916.8
617.831	28998.15
618.187	29056
618.543	29114.98
618.899	29345.71
619.255	29296.67
619.611	29271.59
619.967	29377.8
620.323	29453.73
620.678	29340.29
621.034	29362.66
621.39	29415.54
621.746	29340.29
622.101	29685.14
622.457	29559.94
622.812	29620.96
623.168	29742.09
623.523	29659.83
623.879	29769.43
624.234	29471.81
624.589	29690.34
624.945	29728.53
625.3	29627.74
625.655	29636.1
626.01	29689.66
626.365	29710
626.72	29680.84
627.075	29718.13
627.43	29688.3
627.785	29627.96
628.14	29728.98
628.495	29822.31
628.85	29777.79
629.205	29731.24
629.559	30005.81
629.914	29781.41
630.269	29857.34
630.623	29717.45
630.978	29673.16
631.332	29891.46
631.687	29883.1
632.041	29676.32
632.396	29804
632.75	29820.28
633.104	29717.45
633.459	29628.42
633.813	29734.63
634.167	29684.46
634.521	29703.44
634.875	29831.8
635.229	29780.73
635.583	29580.06
635.937	29679.94
636.291	29550
636.645	29668.41
636.999	29463.45
637.352	29636.55
637.706	29336.45
638.06	29474.3
638.413	29571.92
638.767	29476.33
639.121	29598.36
639.474	29255.32
639.828	29434.07
640.181	29465.03
640.534	29448.99
640.888	29444.47
641.241	29246.28
641.594	29277.46
641.947	29285.83
642.301	29265.49
642.654	29345.49
643.007	29432.71
643.36	29370.34
643.713	29336.9
644.066	29405.37
644.419	29125.15
644.771	29044.48
645.124	28785.73
645.477	28787.08
645.83	28567.65
646.182	28433.42
646.535	28489.24
646.888	28584.6
647.24	28459.86
647.593	28524.04
647.945	28539.18
648.298	28479.75
648.65	28285.17
649.002	28264.84
649.355	28290.82
649.707	28210.15
650.059	28397.94
650.411	28749.12
650.763	28841.09
651.115	29029.56
651.467	29149.33
651.819	29027.08
652.171	29041.09
652.523	28958.6
652.875	28989.34
653.227	28861.88
653.578	29137.13
653.93	28965.61
654.282	29020.97
654.633	28804.26
654.985	28879.28
655.337	28950.02
655.688	28934.87
656.039	29011.03
656.391	28741.89
656.742	28942.78
657.094	28931.49
657.445	29064.36
657.796	28749.12
658.147	28939.17
658.498	28813.97
658.849	28962.44
659.2	28868.89
659.551	28894.65
659.902	29112.05
660.253	29000.64
660.604	29085.83
660.955	28868.89
661.306	28872.28
661.656	29034.31
662.007	28966.74
662.358	28950.24
662.708	28966.29
663.059	28940.98
663.409	28733.52
663.76	29010.35
664.11	28976.46
664.461	28989.11
664.811	29009.22
665.161	29086.28
665.511	28987.75
665.862	29084.25
666.212	29105.04
666.562	29098.71
666.912	29086.74
667.262	28811.94
667.612	28986.17
667.962	29056.91
668.312	28989.79
668.662	29122.21
669.011	29005.16
669.361	28889.9
669.711	28889.68
670.06	28947.08
670.41	28982.78
670.76	28954.08
671.109	28990.01
671.459	28831.83
671.808	28886.97
672.157	28899.62
672.507	28818.72
672.856	28741.21
673.205	28908.89
673.554	29015.1
673.904	28769
674.253	28976.46
674.602	28907.3
674.951	28543.92
675.3	28368.34
675.649	28763.35
675.998	28671.83
676.346	28767.42
676.695	28927.64
677.044	28635.9
677.393	28731.04
677.741	28712.51
678.09	28748.21
678.438	28620.31
678.787	28771.04
679.135	28890.36
679.484	28546.18
679.832	28764.71
680.181	28583.47
680.529	28625.73
680.877	28383.02
681.225	28526.3
681.573	28825.5
681.922	28392.06
682.27	28440.88
682.618	28487.65
682.966	28389.35
683.314	28483.36
683.661	28291.5
684.009	28277.49
684.357	28286.76
684.705	28162.01
685.053	28174.22
685.4	28009.48
685.748	28087.89
686.095	28058.29
686.443	27950.49
686.79	27845.64
687.138	27968.35
687.485	27944.84
687.832	27833.66
688.18	28029.36
688.527	27789.59
688.874	27870.5
689.221	27704.4
689.568	27642.48
689.915	27556.61
690.262	27669.37
690.609	27513.22
690.956	27496.49
691.303	27489.26
691.65	27343.5
691.997	27477.06
692.344	27214.69
692.69	27117.52
693.037	27199.78
693.383	26915.27
693.73	27097.18
694.077	26910.07
694.423	26955.94
694.769	26808.6
695.116	26826.91
695.462	26670.08
695.808	26659
696.155	26751.43
696.501	26450.87
696.847	26459.23
697.193	26346.02
697.539	26422.4
697.885	26329.75
698.231	26137.89
698.577	26146.47
698.923	26067.15
699.269	25898.12
699.614	25945.8
699.96	25964.56
700.306	25881.62
700.651	25897.67
700.997	25707.84
701.342	25727.05
701.688	25695.86
702.033	25473.04
702.379	25581.74
702.724	25476.66
703.069	25582.19
703.415	25187.85
703.76	25288.19
704.105	25337.46
704.45	25303.11
704.795	25200.96
705.14	25123.22
705.485	25055.65
705.83	24890.69
706.175	24969.78
706.52	24797.36
706.865	24853.63
707.209	24822.67
707.554	24692.05
707.899	24765.04
708.243	24629.9
708.588	24584.48
708.932	24394.2
709.277	24410.7
709.621	24465.39
709.966	24196.92
710.31	24330.93
710.654	24158.96
710.998	24240.31
711.342	24228.33
711.687	24101.56
712.031	24136.13
712.375	24053.42
712.719	24132.97
713.063	23865.63
713.407	24042.8
713.75	23849.81
714.094	23915.8
714.438	23787.67
714.782	23927.1
715.125	23812.98
715.469	23859.08
715.812	23767.55
716.156	23609.59
716.499	23647.78
716.843	23548.12
717.186	23578.18
717.53	23629.7
717.873	23616.14
718.216	23572.08
718.559	23417.05
718.902	23298.19
719.246	23408.47
719.589	23362.59
719.932	23252.54
720.275	23161.92
720.617	23175.93
720.96	23177.74
721.303	23296.15
721.646	23214.12
721.989	23059.78
722.331	23080.34
722.674	23063.84
723.016	23025.65
723.359	23037.85
723.701	23090.73
724.044	22927.8
724.386	22758.77
724.729	23083.28
725.071	22953.79
725.413	22944.98
725.755	22814.36
726.097	22780.91
726.439	22759.22
726.782	22655.04
727.124	22891.64
727.465	22618.43
727.807	22728.03
728.149	22678.09
728.491	22657.07
728.833	22556.51
729.175	22563.97
729.516	22522.16
729.858	22468.15
730.199	22594.25
730.541	22464.08
730.882	22512.67
731.224	22583.86
731.565	22450.98
731.906	22380.02
732.248	22456.85
732.589	22337.08
732.93	22283.98
733.271	22299.34
733.612	22328.49
733.953	22373.01
734.294	22333.01
734.635	22368.95
734.976	22323.52
735.317	22167.6
735.658	22279.23
735.999	22146.8
736.339	22175.73
736.68	22215.96
737.021	22262.96
737.361	22148.16
737.702	22151.55
738.042	22038.78
738.383	22043.76
738.723	22078.78
739.063	22052.12
739.404	22208.72
739.744	22087.37
740.084	22038.11
740.424	22074.49
740.764	22050.54
741.104	22130.31
741.444	21990.65
741.784	21898.68
742.124	21879.69
742.464	21960.14
742.804	21926.47
743.143	21988.16
743.483	21902.97
743.823	21811.22
744.162	21747.49
744.502	21841.05
744.841	21696.42
745.181	21875.63
745.52	21812.58
745.86	21887.15
746.199	21779.13
746.538	21796.98
746.877	21945.91
747.216	21766.02
747.556	21772.8
747.895	21729.87
748.234	21677.21
748.573	21636.31
748.911	21674.05
749.25	21672.92
749.589	21592.69
749.928	21610.77
750.267	21683.09
750.605	21542.75
750.944	21617.1
751.283	21493.04
751.621	21526.26
751.96	21573.49
752.298	21551.79
752.636	21507.27
752.975	21401.29
753.313	21339.37
753.651	21523.54
753.989	21436.31
754.327	21370.55
754.666	21341.63
755.004	21434.51
755.342	21380.5
755.679	21335.07
756.017	21232.7
756.355	21309.76
756.693	21174.63
757.031	21175.53
757.368	21182.08
757.706	21108.64
758.044	21132.14
758.381	21101.18
758.719	21125.81
759.056	21023.67
759.394	20940.06
759.731	20916.78
760.068	20854.41
760.405	20852.6
760.743	20900.06
761.08	20770.8
761.417	20750.68
761.754	20761.76
762.091	20778.25
762.428	20711.59
762.765	20515.89
763.102	20577.58
763.438	20427.98
763.775	20389.11
764.112	20495.55
764.449	20492.61
764.785	20328.55
765.122	20251.94
765.458	20210.36
765.795	20219.85
766.131	20258.72
766.467	20121.32
766.804	20039.29
767.14	19979.63
767.476	19981.44
767.812	19915.45
768.148	19973.53
768.485	19806.3
768.821	19732.4
769.157	19653.54
769.492	19633.42
769.828	19647.44
770.164	19560.88
770.5	19380.1
770.836	19463.94
771.171	19306.65
771.507	19324.73
771.842	19208.8
772.178	19199.76
772.513	19172.65
772.849	19120.9
773.184	19087.9
773.519	19123.83
773.855	18893.33
774.19	18840.68
774.525	18873.67
774.86	18705.54
775.195	18780.34
775.53	18624.19
775.865	18511.19
776.2	18461.25
776.535	18354.59
776.87	18379.22
777.205	18298.54
777.539	18303.06
777.874	18237.75
778.209	18069.85
778.543	18048.83
778.878	17908.72
779.212	18014.94
779.547	17923.64
779.881	17952.11
780.215	17868.05
780.55	17896.07
780.884	17803.19
781.218	17724.77
781.552	17710.09
781.886	17663.76
782.22	17529.52
782.554	17421.05
782.888	17349.87
783.222	17283.43
783.556	17164.11
783.889	17194.17
784.223	17032.14
784.557	17113.04
784.89	16943.1
785.224	16945.81
785.557	16901.07
785.891	16844.8
786.224	16844.12
786.558	16799.6
786.891	16646.61
787.224	16539.95
787.557	16537.23
787.891	16579.27
788.224	16455.65
788.557	16526.39
788.89	16374.75
789.223	16452.04
789.556	16260.63
789.888	16321.42
790.221	16182.22
790.554	16119.84
790.887	16047.53
791.219	16061.09
791.552	15967.31
791.884	15879.17
792.217	15957.14
792.549	15776.58
792.882	15705.17
793.214	15676.01
793.546	15704.71
793.879	15613.64
794.211	15533.65
794.543	15603.47
794.875	15534.1
795.207	15526.19
795.539	15404.84
795.871	15417.72
796.203	15348.34
796.535	15247.78
796.867	15243.71
797.198	15225.63
797.53	15132.07
797.862	15037.39
798.193	15103.15
798.525	14998.74
798.856	15089.36
799.188	14901.8
799.519	14863.15
799.85	14686.44
800.182	14698.64
800.513	14802.14
800.844	14671.97
801.175	14626.1
801.506	14700.9
801.837	14603.27
802.168	14613.67
802.499	14587.23
802.83	14432.21
803.161	14385.65
803.491	14378.42
803.822	14302.49
804.153	14304.07
804.483	14228.82
804.814	14163.96
805.145	14142.04
805.475	14132.78
805.805	14101.59
806.136	14075.83
806.466	14069.28
806.796	14109.28
807.126	13963.07
807.457	13931.43
807.787	13901.82
808.117	13823.63
808.447	13742.96
808.777	13786.12
809.107	13768.49
809.436	13739.34
809.766	13715.84
810.096	13632.23
810.426	13579.8
810.755	13678.1
811.085	13620.7
811.414	13555.39
811.744	13549.74
812.073	13447.37
812.403	13510.2
812.732	13393.14
813.061	13409.63
813.39	13319.47
813.719	13261.61
814.049	13400.14
814.378	13290.99
814.707	13270.88
815.036	13263.2
815.365	13205.12
815.693	13030.43
816.022	13102.3
816.351	13020.49
816.68	12915.18
817.008	13027.95
817.337	12868.86
817.665	12885.81
817.994	12952.02
818.322	12872.92
818.651	12773.27
818.979	12827.05
819.307	12820.5
819.636	12780.95
819.964	12631.57
820.292	12766.71
820.62	12761.06
820.948	12703.66
821.276	12718.58
821.604	12668.86
821.932	12741.4
822.259	12771.01
822.587	12627.28
822.915	12619.6
823.243	12712.7
823.57	12697.56
823.898	12759.25
824.225	12580.95
824.553	12624.34
824.88	12677.9
825.207	12662.53
825.535	12660.27
825.862	12705.02
826.189	12696.66
826.516	12755.64
826.843	12731.23
827.17	12684.45
827.497	12790.44
827.824	12738.46
828.151	12747.73
828.478	12648.3
828.805	12730.33
829.131	12648.75
829.458	12655.3
829.785	12681.52
830.111	12606.26
830.438	12703.21
830.764	12666.38
831.09	12717.22
831.417	12555.19
831.743	12600.62
832.069	12592.93
832.395	12563.78
832.722	12641.97
833.048	12573.05
833.374	12655.53
833.7	12507.51
834.026	12577.11
834.351	12512.93
834.677	12545.48
835.003	12559.49
835.329	12493.05
835.654	12556.55
835.98	12465.03
836.306	12492.6
836.631	12480.62
836.956	12451.01
837.282	12545.48
837.607	12444.69
837.932	12417.79
838.258	12349.55
838.583	12373.05
838.908	12322.43
839.233	12387.29
839.558	12319.94
839.883	12263.67
840.208	12197.01
840.533	12226.39
840.858	12240.17
841.182	12256.67
841.507	12293.05
841.832	12106.62
842.156	12171.7
842.481	12107.97
842.805	12126.73
843.13	12076.34
843.454	12119.27
843.778	11991.82
844.103	11988.65
844.427	11990.46
844.751	11968.54
845.075	11937.36
845.399	11910.69
845.723	11880.41
846.047	11789.34
846.371	11711.37
846.695	11758.38
847.019	11676.8
847.343	11605.39
847.666	11577.37
847.99	11465.28
848.313	11538.5
848.637	11430.7
848.96	11517.03
849.284	11391.16
849.607	11315.9
849.931	11335.34
850.254	11167.43
850.577	11063.93
850.9	11051.5
851.223	11058.06
851.546	11073.88
851.869	10967.44
852.192	11086.3
852.515	10940.32
852.838	10776.03
853.161	10851.28
853.483	10802.7
853.806	10762.47
854.129	10722.25
854.451	10693.55
854.774	10682.7
855.096	10639.08
855.419	10623.27
855.741	10579.2
856.063	10570.16
856.385	10521.12
856.708	10431.63
857.03	10480.9
857.352	10456.49
857.674	10439.09
857.996	10395.02
858.318	10298.75
858.64	10263.05
858.961	10354.8
859.283	10280.45
859.605	10195.93
859.926	10195.93
860.248	10222.82
860.57	10145.31
860.891	10199.32
861.212	10117.74
861.534	10084.3
861.855	10056.73
862.176	10061.47
862.498	10030.97
862.819	10042.49
863.14	9984.86
863.461	10005.43
863.782	9980.8
864.103	9972.21
864.424	9895.6
864.745	9934.7
865.065	9861.7
865.386	9872.55
865.707	9894.92
866.027	9861.25
866.348	9891.76
866.668	9817.64
866.989	9810.86
867.309	9687.92
867.63	9749.16
867.95	9761.14
868.27	9753.01
868.59	9708.49
868.91	9693.8
869.23	9657.19
869.55	9662.39
869.87	9688.38
870.19	9649.51
870.51	9670.75
870.83	9618.77
871.15	9614.48
871.469	9579.68
871.789	9605.89
872.109	9563.63
872.428	9546.23
872.748	9528.61
873.067	9560.24
873.386	9494.93
873.706	9560.24
874.025	9432.11
874.344	9486.12
874.663	9470.98
874.982	9397.08
875.301	9397.08
875.62	9407.48
875.939	9405.22
876.258	9316.63
876.577	9334.71
876.896	9266.01
877.214	9274.6
877.533	9284.32
877.852	9267.82
878.17	9298.78
878.489	9288.84
878.807	9236.86
879.125	9287.03
879.444	9209.07
879.762	9195.51
880.08	9159.12
880.398	9164.1
880.716	9200.03
881.034	9111.67
881.352	9122.97
881.67	9105.79
881.988	9097.66
882.306	9052.69
882.624	9053.36
882.941	9007.49
883.259	9011.1
883.577	9016.08
883.894	8954.16
884.212	8925.23
884.529	8948.96
884.846	8893.14
885.164	8839.13
885.481	8897.66
885.798	8882.52
886.115	8779.7
886.432	8801.17
886.75	8793.94
887.067	8775.18
887.383	8802.07
887.7	8794.16
888.017	8696.08
888.334	8710.55
888.651	8712.13
888.967	8650.89
889.284	8666.03
889.6	8658.57
889.917	8547.16
890.233	8609.31
890.55	8612.7
890.866	8582.64
891.182	8490.44
891.498	8525.47
891.815	8459.71
892.131	8420.16
892.447	8411.12
892.763	8339.71
893.079	8322.99
893.395	8296.77
893.71	8315.08
894.026	8270.33
894.342	8287.06
894.657	8224.46
894.973	8221.52
895.289	8255.64
895.604	8218.13
895.92	8188.08
896.235	8111.02
896.55	8155.31
896.865	8121.86
897.181	8004.35
897.496	8048.64
897.811	8003
898.126	7964.8
898.441	7909.21
898.756	7887.97
899.071	7890.91
899.386	7903.34
899.7	7811.36
900.015	7775.88
900.33	7676.9
900.644	7748.09
900.959	7730.01
901.273	7715.55
901.588	7593.52
901.902	7655.66
902.216	7534.31
902.531	7556.23
902.845	7571.59
903.159	7528.66
903.473	7465.38
903.787	7420.41
904.101	7430.13
904.415	7404.37
904.729	7371.37
905.042	7368.44
905.356	7336.8
905.67	7266.29
905.984	7279.85
906.297	7333.41
906.611	7222.9
906.924	7212.51
907.237	7211.83
907.551	7205.95
907.864	7135.22
908.177	7138.84
908.491	7109.23
908.804	7092.29
909.117	7013.87
909.43	7009.12
909.743	6949.24
910.056	6914.21
910.368	6927.54
910.681	6872.18
910.994	6838.51
911.307	6784.27
911.619	6713.99
911.932	6742.46
912.244	6760.99
912.557	6667.44
912.869	6690.26
913.181	6661.56
913.494	6605.29
913.806	6630.15
914.118	6625.63
914.43	6510.61
914.742	6571.85
915.054	6517.84
915.366	6496.37
915.678	6480.1
915.99	6410.27
916.302	6464.96
916.613	6370.95
916.925	6327.56
917.236	6275.58
917.548	6336.6
917.859	6341.57
918.171	6287.56
918.482	6173.21
918.794	6182.93
919.105	6203.27
919.416	6141.58
919.727	6110.16
920.038	6085.08
920.349	6112.88
920.66	6076.04
920.971	6003.5
921.282	6035.14
921.593	5975.7
921.903	5901.36
922.214	5960.56
922.525	5930.06
922.835	5881.24
923.146	5853.9
923.456	5795.14
923.767	5814.8
924.077	5765.54
924.387	5803.96
924.697	5734.35
925.008	5701.14
925.318	5739.1
925.628	5740.23
925.938	5637.86
926.248	5628.59
926.558	5603.28
926.867	5574.13
927.177	5548.37
927.487	5524.87
927.796	5457.07
928.106	5486.68
928.416	5528.26
928.725	5465.44
929.034	5432.44
929.344	5413.01
929.653	5374.36
929.962	5336.17
930.271	5273.58
930.581	5296.4
930.89	5310.64
931.199	5190.41
931.508	5234.93
931.817	5237.42
932.125	5235.16
932.434	5193.35
932.743	5150.87
933.051	5147.93
933.36	5084.88
933.669	5102.51
933.977	5055.28
934.286	5030.87
934.594	5037.88
934.902	5001.94
935.21	4955.39
935.519	4952.68
935.827	4889.18
936.135	4933.47
936.443	4897.99
936.751	4848.5
937.059	4883.08
937.367	4799.01
937.674	4816.19
937.982	4815.06
938.29	4744.1
938.597	4756.3
938.905	4726.02
939.213	4698
939.52	4682.86
939.827	4688.05
940.135	4642.41
940.442	4659.58
940.749	4594.5
941.056	4577.1
941.363	4576.87
941.67	4547.49
941.977	4593.14
942.284	4532.8
942.591	4539.13
942.898	4486.25
943.205	4453.48
943.511	4425.91
943.818	4462.3
944.125	4394.28
944.431	4377.33
944.738	4370.55
945.044	4354.28
945.35	4347.05
945.657	4285.81
945.963	4286.71
946.269	4273.83
946.575	4243.32
946.881	4268.18
947.187	4212.81
947.493	4228.86
947.799	4140.5
948.105	4177.33
948.41	4155.64
948.716	4126.04
949.022	4106.6
949.327	4112.93
949.633	4090.33
949.938	4097.11
950.244	4069.09
950.549	4002.42
950.854	3997
951.16	3990.9
951.465	3963.1
951.77	3967.85
952.075	3970.33
952.38	3893.73
952.685	3969.2
952.99	3907.51
953.294	3889.43
953.599	3873.61
953.904	3858.25
954.209	3803.56
954.513	3809.66
954.818	3827.29
955.122	3780.96
955.426	3758.36
955.731	3776.67
956.035	3776.67
956.339	3684.69
956.643	3713.17
956.948	3682.88
957.252	3684.92
957.556	3668.19
957.86	3638.14
958.163	3620.06
958.467	3609.44
958.771	3621.19
959.075	3570.57
959.378	3568.08
959.682	3587.07
959.985	3548.42
960.289	3514.53
960.592	3512.49
960.896	3522.89
961.199	3471.14
961.502	3486.05
961.805	3460.97
962.108	3489.22
962.411	3423.91
962.714	3396.11
963.017	3416.68
963.32	3400.18
963.623	3370.35
963.926	3375.77
964.228	3313.85
964.531	3329.9
964.833	3330.58
965.136	3295.55
965.438	3293.06
965.741	3241.54
966.043	3274.08
966.345	3240.64
966.648	3233.63
966.95	3254.19
967.252	3204.7
967.554	3221.65
967.856	3160.86
968.158	3104.59
968.46	3114.31
968.761	3127.42
969.063	3093.29
969.365	3122.22
969.666	3095.1
969.968	3105.05
970.269	3076.35
970.571	3094.65
970.872	3034.76
971.174	3023.69
971.475	3017.14
971.776	3000.19
972.077	2987.08
972.378	2955.67
972.679	2935.56
972.98	2971.49
973.281	2950.47
973.582	2932.17
973.883	2912.06
974.183	2876.35
974.484	2871.38
974.785	2871.38
975.085	2845.17
975.386	2823.7
975.686	2883.81
975.986	2842
976.287	2852.85
976.587	2797.03
976.887	2782.34
977.187	2823.7
977.487	2780.08
977.787	2763.81
978.087	2747.54
978.387	2738.05
978.687	2728.78
978.987	2708.45
979.286	2711.61
979.586	2698.73
979.885	2691.05
980.185	2675.23
980.484	2636.36
980.784	2652.4
981.083	2662.12
981.382	2610.37
981.682	2631.16
981.981	2609.24
982.28	2533.76
982.579	2562.46
982.878	2569.01
983.177	2535.34
983.475	2565.62
983.774	2532.41
984.073	2543.25
984.372	2494.67
984.67	2484.04
984.969	2464.38
985.267	2468.23
985.566	2482.69
985.864	2447.44
986.162	2454.22
986.461	2438.4
986.759	2461.45
987.057	2393.43
987.355	2414.44
987.653	2397.95
987.951	2386.87
988.249	2381.22
988.547	2352.75
988.844	2392.3
989.142	2345.52
989.44	2325.63
989.737	2326.76
990.035	2293.54
990.332	2278.17
990.63	2296.93
990.927	2268.68
991.224	2265.52
991.521	2252.19
991.819	2219.19
992.116	2253.32
992.413	2243.15
992.71	2189.59
993.006	2200.89
993.303	2221.68
993.6	2189.82
993.897	2199.53
994.193	2188.91
994.49	2178.97
994.787	2136.48
995.083	2123.15
995.379	2150.72
995.676	2108.24
995.972	2106.88
996.268	2099.2
996.565	2099.65
996.861	2073.43
997.157	2064.39
997.453	2065.3
997.749	2043.15
998.044	2042.25
998.34	2033.89
998.636	2009.71
998.932	1998.41
999.227	1995.92
999.523	1960.44
999.818	1938.97
1000.114	1943.04
1000.409	1964.51
1000.704	1935.81
1001	1934.23
1001.295	1878.86
1001.59	1912.76
1001.885	1889.26
1002.18	1868.92
1002.475	1883.61
1002.77	1892.65
1003.065	1854.68
1003.359	1840.22
1003.654	1846.1
1003.949	1845.64
1004.243	1823.95
1004.538	1785.53
1004.832	1768.58
1005.127	1805.42
1005.421	1761.58
1005.715	1771.97
1006.009	1779.66
1006.304	1762.71
1006.598	1723.61
1006.892	1723.61
1007.186	1719.55
1007.48	1714.35
1007.773	1726.1
1008.067	1696.04
1008.361	1693.11
1008.655	1683.39
1008.948	1667.34
1009.242	1682.26
1009.535	1650.62
1009.829	1650.85
1010.122	1616.05
1010.415	1621.92
1010.708	1607.46
1011.001	1597.06
1011.295	1603.16
1011.588	1603.39
1011.881	1590.74
1012.173	1576.05
1012.466	1588.48
1012.759	1556.61
1013.052	1564.97
1013.344	1562.71
1013.637	1542.6
1013.93	1526.33
1014.222	1528.14
1014.514	1518.87
1014.807	1517.06
1015.099	1462.6
1015.391	1488.36
1015.683	1458.31
1015.976	1462.15
1016.268	1443.17
1016.56	1432.32
1016.851	1438.65
1017.143	1456.5
1017.435	1437.52
1017.727	1407.01
1018.018	1396.84
1018.31	1362.49
1018.602	1393.23
1018.893	1390.51
1019.185	1377.18
1019.476	1347.35
1019.767	1348.93
1020.058	1348.48
1020.35	1338.31
1020.641	1317.97
1020.932	1307.58
1021.223	1310.29
1021.514	1279.78
1021.804	1283.62
1022.095	1282.49
1022.386	1271.65
1022.677	1265.77
1022.967	1293.57
1023.258	1270.29
1023.548	1233.46
1023.839	1241.59
1024.129	1209.73
1024.419	1199.78
1024.709	1216.06
1025	1224.42
1025.29	1174.93
1025.58	1189.16
1025.87	1211.76
1026.16	1178.09
1026.449	1190.97
1026.739	1145.1
1027.029	1147.58
1027.319	1148.94
1027.608	1196.62
1027.898	1114.14
1028.187	1141.03
1028.477	1119.56
1028.766	1094.48
1029.055	1082.95
1029.344	1101.48
1029.634	1059.22
1029.923	1099.67
1030.212	1070.07
1030.501	1087.7
1030.79	1078.88
1031.078	1054.48
1031.367	1061.26
1031.656	1049.73
1031.945	1046.34
1032.233	1038.43
1032.522	1035.72
1032.81	1024.42
1033.099	1020.58
1033.387	1019.68
1033.675	988.26
1033.963	1008.15
1034.251	1005.89
1034.54	961.37
1034.828	989.39
1035.116	974.48
1035.403	963.18
1035.691	963.86
1035.979	952.56
1036.267	926.8
1036.554	961.82
1036.842	924.54
1037.129	928.15
1037.417	922.96
1037.704	910.75
1037.992	894.48
1038.279	898.32
1038.566	904.88
1038.853	904.88
1039.14	904.88
